
Integration time [ms]:   1.000
Averaging Nr. [scans]: 1
Smoothing Nr. [pixels]: 0
Data measured with spectrometer [name]: UV1
Wave   ;Sample   ;Dark     ;Reference
[nm]   ;[counts] ;[counts] ;[counts] 

236.381;  151.350;  175.825;    0.000
236.451;  214.350;  220.825;    0.000
236.520;  170.350;  178.825;    0.000
236.590;  166.350;  182.825;    0.000
236.660;  174.350;  180.825;    0.000
236.730;  177.350;  201.825;    0.000
236.799;  163.350;  168.825;    0.000
236.869;  189.350;  205.825;    0.000
236.939;  157.350;  175.825;    0.000
237.009;  149.350;  186.825;    0.000
237.078;  194.350;  200.825;    0.000
237.148;  185.350;  156.825;    0.000
237.218;  184.350;  190.825;    0.000
237.287;  188.350;  167.825;    0.000
237.357;  166.350;  213.825;    0.000
237.427;  153.350;  164.825;    0.000
237.496;  738.350;  210.825;    0.000
237.566;  684.350;  193.825;    0.000
237.636;  714.350;  179.825;    0.000
237.705;  735.350;  218.825;    0.000
237.775;  664.350;  160.825;    0.000
237.845;  731.350;  207.825;    0.000
237.914;  720.350;  180.825;    0.000
237.984;  721.350;  207.825;    0.000
238.054;  689.350;  149.825;    0.000
238.123;  694.350;  190.825;    0.000
238.193;  671.350;  167.825;    0.000
238.263;  748.350;  172.825;    0.000
238.332;  726.350;  173.825;    0.000
238.402;  712.350;  214.825;    0.000
238.471;  659.350;  181.825;    0.000
238.541;  669.350;  177.825;    0.000
238.611;  684.350;  138.825;    0.000
238.680;  651.350;  168.825;    0.000
238.750;  694.350;  171.825;    0.000
238.819;  713.350;  156.825;    0.000
238.889;  684.350;  194.825;    0.000
238.958;  734.350;  185.825;    0.000
239.028;  749.350;  170.825;    0.000
239.097;  677.350;  159.825;    0.000
239.167;  724.350;  208.825;    0.000
239.237;  722.350;  167.825;    0.000
239.306;  659.350;  154.825;    0.000
239.376;  694.350;  183.825;    0.000
239.445;  716.350;  221.825;    0.000
239.515;  690.350;  208.825;    0.000
239.584;  681.350;  177.825;    0.000
239.654;  641.350;  133.825;    0.000
239.723;  729.350;  167.825;    0.000
239.793;  654.350;  190.825;    0.000
239.862;  667.350;  192.825;    0.000
239.932;  700.350;  174.825;    0.000
240.001;  684.350;  166.825;    0.000
240.070;  640.350;  179.825;    0.000
240.140;  655.350;  191.825;    0.000
240.209;  619.350;  134.825;    0.000
240.279;  656.350;  185.825;    0.000
240.348;  738.350;  193.825;    0.000
240.418;  640.350;  149.825;    0.000
240.487;  659.350;  197.825;    0.000
240.556;  675.350;  193.825;    0.000
240.626;  650.350;  178.825;    0.000
240.695;  693.350;  194.825;    0.000
240.765;  692.350;  178.825;    0.000
240.834;  649.350;  190.825;    0.000
240.903;  661.350;  212.825;    0.000
240.973;  637.350;  153.825;    0.000
241.042;  666.350;  177.825;    0.000
241.112;  696.350;  193.825;    0.000
241.181;  658.350;  171.825;    0.000
241.250;  676.350;  152.825;    0.000
241.320;  712.350;  176.825;    0.000
241.389;  653.350;  186.825;    0.000
241.458;  666.350;  182.825;    0.000
241.528;  697.350;  175.825;    0.000
241.597;  656.350;  180.825;    0.000
241.666;  620.350;  162.825;    0.000
241.736;  676.350;  187.825;    0.000
241.805;  723.350;  173.825;    0.000
241.874;  722.350;  177.825;    0.000
241.943;  664.350;  208.825;    0.000
242.013;  684.350;  183.825;    0.000
242.082;  678.350;  171.825;    0.000
242.151;  625.350;  208.825;    0.000
242.221;  605.350;  160.825;    0.000
242.290;  620.350;  200.825;    0.000
242.359;  620.350;  167.825;    0.000
242.428;  687.350;  213.825;    0.000
242.498;  622.350;  156.825;    0.000
242.567;  704.350;  200.825;    0.000
242.636;  678.350;  178.825;    0.000
242.705;  696.350;  185.825;    0.000
242.774;  661.350;  190.825;    0.000
242.844;  615.350;  194.825;    0.000
242.913;  644.350;  162.825;    0.000
242.982;  577.350;  189.825;    0.000
243.051;  646.350;  176.825;    0.000
243.120;  642.350;  213.825;    0.000
243.190;  637.350;  155.825;    0.000
243.259;  654.350;  183.825;    0.000
243.328;  652.350;  170.825;    0.000
243.397;  657.350;  224.825;    0.000
243.466;  611.350;  172.825;    0.000
243.535;  644.350;  145.825;    0.000
243.605;  623.350;  157.825;    0.000
243.674;  614.350;  199.825;    0.000
243.743;  674.350;  196.825;    0.000
243.812;  637.350;  152.825;    0.000
243.881;  670.350;  188.825;    0.000
243.950;  665.350;  154.825;    0.000
244.019;  641.350;  195.825;    0.000
244.088;  683.350;  164.825;    0.000
244.158;  670.350;  220.825;    0.000
244.227;  597.350;  150.825;    0.000
244.296;  626.350;  153.825;    0.000
244.365;  658.350;  195.825;    0.000
244.434;  607.350;  136.825;    0.000
244.503;  647.350;  172.825;    0.000
244.572;  570.350;  129.825;    0.000
244.641;  649.350;  132.825;    0.000
244.710;  651.350;  185.825;    0.000
244.779;  615.350;  164.825;    0.000
244.848;  597.350;  132.825;    0.000
244.917;  611.350;  196.825;    0.000
244.986;  610.350;  148.825;    0.000
245.055;  651.350;  192.825;    0.000
245.124;  597.350;  170.825;    0.000
245.193;  638.350;  172.825;    0.000
245.262;  625.350;  146.825;    0.000
245.331;  605.350;  178.825;    0.000
245.400;  615.350;  108.825;    0.000
245.469;  604.350;  173.825;    0.000
245.538;  627.350;  180.825;    0.000
245.607;  610.350;  171.825;    0.000
245.676;  592.350;  149.825;    0.000
245.745;  587.350;  194.825;    0.000
245.814;  586.350;  186.825;    0.000
245.883;  595.350;  192.825;    0.000
245.952;  597.350;  169.825;    0.000
246.021;  582.350;  190.825;    0.000
246.090;  611.350;  181.825;    0.000
246.159;  609.350;  179.825;    0.000
246.227;  531.350;  182.825;    0.000
246.296;  582.350;  182.825;    0.000
246.365;  591.350;  171.825;    0.000
246.434;  639.350;  218.825;    0.000
246.503;  562.350;  147.825;    0.000
246.572;  557.350;  227.825;    0.000
246.641;  549.350;  193.825;    0.000
246.710;  595.350;  207.825;    0.000
246.779;  541.350;  181.825;    0.000
246.847;  571.350;  179.825;    0.000
246.916;  546.350;  155.825;    0.000
246.985;  538.350;  168.825;    0.000
247.054;  605.350;  137.825;    0.000
247.123;  526.350;  128.825;    0.000
247.192;  599.350;  163.825;    0.000
247.260;  559.350;  173.825;    0.000
247.329;  555.350;  174.825;    0.000
247.398;  596.350;  238.825;    0.000
247.467;  517.350;  168.825;    0.000
247.536;  619.350;  203.825;    0.000
247.604;  579.350;  194.825;    0.000
247.673;  571.350;  145.825;    0.000
247.742;  526.350;  167.825;    0.000
247.811;  582.350;  180.825;    0.000
247.879;  553.350;  187.825;    0.000
247.948;  595.350;  187.825;    0.000
248.017;  551.350;  170.825;    0.000
248.086;  597.350;  223.825;    0.000
248.154;  549.350;  160.825;    0.000
248.223;  578.350;  163.825;    0.000
248.292;  547.350;  201.825;    0.000
248.361;  593.350;  205.825;    0.000
248.429;  590.350;  191.825;    0.000
248.498;  604.350;  194.825;    0.000
248.567;  601.350;  217.825;    0.000
248.635;  551.350;  224.825;    0.000
248.704;  578.350;  204.825;    0.000
248.773;  493.350;  175.825;    0.000
248.841;  550.350;  157.825;    0.000
248.910;  564.350;  206.825;    0.000
248.979;  557.350;  170.825;    0.000
249.047;  571.350;  178.825;    0.000
249.116;  532.350;  183.825;    0.000
249.185;  589.350;  202.825;    0.000
249.253;  554.350;  159.825;    0.000
249.322;  554.350;  177.825;    0.000
249.390;  525.350;  157.825;    0.000
249.459;  590.350;  211.825;    0.000
249.528;  558.350;  181.825;    0.000
249.596;  539.350;  179.825;    0.000
249.665;  529.350;  176.825;    0.000
249.733;  582.350;  186.825;    0.000
249.802;  553.350;  185.825;    0.000
249.871;  543.350;  166.825;    0.000
249.939;  583.350;  163.825;    0.000
250.008;  572.350;  212.825;    0.000
250.076;  563.350;  227.825;    0.000
250.145;  522.350;  172.825;    0.000
250.213;  477.350;  173.825;    0.000
250.282;  555.350;  189.825;    0.000
250.350;  506.350;  166.825;    0.000
250.419;  593.350;  161.825;    0.000
250.487;  583.350;  178.825;    0.000
250.556;  578.350;  208.825;    0.000
250.624;  511.350;  190.825;    0.000
250.693;  519.350;  163.825;    0.000
250.761;  558.350;  194.825;    0.000
250.830;  569.350;  225.825;    0.000
250.898;  527.350;  140.825;    0.000
250.967;  539.350;  167.825;    0.000
251.035;  531.350;  155.825;    0.000
251.104;  545.350;  189.825;    0.000
251.172;  508.350;  136.825;    0.000
251.241;  487.350;  148.825;    0.000
251.309;  537.350;  201.825;    0.000
251.378;  537.350;  169.825;    0.000
251.446;  482.350;  178.825;    0.000
251.514;  494.350;  206.825;    0.000
251.583;  567.350;  178.825;    0.000
251.651;  506.350;  168.825;    0.000
251.720;  526.350;  190.825;    0.000
251.788;  535.350;  209.825;    0.000
251.856;  471.350;  173.825;    0.000
251.925;  503.350;  171.825;    0.000
251.993;  523.350;  188.825;    0.000
252.062;  503.350;  169.825;    0.000
252.130;  473.350;  196.825;    0.000
252.198;  547.350;  210.825;    0.000
252.267;  483.350;  181.825;    0.000
252.335;  513.350;  164.825;    0.000
252.403;  519.350;  152.825;    0.000
252.472;  494.350;  166.825;    0.000
252.540;  517.350;  189.825;    0.000
252.608;  517.350;  198.825;    0.000
252.677;  492.350;  156.825;    0.000
252.745;  495.350;  184.825;    0.000
252.813;  503.350;  163.825;    0.000
252.881;  406.350;  130.825;    0.000
252.950;  442.350;  189.825;    0.000
253.018;  484.350;  164.825;    0.000
253.086;  461.350;  172.825;    0.000
253.155;  455.350;  205.825;    0.000
253.223;  447.350;  175.825;    0.000
253.291;  435.350;  176.825;    0.000
253.359;  422.350;  182.825;    0.000
253.428;  434.350;  222.825;    0.000
253.496;  439.350;  166.825;    0.000
253.564;  399.350;  135.825;    0.000
253.632;  413.350;  184.825;    0.000
253.700;  399.350;  173.825;    0.000
253.769;  459.350;  163.825;    0.000
253.837;  391.350;  179.825;    0.000
253.905;  403.350;  157.825;    0.000
253.973;  410.350;  164.825;    0.000
254.041;  435.350;  170.825;    0.000
254.110;  445.350;  169.825;    0.000
254.178;  405.350;  165.825;    0.000
254.246;  393.350;  126.825;    0.000
254.314;  377.350;  166.825;    0.000
254.382;  413.350;  169.825;    0.000
254.450;  346.350;  170.825;    0.000
254.518;  432.350;  196.825;    0.000
254.587;  344.350;  161.825;    0.000
254.655;  446.350;  187.825;    0.000
254.723;  408.350;  144.825;    0.000
254.791;  405.350;  175.825;    0.000
254.859;  382.350;  168.825;    0.000
254.927;  450.350;  198.825;    0.000
254.995;  371.350;  165.825;    0.000
255.063;  374.350;  150.825;    0.000
255.131;  428.350;  181.825;    0.000
255.199;  407.350;  160.825;    0.000
255.267;  379.350;  131.825;    0.000
255.336;  401.350;  188.825;    0.000
255.404;  367.350;  163.825;    0.000
255.472;  426.350;  192.825;    0.000
255.540;  435.350;  158.825;    0.000
255.608;  425.350;  147.825;    0.000
255.676;  464.350;  166.825;    0.000
255.744;  441.350;  159.825;    0.000
255.812;  403.350;  164.825;    0.000
255.880;  459.350;  195.825;    0.000
255.948;  428.350;  167.825;    0.000
256.016;  422.350;  185.825;    0.000
256.084;  458.350;  191.825;    0.000
256.152;  423.350;  214.825;    0.000
256.220;  435.350;  195.825;    0.000
256.288;  402.350;  185.825;    0.000
256.356;  447.350;  168.825;    0.000
256.424;  401.350;  161.825;    0.000
256.491;  457.350;  161.825;    0.000
256.559;  423.350;  157.825;    0.000
256.627;  489.350;  164.825;    0.000
256.695;  467.350;  146.825;    0.000
256.763;  470.350;  194.825;    0.000
256.831;  434.350;  182.825;    0.000
256.899;  483.350;  192.825;    0.000
256.967;  486.350;  172.825;    0.000
257.035;  473.350;  169.825;    0.000
257.103;  485.350;  223.825;    0.000
257.171;  441.350;  141.825;    0.000
257.238;  485.350;  146.825;    0.000
257.306;  457.350;  180.825;    0.000
257.374;  452.350;  138.825;    0.000
257.442;  474.350;  135.825;    0.000
257.510;  534.350;  130.825;    0.000
257.578;  450.350;  123.825;    0.000
257.646;  528.350;  162.825;    0.000
257.713;  494.350;  149.825;    0.000
257.781;  519.350;  125.825;    0.000
257.849;  563.350;  149.825;    0.000
257.917;  525.350;  177.825;    0.000
257.985;  472.350;  143.825;    0.000
258.052;  535.350;  154.825;    0.000
258.120;  519.350;  162.825;    0.000
258.188;  529.350;  172.825;    0.000
258.256;  510.350;  160.825;    0.000
258.324;  596.350;  209.825;    0.000
258.391;  535.350;  153.825;    0.000
258.459;  535.350;  133.825;    0.000
258.527;  592.350;  160.825;    0.000
258.595;  549.350;  128.825;    0.000
258.662;  548.350;  114.825;    0.000
258.730;  599.350;  192.825;    0.000
258.798;  583.350;  144.825;    0.000
258.865;  574.350;  140.825;    0.000
258.933;  564.350;  150.825;    0.000
259.001;  564.350;  149.825;    0.000
259.069;  577.350;  110.825;    0.000
259.136;  645.350;  150.825;    0.000
259.204;  611.350;  156.825;    0.000
259.272;  670.350;  185.825;    0.000
259.339;  556.350;  148.825;    0.000
259.407;  608.350;  163.825;    0.000
259.475;  608.350;  129.825;    0.000
259.542;  643.350;  144.825;    0.000
259.610;  673.350;  164.825;    0.000
259.677;  670.350;  188.825;    0.000
259.745;  674.350;  113.825;    0.000
259.813;  696.350;  188.825;    0.000
259.880;  685.350;  174.825;    0.000
259.948;  682.350;  166.825;    0.000
260.016;  723.350;  150.825;    0.000
260.083;  685.350;  178.825;    0.000
260.151;  664.350;  120.825;    0.000
260.218;  708.350;  175.825;    0.000
260.286;  701.350;  155.825;    0.000
260.353;  705.350;  165.825;    0.000
260.421;  696.350;  169.825;    0.000
260.489;  772.350;  194.825;    0.000
260.556;  752.350;  161.825;    0.000
260.624;  726.350;  179.825;    0.000
260.691;  800.350;  174.825;    0.000
260.759;  796.350;  164.825;    0.000
260.826;  766.350;  125.825;    0.000
260.894;  768.350;  164.825;    0.000
260.961;  721.350;  147.825;    0.000
261.029;  752.350;  167.825;    0.000
261.096;  786.350;  136.825;    0.000
261.164;  741.350;  146.825;    0.000
261.231;  826.350;  190.825;    0.000
261.299;  834.350;  171.825;    0.000
261.366;  824.350;  165.825;    0.000
261.434;  811.350;  160.825;    0.000
261.501;  816.350;  149.825;    0.000
261.568;  811.350;  155.825;    0.000
261.636;  821.350;  137.825;    0.000
261.703;  952.350;  186.825;    0.000
261.771;  887.350;  162.825;    0.000
261.838;  838.350;  190.825;    0.000
261.906;  839.350;  133.825;    0.000
261.973;  918.350;  202.825;    0.000
262.040;  886.350;  179.825;    0.000
262.108;  877.350;  161.825;    0.000
262.175;  855.350;  155.825;    0.000
262.243;  887.350;  158.825;    0.000
262.310;  831.350;  129.825;    0.000
262.377;  935.350;  157.825;    0.000
262.445;  946.350;  132.825;    0.000
262.512;  993.350;  161.825;    0.000
262.579;  925.350;  151.825;    0.000
262.647;  955.350;  174.825;    0.000
262.714;  977.350;  174.825;    0.000
262.781;  947.350;  164.825;    0.000
262.849;  934.350;  168.825;    0.000
262.916; 1022.350;  153.825;    0.000
262.983;  977.350;  201.825;    0.000
263.051;  948.350;  117.825;    0.000
263.118;  941.350;  150.825;    0.000
263.185; 1063.350;  172.825;    0.000
263.252; 1019.350;  154.825;    0.000
263.320; 1024.350;  152.825;    0.000
263.387;  984.350;  136.825;    0.000
263.454; 1018.350;  167.825;    0.000
263.522; 1019.350;  122.825;    0.000
263.589; 1105.350;  147.825;    0.000
263.656; 1002.350;  130.825;    0.000
263.723; 1034.350;  182.825;    0.000
263.790; 1029.350;  163.825;    0.000
263.858; 1067.350;  161.825;    0.000
263.925; 1090.350;  153.825;    0.000
263.992; 1033.350;  139.825;    0.000
264.059; 1137.350;  141.825;    0.000
264.126; 1030.350;  153.825;    0.000
264.194; 1063.350;  144.825;    0.000
264.261; 1129.350;  188.825;    0.000
264.328; 1106.350;  161.825;    0.000
264.395; 1064.350;  184.825;    0.000
264.462; 1145.350;  162.825;    0.000
264.529; 1129.350;  178.825;    0.000
264.597; 1112.350;  160.825;    0.000
264.664; 1145.350;  158.825;    0.000
264.731; 1132.350;  176.825;    0.000
264.798; 1110.350;  137.825;    0.000
264.865; 1172.350;  175.825;    0.000
264.932; 1142.350;  162.825;    0.000
264.999; 1188.350;  153.825;    0.000
265.066; 1102.350;  168.825;    0.000
265.133; 1139.350;  142.825;    0.000
265.201; 1270.350;  163.825;    0.000
265.268; 1223.350;  143.825;    0.000
265.335; 1198.350;  156.825;    0.000
265.402; 1119.350;  136.825;    0.000
265.469; 1207.350;  127.825;    0.000
265.536; 1229.350;  159.825;    0.000
265.603; 1239.350;  191.825;    0.000
265.670; 1221.350;  136.825;    0.000
265.737; 1195.350;  186.825;    0.000
265.804; 1251.350;  147.825;    0.000
265.871; 1184.350;  147.825;    0.000
265.938; 1287.350;  153.825;    0.000
266.005; 1272.350;  172.825;    0.000
266.072; 1223.350;  151.825;    0.000
266.139; 1283.350;  175.825;    0.000
266.206; 1250.350;  165.825;    0.000
266.273; 1345.350;  162.825;    0.000
266.340; 1202.350;  150.825;    0.000
266.407; 1265.350;  169.825;    0.000
266.474; 1293.350;  151.825;    0.000
266.541; 1293.350;  164.825;    0.000
266.608; 1250.350;  111.825;    0.000
266.675; 1337.350;  173.825;    0.000
266.742; 1350.350;  148.825;    0.000
266.808; 1314.350;  185.825;    0.000
266.875; 1330.350;  188.825;    0.000
266.942; 1263.350;  131.825;    0.000
267.009; 1320.350;  184.825;    0.000
267.076; 1319.350;  200.825;    0.000
267.143; 1377.350;  216.825;    0.000
267.210; 1349.350;  138.825;    0.000
267.277; 1323.350;  143.825;    0.000
267.344; 1330.350;  172.825;    0.000
267.410; 1391.350;  172.825;    0.000
267.477; 1368.350;  160.825;    0.000
267.544; 1404.350;  175.825;    0.000
267.611; 1395.350;  189.825;    0.000
267.678; 1397.350;  162.825;    0.000
267.745; 1341.350;  206.825;    0.000
267.811; 1406.350;  146.825;    0.000
267.878; 1316.350;  147.825;    0.000
267.945; 1395.350;  170.825;    0.000
268.012; 1408.350;  153.825;    0.000
268.079; 1396.350;  185.825;    0.000
268.145; 1387.350;  197.825;    0.000
268.212; 1408.350;  167.825;    0.000
268.279; 1427.350;  145.825;    0.000
268.346; 1352.350;  182.825;    0.000
268.412; 1422.350;  144.825;    0.000
268.479; 1385.350;  186.825;    0.000
268.546; 1434.350;  147.825;    0.000
268.613; 1381.350;  188.825;    0.000
268.679; 1370.350;  173.825;    0.000
268.746; 1447.350;  204.825;    0.000
268.813; 1424.350;  199.825;    0.000
268.879; 1333.350;  157.825;    0.000
268.946; 1356.350;  192.825;    0.000
269.013; 1369.350;  136.825;    0.000
269.079; 1395.350;  166.825;    0.000
269.146; 1358.350;  129.825;    0.000
269.213; 1386.350;  178.825;    0.000
269.280; 1438.350;  148.825;    0.000
269.346; 1414.350;  194.825;    0.000
269.413; 1317.350;  135.825;    0.000
269.479; 1325.350;  180.825;    0.000
269.546; 1391.350;  169.825;    0.000
269.613; 1379.350;  160.825;    0.000
269.679; 1399.350;  161.825;    0.000
269.746; 1332.350;  143.825;    0.000
269.813; 1348.350;  172.825;    0.000
269.879; 1433.350;  152.825;    0.000
269.946; 1357.350;  156.825;    0.000
270.012; 1405.350;  190.825;    0.000
270.079; 1400.350;  143.825;    0.000
270.145; 1440.350;  148.825;    0.000
270.212; 1466.350;  176.825;    0.000
270.279; 1390.350;  168.825;    0.000
270.345; 1392.350;  143.825;    0.000
270.412; 1444.350;  155.825;    0.000
270.478; 1326.350;  176.825;    0.000
270.545; 1361.350;  112.825;    0.000
270.611; 1445.350;  186.825;    0.000
270.678; 1364.350;  141.825;    0.000
270.744; 1402.350;  145.825;    0.000
270.811; 1403.350;  120.825;    0.000
270.877; 1424.350;  118.825;    0.000
270.944; 1356.350;  135.825;    0.000
271.010; 1318.350;  128.825;    0.000
271.077; 1365.350;  176.825;    0.000
271.143; 1409.350;  162.825;    0.000
271.210; 1384.350;  133.825;    0.000
271.276; 1396.350;  107.825;    0.000
271.342; 1397.350;  202.825;    0.000
271.409; 1382.350;  160.825;    0.000
271.475; 1394.350;  165.825;    0.000
271.542; 1382.350;  152.825;    0.000
271.608; 1390.350;  163.825;    0.000
271.675; 1312.350;  149.825;    0.000
271.741; 1393.350;  164.825;    0.000
271.807; 1419.350;  128.825;    0.000
271.874; 1513.350;  148.825;    0.000
271.940; 1359.350;  179.825;    0.000
272.007; 1410.350;  148.825;    0.000
272.073; 1342.350;  146.825;    0.000
272.139; 1405.350;  166.825;    0.000
272.206; 1432.350;  198.825;    0.000
272.272; 1397.350;  201.825;    0.000
272.338; 1491.350;  208.825;    0.000
272.405; 1389.350;  181.825;    0.000
272.471; 1422.350;  167.825;    0.000
272.537; 1490.350;  189.825;    0.000
272.604; 1418.350;  162.825;    0.000
272.670; 1373.350;  194.825;    0.000
272.736; 1382.350;  176.825;    0.000
272.802; 1407.350;  163.825;    0.000
272.869; 1385.350;  170.825;    0.000
272.935; 1425.350;  145.825;    0.000
273.001; 1388.350;  149.825;    0.000
273.068; 1451.350;  172.825;    0.000
273.134; 1405.350;  155.825;    0.000
273.200; 1464.350;  183.825;    0.000
273.266; 1382.350;  160.825;    0.000
273.333; 1446.350;  190.825;    0.000
273.399; 1397.350;  132.825;    0.000
273.465; 1430.350;  179.825;    0.000
273.531; 1412.350;  161.825;    0.000
273.597; 1477.350;  194.825;    0.000
273.664; 1437.350;  193.825;    0.000
273.730; 1516.350;  180.825;    0.000
273.796; 1489.350;  145.825;    0.000
273.862; 1466.350;  176.825;    0.000
273.928; 1496.350;  169.825;    0.000
273.995; 1570.350;  202.825;    0.000
274.061; 1480.350;  176.825;    0.000
274.127; 1552.350;  178.825;    0.000
274.193; 1479.350;  106.825;    0.000
274.259; 1518.350;  186.825;    0.000
274.325; 1531.350;  163.825;    0.000
274.391; 1600.350;  162.825;    0.000
274.457; 1528.350;  145.825;    0.000
274.524; 1573.350;  189.825;    0.000
274.590; 1511.350;  161.825;    0.000
274.656; 1519.350;  157.825;    0.000
274.722; 1530.350;  143.825;    0.000
274.788; 1592.350;  166.825;    0.000
274.854; 1690.350;  200.825;    0.000
274.920; 1623.350;  132.825;    0.000
274.986; 1685.350;  184.825;    0.000
275.052; 1615.350;  169.825;    0.000
275.118; 1640.350;  153.825;    0.000
275.184; 1695.350;  182.825;    0.000
275.250; 1671.350;  124.825;    0.000
275.316; 1716.350;  154.825;    0.000
275.382; 1707.350;  150.825;    0.000
275.448; 1752.350;  180.825;    0.000
275.514; 1757.350;  143.825;    0.000
275.580; 1791.350;  120.825;    0.000
275.646; 1826.350;  127.825;    0.000
275.712; 1785.350;  109.825;    0.000
275.778; 1788.350;  126.825;    0.000
275.844; 1752.350;  155.825;    0.000
275.910; 1833.350;  164.825;    0.000
275.976; 1809.350;  161.825;    0.000
276.042; 1948.350;  152.825;    0.000
276.108; 1988.350;  159.825;    0.000
276.174; 1904.350;  149.825;    0.000
276.240; 1896.350;  112.825;    0.000
276.306; 2050.350;  142.825;    0.000
276.372; 1946.350;  136.825;    0.000
276.437; 2042.350;  141.825;    0.000
276.503; 2106.350;  150.825;    0.000
276.569; 2164.350;  178.825;    0.000
276.635; 2157.350;  117.825;    0.000
276.701; 2239.350;  174.825;    0.000
276.767; 2283.350;  136.825;    0.000
276.833; 2291.350;  119.825;    0.000
276.899; 2272.350;  171.825;    0.000
276.964; 2366.350;  146.825;    0.000
277.030; 2431.350;  157.825;    0.000
277.096; 2573.350;  124.825;    0.000
277.162; 2623.350;  185.825;    0.000
277.228; 2736.350;  125.825;    0.000
277.293; 2809.350;  159.825;    0.000
277.359; 2871.350;  186.825;    0.000
277.425; 3066.350;  176.825;    0.000
277.491; 3243.350;  140.825;    0.000
277.557; 3746.350;  172.825;    0.000
277.622; 4658.350;  187.825;    0.000
277.688; 4671.350;  203.825;    0.000
277.754; 4853.350;  170.825;    0.000
277.820; 5253.350;  142.825;    0.000
277.885; 6053.350;  182.825;    0.000
277.951; 7263.350;  171.825;    0.000
278.017; 6601.350;  173.825;    0.000
278.083; 5908.350;  151.825;    0.000
278.148; 5638.350;  159.825;    0.000
278.214; 5784.350;  173.825;    0.000
278.280; 6125.350;  137.825;    0.000
278.345; 5808.350;  190.825;    0.000
278.411; 5298.350;  149.825;    0.000
278.477; 5719.350;  157.825;    0.000
278.542; 6090.350;  136.825;    0.000
278.608; 6426.350;  144.825;    0.000
278.674; 7348.350;  215.825;    0.000
278.739; 7859.350;  148.825;    0.000
278.805; 8715.350;  152.825;    0.000
278.871;10141.350;  170.825;    0.000
278.936;12233.350;  180.825;    0.000
279.002;16934.350;  177.825;    0.000
279.067;21219.350;  172.825;    0.000
279.133;21031.350;  160.825;    0.000
279.199;19428.350;  165.825;    0.000
279.264;20280.350;  130.825;    0.000
279.330;23325.350;  154.825;    0.000
279.395;28557.350;  170.825;    0.000
279.461;33187.352;  136.825;    0.000
279.527;36106.352;  174.825;    0.000
279.592;34962.352;  179.825;    0.000
279.658;32298.350;  187.825;    0.000
279.723;30954.350;  201.825;    0.000
279.789;31381.350;  194.825;    0.000
279.854;28645.350;  171.825;    0.000
279.920;25029.350;  183.825;    0.000
279.985;23237.350;  173.825;    0.000
280.051;23771.350;  194.825;    0.000
280.116;26880.350;  197.825;    0.000
280.182;32234.350;  171.825;    0.000
280.247;35242.352;  131.825;    0.000
280.313;31766.350;  166.825;    0.000
280.378;25117.350;  159.825;    0.000
280.444;19582.350;  190.825;    0.000
280.509;16109.350;  189.825;    0.000
280.574;13725.350;  171.825;    0.000
280.640;12097.350;  167.825;    0.000
280.705;11016.350;  129.825;    0.000
280.771; 9897.350;  193.825;    0.000
280.836; 9030.350;  172.825;    0.000
280.902; 8508.350;  189.825;    0.000
280.967; 8004.350;  143.825;    0.000
281.032; 7480.350;  182.825;    0.000
281.098; 7198.350;  172.825;    0.000
281.163; 6743.350;  184.825;    0.000
281.229; 6404.350;  210.825;    0.000
281.294; 6092.350;  223.825;    0.000
281.359; 5940.350;  197.825;    0.000
281.425; 5671.350;  192.825;    0.000
281.490; 5525.350;  162.825;    0.000
281.555; 5182.350;  193.825;    0.000
281.621; 5088.350;  141.825;    0.000
281.686; 4858.350;  166.825;    0.000
281.751; 4681.350;  204.825;    0.000
281.816; 4512.350;  159.825;    0.000
281.882; 4343.350;  146.825;    0.000
281.947; 4388.350;  176.825;    0.000
282.012; 4135.350;  139.825;    0.000
282.078; 4132.350;  186.825;    0.000
282.143; 4058.350;  151.825;    0.000
282.208; 3919.350;  213.825;    0.000
282.273; 3840.350;  160.825;    0.000
282.339; 3759.350;  175.825;    0.000
282.404; 3738.350;  157.825;    0.000
282.469; 3605.350;  185.825;    0.000
282.534; 3513.350;  166.825;    0.000
282.600; 3636.350;  168.825;    0.000
282.665; 3531.350;  167.825;    0.000
282.730; 3381.350;  148.825;    0.000
282.795; 3416.350;  186.825;    0.000
282.860; 3300.350;  161.825;    0.000
282.926; 3382.350;  178.825;    0.000
282.991; 3241.350;  139.825;    0.000
283.056; 3316.350;  158.825;    0.000
283.121; 3100.350;  191.825;    0.000
283.186; 3100.350;  182.825;    0.000
283.251; 3023.350;  181.825;    0.000
283.316; 3066.350;  187.825;    0.000
283.382; 3046.350;  175.825;    0.000
283.447; 3000.350;  183.825;    0.000
283.512; 2924.350;  175.825;    0.000
283.577; 2909.350;  180.825;    0.000
283.642; 2911.350;  193.825;    0.000
283.707; 2911.350;  145.825;    0.000
283.772; 2818.350;  143.825;    0.000
283.837; 2826.350;  143.825;    0.000
283.902; 2806.350;  150.825;    0.000
283.967; 2905.350;  166.825;    0.000
284.032; 2829.350;  126.825;    0.000
284.097; 2905.350;  201.825;    0.000
284.163; 2811.350;  133.825;    0.000
284.228; 2759.350;  193.825;    0.000
284.293; 2732.350;  157.825;    0.000
284.358; 2844.350;  185.825;    0.000
284.423; 2810.350;  142.825;    0.000
284.488; 2867.350;  192.825;    0.000
284.553; 2889.350;  146.825;    0.000
284.618; 2922.350;  154.825;    0.000
284.683; 2912.350;  172.825;    0.000
284.748; 3013.350;  195.825;    0.000
284.812; 3333.350;  190.825;    0.000
284.877; 3552.350;  169.825;    0.000
284.942; 3925.350;  195.825;    0.000
285.007; 4656.350;  204.825;    0.000
285.072; 6056.350;  189.825;    0.000
285.137; 9408.350;  149.825;    0.000
285.202;12296.350;  164.825;    0.000
285.267;10870.350;  161.825;    0.000
285.332; 7690.350;  140.825;    0.000
285.397; 5772.350;  142.825;    0.000
285.462; 4776.350;  146.825;    0.000
285.527; 4308.350;  132.825;    0.000
285.591; 3769.350;  160.825;    0.000
285.656; 3521.350;  136.825;    0.000
285.721; 3290.350;  135.825;    0.000
285.786; 3156.350;  171.825;    0.000
285.851; 2902.350;  168.825;    0.000
285.916; 2992.350;  178.825;    0.000
285.981; 2766.350;  152.825;    0.000
286.045; 2851.350;  167.825;    0.000
286.110; 2716.350;  187.825;    0.000
286.175; 2695.350;  162.825;    0.000
286.240; 2624.350;  163.825;    0.000
286.305; 2683.350;  190.825;    0.000
286.369; 2695.350;  143.825;    0.000
286.434; 2606.350;  185.825;    0.000
286.499; 2595.350;  195.825;    0.000
286.564; 2478.350;  173.825;    0.000
286.628; 2487.350;  159.825;    0.000
286.693; 2361.350;  175.825;    0.000
286.758; 2469.350;  170.825;    0.000
286.823; 2399.350;  129.825;    0.000
286.887; 2365.350;  172.825;    0.000
286.952; 2445.350;  163.825;    0.000
287.017; 2458.350;  217.825;    0.000
287.082; 2330.350;  165.825;    0.000
287.146; 2417.350;  176.825;    0.000
287.211; 2394.350;  192.825;    0.000
287.276; 2384.350;  147.825;    0.000
287.340; 2325.350;  162.825;    0.000
287.405; 2457.350;  196.825;    0.000
287.470; 2274.350;  148.825;    0.000
287.534; 2359.350;  166.825;    0.000
287.599; 2354.350;  193.825;    0.000
287.663; 2316.350;  191.825;    0.000
287.728; 2360.350;  146.825;    0.000
287.793; 2327.350;  234.825;    0.000
287.857; 2309.350;  177.825;    0.000
287.922; 2235.350;  166.825;    0.000
287.987; 2258.350;  169.825;    0.000
288.051; 2274.350;  169.825;    0.000
288.116; 2309.350;  187.825;    0.000
288.180; 2316.350;  200.825;    0.000
288.245; 2283.350;  201.825;    0.000
288.309; 2299.350;  176.825;    0.000
288.374; 2275.350;  162.825;    0.000
288.439; 2310.350;  195.825;    0.000
288.503; 2168.350;  162.825;    0.000
288.568; 2235.350;  228.825;    0.000
288.632; 2315.350;  194.825;    0.000
288.697; 2285.350;  173.825;    0.000
288.761; 2215.350;  153.825;    0.000
288.826; 2252.350;  151.825;    0.000
288.890; 2177.350;  208.825;    0.000
288.955; 2213.350;  159.825;    0.000
289.019; 2188.350;  198.825;    0.000
289.084; 2177.350;  152.825;    0.000
289.148; 2232.350;  171.825;    0.000
289.212; 2198.350;  184.825;    0.000
289.277; 2186.350;  165.825;    0.000
289.341; 2156.350;  207.825;    0.000
289.406; 2278.350;  156.825;    0.000
289.470; 2188.350;  191.825;    0.000
289.535; 2237.350;  222.825;    0.000
289.599; 2313.350;  214.825;    0.000
289.663; 2094.350;  183.825;    0.000
289.728; 2089.350;  192.825;    0.000
289.792; 2256.350;  197.825;    0.000
289.857; 2158.350;  221.825;    0.000
289.921; 2076.350;  177.825;    0.000
289.985; 2223.350;  177.825;    0.000
290.050; 2186.350;  178.825;    0.000
290.114; 2158.350;  112.825;    0.000
290.178; 2155.350;  170.825;    0.000
290.243; 2128.350;  162.825;    0.000
290.307; 2223.350;  178.825;    0.000
290.371; 2177.350;  141.825;    0.000
290.436; 2203.350;  178.825;    0.000
290.500; 2159.350;  135.825;    0.000
290.564; 2198.350;  199.825;    0.000
290.629; 2201.350;  165.825;    0.000
290.693; 2196.350;  154.825;    0.000
290.757; 2195.350;  159.825;    0.000
290.821; 2139.350;  179.825;    0.000
290.886; 2185.350;  141.825;    0.000
290.950; 2162.350;  166.825;    0.000
291.014; 2216.350;  169.825;    0.000
291.078; 2273.350;  191.825;    0.000
291.143; 2223.350;  169.825;    0.000
291.207; 2286.350;  164.825;    0.000
291.271; 2235.350;  193.825;    0.000
291.335; 2318.350;  150.825;    0.000
291.399; 2352.350;  175.825;    0.000
291.464; 2515.350;  128.825;    0.000
291.528; 2517.350;  162.825;    0.000
291.592; 2443.350;  152.825;    0.000
291.656; 2497.350;  175.825;    0.000
291.720; 2434.350;  173.825;    0.000
291.784; 2285.350;  192.825;    0.000
291.849; 2292.350;  159.825;    0.000
291.913; 2323.350;  174.825;    0.000
291.977; 2412.350;  177.825;    0.000
292.041; 2429.350;  188.825;    0.000
292.105; 2388.350;  174.825;    0.000
292.169; 2386.350;  143.825;    0.000
292.233; 2441.350;  149.825;    0.000
292.297; 2598.350;  176.825;    0.000
292.361; 2450.350;  178.825;    0.000
292.425; 2460.350;  153.825;    0.000
292.490; 2591.350;  185.825;    0.000
292.554; 2810.350;  144.825;    0.000
292.618; 2933.350;  166.825;    0.000
292.682; 3145.350;  181.825;    0.000
292.746; 3426.350;  152.825;    0.000
292.810; 4669.350;  208.825;    0.000
292.874; 5799.350;  142.825;    0.000
292.938; 5632.350;  195.825;    0.000
293.002; 5140.350;  156.825;    0.000
293.066; 4845.350;  108.825;    0.000
293.130; 4408.350;  136.825;    0.000
293.194; 4229.350;  135.825;    0.000
293.258; 4174.350;  187.825;    0.000
293.322; 4170.350;  148.825;    0.000
293.386; 4210.350;  186.825;    0.000
293.450; 4446.350;  196.825;    0.000
293.514; 4988.350;  175.825;    0.000
293.577; 6381.350;  137.825;    0.000
293.641; 8495.350;  142.825;    0.000
293.705; 8937.350;  201.825;    0.000
293.769; 7999.350;  150.825;    0.000
293.833; 6962.350;  147.825;    0.000
293.897; 6306.350;  170.825;    0.000
293.961; 5723.350;  121.825;    0.000
294.025; 5234.350;  172.825;    0.000
294.089; 4773.350;  167.825;    0.000
294.152; 4399.350;  167.825;    0.000
294.216; 4227.350;  165.825;    0.000
294.280; 4081.350;  168.825;    0.000
294.344; 3801.350;  160.825;    0.000
294.408; 3662.350;  187.825;    0.000
294.472; 3385.350;  141.825;    0.000
294.536; 3447.350;  184.825;    0.000
294.599; 3214.350;  176.825;    0.000
294.663; 3092.350;  120.825;    0.000
294.727; 3045.350;  159.825;    0.000
294.791; 3080.350;  190.825;    0.000
294.855; 2967.350;  148.825;    0.000
294.918; 2761.350;  160.825;    0.000
294.982; 2844.350;  156.825;    0.000
295.046; 2846.350;  177.825;    0.000
295.110; 2722.350;  149.825;    0.000
295.173; 2661.350;  156.825;    0.000
295.237; 2658.350;  174.825;    0.000
295.301; 2552.350;  152.825;    0.000
295.364; 2539.350;  204.825;    0.000
295.428; 2471.350;  196.825;    0.000
295.492; 2472.350;  178.825;    0.000
295.556; 2423.350;  161.825;    0.000
295.619; 2446.350;  178.825;    0.000
295.683; 2387.350;  152.825;    0.000
295.747; 2321.350;  148.825;    0.000
295.810; 2374.350;  177.825;    0.000
295.874; 2331.350;  146.825;    0.000
295.938; 2273.350;  115.825;    0.000
296.001; 2291.350;  172.825;    0.000
296.065; 2226.350;  146.825;    0.000
296.128; 2285.350;  164.825;    0.000
296.192; 2217.350;  137.825;    0.000
296.256; 2200.350;  143.825;    0.000
296.319; 2171.350;  156.825;    0.000
296.383; 2155.350;  165.825;    0.000
296.447; 2202.350;  170.825;    0.000
296.510; 2160.350;  174.825;    0.000
296.574; 2146.350;  127.825;    0.000
296.637; 2147.350;  132.825;    0.000
296.701; 2157.350;  206.825;    0.000
296.764; 2061.350;  179.825;    0.000
296.828; 2138.350;  213.825;    0.000
296.891; 2107.350;  149.825;    0.000
296.955; 2115.350;  170.825;    0.000
297.018; 2074.350;  185.825;    0.000
297.082; 2088.350;  205.825;    0.000
297.145; 2101.350;  154.825;    0.000
297.209; 2075.350;  200.825;    0.000
297.272; 1983.350;  157.825;    0.000
297.336; 1991.350;  164.825;    0.000
297.399; 2034.350;  166.825;    0.000
297.463; 2010.350;  195.825;    0.000
297.526; 2067.350;  176.825;    0.000
297.590; 2049.350;  198.825;    0.000
297.653; 1981.350;  146.825;    0.000
297.717; 2017.350;  175.825;    0.000
297.780; 1969.350;  139.825;    0.000
297.843; 1925.350;  174.825;    0.000
297.907; 1976.350;  149.825;    0.000
297.970; 1938.350;  161.825;    0.000
298.034; 2010.350;  185.825;    0.000
298.097; 2002.350;  167.825;    0.000
298.160; 1892.350;  195.825;    0.000
298.224; 1898.350;  178.825;    0.000
298.287; 1977.350;  164.825;    0.000
298.350; 1905.350;  194.825;    0.000
298.414; 1939.350;  191.825;    0.000
298.477; 1800.350;  155.825;    0.000
298.540; 1857.350;  139.825;    0.000
298.604; 1894.350;  198.825;    0.000
298.667; 1948.350;  183.825;    0.000
298.730; 1913.350;  185.825;    0.000
298.794; 1870.350;  153.825;    0.000
298.857; 1930.350;  169.825;    0.000
298.920; 1871.350;  159.825;    0.000
298.984; 1840.350;  179.825;    0.000
299.047; 1852.350;  174.825;    0.000
299.110; 1893.350;  144.825;    0.000
299.173; 1915.350;  190.825;    0.000
299.237; 1863.350;  163.825;    0.000
299.300; 1866.350;  153.825;    0.000
299.363; 1820.350;  145.825;    0.000
299.426; 1840.350;  160.825;    0.000
299.489; 1785.350;  173.825;    0.000
299.553; 1885.350;  209.825;    0.000
299.616; 1895.350;  172.825;    0.000
299.679; 1840.350;  204.825;    0.000
299.742; 1782.350;  162.825;    0.000
299.805; 1754.350;  198.825;    0.000
299.868; 1830.350;  176.825;    0.000
299.932; 1803.350;  166.825;    0.000
299.995; 1730.350;  162.825;    0.000
300.058; 1771.350;  175.825;    0.000
300.121; 1827.350;  197.825;    0.000
300.184; 1731.350;  188.825;    0.000
300.247; 1769.350;  181.825;    0.000
300.310; 1777.350;  161.825;    0.000
300.374; 1701.350;  201.825;    0.000
300.437; 1749.350;  156.825;    0.000
300.500; 1737.350;  180.825;    0.000
300.563; 1716.350;  174.825;    0.000
300.626; 1760.350;  206.825;    0.000
300.689; 1708.350;  218.825;    0.000
300.752; 1740.350;  192.825;    0.000
300.815; 1800.350;  172.825;    0.000
300.878; 1796.350;  207.825;    0.000
300.941; 1866.350;  163.825;    0.000
301.004; 1764.350;  171.825;    0.000
301.067; 1766.350;  198.825;    0.000
301.130; 1744.350;  156.825;    0.000
301.193; 1738.350;  173.825;    0.000
301.256; 1733.350;  167.825;    0.000
301.319; 1746.350;  211.825;    0.000
301.382; 1795.350;  167.825;    0.000
301.445; 1738.350;  224.825;    0.000
301.508; 1783.350;  168.825;    0.000
301.571; 1782.350;  161.825;    0.000
301.634; 1709.350;  177.825;    0.000
301.697; 1709.350;  203.825;    0.000
301.760; 1669.350;  190.825;    0.000
301.823; 1727.350;  182.825;    0.000
301.885; 1787.350;  202.825;    0.000
301.948; 1798.350;  200.825;    0.000
302.011; 1738.350;  157.825;    0.000
302.074; 1742.350;  205.825;    0.000
302.137; 1731.350;  149.825;    0.000
302.200; 1703.350;  201.825;    0.000
302.263; 1687.350;  178.825;    0.000
302.326; 1717.350;  184.825;    0.000
302.388; 1767.350;  176.825;    0.000
302.451; 1733.350;  146.825;    0.000
302.514; 1677.350;  192.825;    0.000
302.577; 1717.350;  181.825;    0.000
302.640; 1644.350;  186.825;    0.000
302.703; 1705.350;  164.825;    0.000
302.765; 1718.350;  197.825;    0.000
302.828; 1728.350;  208.825;    0.000
302.891; 1738.350;  168.825;    0.000
302.954; 1714.350;  177.825;    0.000
303.016; 1672.350;  190.825;    0.000
303.079; 1757.350;  216.825;    0.000
303.142; 1812.350;  228.825;    0.000
303.205; 1673.350;  192.825;    0.000
303.267; 1649.350;  182.825;    0.000
303.330; 1700.350;  201.825;    0.000
303.393; 1674.350;  196.825;    0.000
303.456; 1722.350;  184.825;    0.000
303.518; 1734.350;  194.825;    0.000
303.581; 1642.350;  195.825;    0.000
303.644; 1658.350;  184.825;    0.000
303.706; 1713.350;  150.825;    0.000
303.769; 1719.350;  182.825;    0.000
303.832; 1617.350;  143.825;    0.000
303.894; 1715.350;  207.825;    0.000
303.957; 1689.350;  178.825;    0.000
304.020; 1706.350;  203.825;    0.000
304.082; 1667.350;  175.825;    0.000
304.145; 1644.350;  171.825;    0.000
304.207; 1659.350;  157.825;    0.000
304.270; 1644.350;  195.825;    0.000
304.333; 1763.350;  195.825;    0.000
304.395; 1703.350;  197.825;    0.000
304.458; 1772.350;  231.825;    0.000
304.520; 1713.350;  218.825;    0.000
304.583; 1722.350;  177.825;    0.000
304.646; 1659.350;  177.825;    0.000
304.708; 1587.350;  178.825;    0.000
304.771; 1660.350;  143.825;    0.000
304.833; 1700.350;  241.825;    0.000
304.896; 1701.350;  200.825;    0.000
304.958; 1675.350;  176.825;    0.000
305.021; 1659.350;  159.825;    0.000
305.083; 1664.350;  159.825;    0.000
305.146; 1682.350;  190.825;    0.000
305.208; 1672.350;  152.825;    0.000
305.271; 1733.350;  162.825;    0.000
305.333; 1725.350;  219.825;    0.000
305.396; 1768.350;  163.825;    0.000
305.458; 1659.350;  215.825;    0.000
305.520; 1690.350;  174.825;    0.000
305.583; 1582.350;  161.825;    0.000
305.645; 1672.350;  203.825;    0.000
305.708; 1664.350;  163.825;    0.000
305.770; 1667.350;  215.825;    0.000
305.833; 1651.350;  207.825;    0.000
305.895; 1625.350;  166.825;    0.000
305.957; 1734.350;  175.825;    0.000
306.020; 1608.350;  169.825;    0.000
306.082; 1697.350;  203.825;    0.000
306.144; 1717.350;  181.825;    0.000
306.207; 1732.350;  199.825;    0.000
306.269; 1713.350;  177.825;    0.000
306.331; 1680.350;  160.825;    0.000
306.394; 1740.350;  193.825;    0.000
306.456; 1626.350;  136.825;    0.000
306.518; 1730.350;  189.825;    0.000
306.581; 1736.350;  156.825;    0.000
306.643; 1642.350;  190.825;    0.000
306.705; 1716.350;  190.825;    0.000
306.768; 1687.350;  172.825;    0.000
306.830; 1737.350;  214.825;    0.000
306.892; 1764.350;  198.825;    0.000
306.954; 1757.350;  177.825;    0.000
307.017; 1744.350;  183.825;    0.000
307.079; 1749.350;  170.825;    0.000
307.141; 1734.350;  173.825;    0.000
307.203; 1816.350;  171.825;    0.000
307.266; 1742.350;  166.825;    0.000
307.328; 1798.350;  207.825;    0.000
307.390; 1812.350;  201.825;    0.000
307.452; 1803.350;  182.825;    0.000
307.514; 1808.350;  213.825;    0.000
307.577; 1791.350;  213.825;    0.000
307.639; 1807.350;  197.825;    0.000
307.701; 1770.350;  174.825;    0.000
307.763; 1823.350;  181.825;    0.000
307.825; 1784.350;  186.825;    0.000
307.887; 1845.350;  198.825;    0.000
307.949; 1811.350;  158.825;    0.000
308.012; 1755.350;  209.825;    0.000
308.074; 1753.350;  176.825;    0.000
308.136; 1852.350;  227.825;    0.000
308.198; 1800.350;  187.825;    0.000
308.260; 1723.350;  211.825;    0.000
308.322; 1857.350;  206.825;    0.000
308.384; 1822.350;  186.825;    0.000
308.446; 1822.350;  175.825;    0.000
308.508; 1896.350;  211.825;    0.000
308.570; 1843.350;  191.825;    0.000
308.632; 1856.350;  195.825;    0.000
308.694; 1847.350;  173.825;    0.000
308.756; 1867.350;  185.825;    0.000
308.818; 1862.350;  195.825;    0.000
308.880; 1849.350;  189.825;    0.000
308.942; 1936.350;  231.825;    0.000
309.004; 1927.350;  188.825;    0.000
309.066; 1905.350;  196.825;    0.000
309.128; 1907.350;  155.825;    0.000
309.190; 2048.350;  176.825;    0.000
309.252; 2096.350;  191.825;    0.000
309.314; 2123.350;  236.825;    0.000
309.376; 2108.350;  212.825;    0.000
309.438; 2039.350;  201.825;    0.000
309.500; 2028.350;  206.825;    0.000
309.562; 2092.350;  213.825;    0.000
309.624; 2245.350;  196.825;    0.000
309.686; 2190.350;  198.825;    0.000
309.747; 2193.350;  186.825;    0.000
309.809; 2062.350;  215.825;    0.000
309.871; 2082.350;  242.825;    0.000
309.933; 1998.350;  162.825;    0.000
309.995; 2025.350;  163.825;    0.000
310.057; 1964.350;  145.825;    0.000
310.119; 1895.350;  205.825;    0.000
310.180; 1933.350;  195.825;    0.000
310.242; 1961.350;  167.825;    0.000
310.304; 2056.350;  213.825;    0.000
310.366; 1950.350;  224.825;    0.000
310.428; 1923.350;  170.825;    0.000
310.489; 1916.350;  195.825;    0.000
310.551; 1912.350;  207.825;    0.000
310.613; 1906.350;  168.825;    0.000
310.675; 1907.350;  188.825;    0.000
310.737; 1971.350;  211.825;    0.000
310.798; 1892.350;  221.825;    0.000
310.860; 1948.350;  201.825;    0.000
310.922; 1863.350;  206.825;    0.000
310.983; 1973.350;  222.825;    0.000
311.045; 1893.350;  235.825;    0.000
311.107; 1918.350;  184.825;    0.000
311.169; 1900.350;  148.825;    0.000
311.230; 1823.350;  211.825;    0.000
311.292; 1880.350;  235.825;    0.000
311.354; 1888.350;  183.825;    0.000
311.415; 1905.350;  196.825;    0.000
311.477; 1910.350;  200.825;    0.000
311.539; 1883.350;  171.825;    0.000
311.600; 1910.350;  169.825;    0.000
311.662; 1980.350;  231.825;    0.000
311.724; 1912.350;  204.825;    0.000
311.785; 1937.350;  214.825;    0.000
311.847; 1895.350;  193.825;    0.000
311.908; 1833.350;  180.825;    0.000
311.970; 1942.350;  233.825;    0.000
312.032; 1912.350;  192.825;    0.000
312.093; 1872.350;  195.825;    0.000
312.155; 1933.350;  194.825;    0.000
312.216; 1908.350;  238.825;    0.000
312.278; 1931.350;  146.825;    0.000
312.339; 1810.350;  184.825;    0.000
312.401; 1906.350;  201.825;    0.000
312.462; 1882.350;  173.825;    0.000
312.524; 1830.350;  205.825;    0.000
312.585; 1857.350;  199.825;    0.000
312.647; 1845.350;  168.825;    0.000
312.708; 1867.350;  180.825;    0.000
312.770; 1865.350;  180.825;    0.000
312.831; 1869.350;  176.825;    0.000
312.893; 1832.350;  211.825;    0.000
312.954; 1984.350;  178.825;    0.000
313.016; 1885.350;  204.825;    0.000
313.077; 1884.350;  216.825;    0.000
313.139; 1896.350;  172.825;    0.000
313.200; 1948.350;  197.825;    0.000
313.261; 1910.350;  227.825;    0.000
313.323; 1932.350;  204.825;    0.000
313.384; 1936.350;  182.825;    0.000
313.446; 1886.350;  204.825;    0.000
313.507; 1840.350;  164.825;    0.000
313.568; 1931.350;  197.825;    0.000
313.630; 1876.350;  190.825;    0.000
313.691; 1908.350;  185.825;    0.000
313.752; 1845.350;  192.825;    0.000
313.814; 1882.350;  176.825;    0.000
313.875; 1859.350;  210.825;    0.000
313.936; 1980.350;  165.825;    0.000
313.998; 1892.350;  162.825;    0.000
314.059; 1978.350;  178.825;    0.000
314.120; 1875.350;  176.825;    0.000
314.182; 1927.350;  167.825;    0.000
314.243; 1968.350;  204.825;    0.000
314.304; 1890.350;  197.825;    0.000
314.365; 1951.350;  183.825;    0.000
314.427; 1903.350;  176.825;    0.000
314.488; 1939.350;  149.825;    0.000
314.549; 1886.350;  218.825;    0.000
314.610; 1981.350;  160.825;    0.000
314.672; 1879.350;  187.825;    0.000
314.733; 1939.350;  184.825;    0.000
314.794; 1887.350;  164.825;    0.000
314.855; 1879.350;  191.825;    0.000
314.917; 1868.350;  172.825;    0.000
314.978; 1881.350;  185.825;    0.000
315.039; 1843.350;  194.825;    0.000
315.100; 1993.350;  190.825;    0.000
315.161; 2029.350;  185.825;    0.000
315.222; 1900.350;  204.825;    0.000
315.283; 1926.350;  166.825;    0.000
315.345; 1869.350;  133.825;    0.000
315.406; 1922.350;  191.825;    0.000
315.467; 1836.350;  166.825;    0.000
315.528; 1928.350;  194.825;    0.000
315.589; 1921.350;  193.825;    0.000
315.650; 1854.350;  190.825;    0.000
315.711; 1883.350;  219.825;    0.000
315.772; 1912.350;  159.825;    0.000
315.833; 1854.350;  191.825;    0.000
315.894; 1946.350;  202.825;    0.000
315.955; 1885.350;  167.825;    0.000
316.016; 1895.350;  177.825;    0.000
316.078; 1842.350;  185.825;    0.000
316.139; 1977.350;  219.825;    0.000
316.200; 1923.350;  163.825;    0.000
316.261; 1900.350;  183.825;    0.000
316.322; 1917.350;  230.825;    0.000
316.383; 1879.350;  198.825;    0.000
316.444; 1966.350;  209.825;    0.000
316.504; 1887.350;  179.825;    0.000
316.565; 1940.350;  185.825;    0.000
316.626; 1964.350;  155.825;    0.000
316.687; 1931.350;  211.825;    0.000
316.748; 1965.350;  192.825;    0.000
316.809; 1881.350;  183.825;    0.000
316.870; 1854.350;  196.825;    0.000
316.931; 1924.350;  173.825;    0.000
316.992; 1945.350;  179.825;    0.000
317.053; 1944.350;  186.825;    0.000
317.114; 1922.350;  189.825;    0.000
317.175; 1915.350;  226.825;    0.000
317.235; 1854.350;  206.825;    0.000
317.296; 1870.350;  191.825;    0.000
317.357; 1890.350;  173.825;    0.000
317.418; 1887.350;  212.825;    0.000
317.479; 1891.350;  247.825;    0.000
317.540; 1955.350;  205.825;    0.000
317.601; 1873.350;  205.825;    0.000
317.661; 1851.350;  150.825;    0.000
317.722; 1875.350;  198.825;    0.000
317.783; 1861.350;  153.825;    0.000
317.844; 1881.350;  202.825;    0.000
317.904; 1904.350;  180.825;    0.000
317.965; 1905.350;  205.825;    0.000
318.026; 1935.350;  223.825;    0.000
318.087; 1938.350;  218.825;    0.000
318.148; 1906.350;  207.825;    0.000
318.208; 1982.350;  212.825;    0.000
318.269; 1858.350;  174.825;    0.000
318.330; 1923.350;  191.825;    0.000
318.390; 1901.350;  197.825;    0.000
318.451; 1865.350;  167.825;    0.000
318.512; 1925.350;  174.825;    0.000
318.572; 1949.350;  199.825;    0.000
318.633; 1863.350;  233.825;    0.000
318.694; 1918.350;  232.825;    0.000
318.754; 1926.350;  181.825;    0.000
318.815; 1942.350;  199.825;    0.000
318.876; 1914.350;  207.825;    0.000
318.936; 1969.350;  202.825;    0.000
318.997; 1931.350;  182.825;    0.000
319.058; 1955.350;  180.825;    0.000
319.118; 1911.350;  199.825;    0.000
319.179; 1965.350;  199.825;    0.000
319.239; 1880.350;  229.825;    0.000
319.300; 1987.350;  223.825;    0.000
319.361; 1901.350;  210.825;    0.000
319.421; 1921.350;  205.825;    0.000
319.482; 1880.350;  205.825;    0.000
319.542; 1910.350;  176.825;    0.000
319.603; 1871.350;  191.825;    0.000
319.663; 1918.350;  183.825;    0.000
319.724; 1836.350;  174.825;    0.000
319.784; 1916.350;  198.825;    0.000
319.845; 1901.350;  218.825;    0.000
319.905; 1991.350;  217.825;    0.000
319.966; 1897.350;  197.825;    0.000
320.026; 1812.350;  209.825;    0.000
320.087; 1896.350;  225.825;    0.000
320.147; 1946.350;  201.825;    0.000
320.208; 1903.350;  176.825;    0.000
320.268; 1884.350;  168.825;    0.000
320.329; 1978.350;  238.825;    0.000
320.389; 1910.350;  220.825;    0.000
320.449; 1957.350;  230.825;    0.000
320.510; 1913.350;  234.825;    0.000
320.570; 1864.350;  210.825;    0.000
320.631; 1847.350;  207.825;    0.000
320.691; 1911.350;  222.825;    0.000
320.751; 1846.350;  195.825;    0.000
320.812; 1840.350;  193.825;    0.000
320.872; 1908.350;  237.825;    0.000
320.932; 1905.350;  213.825;    0.000
320.993; 1893.350;  185.825;    0.000
321.053; 1877.350;  245.825;    0.000
321.113; 1948.350;  206.825;    0.000
321.174; 1940.350;  202.825;    0.000
321.234; 1984.350;  244.825;    0.000
321.294; 1886.350;  228.825;    0.000
321.355; 1838.350;  208.825;    0.000
321.415; 1924.350;  223.825;    0.000
321.475; 1856.350;  203.825;    0.000
321.535; 1904.350;  230.825;    0.000
321.596; 1827.350;  186.825;    0.000
321.656; 1939.350;  216.825;    0.000
321.716; 1878.350;  207.825;    0.000
321.776; 1934.350;  181.825;    0.000
321.837; 1936.350;  207.825;    0.000
321.897; 1933.350;  225.825;    0.000
321.957; 1901.350;  222.825;    0.000
322.017; 1901.350;  215.825;    0.000
322.077; 1985.350;  250.825;    0.000
322.138; 1920.350;  189.825;    0.000
322.198; 1900.350;  200.825;    0.000
322.258; 1912.350;  217.825;    0.000
322.318; 1870.350;  183.825;    0.000
322.378; 1942.350;  231.825;    0.000
322.438; 1906.350;  228.825;    0.000
322.499; 1938.350;  248.825;    0.000
322.559; 1870.350;  198.825;    0.000
322.619; 1885.350;  221.825;    0.000
322.679; 1833.350;  217.825;    0.000
322.739; 1943.350;  204.825;    0.000
322.799; 1849.350;  236.825;    0.000
322.859; 1893.350;  213.825;    0.000
322.919; 1952.350;  210.825;    0.000
322.979; 1944.350;  244.825;    0.000
323.039; 1917.350;  218.825;    0.000
323.099; 1870.350;  232.825;    0.000
323.159; 1884.350;  216.825;    0.000
323.219; 1812.350;  169.825;    0.000
323.279; 1892.350;  236.825;    0.000
323.339; 1890.350;  243.825;    0.000
323.399; 1871.350;  208.825;    0.000
323.459; 1930.350;  220.825;    0.000
323.519; 1942.350;  228.825;    0.000
323.579; 1930.350;  164.825;    0.000
323.639; 1937.350;  209.825;    0.000
323.699; 1809.350;  188.825;    0.000
323.759; 1881.350;  206.825;    0.000
323.819; 1919.350;  204.825;    0.000
323.879; 1899.350;  222.825;    0.000
323.939; 1872.350;  206.825;    0.000
323.999; 1976.350;  202.825;    0.000
324.059; 1810.350;  245.825;    0.000
324.119; 1927.350;  214.825;    0.000
324.178; 1839.350;  183.825;    0.000
324.238; 1876.350;  193.825;    0.000
324.298; 1834.350;  207.825;    0.000
324.358; 1831.350;  196.825;    0.000
324.418; 1877.350;  193.825;    0.000
324.478; 1875.350;  191.825;    0.000
324.538; 1854.350;  224.825;    0.000
324.597; 1865.350;  187.825;    0.000
324.657; 1933.350;  208.825;    0.000
324.717; 1844.350;  198.825;    0.000
324.777; 1865.350;  159.825;    0.000
324.837; 1907.350;  180.825;    0.000
324.896; 1874.350;  215.825;    0.000
324.956; 1776.350;  210.825;    0.000
325.016; 1900.350;  187.825;    0.000
325.076; 1856.350;  197.825;    0.000
325.135; 1917.350;  226.825;    0.000
325.195; 1841.350;  201.825;    0.000
325.255; 1850.350;  167.825;    0.000
325.315; 1868.350;  217.825;    0.000
325.374; 1934.350;  196.825;    0.000
325.434; 1864.350;  167.825;    0.000
325.494; 1904.350;  214.825;    0.000
325.553; 1949.350;  203.825;    0.000
325.613; 1866.350;  206.825;    0.000
325.673; 1807.350;  148.825;    0.000
325.732; 1870.350;  207.825;    0.000
325.792; 1850.350;  151.825;    0.000
325.852; 1854.350;  195.825;    0.000
325.911; 1855.350;  201.825;    0.000
325.971; 1921.350;  224.825;    0.000
326.031; 1845.350;  201.825;    0.000
326.090; 1943.350;  203.825;    0.000
326.150; 1905.350;  183.825;    0.000
326.209; 1821.350;  226.825;    0.000
326.269; 1874.350;  194.825;    0.000
326.328; 1812.350;  200.825;    0.000
326.388; 1765.350;  177.825;    0.000
326.448; 1842.350;  239.825;    0.000
326.507; 1902.350;  197.825;    0.000
326.567; 1801.350;  161.825;    0.000
326.626; 1790.350;  220.825;    0.000
326.686; 1764.350;  178.825;    0.000
326.745; 1825.350;  167.825;    0.000
326.805; 1775.350;  176.825;    0.000
326.864; 1820.350;  204.825;    0.000
326.924; 1893.350;  218.825;    0.000
326.983; 1872.350;  201.825;    0.000
327.043; 1820.350;  219.825;    0.000
327.102; 1823.350;  202.825;    0.000
327.161; 1818.350;  228.825;    0.000
327.221; 1838.350;  217.825;    0.000
327.280; 1844.350;  188.825;    0.000
327.340; 1748.350;  209.825;    0.000
327.399; 1907.350;  189.825;    0.000
327.459; 1803.350;  216.825;    0.000
327.518; 1835.350;  200.825;    0.000
327.577; 1838.350;  194.825;    0.000
327.637; 1786.350;  180.825;    0.000
327.696; 1703.350;  208.825;    0.000
327.755; 1803.350;  218.825;    0.000
327.815; 1841.350;  234.825;    0.000
327.874; 1879.350;  259.825;    0.000
327.933; 1851.350;  192.825;    0.000
327.993; 1801.350;  208.825;    0.000
328.052; 1819.350;  221.825;    0.000
328.111; 1770.350;  203.825;    0.000
328.171; 1759.350;  221.825;    0.000
328.230; 1843.350;  222.825;    0.000
328.289; 1824.350;  254.825;    0.000
328.349; 1851.350;  232.825;    0.000
328.408; 1793.350;  223.825;    0.000
328.467; 1761.350;  198.825;    0.000
328.526; 1801.350;  217.825;    0.000
328.586; 1788.350;  185.825;    0.000
328.645; 1789.350;  210.825;    0.000
328.704; 1766.350;  211.825;    0.000
328.763; 1768.350;  231.825;    0.000
328.822; 1844.350;  254.825;    0.000
328.882; 1814.350;  216.825;    0.000
328.941; 1762.350;  239.825;    0.000
329.000; 1819.350;  251.825;    0.000
329.059; 1810.350;  227.825;    0.000
329.118; 1784.350;  233.825;    0.000
329.177; 1695.350;  188.825;    0.000
329.237; 1895.350;  257.825;    0.000
329.296; 1783.350;  265.825;    0.000
329.355; 1859.350;  245.825;    0.000
329.414; 1794.350;  236.825;    0.000
329.473; 1769.350;  242.825;    0.000
329.532; 1803.350;  228.825;    0.000
329.591; 1785.350;  206.825;    0.000
329.650; 1751.350;  250.825;    0.000
329.709; 1861.350;  278.825;    0.000
329.768; 1850.350;  219.825;    0.000
329.827; 1841.350;  254.825;    0.000
329.886; 1858.350;  221.825;    0.000
329.945; 1823.350;  239.825;    0.000
330.004; 1832.350;  245.825;    0.000
330.063; 1799.350;  201.825;    0.000
330.122; 1794.350;  227.825;    0.000
330.181; 1839.350;  196.825;    0.000
330.240; 1777.350;  203.825;    0.000
330.299; 1780.350;  214.825;    0.000
330.358; 1803.350;  196.825;    0.000
330.417; 1829.350;  201.825;    0.000
330.476; 1867.350;  248.825;    0.000
330.535; 1802.350;  253.825;    0.000
330.594; 1892.350;  231.825;    0.000
330.653; 1811.350;  210.825;    0.000
330.712; 1786.350;  242.825;    0.000
330.771; 1749.350;  240.825;    0.000
330.830; 1783.350;  230.825;    0.000
330.889; 1740.350;  217.825;    0.000
330.948; 1821.350;  211.825;    0.000
331.006; 1757.350;  217.825;    0.000
331.065; 1732.350;  170.825;    0.000
331.124; 1845.350;  211.825;    0.000
331.183; 1796.350;  192.825;    0.000
331.242; 1790.350;  227.825;    0.000
331.301; 1754.350;  240.825;    0.000
331.359; 1738.350;  223.825;    0.000
331.418; 1754.350;  215.825;    0.000
331.477; 1776.350;  230.825;    0.000
331.536; 1721.350;  221.825;    0.000
331.595; 1677.350;  198.825;    0.000
331.653; 1727.350;  207.825;    0.000
331.712; 1691.350;  217.825;    0.000
331.771; 1700.350;  221.825;    0.000
331.830; 1694.350;  222.825;    0.000
331.888; 1718.350;  213.825;    0.000
331.947; 1691.350;  233.825;    0.000
332.006; 1755.350;  212.825;    0.000
332.065; 1750.350;  200.825;    0.000
332.123; 1751.350;  223.825;    0.000
332.182; 1777.350;  180.825;    0.000
332.241; 1755.350;  192.825;    0.000
332.299; 1709.350;  172.825;    0.000
332.358; 1759.350;  216.825;    0.000
332.417; 1703.350;  211.825;    0.000
332.475; 1826.350;  222.825;    0.000
332.534; 1749.350;  238.825;    0.000
332.592; 1756.350;  216.825;    0.000
332.651; 1689.350;  196.825;    0.000
332.710; 1763.350;  215.825;    0.000
332.768; 1765.350;  193.825;    0.000
332.827; 1760.350;  201.825;    0.000
332.885; 1768.350;  226.825;    0.000
332.944; 1828.350;  174.825;    0.000
333.003; 1813.350;  187.825;    0.000
333.061; 1842.350;  208.825;    0.000
333.120; 1818.350;  202.825;    0.000
333.178; 1842.350;  227.825;    0.000
333.237; 1832.350;  215.825;    0.000
333.295; 1834.350;  245.825;    0.000
333.354; 1795.350;  194.825;    0.000
333.412; 1815.350;  165.825;    0.000
333.471; 1853.350;  219.825;    0.000
333.529; 1906.350;  255.825;    0.000
333.588; 1905.350;  264.825;    0.000
333.646; 1985.350;  231.825;    0.000
333.705; 1911.350;  232.825;    0.000
333.763; 1972.350;  233.825;    0.000
333.822; 1905.350;  221.825;    0.000
333.880; 1848.350;  180.825;    0.000
333.938; 1860.350;  229.825;    0.000
333.997; 1845.350;  194.825;    0.000
334.055; 1938.350;  230.825;    0.000
334.114; 1902.350;  230.825;    0.000
334.172; 1808.350;  170.825;    0.000
334.230; 1842.350;  192.825;    0.000
334.289; 1846.350;  225.825;    0.000
334.347; 1917.350;  233.825;    0.000
334.405; 1845.350;  207.825;    0.000
334.464; 1896.350;  175.825;    0.000
334.522; 1837.350;  180.825;    0.000
334.580; 1831.350;  172.825;    0.000
334.639; 1842.350;  230.825;    0.000
334.697; 1804.350;  217.825;    0.000
334.755; 1824.350;  217.825;    0.000
334.814; 1758.350;  210.825;    0.000
334.872; 1785.350;  170.825;    0.000
334.930; 1759.350;  167.825;    0.000
334.988; 1814.350;  244.825;    0.000
335.047; 1854.350;  202.825;    0.000
335.105; 1827.350;  181.825;    0.000
335.163; 1848.350;  195.825;    0.000
335.221; 1863.350;  203.825;    0.000
335.280; 1827.350;  216.825;    0.000
335.338; 1877.350;  197.825;    0.000
335.396; 1805.350;  232.825;    0.000
335.454; 1842.350;  211.825;    0.000
335.512; 1851.350;  221.825;    0.000
335.570; 1799.350;  216.825;    0.000
335.629; 1882.350;  244.825;    0.000
335.687; 1876.350;  244.825;    0.000
335.745; 1889.350;  189.825;    0.000
335.803; 1935.350;  198.825;    0.000
335.861; 1893.350;  236.825;    0.000
335.919; 1901.350;  234.825;    0.000
335.977; 1878.350;  214.825;    0.000
336.035; 1872.350;  242.825;    0.000
336.094; 1831.350;  219.825;    0.000
336.152; 1814.350;  196.825;    0.000
336.210; 1908.350;  221.825;    0.000
336.268; 1835.350;  257.825;    0.000
336.326; 1900.350;  211.825;    0.000
336.384; 1831.350;  217.825;    0.000
336.442; 1877.350;  176.825;    0.000
336.500; 1878.350;  242.825;    0.000
336.558; 1867.350;  238.825;    0.000
336.616; 1874.350;  261.825;    0.000
336.674; 1833.350;  200.825;    0.000
336.732; 1802.350;  208.825;    0.000
336.790; 1845.350;  183.825;    0.000
336.848; 1797.350;  199.825;    0.000
336.906; 1839.350;  240.825;    0.000
336.964; 1832.350;  234.825;    0.000
337.022; 1905.350;  282.825;    0.000
337.080; 1850.350;  265.825;    0.000
337.138; 1918.350;  255.825;    0.000
337.195; 1847.350;  200.825;    0.000
337.253; 1838.350;  199.825;    0.000
337.311; 1858.350;  233.825;    0.000
337.369; 1797.350;  250.825;    0.000
337.427; 1799.350;  201.825;    0.000
337.485; 1775.350;  228.825;    0.000
337.543; 1731.350;  221.825;    0.000
337.601; 1769.350;  232.825;    0.000
337.658; 1780.350;  215.825;    0.000
337.716; 1765.350;  198.825;    0.000
337.774; 1785.350;  262.825;    0.000
337.832; 1815.350;  220.825;    0.000
337.890; 1780.350;  194.825;    0.000
337.947; 1804.350;  205.825;    0.000
338.005; 1790.350;  229.825;    0.000
338.063; 1808.350;  237.825;    0.000
338.121; 1755.350;  220.825;    0.000
338.178; 1830.350;  227.825;    0.000
338.236; 1810.350;  238.825;    0.000
338.294; 1839.350;  242.825;    0.000
338.352; 1794.350;  230.825;    0.000
338.409; 1825.350;  222.825;    0.000
338.467; 1793.350;  233.825;    0.000
338.525; 1815.350;  253.825;    0.000
338.583; 1767.350;  221.825;    0.000
338.640; 1773.350;  225.825;    0.000
338.698; 1766.350;  229.825;    0.000
338.756; 1802.350;  238.825;    0.000
338.813; 1825.350;  260.825;    0.000
338.871; 1905.350;  246.825;    0.000
338.928; 1816.350;  240.825;    0.000
338.986; 1849.350;  228.825;    0.000
339.044; 1855.350;  265.825;    0.000
339.101; 1760.350;  224.825;    0.000
339.159; 1754.350;  235.825;    0.000
339.216; 1802.350;  244.825;    0.000
339.274; 1814.350;  266.825;    0.000
339.332; 1863.350;  248.825;    0.000
339.389; 1796.350;  246.825;    0.000
339.447; 1827.350;  237.825;    0.000
339.504; 1773.350;  244.825;    0.000
339.562; 1851.350;  249.825;    0.000
339.619; 1791.350;  266.825;    0.000
339.677; 1872.350;  263.825;    0.000
339.734; 1761.350;  216.825;    0.000
339.792; 1722.350;  276.825;    0.000
339.849; 1749.350;  240.825;    0.000
339.907; 1867.350;  275.825;    0.000
339.964; 1802.350;  243.825;    0.000
340.022; 1754.350;  224.825;    0.000
340.079; 1763.350;  230.825;    0.000
340.137; 1784.350;  232.825;    0.000
340.194; 1853.350;  261.825;    0.000
340.252; 1747.350;  219.825;    0.000
340.309; 1773.350;  212.825;    0.000
340.366; 1799.350;  231.825;    0.000
340.424; 1808.350;  244.825;    0.000
340.481; 1846.350;  238.825;    0.000
340.538; 1785.350;  217.825;    0.000
340.596; 1778.350;  224.825;    0.000
340.653; 1869.350;  225.825;    0.000
340.711; 1874.350;  276.825;    0.000
340.768; 1877.350;  239.825;    0.000
340.825; 1916.350;  216.825;    0.000
340.883; 1835.350;  264.825;    0.000
340.940; 1902.350;  256.825;    0.000
340.997; 1801.350;  230.825;    0.000
341.054; 1726.350;  229.825;    0.000
341.112; 1830.350;  220.825;    0.000
341.169; 1901.350;  276.825;    0.000
341.226; 1915.350;  224.825;    0.000
341.284; 1912.350;  235.825;    0.000
341.341; 1887.350;  226.825;    0.000
341.398; 1769.350;  200.825;    0.000
341.455; 1792.350;  242.825;    0.000
341.512; 1847.350;  226.825;    0.000
341.570; 1830.350;  299.825;    0.000
341.627; 1821.350;  221.825;    0.000
341.684; 1856.350;  204.825;    0.000
341.741; 1920.350;  285.825;    0.000
341.798; 1893.350;  237.825;    0.000
341.856; 1857.350;  223.825;    0.000
341.913; 1852.350;  232.825;    0.000
341.970; 1812.350;  250.825;    0.000
342.027; 1840.350;  272.825;    0.000
342.084; 1846.350;  242.825;    0.000
342.141; 1882.350;  207.825;    0.000
342.198; 1920.350;  252.825;    0.000
342.255; 1834.350;  189.825;    0.000
342.313; 1822.350;  222.825;    0.000
342.370; 1843.350;  203.825;    0.000
342.427; 1803.350;  261.825;    0.000
342.484; 1738.350;  230.825;    0.000
342.541; 1801.350;  224.825;    0.000
342.598; 1833.350;  245.825;    0.000
342.655; 1769.350;  235.825;    0.000
342.712; 1887.350;  238.825;    0.000
342.769; 1863.350;  235.825;    0.000
342.826; 1832.350;  232.825;    0.000
342.883; 1782.350;  212.825;    0.000
342.940; 1784.350;  189.825;    0.000
342.997; 1753.350;  241.825;    0.000
343.054; 1827.350;  235.825;    0.000
343.111; 1806.350;  216.825;    0.000
343.168; 1807.350;  202.825;    0.000
343.225; 1854.350;  228.825;    0.000
343.282; 1890.350;  208.825;    0.000
343.339; 1969.350;  241.825;    0.000
343.395; 1865.350;  206.825;    0.000
343.452; 1975.350;  227.825;    0.000
343.509; 1807.350;  212.825;    0.000
343.566; 1875.350;  266.825;    0.000
343.623; 1844.350;  240.825;    0.000
343.680; 1878.350;  215.825;    0.000
343.737; 1947.350;  231.825;    0.000
343.794; 1893.350;  256.825;    0.000
343.850; 1949.350;  235.825;    0.000
343.907; 2008.350;  246.825;    0.000
343.964; 2001.350;  241.825;    0.000
344.021; 1921.350;  237.825;    0.000
344.078; 1898.350;  248.825;    0.000
344.134; 1934.350;  225.825;    0.000
344.191; 1892.350;  209.825;    0.000
344.248; 1922.350;  234.825;    0.000
344.305; 1970.350;  224.825;    0.000
344.361; 1937.350;  194.825;    0.000
344.418; 1905.350;  240.825;    0.000
344.475; 1922.350;  252.825;    0.000
344.532; 1923.350;  251.825;    0.000
344.588; 1945.350;  240.825;    0.000
344.645; 2000.350;  253.825;    0.000
344.702; 1870.350;  216.825;    0.000
344.758; 1957.350;  258.825;    0.000
344.815; 1841.350;  239.825;    0.000
344.872; 1904.350;  216.825;    0.000
344.928; 1850.350;  236.825;    0.000
344.985; 1867.350;  238.825;    0.000
345.042; 1954.350;  211.825;    0.000
345.098; 1948.350;  223.825;    0.000
345.155; 1972.350;  266.825;    0.000
345.212; 1883.350;  266.825;    0.000
345.268; 1907.350;  245.825;    0.000
345.325; 1849.350;  225.825;    0.000
345.381; 1968.350;  223.825;    0.000
345.438; 1906.350;  259.825;    0.000
345.495; 1971.350;  233.825;    0.000
345.551; 1947.350;  254.825;    0.000
345.608; 1850.350;  212.825;    0.000
345.664; 1868.350;  225.825;    0.000
345.721; 1903.350;  223.825;    0.000
345.777; 1905.350;  226.825;    0.000
345.834; 1791.350;  215.825;    0.000
345.890; 1813.350;  230.825;    0.000
345.947; 1902.350;  232.825;    0.000
346.003; 1979.350;  241.825;    0.000
346.060; 1878.350;  241.825;    0.000
346.116; 1925.350;  231.825;    0.000
346.173; 1868.350;  229.825;    0.000
346.229; 1917.350;  262.825;    0.000
346.285; 1885.350;  232.825;    0.000
346.342; 1829.350;  228.825;    0.000
346.398; 1924.350;  203.825;    0.000
346.455; 1954.350;  214.825;    0.000
346.511; 1968.350;  245.825;    0.000
346.567; 1910.350;  192.825;    0.000
346.624; 1908.350;  206.825;    0.000
346.680; 1882.350;  209.825;    0.000
346.737; 2009.350;  239.825;    0.000
346.793; 1928.350;  234.825;    0.000
346.849; 1919.350;  252.825;    0.000
346.906; 2032.350;  247.825;    0.000
346.962; 2055.350;  274.825;    0.000
347.018; 1964.350;  225.825;    0.000
347.074; 1984.350;  261.825;    0.000
347.131; 1957.350;  230.825;    0.000
347.187; 1884.350;  269.825;    0.000
347.243; 1971.350;  261.825;    0.000
347.300; 1896.350;  236.825;    0.000
347.356; 1992.350;  284.825;    0.000
347.412; 1968.350;  243.825;    0.000
347.468; 1916.350;  276.825;    0.000
347.524; 1955.350;  232.825;    0.000
347.581; 1926.350;  242.825;    0.000
347.637; 1978.350;  270.825;    0.000
347.693; 1968.350;  269.825;    0.000
347.749; 1898.350;  278.825;    0.000
347.805; 1885.350;  224.825;    0.000
347.862; 1985.350;  207.825;    0.000
347.918; 1909.350;  259.825;    0.000
347.974; 1956.350;  244.825;    0.000
348.030; 2003.350;  219.825;    0.000
348.086; 1958.350;  250.825;    0.000
348.142; 1974.350;  251.825;    0.000
348.198; 1952.350;  267.825;    0.000
348.254; 1956.350;  230.825;    0.000
348.311; 1959.350;  261.825;    0.000
348.367; 1957.350;  259.825;    0.000
348.423; 1843.350;  251.825;    0.000
348.479; 1900.350;  251.825;    0.000
348.535; 1878.350;  269.825;    0.000
348.591; 1947.350;  238.825;    0.000
348.647; 1984.350;  273.825;    0.000
348.703; 1935.350;  291.825;    0.000
348.759; 1928.350;  231.825;    0.000
348.815; 1933.350;  286.825;    0.000
348.871; 1921.350;  265.825;    0.000
348.927; 1844.350;  234.825;    0.000
348.983; 1959.350;  267.825;    0.000
349.039; 1932.350;  233.825;    0.000
349.095; 1886.350;  225.825;    0.000
349.151; 1956.350;  242.825;    0.000
349.207; 1934.350;  223.825;    0.000
349.263; 1897.350;  219.825;    0.000
349.319; 1948.350;  226.825;    0.000
349.374; 1953.350;  232.825;    0.000
349.430; 2036.350;  235.825;    0.000
349.486; 2025.350;  227.825;    0.000
349.542; 2006.350;  253.825;    0.000
349.598; 2014.350;  227.825;    0.000
349.654; 2044.350;  270.825;    0.000
349.710; 1916.350;  233.825;    0.000
349.766; 1924.350;  245.825;    0.000
349.821; 1967.350;  242.825;    0.000
349.877; 1991.350;  229.825;    0.000
349.933; 1994.350;  229.825;    0.000
349.989; 2040.350;  230.825;    0.000
350.045; 1926.350;  236.825;    0.000
350.100; 1945.350;  237.825;    0.000
350.156; 1915.350;  230.825;    0.000
350.212; 1957.350;  254.825;    0.000
350.268; 1902.350;  239.825;    0.000
350.323; 2001.350;  204.825;    0.000
350.379; 1960.350;  246.825;    0.000
350.435; 1941.350;  249.825;    0.000
350.491; 1928.350;  217.825;    0.000
350.546; 1979.350;  231.825;    0.000
350.602; 1956.350;  240.825;    0.000
350.658; 1938.350;  235.825;    0.000
350.713; 1930.350;  234.825;    0.000
350.769; 1912.350;  218.825;    0.000
350.825; 1945.350;  227.825;    0.000
350.880; 1978.350;  226.825;    0.000
350.936; 1961.350;  247.825;    0.000
350.992; 1981.350;  213.825;    0.000
351.047; 2000.350;  207.825;    0.000
351.103; 1956.350;  271.825;    0.000
351.158; 1965.350;  251.825;    0.000
351.214; 1952.350;  199.825;    0.000
351.270; 1946.350;  214.825;    0.000
351.325; 2040.350;  235.825;    0.000
351.381; 1916.350;  223.825;    0.000
351.436; 2052.350;  237.825;    0.000
351.492; 2008.350;  221.825;    0.000
351.547; 2049.350;  237.825;    0.000
351.603; 1962.350;  239.825;    0.000
351.658; 2056.350;  209.825;    0.000
351.714; 2090.350;  226.825;    0.000
351.769; 1956.350;  238.825;    0.000
351.825; 2006.350;  226.825;    0.000
351.880; 2093.350;  217.825;    0.000
351.936; 2106.350;  246.825;    0.000
351.991; 2035.350;  233.825;    0.000
352.047; 1996.350;  215.825;    0.000
352.102; 1975.350;  243.825;    0.000
352.158; 1938.350;  234.825;    0.000
352.213; 1927.350;  201.825;    0.000
352.268; 1933.350;  234.825;    0.000
352.324; 1990.350;  211.825;    0.000
352.379; 1907.350;  221.825;    0.000
352.434; 1963.350;  259.825;    0.000
352.490; 2013.350;  250.825;    0.000
352.545; 1998.350;  251.825;    0.000
352.601; 1963.350;  283.825;    0.000
352.656; 2013.350;  236.825;    0.000
352.711; 1915.350;  237.825;    0.000
352.767; 1918.350;  201.825;    0.000
352.822; 1893.350;  209.825;    0.000
352.877; 1931.350;  239.825;    0.000
352.932; 1980.350;  228.825;    0.000
352.988; 1961.350;  202.825;    0.000
353.043; 2033.350;  268.825;    0.000
353.098; 2024.350;  208.825;    0.000
353.153; 2005.350;  219.825;    0.000
353.209; 1918.350;  252.825;    0.000
353.264; 1970.350;  225.825;    0.000
353.319; 1966.350;  234.825;    0.000
353.374; 1874.350;  236.825;    0.000
353.430; 1960.350;  245.825;    0.000
353.485; 1949.350;  238.825;    0.000
353.540; 1935.350;  238.825;    0.000
353.595; 1891.350;  215.825;    0.000
353.650; 1941.350;  238.825;    0.000
353.705; 1880.350;  274.825;    0.000
353.761; 1954.350;  229.825;    0.000
353.816; 1879.350;  275.825;    0.000
353.871; 1927.350;  245.825;    0.000
353.926; 2058.350;  253.825;    0.000
353.981; 1970.350;  269.825;    0.000
354.036; 1959.350;  246.825;    0.000
354.091; 1919.350;  257.825;    0.000
354.146; 1937.350;  278.825;    0.000
354.201; 1951.350;  276.825;    0.000
354.256; 2009.350;  224.825;    0.000
354.311; 1967.350;  287.825;    0.000
354.367; 1983.350;  210.825;    0.000
354.422; 1964.350;  231.825;    0.000
354.477; 1909.350;  226.825;    0.000
354.532; 1972.350;  262.825;    0.000
354.587; 2019.350;  275.825;    0.000
354.642; 1873.350;  247.825;    0.000
354.697; 2004.350;  251.825;    0.000
354.751; 2018.350;  249.825;    0.000
354.806; 1984.350;  217.825;    0.000
354.861; 1979.350;  247.825;    0.000
354.916; 2028.350;  259.825;    0.000
354.971; 2010.350;  241.825;    0.000
355.026; 1977.350;  250.825;    0.000
355.081; 1948.350;  244.825;    0.000
355.136; 1975.350;  203.825;    0.000
355.191; 1958.350;  241.825;    0.000
355.246; 2035.350;  248.825;    0.000
355.301; 1986.350;  259.825;    0.000
355.355; 1968.350;  236.825;    0.000
355.410; 1995.350;  221.825;    0.000
355.465; 1941.350;  206.825;    0.000
355.520; 1941.350;  258.825;    0.000
355.575; 1943.350;  273.825;    0.000
355.630; 2006.350;  252.825;    0.000
355.684; 1949.350;  246.825;    0.000
355.739; 1956.350;  251.825;    0.000
355.794; 2004.350;  247.825;    0.000
355.849; 1859.350;  246.825;    0.000
355.904; 1907.350;  262.825;    0.000
355.958; 1982.350;  249.825;    0.000
356.013; 1962.350;  213.825;    0.000
356.068; 1940.350;  255.825;    0.000
356.123; 1965.350;  205.825;    0.000
356.177; 1945.350;  239.825;    0.000
356.232; 2013.350;  258.825;    0.000
356.287; 1963.350;  248.825;    0.000
356.341; 2026.350;  221.825;    0.000
356.396; 1996.350;  220.825;    0.000
356.451; 1964.350;  231.825;    0.000
356.505; 1946.350;  231.825;    0.000
356.560; 2021.350;  254.825;    0.000
356.615; 1947.350;  234.825;    0.000
356.669; 1956.350;  250.825;    0.000
356.724; 1914.350;  261.825;    0.000
356.778; 1935.350;  207.825;    0.000
356.833; 1896.350;  205.825;    0.000
356.888; 1947.350;  235.825;    0.000
356.942; 1996.350;  205.825;    0.000
356.997; 2029.350;  276.825;    0.000
357.051; 1941.350;  243.825;    0.000
357.106; 1944.350;  242.825;    0.000
357.160; 1909.350;  241.825;    0.000
357.215; 1846.350;  212.825;    0.000
357.269; 2040.350;  238.825;    0.000
357.324; 1932.350;  223.825;    0.000
357.378; 1940.350;  221.825;    0.000
357.433; 2034.350;  262.825;    0.000
357.487; 1985.350;  246.825;    0.000
357.542; 1972.350;  221.825;    0.000
357.596; 1994.350;  225.825;    0.000
357.651; 2084.350;  244.825;    0.000
357.705; 1963.350;  269.825;    0.000
357.760; 2006.350;  209.825;    0.000
357.814; 1952.350;  250.825;    0.000
357.868; 1917.350;  266.825;    0.000
357.923; 1936.350;  248.825;    0.000
357.977; 1895.350;  262.825;    0.000
358.032; 1959.350;  228.825;    0.000
358.086; 1886.350;  257.825;    0.000
358.140; 1932.350;  217.825;    0.000
358.195; 1942.350;  246.825;    0.000
358.249; 1957.350;  255.825;    0.000
358.303; 1971.350;  252.825;    0.000
358.358; 1939.350;  278.825;    0.000
358.412; 1944.350;  276.825;    0.000
358.466; 1923.350;  275.825;    0.000
358.521; 1974.350;  229.825;    0.000
358.575; 1873.350;  270.825;    0.000
358.629; 1945.350;  239.825;    0.000
358.683; 1854.350;  254.825;    0.000
358.738; 1931.350;  239.825;    0.000
358.792; 1879.350;  272.825;    0.000
358.846; 1970.350;  289.825;    0.000
358.900; 1916.350;  299.825;    0.000
358.954; 1947.350;  247.825;    0.000
359.009; 1859.350;  245.825;    0.000
359.063; 1877.350;  272.825;    0.000
359.117; 1909.350;  242.825;    0.000
359.171; 2032.350;  279.825;    0.000
359.225; 1889.350;  221.825;    0.000
359.280; 1981.350;  238.825;    0.000
359.334; 1840.350;  264.825;    0.000
359.388; 1954.350;  273.825;    0.000
359.442; 1940.350;  233.825;    0.000
359.496; 1860.350;  226.825;    0.000
359.550; 1930.350;  271.825;    0.000
359.604; 1910.350;  296.825;    0.000
359.658; 1955.350;  252.825;    0.000
359.712; 1886.350;  256.825;    0.000
359.766; 1902.350;  257.825;    0.000
359.820; 1957.350;  239.825;    0.000
359.875; 1851.350;  252.825;    0.000
359.929; 1909.350;  258.825;    0.000
359.983; 1865.350;  232.825;    0.000
360.037; 1871.350;  268.825;    0.000
360.091; 1944.350;  303.825;    0.000
360.145; 1823.350;  232.825;    0.000
360.199; 1854.350;  255.825;    0.000
360.253; 1914.350;  252.825;    0.000
360.306; 1893.350;  278.825;    0.000
360.360; 1876.350;  249.825;    0.000
360.414; 1867.350;  274.825;    0.000
360.468; 1867.350;  247.825;    0.000
360.522; 1923.350;  268.825;    0.000
360.576; 1956.350;  263.825;    0.000
360.630; 1974.350;  296.825;    0.000
360.684; 1923.350;  253.825;    0.000
360.738; 1867.350;  301.825;    0.000
360.792; 1813.350;  282.825;    0.000
360.846; 1920.350;  277.825;    0.000
360.899; 1959.350;  292.825;    0.000
360.953; 1947.350;  266.825;    0.000
361.007; 1977.350;  240.825;    0.000
361.061; 1982.350;  247.825;    0.000
361.115; 1912.350;  276.825;    0.000
361.168; 1915.350;  288.825;    0.000
361.222; 1943.350;  271.825;    0.000
361.276; 1882.350;  270.825;    0.000
361.330; 1925.350;  295.825;    0.000
361.384; 1898.350;  276.825;    0.000
361.437; 1949.350;  280.825;    0.000
361.491; 1897.350;  261.825;    0.000
361.545; 1973.350;  273.825;    0.000
361.599; 1926.350;  269.825;    0.000
361.652; 1953.350;  258.825;    0.000
361.706; 1884.350;  270.825;    0.000
361.760; 1852.350;  294.825;    0.000
361.813; 1894.350;  244.825;    0.000
361.867; 2007.350;  294.825;    0.000
361.921; 1908.350;  285.825;    0.000
361.974; 1872.350;  269.825;    0.000
362.028; 1900.350;  275.825;    0.000
362.082; 1871.350;  270.825;    0.000
362.135; 1853.350;  259.825;    0.000
362.189; 1906.350;  302.825;    0.000
362.242; 1842.350;  296.825;    0.000
362.296; 1972.350;  285.825;    0.000
362.350; 1921.350;  303.825;    0.000
362.403; 1966.350;  271.825;    0.000
362.457; 1973.350;  285.825;    0.000
362.510; 1905.350;  288.825;    0.000
362.564; 1886.350;  268.825;    0.000
362.617; 1924.350;  285.825;    0.000
362.671; 1851.350;  277.825;    0.000
362.724; 1784.350;  242.825;    0.000
362.778; 1812.350;  274.825;    0.000
362.831; 1911.350;  280.825;    0.000
362.885; 1946.350;  284.825;    0.000
362.938; 1781.350;  276.825;    0.000
362.992;  328.350;  289.825;    0.000
363.045;  260.350;  247.825;    0.000
363.099;  271.350;  260.825;    0.000
363.152;  293.350;  258.825;    0.000
363.205;  280.350;  286.825;    0.000
363.259;  272.350;  236.825;    0.000
363.312;  282.350;  297.825;    0.000
363.366;  281.350;  266.825;    0.000
363.419;  282.350;  309.825;    0.000
363.472;  338.350;  293.825;    0.000
363.526;  300.350;  270.825;    0.000
363.579;  275.350;  276.825;    0.000
363.632;  266.350;  279.825;    0.000
363.686;  259.350;  292.825;    0.000
363.739;  271.350;  248.825;    0.000
363.792;  282.350;  287.825;    0.000

