
Integration time [ms]:   1.000
Averaging Nr. [scans]: 1
Smoothing Nr. [pixels]: 0
Data measured with spectrometer [name]: UV2
Wave   ;Sample   ;Dark     ;Reference
[nm]   ;[counts] ;[counts] ;[counts] 

353.533;  225.500;  216.475;    0.000
353.597;  250.500;  244.475;    0.000
353.660;  211.500;  181.475;    0.000
353.723;  199.500;  203.475;    0.000
353.786;  206.500;  180.475;    0.000
353.850;  226.500;  213.475;    0.000
353.913;  161.500;  191.475;    0.000
353.976;  211.500;  195.475;    0.000
354.039;  213.500;  158.475;    0.000
354.102;  213.500;  199.475;    0.000
354.166;  199.500;  185.475;    0.000
354.229;  218.500;  188.475;    0.000
354.292;  175.500;  188.475;    0.000
354.355;  206.500;  226.475;    0.000
354.418;  190.500;  158.475;    0.000
354.481;  201.500;  185.475;    0.000
354.545;  709.500;  191.475;    0.000
354.608;  731.500;  247.475;    0.000
354.671;  693.500;  176.475;    0.000
354.734;  779.500;  198.475;    0.000
354.797;  754.500;  195.475;    0.000
354.860;  790.500;  212.475;    0.000
354.923;  801.500;  184.475;    0.000
354.986;  882.500;  169.475;    0.000
355.050;  845.500;  206.475;    0.000
355.113;  873.500;  210.475;    0.000
355.176;  831.500;  217.475;    0.000
355.239;  858.500;  201.475;    0.000
355.302;  885.500;  193.475;    0.000
355.365;  910.500;  234.475;    0.000
355.428;  944.500;  182.475;    0.000
355.491;  951.500;  233.475;    0.000
355.554;  907.500;  167.475;    0.000
355.617;  928.500;  195.475;    0.000
355.680;  957.500;  198.475;    0.000
355.743;  978.500;  186.475;    0.000
355.806;  955.500;  171.475;    0.000
355.869; 1001.500;  244.475;    0.000
355.932; 1012.500;  164.475;    0.000
355.995; 1030.500;  220.475;    0.000
356.058;  999.500;  172.475;    0.000
356.121; 1049.500;  228.475;    0.000
356.184; 1090.500;  225.475;    0.000
356.247;  992.500;  161.475;    0.000
356.310;  981.500;  195.475;    0.000
356.373; 1047.500;  191.475;    0.000
356.436; 1072.500;  147.475;    0.000
356.498; 1055.500;  183.475;    0.000
356.561; 1022.500;  137.475;    0.000
356.624; 1060.500;  186.475;    0.000
356.687; 1035.500;  158.475;    0.000
356.750; 1090.500;  194.475;    0.000
356.813; 1097.500;  186.475;    0.000
356.876; 1125.500;  161.475;    0.000
356.939; 1098.500;  188.475;    0.000
357.001; 1063.500;  200.475;    0.000
357.064; 1113.500;  182.475;    0.000
357.127; 1066.500;  168.475;    0.000
357.190; 1136.500;  157.475;    0.000
357.253; 1107.500;  199.475;    0.000
357.316; 1125.500;  187.475;    0.000
357.378; 1114.500;  174.475;    0.000
357.441; 1073.500;  165.475;    0.000
357.504; 1086.500;  189.475;    0.000
357.567; 1135.500;  116.475;    0.000
357.629; 1136.500;  176.475;    0.000
357.692; 1087.500;  134.475;    0.000
357.755; 1118.500;  175.475;    0.000
357.818; 1071.500;  159.475;    0.000
357.880; 1133.500;  185.475;    0.000
357.943; 1186.500;  159.475;    0.000
358.006; 1115.500;  176.475;    0.000
358.069; 1147.500;  156.475;    0.000
358.131; 1111.500;  170.475;    0.000
358.194; 1122.500;  125.475;    0.000
358.257; 1117.500;  186.475;    0.000
358.319; 1135.500;  139.475;    0.000
358.382; 1177.500;  175.475;    0.000
358.445; 1119.500;  170.475;    0.000
358.507; 1179.500;  129.475;    0.000
358.570; 1192.500;  168.475;    0.000
358.633; 1117.500;  152.475;    0.000
358.695; 1128.500;  194.475;    0.000
358.758; 1153.500;  154.475;    0.000
358.821; 1201.500;  147.475;    0.000
358.883; 1132.500;  163.475;    0.000
358.946; 1178.500;  155.475;    0.000
359.008; 1206.500;  208.475;    0.000
359.071; 1182.500;  182.475;    0.000
359.134; 1226.500;  126.475;    0.000
359.196; 1228.500;  142.475;    0.000
359.259; 1189.500;  138.475;    0.000
359.321; 1163.500;  153.475;    0.000
359.384; 1243.500;  186.475;    0.000
359.446; 1245.500;  152.475;    0.000
359.509; 1166.500;  144.475;    0.000
359.571; 1198.500;  164.475;    0.000
359.634; 1177.500;  171.475;    0.000
359.696; 1179.500;  144.475;    0.000
359.759; 1188.500;  171.475;    0.000
359.821; 1233.500;  161.475;    0.000
359.884; 1191.500;  159.475;    0.000
359.946; 1262.500;  186.475;    0.000
360.009; 1261.500;  171.475;    0.000
360.071; 1204.500;  166.475;    0.000
360.134; 1250.500;  215.475;    0.000
360.196; 1215.500;  138.475;    0.000
360.259; 1271.500;  196.475;    0.000
360.321; 1236.500;  148.475;    0.000
360.384; 1228.500;  150.475;    0.000
360.446; 1225.500;  148.475;    0.000
360.508; 1235.500;  172.475;    0.000
360.571; 1305.500;  155.475;    0.000
360.633; 1292.500;  153.475;    0.000
360.696; 1266.500;  142.475;    0.000
360.758; 1200.500;  165.475;    0.000
360.820; 1295.500;  155.475;    0.000
360.883; 1178.500;  156.475;    0.000
360.945; 1314.500;  171.475;    0.000
361.007; 1259.500;  138.475;    0.000
361.070; 1290.500;  129.475;    0.000
361.132; 1341.500;  166.475;    0.000
361.194; 1323.500;  143.475;    0.000
361.257; 1295.500;  154.475;    0.000
361.319; 1285.500;  176.475;    0.000
361.381; 1267.500;  143.475;    0.000
361.443; 1276.500;  136.475;    0.000
361.506; 1287.500;  160.475;    0.000
361.568; 1337.500;  140.475;    0.000
361.630; 1324.500;  159.475;    0.000
361.693; 1245.500;  162.475;    0.000
361.755; 1388.500;  185.475;    0.000
361.817; 1329.500;  209.475;    0.000
361.879; 1420.500;  161.475;    0.000
361.941; 1330.500;  152.475;    0.000
362.004; 1310.500;  132.475;    0.000
362.066; 1314.500;  159.475;    0.000
362.128; 1366.500;  143.475;    0.000
362.190; 1356.500;  131.475;    0.000
362.252; 1391.500;  131.475;    0.000
362.315; 1333.500;  175.475;    0.000
362.377; 1303.500;  140.475;    0.000
362.439; 1315.500;  140.475;    0.000
362.501; 1352.500;  140.475;    0.000
362.563; 1427.500;  152.475;    0.000
362.625; 1394.500;  174.475;    0.000
362.688; 1339.500;  195.475;    0.000
362.750; 1387.500;  221.475;    0.000
362.812; 1432.500;  171.475;    0.000
362.874; 1341.500;  117.475;    0.000
362.936; 1389.500;  162.475;    0.000
362.998; 1359.500;  142.475;    0.000
363.060; 1441.500;  143.475;    0.000
363.122; 1378.500;  148.475;    0.000
363.184; 1378.500;  179.475;    0.000
363.246; 1394.500;  186.475;    0.000
363.308; 1389.500;  180.475;    0.000
363.370; 1376.500;  200.475;    0.000
363.432; 1381.500;  139.475;    0.000
363.494; 1367.500;  138.475;    0.000
363.556; 1361.500;  114.475;    0.000
363.618; 1338.500;  153.475;    0.000
363.680; 1332.500;  153.475;    0.000
363.742; 1384.500;  178.475;    0.000
363.804; 1419.500;  214.475;    0.000
363.866; 1354.500;  170.475;    0.000
363.928; 1367.500;  145.475;    0.000
363.990; 1390.500;  215.475;    0.000
364.052; 1416.500;  166.475;    0.000
364.114; 1347.500;  168.475;    0.000
364.176; 1413.500;  176.475;    0.000
364.238; 1437.500;  203.475;    0.000
364.300; 1365.500;  158.475;    0.000
364.362; 1400.500;  152.475;    0.000
364.424; 1419.500;  119.475;    0.000
364.486; 1428.500;  187.475;    0.000
364.548; 1418.500;  180.475;    0.000
364.609; 1464.500;  212.475;    0.000
364.671; 1440.500;  165.475;    0.000
364.733; 1397.500;  190.475;    0.000
364.795; 1412.500;  148.475;    0.000
364.857; 1389.500;  159.475;    0.000
364.919; 1394.500;  159.475;    0.000
364.981; 1488.500;  191.475;    0.000
365.042; 1500.500;  170.475;    0.000
365.104; 1406.500;  145.475;    0.000
365.166; 1374.500;  134.475;    0.000
365.228; 1449.500;  150.475;    0.000
365.290; 1400.500;  158.475;    0.000
365.351; 1454.500;  168.475;    0.000
365.413; 1397.500;  173.475;    0.000
365.475; 1463.500;  172.475;    0.000
365.537; 1412.500;  126.475;    0.000
365.598; 1386.500;  160.475;    0.000
365.660; 1413.500;  127.475;    0.000
365.722; 1454.500;  189.475;    0.000
365.784; 1393.500;  161.475;    0.000
365.845; 1418.500;  152.475;    0.000
365.907; 1421.500;  117.475;    0.000
365.969; 1404.500;  146.475;    0.000
366.030; 1527.500;  171.475;    0.000
366.092; 1420.500;  155.475;    0.000
366.154; 1455.500;  137.475;    0.000
366.215; 1506.500;  147.475;    0.000
366.277; 1456.500;  148.475;    0.000
366.339; 1447.500;  158.475;    0.000
366.400; 1394.500;  140.475;    0.000
366.462; 1443.500;  159.475;    0.000
366.524; 1485.500;  160.475;    0.000
366.585; 1454.500;  157.475;    0.000
366.647; 1461.500;  170.475;    0.000
366.708; 1443.500;  123.475;    0.000
366.770; 1459.500;  194.475;    0.000
366.832; 1472.500;  191.475;    0.000
366.893; 1489.500;  155.475;    0.000
366.955; 1432.500;  132.475;    0.000
367.016; 1501.500;  126.475;    0.000
367.078; 1437.500;  202.475;    0.000
367.139; 1476.500;  116.475;    0.000
367.201; 1448.500;  134.475;    0.000
367.262; 1460.500;  157.475;    0.000
367.324; 1434.500;  202.475;    0.000
367.385; 1446.500;  118.475;    0.000
367.447; 1506.500;  155.475;    0.000
367.508; 1464.500;  134.475;    0.000
367.570; 1570.500;  165.475;    0.000
367.631; 1479.500;  118.475;    0.000
367.693; 1435.500;  170.475;    0.000
367.754; 1483.500;  154.475;    0.000
367.816; 1492.500;  146.475;    0.000
367.877; 1553.500;  175.475;    0.000
367.939; 1539.500;  200.475;    0.000
368.000; 1489.500;  168.475;    0.000
368.062; 1461.500;  138.475;    0.000
368.123; 1490.500;  170.475;    0.000
368.184; 1486.500;  188.475;    0.000
368.246; 1541.500;  145.475;    0.000
368.307; 1600.500;  163.475;    0.000
368.369; 1586.500;  144.475;    0.000
368.430; 1503.500;  140.475;    0.000
368.491; 1515.500;  133.475;    0.000
368.553; 1582.500;  145.475;    0.000
368.614; 1478.500;  158.475;    0.000
368.675; 1557.500;  147.475;    0.000
368.737; 1489.500;  157.475;    0.000
368.798; 1501.500;  163.475;    0.000
368.859; 1529.500;  173.475;    0.000
368.921; 1503.500;  122.475;    0.000
368.982; 1550.500;  184.475;    0.000
369.043; 1504.500;  169.475;    0.000
369.104; 1578.500;  142.475;    0.000
369.166; 1544.500;  169.475;    0.000
369.227; 1529.500;  156.475;    0.000
369.288; 1527.500;  151.475;    0.000
369.349; 1538.500;  191.475;    0.000
369.411; 1635.500;  168.475;    0.000
369.472; 1474.500;  155.475;    0.000
369.533; 1568.500;  149.475;    0.000
369.594; 1539.500;  174.475;    0.000
369.656; 1541.500;  188.475;    0.000
369.717; 1491.500;  113.475;    0.000
369.778; 1565.500;  184.475;    0.000
369.839; 1600.500;  151.475;    0.000
369.900; 1627.500;  180.475;    0.000
369.961; 1498.500;  171.475;    0.000
370.023; 1605.500;  143.475;    0.000
370.084; 1552.500;  137.475;    0.000
370.145; 1596.500;  152.475;    0.000
370.206; 1631.500;  151.475;    0.000
370.267; 1593.500;  134.475;    0.000
370.328; 1596.500;  178.475;    0.000
370.389; 1598.500;  181.475;    0.000
370.451; 1574.500;  169.475;    0.000
370.512; 1561.500;  172.475;    0.000
370.573; 1650.500;  148.475;    0.000
370.634; 1594.500;  156.475;    0.000
370.695; 1505.500;  151.475;    0.000
370.756; 1593.500;  185.475;    0.000
370.817; 1606.500;  185.475;    0.000
370.878; 1549.500;  191.475;    0.000
370.939; 1631.500;  147.475;    0.000
371.000; 1656.500;  162.475;    0.000
371.061; 1620.500;  145.475;    0.000
371.122; 1545.500;  179.475;    0.000
371.183; 1622.500;  114.475;    0.000
371.244; 1619.500;  180.475;    0.000
371.305; 1628.500;  138.475;    0.000
371.366; 1622.500;  157.475;    0.000
371.427; 1608.500;  148.475;    0.000
371.488; 1625.500;  138.475;    0.000
371.549; 1601.500;  193.475;    0.000
371.610; 1602.500;  158.475;    0.000
371.671; 1623.500;  119.475;    0.000
371.732; 1630.500;  159.475;    0.000
371.793; 1632.500;  178.475;    0.000
371.853; 1562.500;  155.475;    0.000
371.914; 1595.500;  148.475;    0.000
371.975; 1579.500;  124.475;    0.000
372.036; 1639.500;  158.475;    0.000
372.097; 1532.500;  136.475;    0.000
372.158; 1631.500;  116.475;    0.000
372.219; 1667.500;  157.475;    0.000
372.280; 1625.500;  151.475;    0.000
372.340; 1657.500;  190.475;    0.000
372.401; 1666.500;  151.475;    0.000
372.462; 1633.500;  129.475;    0.000
372.523; 1657.500;  121.475;    0.000
372.584; 1600.500;  152.475;    0.000
372.645; 1646.500;  132.475;    0.000
372.705; 1675.500;  190.475;    0.000
372.766; 1668.500;  153.475;    0.000
372.827; 1578.500;  133.475;    0.000
372.888; 1612.500;  161.475;    0.000
372.948; 1585.500;  159.475;    0.000
373.009; 1649.500;  164.475;    0.000
373.070; 1560.500;  139.475;    0.000
373.131; 1649.500;  137.475;    0.000
373.191; 1594.500;  181.475;    0.000
373.252; 1730.500;  154.475;    0.000
373.313; 1636.500;  179.475;    0.000
373.373; 1678.500;  136.475;    0.000
373.434; 1720.500;  169.475;    0.000
373.495; 1651.500;   97.475;    0.000
373.555; 1655.500;  142.475;    0.000
373.616; 1610.500;  178.475;    0.000
373.677; 1633.500;  167.475;    0.000
373.737; 1650.500;  139.475;    0.000
373.798; 1663.500;  155.475;    0.000
373.859; 1683.500;  162.475;    0.000
373.919; 1665.500;  174.475;    0.000
373.980; 1628.500;  172.475;    0.000
374.041; 1657.500;  166.475;    0.000
374.101; 1647.500;  172.475;    0.000
374.162; 1719.500;  188.475;    0.000
374.222; 1744.500;  186.475;    0.000
374.283; 1746.500;  195.475;    0.000
374.343; 1800.500;  204.475;    0.000
374.404; 1695.500;  187.475;    0.000
374.465; 1675.500;  183.475;    0.000
374.525; 1760.500;  136.475;    0.000
374.586; 1689.500;  140.475;    0.000
374.646; 1746.500;  191.475;    0.000
374.707; 1767.500;  208.475;    0.000
374.767; 1721.500;  178.475;    0.000
374.828; 1704.500;  159.475;    0.000
374.888; 1818.500;  143.475;    0.000
374.949; 1697.500;  202.475;    0.000
375.009; 1789.500;  151.475;    0.000
375.070; 1754.500;  160.475;    0.000
375.130; 1786.500;  160.475;    0.000
375.190; 1737.500;  164.475;    0.000
375.251; 1772.500;  196.475;    0.000
375.311; 1760.500;  154.475;    0.000
375.372; 1729.500;  197.475;    0.000
375.432; 1777.500;  159.475;    0.000
375.493; 1740.500;  197.475;    0.000
375.553; 1762.500;  165.475;    0.000
375.613; 1770.500;  174.475;    0.000
375.674; 1744.500;  165.475;    0.000
375.734; 1744.500;  128.475;    0.000
375.794; 1726.500;  169.475;    0.000
375.855; 1731.500;  193.475;    0.000
375.915; 1789.500;  162.475;    0.000
375.975; 1658.500;  181.475;    0.000
376.036; 1704.500;  161.475;    0.000
376.096; 1695.500;  131.475;    0.000
376.156; 1789.500;  165.475;    0.000
376.217; 1714.500;  182.475;    0.000
376.277; 1867.500;  185.475;    0.000
376.337; 1806.500;  177.475;    0.000
376.398; 1783.500;  162.475;    0.000
376.458; 1712.500;  179.475;    0.000
376.518; 1775.500;  150.475;    0.000
376.578; 1713.500;  165.475;    0.000
376.639; 1797.500;  159.475;    0.000
376.699; 1835.500;  180.475;    0.000
376.759; 1742.500;  206.475;    0.000
376.819; 1763.500;  146.475;    0.000
376.880; 1840.500;  177.475;    0.000
376.940; 1872.500;  160.475;    0.000
377.000; 1795.500;  149.475;    0.000
377.060; 1737.500;  180.475;    0.000
377.120; 1815.500;  146.475;    0.000
377.180; 1824.500;  137.475;    0.000
377.241; 1850.500;  163.475;    0.000
377.301; 1799.500;  169.475;    0.000
377.361; 1856.500;  137.475;    0.000
377.421; 1829.500;  184.475;    0.000
377.481; 1868.500;  185.475;    0.000
377.541; 1797.500;  146.475;    0.000
377.601; 1923.500;  179.475;    0.000
377.661; 1896.500;  181.475;    0.000
377.722; 1850.500;  185.475;    0.000
377.782; 1876.500;  147.475;    0.000
377.842; 1902.500;  190.475;    0.000
377.902; 1857.500;  166.475;    0.000
377.962; 1806.500;  153.475;    0.000
378.022; 1919.500;  163.475;    0.000
378.082; 1972.500;  146.475;    0.000
378.142; 1949.500;  152.475;    0.000
378.202; 1964.500;  164.475;    0.000
378.262; 2001.500;  195.475;    0.000
378.322; 1895.500;  190.475;    0.000
378.382; 1862.500;  152.475;    0.000
378.442; 1964.500;  175.475;    0.000
378.502; 2064.500;  153.475;    0.000
378.562; 1916.500;  142.475;    0.000
378.622; 2023.500;  166.475;    0.000
378.682; 2035.500;  173.475;    0.000
378.742; 2028.500;  182.475;    0.000
378.802; 1988.500;  145.475;    0.000
378.862; 2062.500;  210.475;    0.000
378.921; 2073.500;  182.475;    0.000
378.981; 1987.500;  185.475;    0.000
379.041; 2004.500;  130.475;    0.000
379.101; 2124.500;  177.475;    0.000
379.161; 2049.500;  166.475;    0.000
379.221; 2108.500;  162.475;    0.000
379.281; 2085.500;  167.475;    0.000
379.341; 2138.500;  136.475;    0.000
379.401; 2126.500;  145.475;    0.000
379.460; 2060.500;  176.475;    0.000
379.520; 2048.500;  162.475;    0.000
379.580; 2134.500;  144.475;    0.000
379.640; 2101.500;  163.475;    0.000
379.700; 2077.500;  157.475;    0.000
379.759; 2234.500;  165.475;    0.000
379.819; 2160.500;  190.475;    0.000
379.879; 2177.500;  143.475;    0.000
379.939; 2116.500;  188.475;    0.000
379.999; 2072.500;  141.475;    0.000
380.058; 2159.500;  169.475;    0.000
380.118; 2204.500;  158.475;    0.000
380.178; 2146.500;  114.475;    0.000
380.237; 2238.500;  157.475;    0.000
380.297; 2196.500;  177.475;    0.000
380.357; 2217.500;  189.475;    0.000
380.417; 2306.500;  182.475;    0.000
380.476; 2197.500;  178.475;    0.000
380.536; 2235.500;  189.475;    0.000
380.596; 2234.500;  183.475;    0.000
380.655; 2272.500;  195.475;    0.000
380.715; 2193.500;  170.475;    0.000
380.775; 2282.500;  170.475;    0.000
380.834; 2257.500;  179.475;    0.000
380.894; 2243.500;  188.475;    0.000
380.954; 2310.500;  142.475;    0.000
381.013; 2366.500;  178.475;    0.000
381.073; 2303.500;  164.475;    0.000
381.132; 2382.500;  192.475;    0.000
381.192; 2347.500;  187.475;    0.000
381.252; 2389.500;  176.475;    0.000
381.311; 2395.500;  206.475;    0.000
381.371; 2413.500;  167.475;    0.000
381.430; 2363.500;  131.475;    0.000
381.490; 2457.500;  150.475;    0.000
381.549; 2406.500;  129.475;    0.000
381.609; 2427.500;  178.475;    0.000
381.668; 2400.500;  194.475;    0.000
381.728; 2487.500;  210.475;    0.000
381.787; 2598.500;  190.475;    0.000
381.847; 2557.500;  181.475;    0.000
381.906; 2483.500;  156.475;    0.000
381.966; 2598.500;  176.475;    0.000
382.025; 2617.500;  186.475;    0.000
382.085; 2651.500;  192.475;    0.000
382.144; 2730.500;  173.475;    0.000
382.204; 2777.500;  207.475;    0.000
382.263; 2711.500;  193.475;    0.000
382.323; 2756.500;  164.475;    0.000
382.382; 2835.500;  161.475;    0.000
382.441; 2923.500;  199.475;    0.000
382.501; 3002.500;  208.475;    0.000
382.560; 2977.500;  173.475;    0.000
382.619; 3058.500;  179.475;    0.000
382.679; 3285.500;  177.475;    0.000
382.738; 3325.500;  190.475;    0.000
382.798; 3641.500;  213.475;    0.000
382.857; 3872.500;  195.475;    0.000
382.916; 4511.500;  184.475;    0.000
382.976; 4626.500;  169.475;    0.000
383.035; 4342.500;  194.475;    0.000
383.094; 4530.500;  185.475;    0.000
383.154; 5182.500;  198.475;    0.000
383.213; 5783.500;  147.475;    0.000
383.272; 5467.500;  175.475;    0.000
383.331; 4575.500;  122.475;    0.000
383.391; 4119.500;  185.475;    0.000
383.450; 4143.500;  160.475;    0.000
383.509; 4083.500;  168.475;    0.000
383.568; 4131.500;  196.475;    0.000
383.628; 4461.500;  156.475;    0.000
383.687; 4885.500;  171.475;    0.000
383.746; 5647.500;  155.475;    0.000
383.805; 6413.500;  201.475;    0.000
383.864; 6285.500;  125.475;    0.000
383.924; 4962.500;  213.475;    0.000
383.983; 4100.500;  188.475;    0.000
384.042; 3779.500;  162.475;    0.000
384.101; 3576.500;  183.475;    0.000
384.160; 3354.500;  155.475;    0.000
384.219; 3185.500;  155.475;    0.000
384.279; 3156.500;  189.475;    0.000
384.338; 2969.500;  156.475;    0.000
384.397; 2794.500;  148.475;    0.000
384.456; 2887.500;  154.475;    0.000
384.515; 2842.500;  160.475;    0.000
384.574; 2898.500;  223.475;    0.000
384.633; 2806.500;  133.475;    0.000
384.692; 2731.500;  163.475;    0.000
384.751; 2731.500;  186.475;    0.000
384.810; 2723.500;  187.475;    0.000
384.869; 2643.500;  172.475;    0.000
384.929; 2653.500;  153.475;    0.000
384.988; 2777.500;  174.475;    0.000
385.047; 2627.500;  154.475;    0.000
385.106; 2679.500;  164.475;    0.000
385.165; 2667.500;  151.475;    0.000
385.224; 2626.500;  147.475;    0.000
385.283; 2674.500;  176.475;    0.000
385.342; 2645.500;  142.475;    0.000
385.401; 2685.500;  175.475;    0.000
385.459; 2661.500;  150.475;    0.000
385.518; 2525.500;  124.475;    0.000
385.577; 2571.500;  115.475;    0.000
385.636; 2608.500;  174.475;    0.000
385.695; 2628.500;  158.475;    0.000
385.754; 2584.500;  150.475;    0.000
385.813; 2600.500;  129.475;    0.000
385.872; 2591.500;  146.475;    0.000
385.931; 2634.500;  194.475;    0.000
385.990; 2534.500;  174.475;    0.000
386.049; 2618.500;  176.475;    0.000
386.107; 2646.500;  151.475;    0.000
386.166; 2535.500;  178.475;    0.000
386.225; 2541.500;  162.475;    0.000
386.284; 2497.500;  180.475;    0.000
386.343; 2535.500;  171.475;    0.000
386.402; 2589.500;  176.475;    0.000
386.460; 2629.500;  144.475;    0.000
386.519; 2542.500;  140.475;    0.000
386.578; 2526.500;  145.475;    0.000
386.637; 2553.500;  164.475;    0.000
386.696; 2612.500;  189.475;    0.000
386.754; 2544.500;  135.475;    0.000
386.813; 2639.500;  139.475;    0.000
386.872; 2565.500;  121.475;    0.000
386.931; 2490.500;  153.475;    0.000
386.989; 2530.500;  211.475;    0.000
387.048; 2512.500;  156.475;    0.000
387.107; 2623.500;  210.475;    0.000
387.165; 2456.500;  129.475;    0.000
387.224; 2493.500;  205.475;    0.000
387.283; 2497.500;  130.475;    0.000
387.342; 2498.500;  171.475;    0.000
387.400; 2443.500;  156.475;    0.000
387.459; 2454.500;  141.475;    0.000
387.517; 2480.500;  219.475;    0.000
387.576; 2468.500;  166.475;    0.000
387.635; 2467.500;  136.475;    0.000
387.693; 2419.500;  191.475;    0.000
387.752; 2479.500;  165.475;    0.000
387.811; 2438.500;  158.475;    0.000
387.869; 2540.500;  204.475;    0.000
387.928; 2427.500;  149.475;    0.000
387.986; 2417.500;  156.475;    0.000
388.045; 2461.500;  123.475;    0.000
388.103; 2405.500;  150.475;    0.000
388.162; 2446.500;  173.475;    0.000
388.221; 2429.500;  143.475;    0.000
388.279; 2394.500;  129.475;    0.000
388.338; 2518.500;  212.475;    0.000
388.396; 2458.500;  150.475;    0.000
388.455; 2449.500;  167.475;    0.000
388.513; 2334.500;  116.475;    0.000
388.572; 2457.500;  181.475;    0.000
388.630; 2477.500;  187.475;    0.000
388.689; 2381.500;  180.475;    0.000
388.747; 2428.500;  154.475;    0.000
388.806; 2357.500;  161.475;    0.000
388.864; 2344.500;  167.475;    0.000
388.922; 2474.500;  184.475;    0.000
388.981; 2392.500;  169.475;    0.000
389.039; 2388.500;  102.475;    0.000
389.098; 2466.500;  183.475;    0.000
389.156; 2436.500;  182.475;    0.000
389.214; 2467.500;  173.475;    0.000
389.273; 2456.500;  167.475;    0.000
389.331; 2402.500;  170.475;    0.000
389.390; 2437.500;  150.475;    0.000
389.448; 2452.500;  156.475;    0.000
389.506; 2415.500;  149.475;    0.000
389.565; 2468.500;  162.475;    0.000
389.623; 2411.500;  188.475;    0.000
389.681; 2500.500;  204.475;    0.000
389.740; 2492.500;  187.475;    0.000
389.798; 2335.500;  153.475;    0.000
389.856; 2404.500;  214.475;    0.000
389.914; 2403.500;  177.475;    0.000
389.973; 2424.500;  189.475;    0.000
390.031; 2354.500;  178.475;    0.000
390.089; 2363.500;  163.475;    0.000
390.147; 2310.500;  170.475;    0.000
390.206; 2373.500;  183.475;    0.000
390.264; 2382.500;  161.475;    0.000
390.322; 2375.500;  148.475;    0.000
390.380; 2323.500;  138.475;    0.000
390.439; 2351.500;  194.475;    0.000
390.497; 2396.500;  170.475;    0.000
390.555; 2357.500;  165.475;    0.000
390.613; 2409.500;  177.475;    0.000
390.671; 2349.500;  170.475;    0.000
390.729; 2491.500;  158.475;    0.000
390.788; 2374.500;  162.475;    0.000
390.846; 2382.500;  161.475;    0.000
390.904; 2364.500;  197.475;    0.000
390.962; 2300.500;  212.475;    0.000
391.020; 2383.500;  224.475;    0.000
391.078; 2407.500;  184.475;    0.000
391.136; 2415.500;  191.475;    0.000
391.194; 2404.500;  187.475;    0.000
391.253; 2404.500;  197.475;    0.000
391.311; 2321.500;  185.475;    0.000
391.369; 2367.500;  207.475;    0.000
391.427; 2469.500;  222.475;    0.000
391.485; 2400.500;  184.475;    0.000
391.543; 2410.500;  203.475;    0.000
391.601; 2434.500;  151.475;    0.000
391.659; 2409.500;  176.475;    0.000
391.717; 2442.500;  190.475;    0.000
391.775; 2364.500;  159.475;    0.000
391.833; 2485.500;  186.475;    0.000
391.891; 2425.500;  154.475;    0.000
391.949; 2386.500;  181.475;    0.000
392.007; 2465.500;  190.475;    0.000
392.065; 2452.500;  182.475;    0.000
392.123; 2256.500;  158.475;    0.000
392.180; 2404.500;  198.475;    0.000
392.238; 2445.500;  191.475;    0.000
392.296; 2402.500;  164.475;    0.000
392.354; 2420.500;  172.475;    0.000
392.412; 2492.500;  194.475;    0.000
392.470; 2388.500;  154.475;    0.000
392.528; 2504.500;  172.475;    0.000
392.586; 2457.500;  179.475;    0.000
392.644; 2412.500;  173.475;    0.000
392.701; 2434.500;  202.475;    0.000
392.759; 2394.500;  180.475;    0.000
392.817; 2514.500;  181.475;    0.000
392.875; 2468.500;  168.475;    0.000
392.933; 2462.500;  161.475;    0.000
392.991; 2439.500;  216.475;    0.000
393.048; 2453.500;  197.475;    0.000
393.106; 2379.500;  199.475;    0.000
393.164; 2492.500;  173.475;    0.000
393.222; 2393.500;  179.475;    0.000
393.279; 2479.500;  209.475;    0.000
393.337; 2470.500;  185.475;    0.000
393.395; 2485.500;  174.475;    0.000
393.453; 2462.500;  181.475;    0.000
393.510; 2562.500;  188.475;    0.000
393.568; 2505.500;  191.475;    0.000
393.626; 2483.500;  151.475;    0.000
393.684; 2574.500;  208.475;    0.000
393.741; 2585.500;  179.475;    0.000
393.799; 2531.500;  149.475;    0.000
393.857; 2466.500;  136.475;    0.000
393.914; 2539.500;  190.475;    0.000
393.972; 2481.500;  155.475;    0.000
394.030; 2476.500;  170.475;    0.000
394.087; 2489.500;  213.475;    0.000
394.145; 2565.500;  191.475;    0.000
394.202; 2523.500;  188.475;    0.000
394.260; 2482.500;  168.475;    0.000
394.318; 2574.500;  176.475;    0.000
394.375; 2546.500;  159.475;    0.000
394.433; 2540.500;  168.475;    0.000
394.490; 2583.500;  163.475;    0.000
394.548; 2507.500;  163.475;    0.000
394.605; 2553.500;  181.475;    0.000
394.663; 2507.500;  180.475;    0.000
394.720; 2518.500;  193.475;    0.000
394.778; 2519.500;  168.475;    0.000
394.836; 2563.500;  128.475;    0.000
394.893; 2470.500;  151.475;    0.000
394.951; 2487.500;  173.475;    0.000
395.008; 2443.500;  201.475;    0.000
395.065; 2571.500;  139.475;    0.000
395.123; 2519.500;  173.475;    0.000
395.180; 2549.500;  144.475;    0.000
395.238; 2601.500;  135.475;    0.000
395.295; 2581.500;  167.475;    0.000
395.353; 2513.500;  150.475;    0.000
395.410; 2627.500;  165.475;    0.000
395.468; 2620.500;  223.475;    0.000
395.525; 2632.500;  156.475;    0.000
395.582; 2676.500;  178.475;    0.000
395.640; 2702.500;  178.475;    0.000
395.697; 2617.500;  173.475;    0.000
395.754; 2534.500;  154.475;    0.000
395.812; 2562.500;  169.475;    0.000
395.869; 2642.500;  196.475;    0.000
395.927; 2563.500;  190.475;    0.000
395.984; 2622.500;  195.475;    0.000
396.041; 2545.500;  160.475;    0.000
396.098; 2535.500;  161.475;    0.000
396.156; 2651.500;  187.475;    0.000
396.213; 2663.500;  200.475;    0.000
396.270; 2739.500;  160.475;    0.000
396.328; 2566.500;  113.475;    0.000
396.385; 2499.500;  165.475;    0.000
396.442; 2625.500;  168.475;    0.000
396.499; 2633.500;  117.475;    0.000
396.557; 2641.500;  203.475;    0.000
396.614; 2623.500;  155.475;    0.000
396.671; 2689.500;  187.475;    0.000
396.728; 2714.500;  169.475;    0.000
396.785; 2590.500;  167.475;    0.000
396.843; 2700.500;  154.475;    0.000
396.900; 2713.500;  172.475;    0.000
396.957; 2594.500;  176.475;    0.000
397.014; 2629.500;  193.475;    0.000
397.071; 2683.500;  170.475;    0.000
397.128; 2748.500;  172.475;    0.000
397.186; 2746.500;  205.475;    0.000
397.243; 2691.500;  163.475;    0.000
397.300; 2700.500;  193.475;    0.000
397.357; 2735.500;  166.475;    0.000
397.414; 2802.500;  149.475;    0.000
397.471; 2685.500;  157.475;    0.000
397.528; 2799.500;  180.475;    0.000
397.585; 2718.500;  203.475;    0.000
397.642; 2735.500;  156.475;    0.000
397.699; 2757.500;  229.475;    0.000
397.756; 2644.500;  185.475;    0.000
397.814; 2669.500;  191.475;    0.000
397.871; 2769.500;  170.475;    0.000
397.928; 2679.500;  191.475;    0.000
397.985; 2724.500;  183.475;    0.000
398.042; 2770.500;  161.475;    0.000
398.099; 2730.500;  192.475;    0.000
398.156; 2780.500;  176.475;    0.000
398.212; 2759.500;  170.475;    0.000
398.269; 2870.500;  158.475;    0.000
398.326; 2789.500;  175.475;    0.000
398.383; 2793.500;  177.475;    0.000
398.440; 2828.500;  169.475;    0.000
398.497; 2839.500;  184.475;    0.000
398.554; 2815.500;  196.475;    0.000
398.611; 2778.500;  198.475;    0.000
398.668; 2846.500;  135.475;    0.000
398.725; 2802.500;  181.475;    0.000
398.782; 2907.500;  195.475;    0.000
398.839; 2931.500;  179.475;    0.000
398.895; 2881.500;  188.475;    0.000
398.952; 2973.500;  176.475;    0.000
399.009; 2933.500;  183.475;    0.000
399.066; 2965.500;  190.475;    0.000
399.123; 2983.500;  174.475;    0.000
399.180; 3060.500;  191.475;    0.000
399.236; 3034.500;  217.475;    0.000
399.293; 3012.500;  154.475;    0.000
399.350; 3098.500;  210.475;    0.000
399.407; 3167.500;  202.475;    0.000
399.463; 3090.500;  162.475;    0.000
399.520; 3107.500;  207.475;    0.000
399.577; 3214.500;  174.475;    0.000
399.634; 3073.500;  170.475;    0.000
399.690; 3165.500;  186.475;    0.000
399.747; 3193.500;  218.475;    0.000
399.804; 3301.500;  200.475;    0.000
399.861; 3201.500;  190.475;    0.000
399.917; 3198.500;  218.475;    0.000
399.974; 3158.500;  200.475;    0.000
400.031; 3150.500;  200.475;    0.000
400.087; 3186.500;  153.475;    0.000
400.144; 3132.500;  188.475;    0.000
400.201; 3205.500;  198.475;    0.000
400.257; 3133.500;  205.475;    0.000
400.314; 3107.500;  183.475;    0.000
400.370; 3081.500;  227.475;    0.000
400.427; 3090.500;  177.475;    0.000
400.484; 2956.500;  202.475;    0.000
400.540; 3140.500;  173.475;    0.000
400.597; 2985.500;  212.475;    0.000
400.653; 3050.500;  182.475;    0.000
400.710; 2985.500;  201.475;    0.000
400.766; 3066.500;  188.475;    0.000
400.823; 3090.500;  205.475;    0.000
400.879; 3096.500;  165.475;    0.000
400.936; 3045.500;  180.475;    0.000
400.993; 2956.500;  181.475;    0.000
401.049; 3035.500;  147.475;    0.000
401.105; 2999.500;  205.475;    0.000
401.162; 3068.500;  197.475;    0.000
401.218; 2968.500;  177.475;    0.000
401.275; 3000.500;  183.475;    0.000
401.331; 3123.500;  198.475;    0.000
401.388; 2957.500;  209.475;    0.000
401.444; 2980.500;  211.475;    0.000
401.501; 2960.500;  185.475;    0.000
401.557; 2996.500;  190.475;    0.000
401.614; 3027.500;  172.475;    0.000
401.670; 2952.500;  185.475;    0.000
401.726; 2992.500;  196.475;    0.000
401.783; 2978.500;  187.475;    0.000
401.839; 3056.500;  192.475;    0.000
401.895; 3085.500;  173.475;    0.000
401.952; 3070.500;  145.475;    0.000
402.008; 3072.500;  197.475;    0.000
402.064; 2951.500;  146.475;    0.000
402.121; 3010.500;  197.475;    0.000
402.177; 3008.500;  173.475;    0.000
402.233; 3021.500;  185.475;    0.000
402.290; 3004.500;  175.475;    0.000
402.346; 3029.500;  164.475;    0.000
402.402; 3023.500;  173.475;    0.000
402.458; 3024.500;  183.475;    0.000
402.515; 3052.500;  147.475;    0.000
402.571; 2992.500;  210.475;    0.000
402.627; 3030.500;  181.475;    0.000
402.683; 3083.500;  177.475;    0.000
402.740; 3052.500;  162.475;    0.000
402.796; 3126.500;  178.475;    0.000
402.852; 3132.500;  138.475;    0.000
402.908; 3079.500;  181.475;    0.000
402.964; 3155.500;  151.475;    0.000
403.021; 3126.500;  170.475;    0.000
403.077; 3147.500;  204.475;    0.000
403.133; 3042.500;  144.475;    0.000
403.189; 3179.500;  207.475;    0.000
403.245; 3215.500;  184.475;    0.000
403.301; 3165.500;  170.475;    0.000
403.357; 3155.500;  201.475;    0.000
403.414; 3051.500;  205.475;    0.000
403.470; 3185.500;  170.475;    0.000
403.526; 3101.500;  135.475;    0.000
403.582; 3158.500;  180.475;    0.000
403.638; 3113.500;  185.475;    0.000
403.694; 3171.500;  169.475;    0.000
403.750; 3178.500;  210.475;    0.000
403.806; 3116.500;  210.475;    0.000
403.862; 3225.500;  219.475;    0.000
403.918; 3172.500;  191.475;    0.000
403.974; 3207.500;  193.475;    0.000
404.030; 3179.500;  154.475;    0.000
404.086; 3144.500;  170.475;    0.000
404.142; 3256.500;  194.475;    0.000
404.198; 3122.500;  224.475;    0.000
404.254; 3249.500;  177.475;    0.000
404.310; 3207.500;  204.475;    0.000
404.366; 3226.500;  170.475;    0.000
404.422; 3234.500;  172.475;    0.000
404.478; 3183.500;  153.475;    0.000
404.534; 3108.500;  159.475;    0.000
404.590; 3163.500;  203.475;    0.000
404.646; 3255.500;  164.475;    0.000
404.701; 3235.500;  141.475;    0.000
404.757; 3213.500;  195.475;    0.000
404.813; 3238.500;  152.475;    0.000
404.869; 3167.500;  174.475;    0.000
404.925; 3209.500;  167.475;    0.000
404.981; 3219.500;  175.475;    0.000
405.037; 3202.500;  170.475;    0.000
405.092; 3253.500;  155.475;    0.000
405.148; 3217.500;  160.475;    0.000
405.204; 3192.500;  158.475;    0.000
405.260; 3193.500;  128.475;    0.000
405.316; 3195.500;  168.475;    0.000
405.371; 3168.500;  162.475;    0.000
405.427; 3226.500;  187.475;    0.000
405.483; 3238.500;  214.475;    0.000
405.539; 3212.500;  163.475;    0.000
405.594; 3299.500;  191.475;    0.000
405.650; 3220.500;  124.475;    0.000
405.706; 3243.500;  188.475;    0.000
405.761; 3237.500;  204.475;    0.000
405.817; 3230.500;  150.475;    0.000
405.873; 3299.500;  152.475;    0.000
405.928; 3276.500;  135.475;    0.000
405.984; 3393.500;  209.475;    0.000
406.040; 3270.500;  165.475;    0.000
406.095; 3271.500;  146.475;    0.000
406.151; 3347.500;  169.475;    0.000
406.207; 3334.500;  174.475;    0.000
406.262; 3326.500;  189.475;    0.000
406.318; 3359.500;  141.475;    0.000
406.374; 3365.500;  178.475;    0.000
406.429; 3325.500;  197.475;    0.000
406.485; 3419.500;  194.475;    0.000
406.540; 3449.500;  149.475;    0.000
406.596; 3351.500;  173.475;    0.000
406.651; 3448.500;  154.475;    0.000
406.707; 3386.500;  183.475;    0.000
406.763; 3523.500;  156.475;    0.000
406.818; 3418.500;  181.475;    0.000
406.874; 3469.500;  135.475;    0.000
406.929; 3488.500;  194.475;    0.000
406.985; 3525.500;  166.475;    0.000
407.040; 3541.500;  207.475;    0.000
407.095; 3455.500;  213.475;    0.000
407.151; 3610.500;  198.475;    0.000
407.206; 3556.500;  186.475;    0.000
407.262; 3566.500;  148.475;    0.000
407.317; 3680.500;  212.475;    0.000
407.373; 3637.500;  209.475;    0.000
407.428; 3719.500;  218.475;    0.000
407.484; 3626.500;  158.475;    0.000
407.539; 3623.500;  165.475;    0.000
407.594; 3648.500;  197.475;    0.000
407.650; 3664.500;  177.475;    0.000
407.705; 3611.500;  154.475;    0.000
407.760; 3663.500;  198.475;    0.000
407.816; 3725.500;  181.475;    0.000
407.871; 3656.500;  185.475;    0.000
407.926; 3744.500;  167.475;    0.000
407.982; 3639.500;  172.475;    0.000
408.037; 3641.500;  202.475;    0.000
408.092; 3604.500;  201.475;    0.000
408.148; 3572.500;  199.475;    0.000
408.203; 3560.500;  174.475;    0.000
408.258; 3611.500;  157.475;    0.000
408.314; 3552.500;  194.475;    0.000
408.369; 3576.500;  189.475;    0.000
408.424; 3506.500;  204.475;    0.000
408.479; 3606.500;  192.475;    0.000
408.534; 3545.500;  215.475;    0.000
408.590; 3554.500;  190.475;    0.000
408.645; 3590.500;  159.475;    0.000
408.700; 3533.500;  191.475;    0.000
408.755; 3549.500;  217.475;    0.000
408.810; 3500.500;  158.475;    0.000
408.866; 3597.500;  166.475;    0.000
408.921; 3631.500;  214.475;    0.000
408.976; 3556.500;  158.475;    0.000
409.031; 3466.500;  185.475;    0.000
409.086; 3548.500;  158.475;    0.000
409.141; 3572.500;  180.475;    0.000
409.196; 3477.500;  188.475;    0.000
409.252; 3578.500;  186.475;    0.000
409.307; 3523.500;  135.475;    0.000
409.362; 3536.500;  162.475;    0.000
409.417; 3474.500;  149.475;    0.000
409.472; 3596.500;  205.475;    0.000
409.527; 3567.500;  184.475;    0.000
409.582; 3607.500;  174.475;    0.000
409.637; 3558.500;  188.475;    0.000
409.692; 3469.500;  211.475;    0.000
409.747; 3590.500;  159.475;    0.000
409.802; 3579.500;  199.475;    0.000
409.857; 3471.500;  118.475;    0.000
409.912; 3563.500;  177.475;    0.000
409.967; 3572.500;  182.475;    0.000
410.022; 3549.500;  188.475;    0.000
410.077; 3515.500;  204.475;    0.000
410.132; 3505.500;  174.475;    0.000
410.187; 3423.500;  169.475;    0.000
410.242; 3460.500;  178.475;    0.000
410.297; 3456.500;  185.475;    0.000
410.351; 3607.500;  203.475;    0.000
410.406; 3536.500;  180.475;    0.000
410.461; 3529.500;  213.475;    0.000
410.516; 3496.500;  198.475;    0.000
410.571; 3506.500;  171.475;    0.000
410.626; 3663.500;  186.475;    0.000
410.681; 3552.500;  187.475;    0.000
410.736; 3472.500;  147.475;    0.000
410.790; 3546.500;  186.475;    0.000
410.845; 3505.500;  152.475;    0.000
410.900; 3545.500;  202.475;    0.000
410.955; 3470.500;  196.475;    0.000
411.010; 3538.500;  150.475;    0.000
411.064; 3461.500;  200.475;    0.000
411.119; 3538.500;  203.475;    0.000
411.174; 3596.500;  176.475;    0.000
411.229; 3613.500;  203.475;    0.000
411.283; 3495.500;  176.475;    0.000
411.338; 3594.500;  153.475;    0.000
411.393; 3513.500;  168.475;    0.000
411.447; 3560.500;  223.475;    0.000
411.502; 3530.500;  238.475;    0.000
411.557; 3511.500;  179.475;    0.000
411.612; 3543.500;  159.475;    0.000
411.666; 3638.500;  189.475;    0.000
411.721; 3468.500;  212.475;    0.000
411.776; 3569.500;  242.475;    0.000
411.830; 3577.500;  194.475;    0.000
411.885; 3583.500;  188.475;    0.000
411.939; 3497.500;  245.475;    0.000
411.994; 3462.500;  177.475;    0.000
412.049; 3602.500;  170.475;    0.000
412.103; 3562.500;  196.475;    0.000
412.158; 3471.500;  215.475;    0.000
412.212; 3564.500;  199.475;    0.000
412.267; 3599.500;  191.475;    0.000
412.322; 3599.500;  238.475;    0.000
412.376; 3573.500;  243.475;    0.000
412.431; 3531.500;  214.475;    0.000
412.485; 3606.500;  210.475;    0.000
412.540; 3657.500;  200.475;    0.000
412.594; 3543.500;  174.475;    0.000
412.649; 3544.500;  246.475;    0.000
412.703; 3511.500;  182.475;    0.000
412.758; 3557.500;  222.475;    0.000
412.812; 3592.500;  201.475;    0.000
412.866; 3511.500;  162.475;    0.000
412.921; 3512.500;  202.475;    0.000
412.975; 3569.500;  212.475;    0.000
413.030; 3456.500;  238.475;    0.000
413.084; 3524.500;  201.475;    0.000
413.139; 3459.500;  210.475;    0.000
413.193; 3512.500;  218.475;    0.000
413.247; 3406.500;  203.475;    0.000
413.302; 3556.500;  176.475;    0.000
413.356; 3562.500;  215.475;    0.000
413.410; 3409.500;  204.475;    0.000
413.465; 3538.500;  186.475;    0.000
413.519; 3459.500;  196.475;    0.000
413.573; 3534.500;  181.475;    0.000
413.628; 3463.500;  200.475;    0.000
413.682; 3634.500;  157.475;    0.000
413.736; 3543.500;  194.475;    0.000
413.791; 3447.500;  193.475;    0.000
413.845; 3629.500;  225.475;    0.000
413.899; 3581.500;  195.475;    0.000
413.953; 3537.500;  173.475;    0.000
414.008; 3515.500;  186.475;    0.000
414.062; 3407.500;  217.475;    0.000
414.116; 3598.500;  169.475;    0.000
414.170; 3486.500;  228.475;    0.000
414.225; 3568.500;  177.475;    0.000
414.279; 3467.500;  210.475;    0.000
414.333; 3569.500;  207.475;    0.000
414.387; 3491.500;  217.475;    0.000
414.441; 3501.500;  187.475;    0.000
414.496; 3520.500;  215.475;    0.000
414.550; 3569.500;  204.475;    0.000
414.604; 3504.500;  206.475;    0.000
414.658; 3465.500;  139.475;    0.000
414.712; 3602.500;  198.475;    0.000
414.766; 3656.500;  208.475;    0.000
414.820; 3562.500;  199.475;    0.000
414.874; 3494.500;  216.475;    0.000
414.928; 3546.500;  186.475;    0.000
414.982; 3531.500;  176.475;    0.000
415.037; 3548.500;  181.475;    0.000
415.091; 3569.500;  208.475;    0.000
415.145; 3461.500;  209.475;    0.000
415.199; 3601.500;  186.475;    0.000
415.253; 3617.500;  203.475;    0.000
415.307; 3632.500;  197.475;    0.000
415.361; 3566.500;  223.475;    0.000
415.415; 3568.500;  213.475;    0.000
415.469; 3618.500;  226.475;    0.000
415.523; 3580.500;  222.475;    0.000
415.577; 3628.500;  205.475;    0.000
415.631; 3633.500;  224.475;    0.000
415.684; 3538.500;  193.475;    0.000
415.738; 3525.500;  224.475;    0.000
415.792; 3506.500;  204.475;    0.000
415.846; 3454.500;  189.475;    0.000
415.900; 3580.500;  223.475;    0.000
415.954; 3571.500;  187.475;    0.000
416.008; 3448.500;  237.475;    0.000
416.062; 3543.500;  195.475;    0.000
416.116; 3437.500;  223.475;    0.000
416.169; 3486.500;  210.475;    0.000
416.223; 3529.500;  232.475;    0.000
416.277; 3544.500;  227.475;    0.000
416.331; 3529.500;  216.475;    0.000
416.385; 3478.500;  186.475;    0.000
416.439; 3507.500;  226.475;    0.000
416.492; 3450.500;  229.475;    0.000
416.546; 3448.500;  216.475;    0.000
416.600; 3534.500;  211.475;    0.000
416.654; 3621.500;  226.475;    0.000
416.707; 3501.500;  248.475;    0.000
416.761; 3407.500;  217.475;    0.000
416.815; 3532.500;  207.475;    0.000
416.869; 3541.500;  226.475;    0.000
416.922; 3550.500;  192.475;    0.000
416.976; 3536.500;  205.475;    0.000
417.030; 3499.500;  233.475;    0.000
417.083; 3494.500;  226.475;    0.000
417.137; 3566.500;  222.475;    0.000
417.191; 3489.500;  217.475;    0.000
417.244; 3480.500;  221.475;    0.000
417.298; 3445.500;  201.475;    0.000
417.352; 3465.500;  170.475;    0.000
417.405; 3525.500;  234.475;    0.000
417.459; 3542.500;  241.475;    0.000
417.512; 3568.500;  247.475;    0.000
417.566; 3420.500;  219.475;    0.000
417.620; 3580.500;  228.475;    0.000
417.673; 3508.500;  192.475;    0.000
417.727; 3469.500;  203.475;    0.000
417.780; 3398.500;  204.475;    0.000
417.834; 3596.500;  234.475;    0.000
417.887; 3602.500;  245.475;    0.000
417.941; 3578.500;  211.475;    0.000
417.994; 3462.500;  244.475;    0.000
418.048; 3423.500;  203.475;    0.000
418.101; 3458.500;  212.475;    0.000
418.155; 3487.500;  251.475;    0.000
418.208; 3489.500;  286.475;    0.000
418.262; 3611.500;  243.475;    0.000
418.315; 3537.500;  214.475;    0.000
418.369; 3409.500;  269.475;    0.000
418.422; 3541.500;  222.475;    0.000
418.476; 3536.500;  226.475;    0.000
418.529; 3543.500;  238.475;    0.000
418.582; 3546.500;  210.475;    0.000
418.636; 3636.500;  221.475;    0.000
418.689; 3446.500;  224.475;    0.000
418.743; 3538.500;  228.475;    0.000
418.796; 3521.500;  192.475;    0.000
418.849; 3547.500;  230.475;    0.000
418.903; 3498.500;  257.475;    0.000
418.956; 3573.500;  241.475;    0.000
419.009; 3559.500;  247.475;    0.000
419.063; 3432.500;  235.475;    0.000
419.116; 3507.500;  218.475;    0.000
419.169; 3473.500;  219.475;    0.000
419.222; 3474.500;  215.475;    0.000
419.276; 3463.500;  202.475;    0.000
419.329; 3546.500;  210.475;    0.000
419.382; 3425.500;  188.475;    0.000
419.435; 3518.500;  222.475;    0.000
419.489; 3533.500;  232.475;    0.000
419.542; 3447.500;  250.475;    0.000
419.595; 3549.500;  240.475;    0.000
419.648; 3498.500;  261.475;    0.000
419.701; 3569.500;  222.475;    0.000
419.755; 3500.500;  233.475;    0.000
419.808; 3519.500;  178.475;    0.000
419.861; 3410.500;  207.475;    0.000
419.914; 3475.500;  223.475;    0.000
419.967; 3442.500;  216.475;    0.000
420.020; 3462.500;  211.475;    0.000
420.073; 3415.500;  200.475;    0.000
420.127; 3559.500;  248.475;    0.000
420.180; 3375.500;  220.475;    0.000
420.233; 3393.500;  215.475;    0.000
420.286; 3401.500;  222.475;    0.000
420.339; 3453.500;  229.475;    0.000
420.392; 3437.500;  245.475;    0.000
420.445; 3351.500;  221.475;    0.000
420.498; 3312.500;  224.475;    0.000
420.551; 3300.500;  170.475;    0.000
420.604; 3406.500;  237.475;    0.000
420.657; 3360.500;  235.475;    0.000
420.710; 3409.500;  223.475;    0.000
420.763; 3424.500;  219.475;    0.000
420.816; 3376.500;  200.475;    0.000
420.869; 3329.500;  197.475;    0.000
420.922; 3270.500;  212.475;    0.000
420.975; 3346.500;  274.475;    0.000
421.028; 3344.500;  228.475;    0.000
421.081; 3316.500;  243.475;    0.000
421.134; 3302.500;  227.475;    0.000
421.187; 3355.500;  245.475;    0.000
421.239; 3271.500;  210.475;    0.000
421.292; 3454.500;  193.475;    0.000
421.345; 3310.500;  226.475;    0.000
421.398; 3273.500;  226.475;    0.000
421.451; 3277.500;  259.475;    0.000
421.504; 3309.500;  204.475;    0.000
421.557; 3219.500;  215.475;    0.000
421.609; 3325.500;  194.475;    0.000
421.662; 3266.500;  216.475;    0.000
421.715; 3318.500;  226.475;    0.000
421.768; 3242.500;  177.475;    0.000
421.821; 3391.500;  210.475;    0.000
421.873; 3358.500;  208.475;    0.000
421.926; 3325.500;  223.475;    0.000
421.979; 3339.500;  230.475;    0.000
422.032; 3291.500;  227.475;    0.000
422.084; 3329.500;  234.475;    0.000
422.137; 3237.500;  207.475;    0.000
422.190; 3298.500;  228.475;    0.000
422.243; 3301.500;  206.475;    0.000
422.295; 3315.500;  236.475;    0.000
422.348; 3224.500;  232.475;    0.000
422.401; 3228.500;  228.475;    0.000
422.453; 3359.500;  239.475;    0.000
422.506; 3306.500;  226.475;    0.000
422.559; 3253.500;  205.475;    0.000
422.611; 3288.500;  235.475;    0.000
422.664; 3280.500;  231.475;    0.000
422.716; 3261.500;  228.475;    0.000
422.769; 3195.500;  204.475;    0.000
422.822; 3248.500;  205.475;    0.000
422.874; 3294.500;  228.475;    0.000
422.927; 3352.500;  266.475;    0.000
422.979; 3206.500;  223.475;    0.000
423.032; 3167.500;  207.475;    0.000
423.084; 3284.500;  211.475;    0.000
423.137; 3231.500;  205.475;    0.000
423.189; 3214.500;  254.475;    0.000
423.242; 3167.500;  208.475;    0.000
423.294; 3241.500;  240.475;    0.000
423.347; 3290.500;  218.475;    0.000
423.399; 3295.500;  237.475;    0.000
423.452; 3257.500;  242.475;    0.000
423.504; 3281.500;  225.475;    0.000
423.557; 3202.500;  195.475;    0.000
423.609; 3303.500;  206.475;    0.000
423.662; 3229.500;  211.475;    0.000
423.714; 3202.500;  252.475;    0.000
423.766; 3260.500;  181.475;    0.000
423.819; 3225.500;  216.475;    0.000
423.871; 3215.500;  216.475;    0.000
423.923; 3224.500;  222.475;    0.000
423.976; 3143.500;  223.475;    0.000
424.028; 3228.500;  229.475;    0.000
424.081; 3164.500;  267.475;    0.000
424.133; 3217.500;  251.475;    0.000
424.185; 3250.500;  238.475;    0.000
424.238; 3275.500;  220.475;    0.000
424.290; 3202.500;  259.475;    0.000
424.342; 3138.500;  248.475;    0.000
424.394; 3256.500;  234.475;    0.000
424.447; 3169.500;  248.475;    0.000
424.499; 3183.500;  233.475;    0.000
424.551; 3227.500;  236.475;    0.000
424.603; 3159.500;  207.475;    0.000
424.656; 3172.500;  210.475;    0.000
424.708; 3230.500;  251.475;    0.000
424.760; 3045.500;  221.475;    0.000
424.812; 3175.500;  275.475;    0.000
424.864; 3183.500;  206.475;    0.000
424.917; 3132.500;  198.475;    0.000
424.969; 3203.500;  246.475;    0.000
425.021; 3238.500;  209.475;    0.000
425.073; 3159.500;  242.475;    0.000
425.125; 3101.500;  254.475;    0.000
425.177; 3236.500;  224.475;    0.000
425.229; 3151.500;  256.475;    0.000
425.282; 3165.500;  265.475;    0.000
425.334; 3149.500;  266.475;    0.000
425.386; 3108.500;  242.475;    0.000
425.438; 3204.500;  205.475;    0.000
425.490; 3191.500;  227.475;    0.000
425.542; 3092.500;  235.475;    0.000
425.594; 3048.500;  210.475;    0.000
425.646; 3162.500;  232.475;    0.000
425.698; 3056.500;  243.475;    0.000
425.750; 3141.500;  230.475;    0.000
425.802; 3032.500;  218.475;    0.000
425.854; 3094.500;  222.475;    0.000
425.906; 3177.500;  235.475;    0.000
425.958; 3076.500;  220.475;    0.000
426.010; 3102.500;  236.475;    0.000
426.062; 3154.500;  230.475;    0.000
426.114; 3167.500;  216.475;    0.000
426.166; 3102.500;  230.475;    0.000
426.218; 3056.500;  237.475;    0.000
426.270; 3081.500;  217.475;    0.000
426.321; 3145.500;  224.475;    0.000
426.373; 3043.500;  207.475;    0.000
426.425; 3067.500;  278.475;    0.000
426.477; 3150.500;  243.475;    0.000
426.529; 3084.500;  247.475;    0.000
426.581; 3034.500;  229.475;    0.000
426.633; 3045.500;  212.475;    0.000
426.684; 2999.500;  244.475;    0.000
426.736; 3123.500;  250.475;    0.000
426.788; 2994.500;  210.475;    0.000
426.840; 2991.500;  201.475;    0.000
426.892; 2950.500;  225.475;    0.000
426.943; 3005.500;  215.475;    0.000
426.995; 3113.500;  216.475;    0.000
427.047; 2943.500;  216.475;    0.000
427.099; 3063.500;  203.475;    0.000
427.150; 3059.500;  195.475;    0.000
427.202; 3048.500;  212.475;    0.000
427.254; 2944.500;  233.475;    0.000
427.306; 2999.500;  211.475;    0.000
427.357; 3093.500;  210.475;    0.000
427.409; 2993.500;  244.475;    0.000
427.461; 2996.500;  187.475;    0.000
427.512; 2956.500;  227.475;    0.000
427.564; 2961.500;  210.475;    0.000
427.616; 3036.500;  202.475;    0.000
427.667; 2948.500;  185.475;    0.000
427.719; 2866.500;  222.475;    0.000
427.770; 2972.500;  230.475;    0.000
427.822; 3004.500;  254.475;    0.000
427.874; 2982.500;  222.475;    0.000
427.925; 3036.500;  199.475;    0.000
427.977; 2939.500;  228.475;    0.000
428.028; 2966.500;  226.475;    0.000
428.080; 2916.500;  236.475;    0.000
428.131; 2969.500;  220.475;    0.000
428.183; 2978.500;  256.475;    0.000
428.234; 3033.500;  217.475;    0.000
428.286; 2869.500;  234.475;    0.000
428.337; 2844.500;  209.475;    0.000
428.389; 2940.500;  219.475;    0.000
428.440; 2943.500;  249.475;    0.000
428.492; 3018.500;  255.475;    0.000
428.543; 2918.500;  224.475;    0.000
428.595; 2976.500;  225.475;    0.000
428.646; 2906.500;  240.475;    0.000
428.697; 2955.500;  211.475;    0.000
428.749; 2855.500;  200.475;    0.000
428.800; 2935.500;  235.475;    0.000
428.852; 3020.500;  265.475;    0.000
428.903; 2943.500;  201.475;    0.000
428.954; 2911.500;  242.475;    0.000
429.006; 2907.500;  245.475;    0.000
429.057; 2947.500;  252.475;    0.000
429.108; 2968.500;  211.475;    0.000
429.160; 2875.500;  217.475;    0.000
429.211; 2971.500;  234.475;    0.000
429.262; 2937.500;  205.475;    0.000
429.314; 2951.500;  211.475;    0.000
429.365; 2870.500;  240.475;    0.000
429.416; 2867.500;  263.475;    0.000
429.467; 2949.500;  244.475;    0.000
429.519; 2810.500;  223.475;    0.000
429.570; 2857.500;  214.475;    0.000
429.621; 2873.500;  235.475;    0.000
429.672; 2865.500;  202.475;    0.000
429.724; 2772.500;  189.475;    0.000
429.775; 2891.500;  214.475;    0.000
429.826; 2858.500;  178.475;    0.000
429.877; 2872.500;  224.475;    0.000
429.928; 2798.500;  230.475;    0.000
429.980; 2956.500;  199.475;    0.000
430.031; 2871.500;  208.475;    0.000
430.082; 2963.500;  224.475;    0.000
430.133; 2852.500;  193.475;    0.000
430.184; 2891.500;  220.475;    0.000
430.235; 2832.500;  184.475;    0.000
430.286; 2855.500;  197.475;    0.000
430.337; 2819.500;  199.475;    0.000
430.388; 2810.500;  207.475;    0.000
430.439; 2815.500;  227.475;    0.000
430.490; 2770.500;  215.475;    0.000
430.542; 2805.500;  211.475;    0.000
430.593; 2877.500;  230.475;    0.000
430.644; 2727.500;  186.475;    0.000
430.695; 2789.500;  232.475;    0.000
430.746; 2847.500;  214.475;    0.000
430.797; 2832.500;  260.475;    0.000
430.848; 2818.500;  214.475;    0.000
430.898; 2817.500;  204.475;    0.000
430.949; 2760.500;  189.475;    0.000
431.000; 2811.500;  240.475;    0.000
431.051; 2846.500;  201.475;    0.000
431.102; 2821.500;  188.475;    0.000
431.153; 2808.500;  209.475;    0.000
431.204; 2906.500;  187.475;    0.000
431.255; 2811.500;  171.475;    0.000
431.306; 2843.500;  181.475;    0.000
431.357; 2908.500;  221.475;    0.000
431.408; 2836.500;  217.475;    0.000
431.458; 2767.500;  206.475;    0.000
431.509; 2833.500;  194.475;    0.000
431.560; 2823.500;  235.475;    0.000
431.611; 2822.500;  213.475;    0.000
431.662; 2896.500;  237.475;    0.000
431.713; 2877.500;  220.475;    0.000
431.763; 2822.500;  212.475;    0.000
431.814; 2823.500;  238.475;    0.000
431.865; 2821.500;  213.475;    0.000
431.916; 2848.500;  191.475;    0.000
431.966; 2820.500;  171.475;    0.000
432.017; 2817.500;  263.475;    0.000
432.068; 2851.500;  240.475;    0.000
432.118; 2814.500;  235.475;    0.000
432.169; 2792.500;  212.475;    0.000
432.220; 2782.500;  188.475;    0.000
432.271; 2944.500;  216.475;    0.000
432.321; 2883.500;  223.475;    0.000
432.372; 2757.500;  254.475;    0.000
432.423; 2720.500;  193.475;    0.000
432.473; 2877.500;  219.475;    0.000
432.524; 2768.500;  215.475;    0.000
432.574; 2727.500;  234.475;    0.000
432.625; 2898.500;  226.475;    0.000
432.676; 2816.500;  219.475;    0.000
432.726; 2754.500;  254.475;    0.000
432.777; 2826.500;  210.475;    0.000
432.827; 2793.500;  234.475;    0.000
432.878; 2747.500;  212.475;    0.000
432.928; 2816.500;  238.475;    0.000
432.979; 2703.500;  252.475;    0.000
433.029; 2861.500;  222.475;    0.000
433.080; 2804.500;  188.475;    0.000
433.130; 2723.500;  223.475;    0.000
433.181; 2748.500;  254.475;    0.000
433.231; 2817.500;  237.475;    0.000
433.282; 2846.500;  242.475;    0.000
433.332; 2798.500;  261.475;    0.000
433.383; 2797.500;  266.475;    0.000
433.433; 2864.500;  286.475;    0.000
433.484; 2844.500;  231.475;    0.000
433.534; 2811.500;  256.475;    0.000
433.585; 2729.500;  253.475;    0.000
433.635; 2854.500;  228.475;    0.000
433.685; 2912.500;  226.475;    0.000
433.736; 2764.500;  276.475;    0.000
433.786; 2791.500;  253.475;    0.000
433.836; 2806.500;  289.475;    0.000
433.887; 2751.500;  241.475;    0.000
433.937; 2838.500;  252.475;    0.000
433.987; 2738.500;  223.475;    0.000
434.038; 2773.500;  241.475;    0.000
434.088; 2833.500;  231.475;    0.000
434.138; 2805.500;  259.475;    0.000
434.189; 2835.500;  263.475;    0.000
434.239; 2819.500;  194.475;    0.000
434.289; 2778.500;  273.475;    0.000
434.339; 2754.500;  212.475;    0.000
434.389; 2778.500;  248.475;    0.000
434.440; 2869.500;  250.475;    0.000
434.490; 2875.500;  278.475;    0.000
434.540; 2821.500;  241.475;    0.000
434.590; 2889.500;  251.475;    0.000
434.640; 2745.500;  207.475;    0.000
434.691; 2926.500;  242.475;    0.000
434.741; 2885.500;  218.475;    0.000
434.791; 2864.500;  267.475;    0.000
434.841; 2910.500;  272.475;    0.000
434.891; 2926.500;  260.475;    0.000
434.941; 2889.500;  258.475;    0.000
434.991; 2864.500;  264.475;    0.000
435.042; 2886.500;  264.475;    0.000
435.092; 2879.500;  271.475;    0.000
435.142; 2865.500;  229.475;    0.000
435.192; 2816.500;  226.475;    0.000
435.242; 2788.500;  253.475;    0.000
435.292; 2833.500;  215.475;    0.000
435.342; 2753.500;  240.475;    0.000
435.392; 2816.500;  235.475;    0.000
435.442; 2778.500;  230.475;    0.000
435.492; 2790.500;  235.475;    0.000
435.542; 2720.500;  230.475;    0.000
435.592; 2770.500;  239.475;    0.000
435.642; 2720.500;  244.475;    0.000
435.692; 2739.500;  236.475;    0.000
435.742; 2713.500;  236.475;    0.000
435.792; 2636.500;  230.475;    0.000
435.842; 2711.500;  248.475;    0.000
435.891; 2742.500;  233.475;    0.000
435.941; 2711.500;  243.475;    0.000
435.991; 2708.500;  279.475;    0.000
436.041; 2670.500;  204.475;    0.000
436.091; 2729.500;  217.475;    0.000
436.141; 2607.500;  205.475;    0.000
436.191; 2749.500;  220.475;    0.000
436.241; 2626.500;  248.475;    0.000
436.290; 2673.500;  255.475;    0.000
436.340; 2692.500;  235.475;    0.000
436.390; 2707.500;  207.475;    0.000
436.440; 2698.500;  207.475;    0.000
436.490; 2667.500;  251.475;    0.000
436.539; 2692.500;  240.475;    0.000
436.589; 2684.500;  198.475;    0.000
436.639; 2627.500;  240.475;    0.000
436.689; 2631.500;  216.475;    0.000
436.738; 2693.500;  246.475;    0.000
436.788; 2584.500;  203.475;    0.000
436.838; 2688.500;  230.475;    0.000
436.887; 2595.500;  235.475;    0.000
436.937; 2643.500;  249.475;    0.000
436.987; 2616.500;  208.475;    0.000
437.036; 2588.500;  232.475;    0.000
437.086; 2712.500;  238.475;    0.000
437.136; 2651.500;  228.475;    0.000
437.185; 2593.500;  219.475;    0.000
437.235; 2756.500;  227.475;    0.000
437.285; 2604.500;  241.475;    0.000
437.334; 2664.500;  216.475;    0.000
437.384; 2581.500;  243.475;    0.000
437.433; 2658.500;  214.475;    0.000
437.483; 2618.500;  246.475;    0.000
437.532; 2676.500;  261.475;    0.000
437.582; 2644.500;  205.475;    0.000
437.631; 2632.500;  218.475;    0.000
437.681; 2641.500;  240.475;    0.000
437.730; 2607.500;  258.475;    0.000
437.780; 2604.500;  237.475;    0.000
437.829; 2658.500;  209.475;    0.000
437.879; 2568.500;  214.475;    0.000
437.928; 2600.500;  223.475;    0.000
437.978; 2637.500;  220.475;    0.000
438.027; 2576.500;  239.475;    0.000
438.077; 2527.500;  231.475;    0.000
438.126; 2604.500;  266.475;    0.000
438.176; 2552.500;  234.475;    0.000
438.225; 2528.500;  237.475;    0.000
438.274; 2562.500;  234.475;    0.000
438.324; 2531.500;  244.475;    0.000
438.373; 2460.500;  232.475;    0.000
438.422; 2590.500;  218.475;    0.000
438.472; 2606.500;  221.475;    0.000
438.521; 2657.500;  190.475;    0.000
438.570; 2553.500;  243.475;    0.000
438.620; 2610.500;  255.475;    0.000
438.669; 2537.500;  210.475;    0.000
438.718; 2573.500;  237.475;    0.000
438.768; 2538.500;  220.475;    0.000
438.817; 2544.500;  218.475;    0.000
438.866; 2511.500;  198.475;    0.000
438.915; 2644.500;  256.475;    0.000
438.965; 2480.500;  221.475;    0.000
439.014; 2603.500;  255.475;    0.000
439.063; 2600.500;  276.475;    0.000
439.112; 2603.500;  220.475;    0.000
439.162; 2588.500;  253.475;    0.000
439.211; 2534.500;  247.475;    0.000
439.260; 2511.500;  220.475;    0.000
439.309; 2592.500;  235.475;    0.000
439.358; 2653.500;  205.475;    0.000
439.407; 2560.500;  207.475;    0.000
439.456; 2511.500;  216.475;    0.000
439.506; 2579.500;  245.475;    0.000
439.555; 2654.500;  264.475;    0.000
439.604; 2534.500;  227.475;    0.000
439.653; 2624.500;  220.475;    0.000
439.702; 2595.500;  223.475;    0.000
439.751; 2591.500;  197.475;    0.000
439.800; 2603.500;  207.475;    0.000
439.849; 2567.500;  238.475;    0.000
439.898; 2570.500;  209.475;    0.000
439.947; 2585.500;  170.475;    0.000
439.996; 2541.500;  233.475;    0.000
440.045; 2595.500;  222.475;    0.000
440.094; 2575.500;  240.475;    0.000
440.143; 2647.500;  249.475;    0.000
440.192; 2592.500;  252.475;    0.000
440.241; 2600.500;  239.475;    0.000
440.290; 2589.500;  234.475;    0.000
440.339; 2603.500;  241.475;    0.000
440.388; 2635.500;  239.475;    0.000
440.437; 2692.500;  231.475;    0.000
440.486; 2716.500;  254.475;    0.000
440.535; 2612.500;  266.475;    0.000
440.583; 2593.500;  205.475;    0.000
440.632; 2617.500;  234.475;    0.000
440.681; 2630.500;  218.475;    0.000
440.730; 2584.500;  248.475;    0.000
440.779; 2678.500;  246.475;    0.000
440.828; 2618.500;  235.475;    0.000
440.876; 2572.500;  218.475;    0.000
440.925; 2731.500;  228.475;    0.000
440.974; 2686.500;  249.475;    0.000
441.023; 2625.500;  192.475;    0.000
441.072; 2681.500;  226.475;    0.000
441.120; 2646.500;  238.475;    0.000
441.169; 2697.500;  255.475;    0.000
441.218; 2709.500;  233.475;    0.000
441.267; 2676.500;  231.475;    0.000
441.315; 2640.500;  214.475;    0.000
441.364; 2657.500;  250.475;    0.000
441.413; 2752.500;  228.475;    0.000
441.461; 2724.500;  209.475;    0.000
441.510; 2786.500;  260.475;    0.000
441.559; 2792.500;  230.475;    0.000
441.607; 2680.500;  220.475;    0.000
441.656; 2666.500;  251.475;    0.000
441.705; 2702.500;  237.475;    0.000
441.753; 2833.500;  257.475;    0.000
441.802; 2722.500;  256.475;    0.000
441.850; 2796.500;  253.475;    0.000
441.899; 2755.500;  212.475;    0.000
441.948; 2707.500;  251.475;    0.000
441.996; 2718.500;  239.475;    0.000
442.045; 2771.500;  223.475;    0.000
442.093; 2658.500;  211.475;    0.000
442.142; 2589.500;  235.475;    0.000
442.190; 2663.500;  254.475;    0.000
442.239; 2663.500;  226.475;    0.000
442.287; 2771.500;  242.475;    0.000
442.336; 2709.500;  256.475;    0.000
442.384; 2698.500;  252.475;    0.000
442.433; 2823.500;  262.475;    0.000
442.481; 2739.500;  246.475;    0.000
442.529; 2683.500;  290.475;    0.000
442.578; 2736.500;  247.475;    0.000
442.626; 2679.500;  247.475;    0.000
442.675; 2743.500;  272.475;    0.000
442.723; 2703.500;  230.475;    0.000
442.771; 2753.500;  234.475;    0.000
442.820; 2774.500;  224.475;    0.000
442.868; 2683.500;  246.475;    0.000
442.917; 2761.500;  249.475;    0.000
442.965; 2741.500;  260.475;    0.000
443.013; 2750.500;  258.475;    0.000
443.062; 2761.500;  259.475;    0.000
443.110; 2751.500;  226.475;    0.000
443.158; 2750.500;  213.475;    0.000
443.206; 2668.500;  201.475;    0.000
443.255; 2743.500;  280.475;    0.000
443.303; 2750.500;  292.475;    0.000
443.351; 2773.500;  256.475;    0.000
443.399; 2769.500;  215.475;    0.000
443.448; 2710.500;  243.475;    0.000
443.496; 2751.500;  249.475;    0.000
443.544; 2757.500;  231.475;    0.000
443.592; 2778.500;  243.475;    0.000
443.640; 2772.500;  252.475;    0.000
443.689; 2783.500;  220.475;    0.000
443.737; 2779.500;  231.475;    0.000
443.785; 2816.500;  256.475;    0.000
443.833; 2853.500;  268.475;    0.000
443.881; 2750.500;  181.475;    0.000
443.929; 2815.500;  245.475;    0.000
443.977; 2823.500;  278.475;    0.000
444.025; 2828.500;  245.475;    0.000
444.074; 2790.500;  233.475;    0.000
444.122; 2903.500;  267.475;    0.000
444.170; 2853.500;  247.475;    0.000
444.218; 2903.500;  246.475;    0.000
444.266; 2834.500;  275.475;    0.000
444.314; 2991.500;  263.475;    0.000
444.362; 2895.500;  240.475;    0.000
444.410; 2858.500;  220.475;    0.000
444.458; 2945.500;  258.475;    0.000
444.506; 3043.500;  258.475;    0.000
444.554; 2901.500;  224.475;    0.000
444.602; 2899.500;  245.475;    0.000
444.650; 2943.500;  261.475;    0.000
444.698; 2996.500;  232.475;    0.000
444.746; 2905.500;  206.475;    0.000
444.793; 2818.500;  249.475;    0.000
444.841; 2959.500;  261.475;    0.000
444.889; 2933.500;  221.475;    0.000
444.937; 2894.500;  215.475;    0.000
444.985; 2888.500;  244.475;    0.000
445.033; 2945.500;  211.475;    0.000
445.081; 2957.500;  225.475;    0.000
445.129; 2918.500;  217.475;    0.000
445.176; 2831.500;  196.475;    0.000
445.224; 2930.500;  211.475;    0.000
445.272; 3090.500;  242.475;    0.000
445.320; 2922.500;  225.475;    0.000
445.368; 2933.500;  249.475;    0.000
445.415; 2951.500;  243.475;    0.000
445.463; 2939.500;  242.475;    0.000
445.511; 2965.500;  248.475;    0.000
445.559; 2947.500;  219.475;    0.000
445.606; 2980.500;  221.475;    0.000
445.654; 2913.500;  202.475;    0.000
445.702; 2979.500;  210.475;    0.000
445.749; 2998.500;  249.475;    0.000
445.797; 2993.500;  206.475;    0.000
445.845; 2902.500;  213.475;    0.000
445.892; 3020.500;  224.475;    0.000
445.940; 3019.500;  214.475;    0.000
445.988; 2871.500;  247.475;    0.000
446.035; 3036.500;  204.475;    0.000
446.083; 2923.500;  235.475;    0.000
446.130; 3004.500;  195.475;    0.000
446.178; 3025.500;  236.475;    0.000
446.226; 2981.500;  218.475;    0.000
446.273; 2984.500;  215.475;    0.000
446.321; 3035.500;  222.475;    0.000
446.368; 3114.500;  228.475;    0.000
446.416; 2980.500;  223.475;    0.000
446.463; 2962.500;  220.475;    0.000
446.511; 3094.500;  198.475;    0.000
446.558; 2967.500;  208.475;    0.000
446.606; 3151.500;  253.475;    0.000
446.653; 3148.500;  198.475;    0.000
446.701; 3223.500;  231.475;    0.000
446.748; 3183.500;  224.475;    0.000
446.796; 3189.500;  201.475;    0.000
446.843; 3219.500;  257.475;    0.000
446.891; 3250.500;  218.475;    0.000
446.938; 3265.500;  232.475;    0.000
446.985; 3253.500;  229.475;    0.000
447.033; 3318.500;  251.475;    0.000
447.080; 3227.500;  257.475;    0.000
447.128; 3359.500;  232.475;    0.000
447.175; 3380.500;  269.475;    0.000
447.222; 3326.500;  185.475;    0.000
447.270; 3365.500;  264.475;    0.000
447.317; 3411.500;  225.475;    0.000
447.364; 3377.500;  243.475;    0.000
447.411; 3492.500;  263.475;    0.000
447.459; 3451.500;  257.475;    0.000
447.506; 3494.500;  175.475;    0.000
447.553; 3555.500;  203.475;    0.000
447.601; 3560.500;  238.475;    0.000
447.648; 3626.500;  244.475;    0.000
447.695; 3569.500;  249.475;    0.000
447.742; 3767.500;  234.475;    0.000
447.789; 3755.500;  228.475;    0.000
447.837; 3686.500;  258.475;    0.000
447.884; 3743.500;  243.475;    0.000
447.931; 3962.500;  235.475;    0.000
447.978; 3987.500;  224.475;    0.000
448.025; 4001.500;  245.475;    0.000
448.072; 3983.500;  212.475;    0.000
448.120; 3993.500;  256.475;    0.000
448.167; 3997.500;  240.475;    0.000
448.214; 3949.500;  247.475;    0.000
448.261; 3890.500;  245.475;    0.000
448.308; 3909.500;  273.475;    0.000
448.355; 3792.500;  257.475;    0.000
448.402; 3672.500;  259.475;    0.000
448.449; 3598.500;  238.475;    0.000
448.496; 3571.500;  245.475;    0.000
448.543; 3560.500;  217.475;    0.000
448.590; 3568.500;  269.475;    0.000
448.637; 3568.500;  250.475;    0.000
448.684; 3471.500;  250.475;    0.000
448.731; 3401.500;  235.475;    0.000
448.778; 3236.500;  265.475;    0.000
448.825; 3394.500;  257.475;    0.000
448.872; 3264.500;  234.475;    0.000
448.919; 3235.500;  216.475;    0.000
448.966; 3218.500;  274.475;    0.000
449.013; 3226.500;  263.475;    0.000
449.060; 3217.500;  247.475;    0.000
449.107; 3150.500;  218.475;    0.000
449.154; 3109.500;  225.475;    0.000
449.200; 3083.500;  212.475;    0.000
449.247; 3169.500;  242.475;    0.000
449.294; 3032.500;  228.475;    0.000
449.341; 3051.500;  232.475;    0.000
449.388; 3154.500;  247.475;    0.000
449.435; 2993.500;  227.475;    0.000
449.481; 3132.500;  270.475;    0.000
449.528; 3024.500;  265.475;    0.000
449.575; 2947.500;  255.475;    0.000
449.622; 2949.500;  210.475;    0.000
449.668; 2908.500;  234.475;    0.000
449.715; 3016.500;  262.475;    0.000
449.762; 2922.500;  247.475;    0.000
449.809; 2979.500;  286.475;    0.000
449.855; 2922.500;  246.475;    0.000
449.902; 2942.500;  224.475;    0.000
449.949; 2968.500;  244.475;    0.000
449.995; 2879.500;  274.475;    0.000
450.042; 2913.500;  272.475;    0.000
450.089; 2849.500;  274.475;    0.000
450.135; 2923.500;  285.475;    0.000
450.182; 2844.500;  251.475;    0.000
450.229; 2857.500;  242.475;    0.000
450.275; 2756.500;  277.475;    0.000
450.322; 2702.500;  260.475;    0.000
450.368; 2867.500;  257.475;    0.000
450.415; 2796.500;  276.475;    0.000
450.462; 2822.500;  298.475;    0.000
450.508; 2808.500;  255.475;    0.000
450.555; 2797.500;  271.475;    0.000
450.601; 2761.500;  281.475;    0.000
450.648; 2734.500;  249.475;    0.000
450.694; 2771.500;  270.475;    0.000
450.741; 2680.500;  256.475;    0.000
450.787; 2648.500;  292.475;    0.000
450.834; 2744.500;  221.475;    0.000
450.880; 2713.500;  265.475;    0.000
450.927; 2755.500;  242.475;    0.000
450.973; 2696.500;  259.475;    0.000
451.019; 2742.500;  221.475;    0.000
451.066; 2692.500;  257.475;    0.000
451.112; 2702.500;  251.475;    0.000
451.159; 2683.500;  278.475;    0.000
451.205; 2738.500;  274.475;    0.000
451.251; 2643.500;  281.475;    0.000
451.298; 2660.500;  273.475;    0.000
451.344; 2777.500;  246.475;    0.000
451.390; 2781.500;  286.475;    0.000
451.437; 2659.500;  268.475;    0.000
451.483; 2635.500;  315.475;    0.000
451.529; 2568.500;  251.475;    0.000
451.576; 2686.500;  306.475;    0.000
451.622; 2620.500;  234.475;    0.000
451.668; 2637.500;  243.475;    0.000
451.714; 2653.500;  256.475;    0.000
451.761; 2630.500;  264.475;    0.000
451.807; 2605.500;  284.475;    0.000
451.853; 2664.500;  282.475;    0.000
451.899; 2606.500;  240.475;    0.000
451.945; 2624.500;  263.475;    0.000
451.992; 2543.500;  255.475;    0.000
452.038; 2664.500;  273.475;    0.000
452.084; 2560.500;  274.475;    0.000
452.130; 2593.500;  261.475;    0.000
452.176; 2538.500;  246.475;    0.000
452.222; 2493.500;  238.475;    0.000
452.268; 2598.500;  267.475;    0.000
452.315; 2616.500;  274.475;    0.000
452.361; 2600.500;  241.475;    0.000
452.407; 2569.500;  274.475;    0.000
452.453; 2528.500;  260.475;    0.000
452.499; 2625.500;  232.475;    0.000
452.545; 2578.500;  252.475;    0.000
452.591; 2518.500;  263.475;    0.000
452.637; 2632.500;  208.475;    0.000
452.683; 2546.500;  237.475;    0.000
452.729; 2488.500;  263.475;    0.000
452.775; 2509.500;  291.475;    0.000
452.821; 2579.500;  238.475;    0.000
452.867; 2562.500;  223.475;    0.000
452.913; 2527.500;  257.475;    0.000
452.959; 2494.500;  238.475;    0.000
453.005; 2572.500;  252.475;    0.000
453.051; 2545.500;  260.475;    0.000
453.097; 2559.500;  268.475;    0.000
453.142; 2501.500;  231.475;    0.000
453.188; 2537.500;  266.475;    0.000
453.234; 2442.500;  233.475;    0.000
453.280; 2440.500;  219.475;    0.000
453.326; 2457.500;  265.475;    0.000
453.372; 2414.500;  238.475;    0.000
453.418; 2532.500;  240.475;    0.000
453.463; 2447.500;  219.475;    0.000
453.509; 2466.500;  264.475;    0.000
453.555; 2496.500;  247.475;    0.000
453.601; 2489.500;  230.475;    0.000
453.647; 2582.500;  285.475;    0.000
453.692; 2463.500;  240.475;    0.000
453.738; 2481.500;  233.475;    0.000
453.784; 2450.500;  230.475;    0.000
453.829; 2530.500;  246.475;    0.000
453.875; 2449.500;  261.475;    0.000
453.921; 2461.500;  203.475;    0.000
453.967; 2538.500;  241.475;    0.000
454.012; 2525.500;  250.475;    0.000
454.058; 2465.500;  252.475;    0.000
454.104; 2422.500;  239.475;    0.000
454.149; 2526.500;  250.475;    0.000
454.195; 2475.500;  243.475;    0.000
454.240; 2506.500;  252.475;    0.000
454.286; 2502.500;  245.475;    0.000
454.332; 2427.500;  286.475;    0.000
454.377; 2463.500;  254.475;    0.000
454.423; 2391.500;  246.475;    0.000
454.468; 2429.500;  235.475;    0.000
454.514; 2427.500;  231.475;    0.000
454.559; 2439.500;  246.475;    0.000
454.605; 2453.500;  204.475;    0.000
454.650; 2459.500;  272.475;    0.000
454.696; 2512.500;  222.475;    0.000
454.741; 2507.500;  290.475;    0.000
454.787; 2511.500;  262.475;    0.000
454.832; 2450.500;  227.475;    0.000
454.878; 2447.500;  241.475;    0.000
454.923; 2444.500;  272.475;    0.000
454.969; 2515.500;  290.475;    0.000
455.014; 2499.500;  278.475;    0.000
455.060; 2543.500;  246.475;    0.000
455.105; 2359.500;  231.475;    0.000
455.150; 2508.500;  265.475;    0.000
455.196; 2433.500;  266.475;    0.000
455.241; 2471.500;  258.475;    0.000
455.286; 2415.500;  266.475;    0.000
455.332; 2491.500;  252.475;    0.000
455.377; 2430.500;  219.475;    0.000
455.422; 2486.500;  262.475;    0.000
455.468; 2485.500;  260.475;    0.000
455.513; 2379.500;  212.475;    0.000
455.558; 2403.500;  197.475;    0.000
455.604; 2367.500;  262.475;    0.000
455.649; 2379.500;  238.475;    0.000
455.694; 2420.500;  221.475;    0.000
455.739; 2357.500;  251.475;    0.000
455.785; 2419.500;  287.475;    0.000
455.830; 2477.500;  284.475;    0.000
455.875; 2491.500;  234.475;    0.000
455.920; 2416.500;  215.475;    0.000
455.965; 2482.500;  256.475;    0.000
456.010; 2439.500;  266.475;    0.000
456.056; 2304.500;  263.475;    0.000
456.101; 2351.500;  240.475;    0.000
456.146; 2408.500;  258.475;    0.000
456.191; 2353.500;  241.475;    0.000
456.236; 2375.500;  252.475;    0.000
456.281; 2424.500;  218.475;    0.000
456.326; 2473.500;  251.475;    0.000
456.371; 2414.500;  256.475;    0.000
456.416; 2390.500;  301.475;    0.000
456.461; 2453.500;  233.475;    0.000
456.507; 2402.500;  218.475;    0.000
456.552; 2470.500;  278.475;    0.000
456.597; 2449.500;  223.475;    0.000
456.642; 2391.500;  203.475;    0.000
456.687; 2528.500;  245.475;    0.000
456.732; 2493.500;  256.475;    0.000
456.776; 2407.500;  244.475;    0.000
456.821; 2502.500;  276.475;    0.000
456.866; 2409.500;  232.475;    0.000
456.911; 2396.500;  225.475;    0.000
456.956; 2368.500;  237.475;    0.000
457.001; 2463.500;  261.475;    0.000
457.046; 2399.500;  205.475;    0.000
457.091; 2414.500;  241.475;    0.000
457.136; 2472.500;  217.475;    0.000
457.181; 2382.500;  251.475;    0.000
457.225; 2435.500;  241.475;    0.000
457.270; 2491.500;  237.475;    0.000
457.315; 2415.500;  279.475;    0.000
457.360; 2446.500;  245.475;    0.000
457.405; 2453.500;  202.475;    0.000
457.450; 2323.500;  247.475;    0.000
457.494; 2387.500;  243.475;    0.000
457.539; 2351.500;  222.475;    0.000
457.584; 2447.500;  239.475;    0.000
457.629; 2406.500;  236.475;    0.000
457.673; 2441.500;  234.475;    0.000
457.718; 2371.500;  202.475;    0.000
457.763; 2427.500;  274.475;    0.000
457.807; 2393.500;  236.475;    0.000
457.852; 2475.500;  265.475;    0.000
457.897; 2408.500;  252.475;    0.000
457.941; 2473.500;  264.475;    0.000
457.986; 2489.500;  280.475;    0.000
458.031; 2532.500;  217.475;    0.000
458.075; 2509.500;  249.475;    0.000
458.120; 2512.500;  257.475;    0.000
458.165; 2474.500;  183.475;    0.000
458.209; 2518.500;  245.475;    0.000
458.254; 2536.500;  245.475;    0.000
458.298; 2530.500;  265.475;    0.000
458.343; 2514.500;  241.475;    0.000
458.387; 2545.500;  262.475;    0.000
458.432; 2587.500;  245.475;    0.000
458.476; 2526.500;  255.475;    0.000
458.521; 2533.500;  269.475;    0.000
458.565; 2555.500;  265.475;    0.000
458.610; 2514.500;  222.475;    0.000
458.654; 2513.500;  257.475;    0.000
458.699; 2591.500;  296.475;    0.000
458.743; 2570.500;  203.475;    0.000
458.788; 2515.500;  267.475;    0.000
458.832; 2607.500;  274.475;    0.000
458.877; 2600.500;  251.475;    0.000
458.921; 2551.500;  237.475;    0.000
458.965; 2565.500;  264.475;    0.000
459.010; 2607.500;  256.475;    0.000
459.054; 2547.500;  280.475;    0.000
459.099; 2638.500;  240.475;    0.000
459.143; 2673.500;  287.475;    0.000
459.187; 2684.500;  257.475;    0.000
459.231; 2531.500;  273.475;    0.000
459.276; 2619.500;  231.475;    0.000
459.320; 2587.500;  261.475;    0.000
459.364; 2674.500;  278.475;    0.000
459.409; 2618.500;  249.475;    0.000
459.453; 2583.500;  235.475;    0.000
459.497; 2703.500;  262.475;    0.000
459.541; 2603.500;  269.475;    0.000
459.586; 2579.500;  240.475;    0.000
459.630; 2679.500;  261.475;    0.000
459.674; 2707.500;  276.475;    0.000
459.718; 2651.500;  236.475;    0.000
459.762; 2633.500;  263.475;    0.000
459.807; 2707.500;  263.475;    0.000
459.851; 2645.500;  225.475;    0.000
459.895; 2643.500;  247.475;    0.000
459.939; 2689.500;  231.475;    0.000
459.983; 2744.500;  242.475;    0.000
460.027; 2731.500;  248.475;    0.000
460.071; 2696.500;  273.475;    0.000
460.115; 2769.500;  282.475;    0.000
460.159; 2720.500;  264.475;    0.000
460.204; 2658.500;  288.475;    0.000
460.248; 2833.500;  293.475;    0.000
460.292; 2724.500;  277.475;    0.000
460.336; 2662.500;  250.475;    0.000
460.380; 2730.500;  275.475;    0.000
460.424; 2775.500;  243.475;    0.000
460.468; 2682.500;  277.475;    0.000
460.512; 2718.500;  261.475;    0.000
460.556; 2707.500;  266.475;    0.000
460.599; 2783.500;  246.475;    0.000
460.643; 2723.500;  256.475;    0.000
460.687; 2807.500;  257.475;    0.000
460.731; 2685.500;  235.475;    0.000
460.775; 2783.500;  278.475;    0.000
460.819; 2809.500;  268.475;    0.000
460.863; 2769.500;  257.475;    0.000
460.907; 2741.500;  213.475;    0.000
460.951; 2826.500;  274.475;    0.000
460.995; 2719.500;  258.475;    0.000
461.038; 2766.500;  219.475;    0.000
461.082; 2726.500;  253.475;    0.000
461.126; 2728.500;  281.475;    0.000
461.170; 2689.500;  244.475;    0.000
461.214; 2795.500;  262.475;    0.000
461.257; 2779.500;  284.475;    0.000
461.301; 2767.500;  275.475;    0.000
461.345; 2744.500;  267.475;    0.000
461.389; 2780.500;  255.475;    0.000
461.432; 2755.500;  282.475;    0.000
461.476; 2703.500;  263.475;    0.000
461.520; 2671.500;  260.475;    0.000
461.563; 2766.500;  278.475;    0.000
461.607; 2642.500;  236.475;    0.000
461.651; 2795.500;  262.475;    0.000
461.694; 2769.500;  236.475;    0.000
461.738; 2715.500;  295.475;    0.000
461.782; 2829.500;  252.475;    0.000
461.825; 2779.500;  271.475;    0.000
461.869; 2841.500;  278.475;    0.000
461.913; 2772.500;  255.475;    0.000
461.956; 2821.500;  254.475;    0.000
462.000; 2860.500;  299.475;    0.000
462.043; 2815.500;  282.475;    0.000
462.087; 2748.500;  274.475;    0.000
462.130; 2928.500;  270.475;    0.000
462.174; 2850.500;  274.475;    0.000
462.217; 2836.500;  272.475;    0.000
462.261; 2909.500;  286.475;    0.000
462.304; 2872.500;  236.475;    0.000
462.348; 2908.500;  262.475;    0.000
462.391; 2779.500;  244.475;    0.000
462.435; 2836.500;  321.475;    0.000
462.478; 2936.500;  230.475;    0.000
462.522; 2786.500;  245.475;    0.000
462.565; 2898.500;  278.475;    0.000
462.608; 2903.500;  303.475;    0.000
462.652; 2952.500;  275.475;    0.000
462.695; 2994.500;  314.475;    0.000
462.739; 2877.500;  307.475;    0.000
462.782; 2961.500;  286.475;    0.000
462.825; 3001.500;  312.475;    0.000
462.869; 3030.500;  338.475;    0.000
462.912; 2977.500;  304.475;    0.000
462.955; 3010.500;  288.475;    0.000
462.998; 3024.500;  292.475;    0.000
463.042; 3066.500;  309.475;    0.000
463.085; 3095.500;  292.475;    0.000
463.128; 3082.500;  317.475;    0.000
463.172; 2947.500;  287.475;    0.000
463.215;  394.500;  313.475;    0.000
463.258;  349.500;  295.475;    0.000
463.301;  319.500;  275.475;    0.000
463.344;  333.500;  311.475;    0.000
463.388;  299.500;  296.475;    0.000
463.431;  311.500;  277.475;    0.000
463.474;  350.500;  364.475;    0.000
463.517;  289.500;  306.475;    0.000
463.560;  332.500;  308.475;    0.000
463.603;  305.500;  343.475;    0.000
463.646;  347.500;  309.475;    0.000
463.690;  309.500;  309.475;    0.000
463.733;  318.500;  320.475;    0.000
463.776;  272.500;  299.475;    0.000
463.819;  336.500;  320.475;    0.000
463.862;  287.500;  283.475;    0.000

