
Integration time [ms]:   1.000
Averaging Nr. [scans]: 1
Smoothing Nr. [pixels]: 0
Data measured with spectrometer [name]: UV2
Wave   ;Sample   ;Dark     ;Reference
[nm]   ;[counts] ;[counts] ;[counts] 

353.533;  218.000;  216.475;    0.000
353.597;  257.000;  244.475;    0.000
353.660;  225.000;  181.475;    0.000
353.723;  176.000;  203.475;    0.000
353.786;  171.000;  180.475;    0.000
353.850;  226.000;  213.475;    0.000
353.913;  180.000;  191.475;    0.000
353.976;  174.000;  195.475;    0.000
354.039;  179.000;  158.475;    0.000
354.102;  209.000;  199.475;    0.000
354.166;  214.000;  185.475;    0.000
354.229;  229.000;  188.475;    0.000
354.292;  170.000;  188.475;    0.000
354.355;  193.000;  226.475;    0.000
354.418;  192.000;  158.475;    0.000
354.481;  236.000;  185.475;    0.000
354.545;  698.000;  191.475;    0.000
354.608;  728.000;  247.475;    0.000
354.671;  700.000;  176.475;    0.000
354.734;  743.000;  198.475;    0.000
354.797;  721.000;  195.475;    0.000
354.860;  714.000;  212.475;    0.000
354.923;  775.000;  184.475;    0.000
354.986;  769.000;  169.475;    0.000
355.050;  763.000;  206.475;    0.000
355.113;  792.000;  210.475;    0.000
355.176;  800.000;  217.475;    0.000
355.239;  813.000;  201.475;    0.000
355.302;  842.000;  193.475;    0.000
355.365;  835.000;  234.475;    0.000
355.428;  811.000;  182.475;    0.000
355.491;  899.000;  233.475;    0.000
355.554;  798.000;  167.475;    0.000
355.617;  896.000;  195.475;    0.000
355.680;  853.000;  198.475;    0.000
355.743;  881.000;  186.475;    0.000
355.806;  895.000;  171.475;    0.000
355.869;  972.000;  244.475;    0.000
355.932;  865.000;  164.475;    0.000
355.995;  890.000;  220.475;    0.000
356.058;  922.000;  172.475;    0.000
356.121;  959.000;  228.475;    0.000
356.184;  947.000;  225.475;    0.000
356.247;  964.000;  161.475;    0.000
356.310;  990.000;  195.475;    0.000
356.373;  930.000;  191.475;    0.000
356.436;  915.000;  147.475;    0.000
356.498;  981.000;  183.475;    0.000
356.561;  939.000;  137.475;    0.000
356.624;  924.000;  186.475;    0.000
356.687;  940.000;  158.475;    0.000
356.750;  945.000;  194.475;    0.000
356.813;  984.000;  186.475;    0.000
356.876;  983.000;  161.475;    0.000
356.939;  923.000;  188.475;    0.000
357.001;  977.000;  200.475;    0.000
357.064;  940.000;  182.475;    0.000
357.127;  973.000;  168.475;    0.000
357.190;  925.000;  157.475;    0.000
357.253;  995.000;  199.475;    0.000
357.316; 1038.000;  187.475;    0.000
357.378;  967.000;  174.475;    0.000
357.441;  936.000;  165.475;    0.000
357.504; 1044.000;  189.475;    0.000
357.567;  943.000;  116.475;    0.000
357.629;  996.000;  176.475;    0.000
357.692;  971.000;  134.475;    0.000
357.755; 1031.000;  175.475;    0.000
357.818;  973.000;  159.475;    0.000
357.880;  973.000;  185.475;    0.000
357.943;  995.000;  159.475;    0.000
358.006;  993.000;  176.475;    0.000
358.069; 1039.000;  156.475;    0.000
358.131; 1056.000;  170.475;    0.000
358.194;  974.000;  125.475;    0.000
358.257; 1001.000;  186.475;    0.000
358.319;  960.000;  139.475;    0.000
358.382; 1095.000;  175.475;    0.000
358.445; 1013.000;  170.475;    0.000
358.507; 1028.000;  129.475;    0.000
358.570; 1002.000;  168.475;    0.000
358.633;  989.000;  152.475;    0.000
358.695; 1049.000;  194.475;    0.000
358.758; 1068.000;  154.475;    0.000
358.821; 1009.000;  147.475;    0.000
358.883; 1016.000;  163.475;    0.000
358.946; 1026.000;  155.475;    0.000
359.008; 1054.000;  208.475;    0.000
359.071; 1009.000;  182.475;    0.000
359.134; 1018.000;  126.475;    0.000
359.196;  999.000;  142.475;    0.000
359.259; 1080.000;  138.475;    0.000
359.321; 1066.000;  153.475;    0.000
359.384; 1010.000;  186.475;    0.000
359.446; 1024.000;  152.475;    0.000
359.509; 1093.000;  144.475;    0.000
359.571; 1029.000;  164.475;    0.000
359.634; 1008.000;  171.475;    0.000
359.696; 1070.000;  144.475;    0.000
359.759; 1019.000;  171.475;    0.000
359.821; 1134.000;  161.475;    0.000
359.884; 1074.000;  159.475;    0.000
359.946; 1131.000;  186.475;    0.000
360.009; 1058.000;  171.475;    0.000
360.071; 1083.000;  166.475;    0.000
360.134; 1144.000;  215.475;    0.000
360.196; 1034.000;  138.475;    0.000
360.259; 1167.000;  196.475;    0.000
360.321; 1084.000;  148.475;    0.000
360.384; 1125.000;  150.475;    0.000
360.446; 1071.000;  148.475;    0.000
360.508; 1162.000;  172.475;    0.000
360.571; 1131.000;  155.475;    0.000
360.633; 1103.000;  153.475;    0.000
360.696; 1110.000;  142.475;    0.000
360.758; 1171.000;  165.475;    0.000
360.820; 1078.000;  155.475;    0.000
360.883; 1105.000;  156.475;    0.000
360.945; 1137.000;  171.475;    0.000
361.007; 1126.000;  138.475;    0.000
361.070; 1137.000;  129.475;    0.000
361.132; 1168.000;  166.475;    0.000
361.194; 1148.000;  143.475;    0.000
361.257; 1150.000;  154.475;    0.000
361.319; 1150.000;  176.475;    0.000
361.381; 1166.000;  143.475;    0.000
361.443; 1163.000;  136.475;    0.000
361.506; 1221.000;  160.475;    0.000
361.568; 1146.000;  140.475;    0.000
361.630; 1118.000;  159.475;    0.000
361.693; 1174.000;  162.475;    0.000
361.755; 1197.000;  185.475;    0.000
361.817; 1194.000;  209.475;    0.000
361.879; 1172.000;  161.475;    0.000
361.941; 1176.000;  152.475;    0.000
362.004; 1246.000;  132.475;    0.000
362.066; 1166.000;  159.475;    0.000
362.128; 1122.000;  143.475;    0.000
362.190; 1163.000;  131.475;    0.000
362.252; 1201.000;  131.475;    0.000
362.315; 1204.000;  175.475;    0.000
362.377; 1182.000;  140.475;    0.000
362.439; 1162.000;  140.475;    0.000
362.501; 1175.000;  140.475;    0.000
362.563; 1256.000;  152.475;    0.000
362.625; 1185.000;  174.475;    0.000
362.688; 1180.000;  195.475;    0.000
362.750; 1240.000;  221.475;    0.000
362.812; 1151.000;  171.475;    0.000
362.874; 1161.000;  117.475;    0.000
362.936; 1166.000;  162.475;    0.000
362.998; 1211.000;  142.475;    0.000
363.060; 1201.000;  143.475;    0.000
363.122; 1229.000;  148.475;    0.000
363.184; 1214.000;  179.475;    0.000
363.246; 1228.000;  186.475;    0.000
363.308; 1239.000;  180.475;    0.000
363.370; 1230.000;  200.475;    0.000
363.432; 1160.000;  139.475;    0.000
363.494; 1188.000;  138.475;    0.000
363.556; 1231.000;  114.475;    0.000
363.618; 1253.000;  153.475;    0.000
363.680; 1228.000;  153.475;    0.000
363.742; 1243.000;  178.475;    0.000
363.804; 1181.000;  214.475;    0.000
363.866; 1237.000;  170.475;    0.000
363.928; 1240.000;  145.475;    0.000
363.990; 1237.000;  215.475;    0.000
364.052; 1253.000;  166.475;    0.000
364.114; 1282.000;  168.475;    0.000
364.176; 1276.000;  176.475;    0.000
364.238; 1259.000;  203.475;    0.000
364.300; 1216.000;  158.475;    0.000
364.362; 1246.000;  152.475;    0.000
364.424; 1226.000;  119.475;    0.000
364.486; 1269.000;  187.475;    0.000
364.548; 1231.000;  180.475;    0.000
364.609; 1283.000;  212.475;    0.000
364.671; 1232.000;  165.475;    0.000
364.733; 1262.000;  190.475;    0.000
364.795; 1250.000;  148.475;    0.000
364.857; 1265.000;  159.475;    0.000
364.919; 1263.000;  159.475;    0.000
364.981; 1263.000;  191.475;    0.000
365.042; 1266.000;  170.475;    0.000
365.104; 1246.000;  145.475;    0.000
365.166; 1222.000;  134.475;    0.000
365.228; 1247.000;  150.475;    0.000
365.290; 1249.000;  158.475;    0.000
365.351; 1270.000;  168.475;    0.000
365.413; 1274.000;  173.475;    0.000
365.475; 1312.000;  172.475;    0.000
365.537; 1255.000;  126.475;    0.000
365.598; 1264.000;  160.475;    0.000
365.660; 1232.000;  127.475;    0.000
365.722; 1340.000;  189.475;    0.000
365.784; 1215.000;  161.475;    0.000
365.845; 1243.000;  152.475;    0.000
365.907; 1235.000;  117.475;    0.000
365.969; 1315.000;  146.475;    0.000
366.030; 1299.000;  171.475;    0.000
366.092; 1283.000;  155.475;    0.000
366.154; 1299.000;  137.475;    0.000
366.215; 1303.000;  147.475;    0.000
366.277; 1275.000;  148.475;    0.000
366.339; 1243.000;  158.475;    0.000
366.400; 1213.000;  140.475;    0.000
366.462; 1275.000;  159.475;    0.000
366.524; 1291.000;  160.475;    0.000
366.585; 1319.000;  157.475;    0.000
366.647; 1277.000;  170.475;    0.000
366.708; 1246.000;  123.475;    0.000
366.770; 1299.000;  194.475;    0.000
366.832; 1351.000;  191.475;    0.000
366.893; 1335.000;  155.475;    0.000
366.955; 1224.000;  132.475;    0.000
367.016; 1302.000;  126.475;    0.000
367.078; 1249.000;  202.475;    0.000
367.139; 1309.000;  116.475;    0.000
367.201; 1273.000;  134.475;    0.000
367.262; 1325.000;  157.475;    0.000
367.324; 1278.000;  202.475;    0.000
367.385; 1286.000;  118.475;    0.000
367.447; 1286.000;  155.475;    0.000
367.508; 1270.000;  134.475;    0.000
367.570; 1378.000;  165.475;    0.000
367.631; 1330.000;  118.475;    0.000
367.693; 1302.000;  170.475;    0.000
367.754; 1364.000;  154.475;    0.000
367.816; 1322.000;  146.475;    0.000
367.877; 1322.000;  175.475;    0.000
367.939; 1428.000;  200.475;    0.000
368.000; 1372.000;  168.475;    0.000
368.062; 1327.000;  138.475;    0.000
368.123; 1398.000;  170.475;    0.000
368.184; 1280.000;  188.475;    0.000
368.246; 1319.000;  145.475;    0.000
368.307; 1325.000;  163.475;    0.000
368.369; 1331.000;  144.475;    0.000
368.430; 1308.000;  140.475;    0.000
368.491; 1283.000;  133.475;    0.000
368.553; 1325.000;  145.475;    0.000
368.614; 1370.000;  158.475;    0.000
368.675; 1297.000;  147.475;    0.000
368.737; 1341.000;  157.475;    0.000
368.798; 1313.000;  163.475;    0.000
368.859; 1322.000;  173.475;    0.000
368.921; 1362.000;  122.475;    0.000
368.982; 1346.000;  184.475;    0.000
369.043; 1326.000;  169.475;    0.000
369.104; 1332.000;  142.475;    0.000
369.166; 1362.000;  169.475;    0.000
369.227; 1486.000;  156.475;    0.000
369.288; 1350.000;  151.475;    0.000
369.349; 1376.000;  191.475;    0.000
369.411; 1447.000;  168.475;    0.000
369.472; 1364.000;  155.475;    0.000
369.533; 1386.000;  149.475;    0.000
369.594; 1370.000;  174.475;    0.000
369.656; 1313.000;  188.475;    0.000
369.717; 1341.000;  113.475;    0.000
369.778; 1385.000;  184.475;    0.000
369.839; 1340.000;  151.475;    0.000
369.900; 1392.000;  180.475;    0.000
369.961; 1384.000;  171.475;    0.000
370.023; 1376.000;  143.475;    0.000
370.084; 1398.000;  137.475;    0.000
370.145; 1409.000;  152.475;    0.000
370.206; 1441.000;  151.475;    0.000
370.267; 1313.000;  134.475;    0.000
370.328; 1337.000;  178.475;    0.000
370.389; 1362.000;  181.475;    0.000
370.451; 1412.000;  169.475;    0.000
370.512; 1398.000;  172.475;    0.000
370.573; 1410.000;  148.475;    0.000
370.634; 1420.000;  156.475;    0.000
370.695; 1380.000;  151.475;    0.000
370.756; 1407.000;  185.475;    0.000
370.817; 1420.000;  185.475;    0.000
370.878; 1408.000;  191.475;    0.000
370.939; 1371.000;  147.475;    0.000
371.000; 1399.000;  162.475;    0.000
371.061; 1417.000;  145.475;    0.000
371.122; 1421.000;  179.475;    0.000
371.183; 1371.000;  114.475;    0.000
371.244; 1411.000;  180.475;    0.000
371.305; 1407.000;  138.475;    0.000
371.366; 1414.000;  157.475;    0.000
371.427; 1400.000;  148.475;    0.000
371.488; 1463.000;  138.475;    0.000
371.549; 1375.000;  193.475;    0.000
371.610; 1465.000;  158.475;    0.000
371.671; 1394.000;  119.475;    0.000
371.732; 1345.000;  159.475;    0.000
371.793; 1419.000;  178.475;    0.000
371.853; 1369.000;  155.475;    0.000
371.914; 1498.000;  148.475;    0.000
371.975; 1378.000;  124.475;    0.000
372.036; 1424.000;  158.475;    0.000
372.097; 1343.000;  136.475;    0.000
372.158; 1450.000;  116.475;    0.000
372.219; 1430.000;  157.475;    0.000
372.280; 1402.000;  151.475;    0.000
372.340; 1473.000;  190.475;    0.000
372.401; 1463.000;  151.475;    0.000
372.462; 1384.000;  129.475;    0.000
372.523; 1462.000;  121.475;    0.000
372.584; 1360.000;  152.475;    0.000
372.645; 1424.000;  132.475;    0.000
372.705; 1451.000;  190.475;    0.000
372.766; 1413.000;  153.475;    0.000
372.827; 1438.000;  133.475;    0.000
372.888; 1475.000;  161.475;    0.000
372.948; 1427.000;  159.475;    0.000
373.009; 1391.000;  164.475;    0.000
373.070; 1396.000;  139.475;    0.000
373.131; 1444.000;  137.475;    0.000
373.191; 1509.000;  181.475;    0.000
373.252; 1433.000;  154.475;    0.000
373.313; 1463.000;  179.475;    0.000
373.373; 1395.000;  136.475;    0.000
373.434; 1503.000;  169.475;    0.000
373.495; 1450.000;   97.475;    0.000
373.555; 1456.000;  142.475;    0.000
373.616; 1447.000;  178.475;    0.000
373.677; 1581.000;  167.475;    0.000
373.737; 1419.000;  139.475;    0.000
373.798; 1468.000;  155.475;    0.000
373.859; 1509.000;  162.475;    0.000
373.919; 1481.000;  174.475;    0.000
373.980; 1458.000;  172.475;    0.000
374.041; 1423.000;  166.475;    0.000
374.101; 1471.000;  172.475;    0.000
374.162; 1480.000;  188.475;    0.000
374.222; 1526.000;  186.475;    0.000
374.283; 1456.000;  195.475;    0.000
374.343; 1499.000;  204.475;    0.000
374.404; 1525.000;  187.475;    0.000
374.465; 1497.000;  183.475;    0.000
374.525; 1452.000;  136.475;    0.000
374.586; 1507.000;  140.475;    0.000
374.646; 1589.000;  191.475;    0.000
374.707; 1552.000;  208.475;    0.000
374.767; 1484.000;  178.475;    0.000
374.828; 1531.000;  159.475;    0.000
374.888; 1521.000;  143.475;    0.000
374.949; 1566.000;  202.475;    0.000
375.009; 1521.000;  151.475;    0.000
375.070; 1577.000;  160.475;    0.000
375.130; 1549.000;  160.475;    0.000
375.190; 1598.000;  164.475;    0.000
375.251; 1596.000;  196.475;    0.000
375.311; 1480.000;  154.475;    0.000
375.372; 1592.000;  197.475;    0.000
375.432; 1508.000;  159.475;    0.000
375.493; 1520.000;  197.475;    0.000
375.553; 1559.000;  165.475;    0.000
375.613; 1525.000;  174.475;    0.000
375.674; 1597.000;  165.475;    0.000
375.734; 1585.000;  128.475;    0.000
375.794; 1583.000;  169.475;    0.000
375.855; 1525.000;  193.475;    0.000
375.915; 1556.000;  162.475;    0.000
375.975; 1506.000;  181.475;    0.000
376.036; 1474.000;  161.475;    0.000
376.096; 1525.000;  131.475;    0.000
376.156; 1568.000;  165.475;    0.000
376.217; 1615.000;  182.475;    0.000
376.277; 1580.000;  185.475;    0.000
376.337; 1572.000;  177.475;    0.000
376.398; 1566.000;  162.475;    0.000
376.458; 1581.000;  179.475;    0.000
376.518; 1525.000;  150.475;    0.000
376.578; 1503.000;  165.475;    0.000
376.639; 1563.000;  159.475;    0.000
376.699; 1552.000;  180.475;    0.000
376.759; 1590.000;  206.475;    0.000
376.819; 1582.000;  146.475;    0.000
376.880; 1657.000;  177.475;    0.000
376.940; 1535.000;  160.475;    0.000
377.000; 1575.000;  149.475;    0.000
377.060; 1668.000;  180.475;    0.000
377.120; 1676.000;  146.475;    0.000
377.180; 1602.000;  137.475;    0.000
377.241; 1655.000;  163.475;    0.000
377.301; 1655.000;  169.475;    0.000
377.361; 1653.000;  137.475;    0.000
377.421; 1651.000;  184.475;    0.000
377.481; 1624.000;  185.475;    0.000
377.541; 1687.000;  146.475;    0.000
377.601; 1687.000;  179.475;    0.000
377.661; 1646.000;  181.475;    0.000
377.722; 1659.000;  185.475;    0.000
377.782; 1723.000;  147.475;    0.000
377.842; 1663.000;  190.475;    0.000
377.902; 1703.000;  166.475;    0.000
377.962; 1576.000;  153.475;    0.000
378.022; 1651.000;  163.475;    0.000
378.082; 1699.000;  146.475;    0.000
378.142; 1675.000;  152.475;    0.000
378.202; 1715.000;  164.475;    0.000
378.262; 1655.000;  195.475;    0.000
378.322; 1735.000;  190.475;    0.000
378.382; 1723.000;  152.475;    0.000
378.442; 1681.000;  175.475;    0.000
378.502; 1631.000;  153.475;    0.000
378.562; 1741.000;  142.475;    0.000
378.622; 1773.000;  166.475;    0.000
378.682; 1709.000;  173.475;    0.000
378.742; 1670.000;  182.475;    0.000
378.802; 1757.000;  145.475;    0.000
378.862; 1800.000;  210.475;    0.000
378.921; 1766.000;  182.475;    0.000
378.981; 1848.000;  185.475;    0.000
379.041; 1730.000;  130.475;    0.000
379.101; 1726.000;  177.475;    0.000
379.161; 1771.000;  166.475;    0.000
379.221; 1786.000;  162.475;    0.000
379.281; 1797.000;  167.475;    0.000
379.341; 1826.000;  136.475;    0.000
379.401; 1766.000;  145.475;    0.000
379.460; 1817.000;  176.475;    0.000
379.520; 1834.000;  162.475;    0.000
379.580; 1870.000;  144.475;    0.000
379.640; 1850.000;  163.475;    0.000
379.700; 1842.000;  157.475;    0.000
379.759; 1912.000;  165.475;    0.000
379.819; 1826.000;  190.475;    0.000
379.879; 1876.000;  143.475;    0.000
379.939; 1906.000;  188.475;    0.000
379.999; 1876.000;  141.475;    0.000
380.058; 1881.000;  169.475;    0.000
380.118; 1954.000;  158.475;    0.000
380.178; 1863.000;  114.475;    0.000
380.237; 1906.000;  157.475;    0.000
380.297; 1923.000;  177.475;    0.000
380.357; 1848.000;  189.475;    0.000
380.417; 2026.000;  182.475;    0.000
380.476; 1929.000;  178.475;    0.000
380.536; 1942.000;  189.475;    0.000
380.596; 1945.000;  183.475;    0.000
380.655; 1935.000;  195.475;    0.000
380.715; 1950.000;  170.475;    0.000
380.775; 2026.000;  170.475;    0.000
380.834; 2042.000;  179.475;    0.000
380.894; 2038.000;  188.475;    0.000
380.954; 1941.000;  142.475;    0.000
381.013; 1954.000;  178.475;    0.000
381.073; 2048.000;  164.475;    0.000
381.132; 1970.000;  192.475;    0.000
381.192; 2072.000;  187.475;    0.000
381.252; 1928.000;  176.475;    0.000
381.311; 2024.000;  206.475;    0.000
381.371; 2067.000;  167.475;    0.000
381.430; 2002.000;  131.475;    0.000
381.490; 2069.000;  150.475;    0.000
381.549; 1993.000;  129.475;    0.000
381.609; 2163.000;  178.475;    0.000
381.668; 2153.000;  194.475;    0.000
381.728; 2234.000;  210.475;    0.000
381.787; 2120.000;  190.475;    0.000
381.847; 2100.000;  181.475;    0.000
381.906; 2153.000;  156.475;    0.000
381.966; 2264.000;  176.475;    0.000
382.025; 2214.000;  186.475;    0.000
382.085; 2213.000;  192.475;    0.000
382.144; 2311.000;  173.475;    0.000
382.204; 2338.000;  207.475;    0.000
382.263; 2301.000;  193.475;    0.000
382.323; 2398.000;  164.475;    0.000
382.382; 2444.000;  161.475;    0.000
382.441; 2465.000;  199.475;    0.000
382.501; 2592.000;  208.475;    0.000
382.560; 2566.000;  173.475;    0.000
382.619; 2648.000;  179.475;    0.000
382.679; 2817.000;  177.475;    0.000
382.738; 2960.000;  190.475;    0.000
382.798; 3143.000;  213.475;    0.000
382.857; 3312.000;  195.475;    0.000
382.916; 3679.000;  184.475;    0.000
382.976; 3674.000;  169.475;    0.000
383.035; 3413.000;  194.475;    0.000
383.094; 3525.000;  185.475;    0.000
383.154; 3951.000;  198.475;    0.000
383.213; 4313.000;  147.475;    0.000
383.272; 4258.000;  175.475;    0.000
383.331; 3728.000;  122.475;    0.000
383.391; 3334.000;  185.475;    0.000
383.450; 3329.000;  160.475;    0.000
383.509; 3338.000;  168.475;    0.000
383.568; 3534.000;  196.475;    0.000
383.628; 3663.000;  156.475;    0.000
383.687; 3876.000;  171.475;    0.000
383.746; 4206.000;  155.475;    0.000
383.805; 4804.000;  201.475;    0.000
383.864; 4640.000;  125.475;    0.000
383.924; 3935.000;  213.475;    0.000
383.983; 3355.000;  188.475;    0.000
384.042; 3080.000;  162.475;    0.000
384.101; 2985.000;  183.475;    0.000
384.160; 2759.000;  155.475;    0.000
384.219; 2637.000;  155.475;    0.000
384.279; 2623.000;  189.475;    0.000
384.338; 2455.000;  156.475;    0.000
384.397; 2452.000;  148.475;    0.000
384.456; 2467.000;  154.475;    0.000
384.515; 2402.000;  160.475;    0.000
384.574; 2441.000;  223.475;    0.000
384.633; 2365.000;  133.475;    0.000
384.692; 2265.000;  163.475;    0.000
384.751; 2321.000;  186.475;    0.000
384.810; 2312.000;  187.475;    0.000
384.869; 2242.000;  172.475;    0.000
384.929; 2364.000;  153.475;    0.000
384.988; 2216.000;  174.475;    0.000
385.047; 2270.000;  154.475;    0.000
385.106; 2245.000;  164.475;    0.000
385.165; 2202.000;  151.475;    0.000
385.224; 2251.000;  147.475;    0.000
385.283; 2373.000;  176.475;    0.000
385.342; 2274.000;  142.475;    0.000
385.401; 2288.000;  175.475;    0.000
385.459; 2250.000;  150.475;    0.000
385.518; 2191.000;  124.475;    0.000
385.577; 2228.000;  115.475;    0.000
385.636; 2238.000;  174.475;    0.000
385.695; 2179.000;  158.475;    0.000
385.754; 2222.000;  150.475;    0.000
385.813; 2287.000;  129.475;    0.000
385.872; 2279.000;  146.475;    0.000
385.931; 2276.000;  194.475;    0.000
385.990; 2217.000;  174.475;    0.000
386.049; 2286.000;  176.475;    0.000
386.107; 2323.000;  151.475;    0.000
386.166; 2273.000;  178.475;    0.000
386.225; 2191.000;  162.475;    0.000
386.284; 2258.000;  180.475;    0.000
386.343; 2266.000;  171.475;    0.000
386.402; 2127.000;  176.475;    0.000
386.460; 2176.000;  144.475;    0.000
386.519; 2123.000;  140.475;    0.000
386.578; 2306.000;  145.475;    0.000
386.637; 2234.000;  164.475;    0.000
386.696; 2257.000;  189.475;    0.000
386.754; 2249.000;  135.475;    0.000
386.813; 2123.000;  139.475;    0.000
386.872; 2190.000;  121.475;    0.000
386.931; 2178.000;  153.475;    0.000
386.989; 2266.000;  211.475;    0.000
387.048; 2072.000;  156.475;    0.000
387.107; 2199.000;  210.475;    0.000
387.165; 2190.000;  129.475;    0.000
387.224; 2140.000;  205.475;    0.000
387.283; 2140.000;  130.475;    0.000
387.342; 2167.000;  171.475;    0.000
387.400; 2157.000;  156.475;    0.000
387.459; 2066.000;  141.475;    0.000
387.517; 2191.000;  219.475;    0.000
387.576; 2167.000;  166.475;    0.000
387.635; 2193.000;  136.475;    0.000
387.693; 2086.000;  191.475;    0.000
387.752; 2132.000;  165.475;    0.000
387.811; 2139.000;  158.475;    0.000
387.869; 2115.000;  204.475;    0.000
387.928; 2056.000;  149.475;    0.000
387.986; 2100.000;  156.475;    0.000
388.045; 2061.000;  123.475;    0.000
388.103; 2079.000;  150.475;    0.000
388.162; 2141.000;  173.475;    0.000
388.221; 2161.000;  143.475;    0.000
388.279; 2063.000;  129.475;    0.000
388.338; 2072.000;  212.475;    0.000
388.396; 2131.000;  150.475;    0.000
388.455; 2122.000;  167.475;    0.000
388.513; 2018.000;  116.475;    0.000
388.572; 2085.000;  181.475;    0.000
388.630; 2087.000;  187.475;    0.000
388.689; 2055.000;  180.475;    0.000
388.747; 2088.000;  154.475;    0.000
388.806; 2062.000;  161.475;    0.000
388.864; 2068.000;  167.475;    0.000
388.922; 2073.000;  184.475;    0.000
388.981; 2043.000;  169.475;    0.000
389.039; 2025.000;  102.475;    0.000
389.098; 2096.000;  183.475;    0.000
389.156; 2127.000;  182.475;    0.000
389.214; 2162.000;  173.475;    0.000
389.273; 2093.000;  167.475;    0.000
389.331; 2024.000;  170.475;    0.000
389.390; 2117.000;  150.475;    0.000
389.448; 2031.000;  156.475;    0.000
389.506; 2070.000;  149.475;    0.000
389.565; 2142.000;  162.475;    0.000
389.623; 2055.000;  188.475;    0.000
389.681; 2124.000;  204.475;    0.000
389.740; 2079.000;  187.475;    0.000
389.798; 2120.000;  153.475;    0.000
389.856; 2068.000;  214.475;    0.000
389.914; 1987.000;  177.475;    0.000
389.973; 2059.000;  189.475;    0.000
390.031; 2083.000;  178.475;    0.000
390.089; 2127.000;  163.475;    0.000
390.147; 2105.000;  170.475;    0.000
390.206; 2119.000;  183.475;    0.000
390.264; 2163.000;  161.475;    0.000
390.322; 2027.000;  148.475;    0.000
390.380; 2023.000;  138.475;    0.000
390.439; 2062.000;  194.475;    0.000
390.497; 2089.000;  170.475;    0.000
390.555; 2095.000;  165.475;    0.000
390.613; 2069.000;  177.475;    0.000
390.671; 2173.000;  170.475;    0.000
390.729; 2116.000;  158.475;    0.000
390.788; 2048.000;  162.475;    0.000
390.846; 2041.000;  161.475;    0.000
390.904; 2118.000;  197.475;    0.000
390.962; 2108.000;  212.475;    0.000
391.020; 2143.000;  224.475;    0.000
391.078; 2129.000;  184.475;    0.000
391.136; 2118.000;  191.475;    0.000
391.194; 2110.000;  187.475;    0.000
391.253; 2105.000;  197.475;    0.000
391.311; 2129.000;  185.475;    0.000
391.369; 2074.000;  207.475;    0.000
391.427; 2104.000;  222.475;    0.000
391.485; 2126.000;  184.475;    0.000
391.543; 2194.000;  203.475;    0.000
391.601; 2132.000;  151.475;    0.000
391.659; 2066.000;  176.475;    0.000
391.717; 2083.000;  190.475;    0.000
391.775; 2108.000;  159.475;    0.000
391.833; 2046.000;  186.475;    0.000
391.891; 2157.000;  154.475;    0.000
391.949; 2014.000;  181.475;    0.000
392.007; 2077.000;  190.475;    0.000
392.065; 2103.000;  182.475;    0.000
392.123; 2142.000;  158.475;    0.000
392.180; 2076.000;  198.475;    0.000
392.238; 2182.000;  191.475;    0.000
392.296; 2168.000;  164.475;    0.000
392.354; 2129.000;  172.475;    0.000
392.412; 2092.000;  194.475;    0.000
392.470; 2147.000;  154.475;    0.000
392.528; 2154.000;  172.475;    0.000
392.586; 2117.000;  179.475;    0.000
392.644; 2102.000;  173.475;    0.000
392.701; 2127.000;  202.475;    0.000
392.759; 2177.000;  180.475;    0.000
392.817; 2078.000;  181.475;    0.000
392.875; 2150.000;  168.475;    0.000
392.933; 2134.000;  161.475;    0.000
392.991; 2151.000;  216.475;    0.000
393.048; 2090.000;  197.475;    0.000
393.106; 2174.000;  199.475;    0.000
393.164; 2140.000;  173.475;    0.000
393.222; 2084.000;  179.475;    0.000
393.279; 2141.000;  209.475;    0.000
393.337; 2148.000;  185.475;    0.000
393.395; 2218.000;  174.475;    0.000
393.453; 2187.000;  181.475;    0.000
393.510; 2143.000;  188.475;    0.000
393.568; 2180.000;  191.475;    0.000
393.626; 2083.000;  151.475;    0.000
393.684; 2196.000;  208.475;    0.000
393.741; 2161.000;  179.475;    0.000
393.799; 2181.000;  149.475;    0.000
393.857; 2111.000;  136.475;    0.000
393.914; 2171.000;  190.475;    0.000
393.972; 2151.000;  155.475;    0.000
394.030; 2078.000;  170.475;    0.000
394.087; 2234.000;  213.475;    0.000
394.145; 2135.000;  191.475;    0.000
394.202; 2233.000;  188.475;    0.000
394.260; 2215.000;  168.475;    0.000
394.318; 2230.000;  176.475;    0.000
394.375; 2146.000;  159.475;    0.000
394.433; 2213.000;  168.475;    0.000
394.490; 2120.000;  163.475;    0.000
394.548; 2189.000;  163.475;    0.000
394.605; 2194.000;  181.475;    0.000
394.663; 2164.000;  180.475;    0.000
394.720; 2200.000;  193.475;    0.000
394.778; 2233.000;  168.475;    0.000
394.836; 2144.000;  128.475;    0.000
394.893; 2190.000;  151.475;    0.000
394.951; 2181.000;  173.475;    0.000
395.008; 2275.000;  201.475;    0.000
395.065; 2164.000;  139.475;    0.000
395.123; 2197.000;  173.475;    0.000
395.180; 2264.000;  144.475;    0.000
395.238; 2212.000;  135.475;    0.000
395.295; 2171.000;  167.475;    0.000
395.353; 2215.000;  150.475;    0.000
395.410; 2278.000;  165.475;    0.000
395.468; 2265.000;  223.475;    0.000
395.525; 2239.000;  156.475;    0.000
395.582; 2195.000;  178.475;    0.000
395.640; 2193.000;  178.475;    0.000
395.697; 2268.000;  173.475;    0.000
395.754; 2248.000;  154.475;    0.000
395.812; 2285.000;  169.475;    0.000
395.869; 2217.000;  196.475;    0.000
395.927; 2294.000;  190.475;    0.000
395.984; 2359.000;  195.475;    0.000
396.041; 2217.000;  160.475;    0.000
396.098; 2206.000;  161.475;    0.000
396.156; 2288.000;  187.475;    0.000
396.213; 2294.000;  200.475;    0.000
396.270; 2249.000;  160.475;    0.000
396.328; 2296.000;  113.475;    0.000
396.385; 2238.000;  165.475;    0.000
396.442; 2293.000;  168.475;    0.000
396.499; 2278.000;  117.475;    0.000
396.557; 2224.000;  203.475;    0.000
396.614; 2305.000;  155.475;    0.000
396.671; 2212.000;  187.475;    0.000
396.728; 2352.000;  169.475;    0.000
396.785; 2318.000;  167.475;    0.000
396.843; 2295.000;  154.475;    0.000
396.900; 2382.000;  172.475;    0.000
396.957; 2289.000;  176.475;    0.000
397.014; 2313.000;  193.475;    0.000
397.071; 2330.000;  170.475;    0.000
397.128; 2415.000;  172.475;    0.000
397.186; 2312.000;  205.475;    0.000
397.243; 2336.000;  163.475;    0.000
397.300; 2362.000;  193.475;    0.000
397.357; 2402.000;  166.475;    0.000
397.414; 2409.000;  149.475;    0.000
397.471; 2325.000;  157.475;    0.000
397.528; 2309.000;  180.475;    0.000
397.585; 2342.000;  203.475;    0.000
397.642; 2382.000;  156.475;    0.000
397.699; 2474.000;  229.475;    0.000
397.756; 2392.000;  185.475;    0.000
397.814; 2340.000;  191.475;    0.000
397.871; 2346.000;  170.475;    0.000
397.928; 2392.000;  191.475;    0.000
397.985; 2382.000;  183.475;    0.000
398.042; 2373.000;  161.475;    0.000
398.099; 2429.000;  192.475;    0.000
398.156; 2436.000;  176.475;    0.000
398.212; 2405.000;  170.475;    0.000
398.269; 2420.000;  158.475;    0.000
398.326; 2446.000;  175.475;    0.000
398.383; 2416.000;  177.475;    0.000
398.440; 2407.000;  169.475;    0.000
398.497; 2460.000;  184.475;    0.000
398.554; 2419.000;  196.475;    0.000
398.611; 2372.000;  198.475;    0.000
398.668; 2467.000;  135.475;    0.000
398.725; 2489.000;  181.475;    0.000
398.782; 2457.000;  195.475;    0.000
398.839; 2553.000;  179.475;    0.000
398.895; 2533.000;  188.475;    0.000
398.952; 2489.000;  176.475;    0.000
399.009; 2600.000;  183.475;    0.000
399.066; 2512.000;  190.475;    0.000
399.123; 2462.000;  174.475;    0.000
399.180; 2538.000;  191.475;    0.000
399.236; 2552.000;  217.475;    0.000
399.293; 2629.000;  154.475;    0.000
399.350; 2575.000;  210.475;    0.000
399.407; 2704.000;  202.475;    0.000
399.463; 2594.000;  162.475;    0.000
399.520; 2751.000;  207.475;    0.000
399.577; 2608.000;  174.475;    0.000
399.634; 2699.000;  170.475;    0.000
399.690; 2745.000;  186.475;    0.000
399.747; 2800.000;  218.475;    0.000
399.804; 2661.000;  200.475;    0.000
399.861; 2741.000;  190.475;    0.000
399.917; 2701.000;  218.475;    0.000
399.974; 2724.000;  200.475;    0.000
400.031; 2675.000;  200.475;    0.000
400.087; 2592.000;  153.475;    0.000
400.144; 2698.000;  188.475;    0.000
400.201; 2710.000;  198.475;    0.000
400.257; 2551.000;  205.475;    0.000
400.314; 2623.000;  183.475;    0.000
400.370; 2669.000;  227.475;    0.000
400.427; 2648.000;  177.475;    0.000
400.484; 2714.000;  202.475;    0.000
400.540; 2637.000;  173.475;    0.000
400.597; 2535.000;  212.475;    0.000
400.653; 2550.000;  182.475;    0.000
400.710; 2577.000;  201.475;    0.000
400.766; 2606.000;  188.475;    0.000
400.823; 2630.000;  205.475;    0.000
400.879; 2599.000;  165.475;    0.000
400.936; 2688.000;  180.475;    0.000
400.993; 2546.000;  181.475;    0.000
401.049; 2608.000;  147.475;    0.000
401.105; 2566.000;  205.475;    0.000
401.162; 2647.000;  197.475;    0.000
401.218; 2619.000;  177.475;    0.000
401.275; 2532.000;  183.475;    0.000
401.331; 2695.000;  198.475;    0.000
401.388; 2612.000;  209.475;    0.000
401.444; 2727.000;  211.475;    0.000
401.501; 2601.000;  185.475;    0.000
401.557; 2603.000;  190.475;    0.000
401.614; 2573.000;  172.475;    0.000
401.670; 2565.000;  185.475;    0.000
401.726; 2591.000;  196.475;    0.000
401.783; 2570.000;  187.475;    0.000
401.839; 2597.000;  192.475;    0.000
401.895; 2594.000;  173.475;    0.000
401.952; 2638.000;  145.475;    0.000
402.008; 2579.000;  197.475;    0.000
402.064; 2562.000;  146.475;    0.000
402.121; 2588.000;  197.475;    0.000
402.177; 2552.000;  173.475;    0.000
402.233; 2662.000;  185.475;    0.000
402.290; 2593.000;  175.475;    0.000
402.346; 2668.000;  164.475;    0.000
402.402; 2567.000;  173.475;    0.000
402.458; 2641.000;  183.475;    0.000
402.515; 2640.000;  147.475;    0.000
402.571; 2622.000;  210.475;    0.000
402.627; 2577.000;  181.475;    0.000
402.683; 2717.000;  177.475;    0.000
402.740; 2600.000;  162.475;    0.000
402.796; 2585.000;  178.475;    0.000
402.852; 2704.000;  138.475;    0.000
402.908; 2690.000;  181.475;    0.000
402.964; 2666.000;  151.475;    0.000
403.021; 2557.000;  170.475;    0.000
403.077; 2690.000;  204.475;    0.000
403.133; 2595.000;  144.475;    0.000
403.189; 2702.000;  207.475;    0.000
403.245; 2684.000;  184.475;    0.000
403.301; 2662.000;  170.475;    0.000
403.357; 2624.000;  201.475;    0.000
403.414; 2697.000;  205.475;    0.000
403.470; 2722.000;  170.475;    0.000
403.526; 2723.000;  135.475;    0.000
403.582; 2690.000;  180.475;    0.000
403.638; 2731.000;  185.475;    0.000
403.694; 2758.000;  169.475;    0.000
403.750; 2786.000;  210.475;    0.000
403.806; 2767.000;  210.475;    0.000
403.862; 2666.000;  219.475;    0.000
403.918; 2735.000;  191.475;    0.000
403.974; 2712.000;  193.475;    0.000
404.030; 2690.000;  154.475;    0.000
404.086; 2747.000;  170.475;    0.000
404.142; 2728.000;  194.475;    0.000
404.198; 2769.000;  224.475;    0.000
404.254; 2675.000;  177.475;    0.000
404.310; 2718.000;  204.475;    0.000
404.366; 2731.000;  170.475;    0.000
404.422; 2717.000;  172.475;    0.000
404.478; 2796.000;  153.475;    0.000
404.534; 2739.000;  159.475;    0.000
404.590; 2736.000;  203.475;    0.000
404.646; 2655.000;  164.475;    0.000
404.701; 2714.000;  141.475;    0.000
404.757; 2729.000;  195.475;    0.000
404.813; 2717.000;  152.475;    0.000
404.869; 2831.000;  174.475;    0.000
404.925; 2739.000;  167.475;    0.000
404.981; 2806.000;  175.475;    0.000
405.037; 2722.000;  170.475;    0.000
405.092; 2750.000;  155.475;    0.000
405.148; 2719.000;  160.475;    0.000
405.204; 2713.000;  158.475;    0.000
405.260; 2738.000;  128.475;    0.000
405.316; 2794.000;  168.475;    0.000
405.371; 2746.000;  162.475;    0.000
405.427; 2877.000;  187.475;    0.000
405.483; 2770.000;  214.475;    0.000
405.539; 2708.000;  163.475;    0.000
405.594; 2828.000;  191.475;    0.000
405.650; 2796.000;  124.475;    0.000
405.706; 2832.000;  188.475;    0.000
405.761; 2798.000;  204.475;    0.000
405.817; 2847.000;  150.475;    0.000
405.873; 2797.000;  152.475;    0.000
405.928; 2823.000;  135.475;    0.000
405.984; 2863.000;  209.475;    0.000
406.040; 2856.000;  165.475;    0.000
406.095; 2731.000;  146.475;    0.000
406.151; 2844.000;  169.475;    0.000
406.207; 2793.000;  174.475;    0.000
406.262; 2867.000;  189.475;    0.000
406.318; 2795.000;  141.475;    0.000
406.374; 2843.000;  178.475;    0.000
406.429; 2881.000;  197.475;    0.000
406.485; 2878.000;  194.475;    0.000
406.540; 2939.000;  149.475;    0.000
406.596; 2989.000;  173.475;    0.000
406.651; 2933.000;  154.475;    0.000
406.707; 2922.000;  183.475;    0.000
406.763; 2924.000;  156.475;    0.000
406.818; 2991.000;  181.475;    0.000
406.874; 2968.000;  135.475;    0.000
406.929; 3042.000;  194.475;    0.000
406.985; 2996.000;  166.475;    0.000
407.040; 2949.000;  207.475;    0.000
407.095; 2899.000;  213.475;    0.000
407.151; 3055.000;  198.475;    0.000
407.206; 3022.000;  186.475;    0.000
407.262; 3055.000;  148.475;    0.000
407.317; 3066.000;  212.475;    0.000
407.373; 3225.000;  209.475;    0.000
407.428; 3111.000;  218.475;    0.000
407.484; 3114.000;  158.475;    0.000
407.539; 3009.000;  165.475;    0.000
407.594; 3148.000;  197.475;    0.000
407.650; 3088.000;  177.475;    0.000
407.705; 3119.000;  154.475;    0.000
407.760; 3062.000;  198.475;    0.000
407.816; 3042.000;  181.475;    0.000
407.871; 3145.000;  185.475;    0.000
407.926; 3183.000;  167.475;    0.000
407.982; 3115.000;  172.475;    0.000
408.037; 3024.000;  202.475;    0.000
408.092; 3120.000;  201.475;    0.000
408.148; 3108.000;  199.475;    0.000
408.203; 3129.000;  174.475;    0.000
408.258; 3095.000;  157.475;    0.000
408.314; 3155.000;  194.475;    0.000
408.369; 3125.000;  189.475;    0.000
408.424; 3113.000;  204.475;    0.000
408.479; 3010.000;  192.475;    0.000
408.534; 3023.000;  215.475;    0.000
408.590; 3033.000;  190.475;    0.000
408.645; 2970.000;  159.475;    0.000
408.700; 3154.000;  191.475;    0.000
408.755; 2966.000;  217.475;    0.000
408.810; 2949.000;  158.475;    0.000
408.866; 3072.000;  166.475;    0.000
408.921; 3036.000;  214.475;    0.000
408.976; 3052.000;  158.475;    0.000
409.031; 3140.000;  185.475;    0.000
409.086; 3136.000;  158.475;    0.000
409.141; 3027.000;  180.475;    0.000
409.196; 3147.000;  188.475;    0.000
409.252; 2971.000;  186.475;    0.000
409.307; 2901.000;  135.475;    0.000
409.362; 2961.000;  162.475;    0.000
409.417; 3011.000;  149.475;    0.000
409.472; 3117.000;  205.475;    0.000
409.527; 3005.000;  184.475;    0.000
409.582; 3042.000;  174.475;    0.000
409.637; 3172.000;  188.475;    0.000
409.692; 3047.000;  211.475;    0.000
409.747; 3008.000;  159.475;    0.000
409.802; 3042.000;  199.475;    0.000
409.857; 3018.000;  118.475;    0.000
409.912; 3147.000;  177.475;    0.000
409.967; 2941.000;  182.475;    0.000
410.022; 2989.000;  188.475;    0.000
410.077; 3068.000;  204.475;    0.000
410.132; 3036.000;  174.475;    0.000
410.187; 2979.000;  169.475;    0.000
410.242; 3038.000;  178.475;    0.000
410.297; 3030.000;  185.475;    0.000
410.351; 3105.000;  203.475;    0.000
410.406; 3077.000;  180.475;    0.000
410.461; 3041.000;  213.475;    0.000
410.516; 3016.000;  198.475;    0.000
410.571; 2964.000;  171.475;    0.000
410.626; 3046.000;  186.475;    0.000
410.681; 3018.000;  187.475;    0.000
410.736; 2994.000;  147.475;    0.000
410.790; 3115.000;  186.475;    0.000
410.845; 3031.000;  152.475;    0.000
410.900; 3096.000;  202.475;    0.000
410.955; 2980.000;  196.475;    0.000
411.010; 3080.000;  150.475;    0.000
411.064; 3059.000;  200.475;    0.000
411.119; 2989.000;  203.475;    0.000
411.174; 3077.000;  176.475;    0.000
411.229; 3089.000;  203.475;    0.000
411.283; 3069.000;  176.475;    0.000
411.338; 3019.000;  153.475;    0.000
411.393; 3036.000;  168.475;    0.000
411.447; 3012.000;  223.475;    0.000
411.502; 3080.000;  238.475;    0.000
411.557; 2980.000;  179.475;    0.000
411.612; 3093.000;  159.475;    0.000
411.666; 3101.000;  189.475;    0.000
411.721; 2987.000;  212.475;    0.000
411.776; 3083.000;  242.475;    0.000
411.830; 3133.000;  194.475;    0.000
411.885; 3064.000;  188.475;    0.000
411.939; 3152.000;  245.475;    0.000
411.994; 3055.000;  177.475;    0.000
412.049; 3071.000;  170.475;    0.000
412.103; 3016.000;  196.475;    0.000
412.158; 3021.000;  215.475;    0.000
412.212; 3081.000;  199.475;    0.000
412.267; 3101.000;  191.475;    0.000
412.322; 3023.000;  238.475;    0.000
412.376; 3079.000;  243.475;    0.000
412.431; 3152.000;  214.475;    0.000
412.485; 3054.000;  210.475;    0.000
412.540; 3016.000;  200.475;    0.000
412.594; 3063.000;  174.475;    0.000
412.649; 3191.000;  246.475;    0.000
412.703; 3013.000;  182.475;    0.000
412.758; 3078.000;  222.475;    0.000
412.812; 3095.000;  201.475;    0.000
412.866; 2951.000;  162.475;    0.000
412.921; 3053.000;  202.475;    0.000
412.975; 3032.000;  212.475;    0.000
413.030; 3042.000;  238.475;    0.000
413.084; 2981.000;  201.475;    0.000
413.139; 3045.000;  210.475;    0.000
413.193; 3056.000;  218.475;    0.000
413.247; 3081.000;  203.475;    0.000
413.302; 3006.000;  176.475;    0.000
413.356; 3044.000;  215.475;    0.000
413.410; 3000.000;  204.475;    0.000
413.465; 3015.000;  186.475;    0.000
413.519; 3080.000;  196.475;    0.000
413.573; 3016.000;  181.475;    0.000
413.628; 3083.000;  200.475;    0.000
413.682; 2991.000;  157.475;    0.000
413.736; 3125.000;  194.475;    0.000
413.791; 3045.000;  193.475;    0.000
413.845; 2983.000;  225.475;    0.000
413.899; 3035.000;  195.475;    0.000
413.953; 3031.000;  173.475;    0.000
414.008; 3030.000;  186.475;    0.000
414.062; 3064.000;  217.475;    0.000
414.116; 3021.000;  169.475;    0.000
414.170; 3021.000;  228.475;    0.000
414.225; 2991.000;  177.475;    0.000
414.279; 3006.000;  210.475;    0.000
414.333; 3071.000;  207.475;    0.000
414.387; 2992.000;  217.475;    0.000
414.441; 3010.000;  187.475;    0.000
414.496; 3073.000;  215.475;    0.000
414.550; 3070.000;  204.475;    0.000
414.604; 2983.000;  206.475;    0.000
414.658; 3019.000;  139.475;    0.000
414.712; 3074.000;  198.475;    0.000
414.766; 3026.000;  208.475;    0.000
414.820; 3046.000;  199.475;    0.000
414.874; 3141.000;  216.475;    0.000
414.928; 3063.000;  186.475;    0.000
414.982; 3040.000;  176.475;    0.000
415.037; 3042.000;  181.475;    0.000
415.091; 2976.000;  208.475;    0.000
415.145; 2996.000;  209.475;    0.000
415.199; 3047.000;  186.475;    0.000
415.253; 3137.000;  203.475;    0.000
415.307; 3056.000;  197.475;    0.000
415.361; 3017.000;  223.475;    0.000
415.415; 3105.000;  213.475;    0.000
415.469; 3113.000;  226.475;    0.000
415.523; 3056.000;  222.475;    0.000
415.577; 3069.000;  205.475;    0.000
415.631; 3090.000;  224.475;    0.000
415.684; 3120.000;  193.475;    0.000
415.738; 3088.000;  224.475;    0.000
415.792; 2991.000;  204.475;    0.000
415.846; 3040.000;  189.475;    0.000
415.900; 3038.000;  223.475;    0.000
415.954; 3019.000;  187.475;    0.000
416.008; 3139.000;  237.475;    0.000
416.062; 3009.000;  195.475;    0.000
416.116; 2971.000;  223.475;    0.000
416.169; 3060.000;  210.475;    0.000
416.223; 3113.000;  232.475;    0.000
416.277; 2985.000;  227.475;    0.000
416.331; 3034.000;  216.475;    0.000
416.385; 2983.000;  186.475;    0.000
416.439; 3059.000;  226.475;    0.000
416.492; 3134.000;  229.475;    0.000
416.546; 3100.000;  216.475;    0.000
416.600; 3110.000;  211.475;    0.000
416.654; 3031.000;  226.475;    0.000
416.707; 3111.000;  248.475;    0.000
416.761; 3078.000;  217.475;    0.000
416.815; 2997.000;  207.475;    0.000
416.869; 3082.000;  226.475;    0.000
416.922; 3015.000;  192.475;    0.000
416.976; 3023.000;  205.475;    0.000
417.030; 3066.000;  233.475;    0.000
417.083; 3008.000;  226.475;    0.000
417.137; 3026.000;  222.475;    0.000
417.191; 3005.000;  217.475;    0.000
417.244; 3041.000;  221.475;    0.000
417.298; 3034.000;  201.475;    0.000
417.352; 3037.000;  170.475;    0.000
417.405; 3026.000;  234.475;    0.000
417.459; 3056.000;  241.475;    0.000
417.512; 3056.000;  247.475;    0.000
417.566; 3108.000;  219.475;    0.000
417.620; 3132.000;  228.475;    0.000
417.673; 3042.000;  192.475;    0.000
417.727; 3013.000;  203.475;    0.000
417.780; 2983.000;  204.475;    0.000
417.834; 3079.000;  234.475;    0.000
417.887; 2985.000;  245.475;    0.000
417.941; 3134.000;  211.475;    0.000
417.994; 3044.000;  244.475;    0.000
418.048; 3039.000;  203.475;    0.000
418.101; 3107.000;  212.475;    0.000
418.155; 2916.000;  251.475;    0.000
418.208; 2986.000;  286.475;    0.000
418.262; 3009.000;  243.475;    0.000
418.315; 3055.000;  214.475;    0.000
418.369; 3017.000;  269.475;    0.000
418.422; 3011.000;  222.475;    0.000
418.476; 3070.000;  226.475;    0.000
418.529; 3066.000;  238.475;    0.000
418.582; 3149.000;  210.475;    0.000
418.636; 3028.000;  221.475;    0.000
418.689; 3059.000;  224.475;    0.000
418.743; 2980.000;  228.475;    0.000
418.796; 2938.000;  192.475;    0.000
418.849; 2988.000;  230.475;    0.000
418.903; 3143.000;  257.475;    0.000
418.956; 3125.000;  241.475;    0.000
419.009; 3127.000;  247.475;    0.000
419.063; 3094.000;  235.475;    0.000
419.116; 3083.000;  218.475;    0.000
419.169; 3069.000;  219.475;    0.000
419.222; 3088.000;  215.475;    0.000
419.276; 3035.000;  202.475;    0.000
419.329; 2986.000;  210.475;    0.000
419.382; 2995.000;  188.475;    0.000
419.435; 3000.000;  222.475;    0.000
419.489; 3081.000;  232.475;    0.000
419.542; 2945.000;  250.475;    0.000
419.595; 2952.000;  240.475;    0.000
419.648; 3059.000;  261.475;    0.000
419.701; 3049.000;  222.475;    0.000
419.755; 2996.000;  233.475;    0.000
419.808; 3004.000;  178.475;    0.000
419.861; 2915.000;  207.475;    0.000
419.914; 3043.000;  223.475;    0.000
419.967; 3016.000;  216.475;    0.000
420.020; 2961.000;  211.475;    0.000
420.073; 2973.000;  200.475;    0.000
420.127; 2981.000;  248.475;    0.000
420.180; 2881.000;  220.475;    0.000
420.233; 3027.000;  215.475;    0.000
420.286; 2940.000;  222.475;    0.000
420.339; 2908.000;  229.475;    0.000
420.392; 3032.000;  245.475;    0.000
420.445; 2918.000;  221.475;    0.000
420.498; 2909.000;  224.475;    0.000
420.551; 2937.000;  170.475;    0.000
420.604; 2897.000;  237.475;    0.000
420.657; 2873.000;  235.475;    0.000
420.710; 2912.000;  223.475;    0.000
420.763; 3018.000;  219.475;    0.000
420.816; 2876.000;  200.475;    0.000
420.869; 2946.000;  197.475;    0.000
420.922; 2986.000;  212.475;    0.000
420.975; 2957.000;  274.475;    0.000
421.028; 2988.000;  228.475;    0.000
421.081; 2905.000;  243.475;    0.000
421.134; 2866.000;  227.475;    0.000
421.187; 2892.000;  245.475;    0.000
421.239; 2884.000;  210.475;    0.000
421.292; 2927.000;  193.475;    0.000
421.345; 2898.000;  226.475;    0.000
421.398; 2844.000;  226.475;    0.000
421.451; 2871.000;  259.475;    0.000
421.504; 2907.000;  204.475;    0.000
421.557; 2833.000;  215.475;    0.000
421.609; 2920.000;  194.475;    0.000
421.662; 2911.000;  216.475;    0.000
421.715; 2879.000;  226.475;    0.000
421.768; 2857.000;  177.475;    0.000
421.821; 2786.000;  210.475;    0.000
421.873; 2839.000;  208.475;    0.000
421.926; 2869.000;  223.475;    0.000
421.979; 2947.000;  230.475;    0.000
422.032; 2836.000;  227.475;    0.000
422.084; 2866.000;  234.475;    0.000
422.137; 2847.000;  207.475;    0.000
422.190; 2804.000;  228.475;    0.000
422.243; 2829.000;  206.475;    0.000
422.295; 2781.000;  236.475;    0.000
422.348; 2914.000;  232.475;    0.000
422.401; 2883.000;  228.475;    0.000
422.453; 2903.000;  239.475;    0.000
422.506; 2872.000;  226.475;    0.000
422.559; 2818.000;  205.475;    0.000
422.611; 2838.000;  235.475;    0.000
422.664; 2859.000;  231.475;    0.000
422.716; 2807.000;  228.475;    0.000
422.769; 2809.000;  204.475;    0.000
422.822; 2806.000;  205.475;    0.000
422.874; 2896.000;  228.475;    0.000
422.927; 2823.000;  266.475;    0.000
422.979; 2783.000;  223.475;    0.000
423.032; 2838.000;  207.475;    0.000
423.084; 2774.000;  211.475;    0.000
423.137; 2795.000;  205.475;    0.000
423.189; 2849.000;  254.475;    0.000
423.242; 2793.000;  208.475;    0.000
423.294; 2922.000;  240.475;    0.000
423.347; 2758.000;  218.475;    0.000
423.399; 2793.000;  237.475;    0.000
423.452; 2840.000;  242.475;    0.000
423.504; 2780.000;  225.475;    0.000
423.557; 2696.000;  195.475;    0.000
423.609; 2836.000;  206.475;    0.000
423.662; 2844.000;  211.475;    0.000
423.714; 2819.000;  252.475;    0.000
423.766; 2803.000;  181.475;    0.000
423.819; 2813.000;  216.475;    0.000
423.871; 2835.000;  216.475;    0.000
423.923; 2777.000;  222.475;    0.000
423.976; 2795.000;  223.475;    0.000
424.028; 2753.000;  229.475;    0.000
424.081; 2748.000;  267.475;    0.000
424.133; 2859.000;  251.475;    0.000
424.185; 2808.000;  238.475;    0.000
424.238; 2795.000;  220.475;    0.000
424.290; 2810.000;  259.475;    0.000
424.342; 2665.000;  248.475;    0.000
424.394; 2745.000;  234.475;    0.000
424.447; 2719.000;  248.475;    0.000
424.499; 2905.000;  233.475;    0.000
424.551; 2798.000;  236.475;    0.000
424.603; 2784.000;  207.475;    0.000
424.656; 2840.000;  210.475;    0.000
424.708; 2759.000;  251.475;    0.000
424.760; 2718.000;  221.475;    0.000
424.812; 2726.000;  275.475;    0.000
424.864; 2761.000;  206.475;    0.000
424.917; 2645.000;  198.475;    0.000
424.969; 2767.000;  246.475;    0.000
425.021; 2714.000;  209.475;    0.000
425.073; 2720.000;  242.475;    0.000
425.125; 2720.000;  254.475;    0.000
425.177; 2800.000;  224.475;    0.000
425.229; 2747.000;  256.475;    0.000
425.282; 2698.000;  265.475;    0.000
425.334; 2727.000;  266.475;    0.000
425.386; 2701.000;  242.475;    0.000
425.438; 2707.000;  205.475;    0.000
425.490; 2727.000;  227.475;    0.000
425.542; 2704.000;  235.475;    0.000
425.594; 2691.000;  210.475;    0.000
425.646; 2630.000;  232.475;    0.000
425.698; 2725.000;  243.475;    0.000
425.750; 2701.000;  230.475;    0.000
425.802; 2699.000;  218.475;    0.000
425.854; 2711.000;  222.475;    0.000
425.906; 2680.000;  235.475;    0.000
425.958; 2648.000;  220.475;    0.000
426.010; 2676.000;  236.475;    0.000
426.062; 2741.000;  230.475;    0.000
426.114; 2755.000;  216.475;    0.000
426.166; 2677.000;  230.475;    0.000
426.218; 2691.000;  237.475;    0.000
426.270; 2677.000;  217.475;    0.000
426.321; 2624.000;  224.475;    0.000
426.373; 2649.000;  207.475;    0.000
426.425; 2748.000;  278.475;    0.000
426.477; 2653.000;  243.475;    0.000
426.529; 2696.000;  247.475;    0.000
426.581; 2631.000;  229.475;    0.000
426.633; 2614.000;  212.475;    0.000
426.684; 2679.000;  244.475;    0.000
426.736; 2638.000;  250.475;    0.000
426.788; 2555.000;  210.475;    0.000
426.840; 2583.000;  201.475;    0.000
426.892; 2648.000;  225.475;    0.000
426.943; 2659.000;  215.475;    0.000
426.995; 2616.000;  216.475;    0.000
427.047; 2663.000;  216.475;    0.000
427.099; 2637.000;  203.475;    0.000
427.150; 2561.000;  195.475;    0.000
427.202; 2587.000;  212.475;    0.000
427.254; 2589.000;  233.475;    0.000
427.306; 2555.000;  211.475;    0.000
427.357; 2660.000;  210.475;    0.000
427.409; 2656.000;  244.475;    0.000
427.461; 2599.000;  187.475;    0.000
427.512; 2704.000;  227.475;    0.000
427.564; 2583.000;  210.475;    0.000
427.616; 2563.000;  202.475;    0.000
427.667; 2635.000;  185.475;    0.000
427.719; 2629.000;  222.475;    0.000
427.770; 2569.000;  230.475;    0.000
427.822; 2497.000;  254.475;    0.000
427.874; 2563.000;  222.475;    0.000
427.925; 2507.000;  199.475;    0.000
427.977; 2506.000;  228.475;    0.000
428.028; 2628.000;  226.475;    0.000
428.080; 2562.000;  236.475;    0.000
428.131; 2489.000;  220.475;    0.000
428.183; 2509.000;  256.475;    0.000
428.234; 2540.000;  217.475;    0.000
428.286; 2587.000;  234.475;    0.000
428.337; 2554.000;  209.475;    0.000
428.389; 2574.000;  219.475;    0.000
428.440; 2508.000;  249.475;    0.000
428.492; 2609.000;  255.475;    0.000
428.543; 2495.000;  224.475;    0.000
428.595; 2586.000;  225.475;    0.000
428.646; 2558.000;  240.475;    0.000
428.697; 2561.000;  211.475;    0.000
428.749; 2490.000;  200.475;    0.000
428.800; 2637.000;  235.475;    0.000
428.852; 2540.000;  265.475;    0.000
428.903; 2532.000;  201.475;    0.000
428.954; 2504.000;  242.475;    0.000
429.006; 2552.000;  245.475;    0.000
429.057; 2584.000;  252.475;    0.000
429.108; 2557.000;  211.475;    0.000
429.160; 2521.000;  217.475;    0.000
429.211; 2495.000;  234.475;    0.000
429.262; 2469.000;  205.475;    0.000
429.314; 2583.000;  211.475;    0.000
429.365; 2544.000;  240.475;    0.000
429.416; 2548.000;  263.475;    0.000
429.467; 2525.000;  244.475;    0.000
429.519; 2472.000;  223.475;    0.000
429.570; 2501.000;  214.475;    0.000
429.621; 2477.000;  235.475;    0.000
429.672; 2391.000;  202.475;    0.000
429.724; 2504.000;  189.475;    0.000
429.775; 2425.000;  214.475;    0.000
429.826; 2548.000;  178.475;    0.000
429.877; 2530.000;  224.475;    0.000
429.928; 2473.000;  230.475;    0.000
429.980; 2511.000;  199.475;    0.000
430.031; 2556.000;  208.475;    0.000
430.082; 2495.000;  224.475;    0.000
430.133; 2458.000;  193.475;    0.000
430.184; 2510.000;  220.475;    0.000
430.235; 2443.000;  184.475;    0.000
430.286; 2451.000;  197.475;    0.000
430.337; 2437.000;  199.475;    0.000
430.388; 2454.000;  207.475;    0.000
430.439; 2428.000;  227.475;    0.000
430.490; 2549.000;  215.475;    0.000
430.542; 2555.000;  211.475;    0.000
430.593; 2464.000;  230.475;    0.000
430.644; 2442.000;  186.475;    0.000
430.695; 2447.000;  232.475;    0.000
430.746; 2502.000;  214.475;    0.000
430.797; 2441.000;  260.475;    0.000
430.848; 2511.000;  214.475;    0.000
430.898; 2446.000;  204.475;    0.000
430.949; 2393.000;  189.475;    0.000
431.000; 2440.000;  240.475;    0.000
431.051; 2490.000;  201.475;    0.000
431.102; 2401.000;  188.475;    0.000
431.153; 2448.000;  209.475;    0.000
431.204; 2400.000;  187.475;    0.000
431.255; 2395.000;  171.475;    0.000
431.306; 2424.000;  181.475;    0.000
431.357; 2446.000;  221.475;    0.000
431.408; 2463.000;  217.475;    0.000
431.458; 2481.000;  206.475;    0.000
431.509; 2395.000;  194.475;    0.000
431.560; 2493.000;  235.475;    0.000
431.611; 2478.000;  213.475;    0.000
431.662; 2455.000;  237.475;    0.000
431.713; 2474.000;  220.475;    0.000
431.763; 2441.000;  212.475;    0.000
431.814; 2450.000;  238.475;    0.000
431.865; 2532.000;  213.475;    0.000
431.916; 2413.000;  191.475;    0.000
431.966; 2510.000;  171.475;    0.000
432.017; 2498.000;  263.475;    0.000
432.068; 2418.000;  240.475;    0.000
432.118; 2461.000;  235.475;    0.000
432.169; 2454.000;  212.475;    0.000
432.220; 2418.000;  188.475;    0.000
432.271; 2450.000;  216.475;    0.000
432.321; 2492.000;  223.475;    0.000
432.372; 2368.000;  254.475;    0.000
432.423; 2490.000;  193.475;    0.000
432.473; 2492.000;  219.475;    0.000
432.524; 2402.000;  215.475;    0.000
432.574; 2395.000;  234.475;    0.000
432.625; 2451.000;  226.475;    0.000
432.676; 2380.000;  219.475;    0.000
432.726; 2449.000;  254.475;    0.000
432.777; 2510.000;  210.475;    0.000
432.827; 2429.000;  234.475;    0.000
432.878; 2381.000;  212.475;    0.000
432.928; 2463.000;  238.475;    0.000
432.979; 2408.000;  252.475;    0.000
433.029; 2390.000;  222.475;    0.000
433.080; 2274.000;  188.475;    0.000
433.130; 2396.000;  223.475;    0.000
433.181; 2477.000;  254.475;    0.000
433.231; 2405.000;  237.475;    0.000
433.282; 2502.000;  242.475;    0.000
433.332; 2526.000;  261.475;    0.000
433.383; 2469.000;  266.475;    0.000
433.433; 2420.000;  286.475;    0.000
433.484; 2440.000;  231.475;    0.000
433.534; 2462.000;  256.475;    0.000
433.585; 2518.000;  253.475;    0.000
433.635; 2376.000;  228.475;    0.000
433.685; 2399.000;  226.475;    0.000
433.736; 2409.000;  276.475;    0.000
433.786; 2408.000;  253.475;    0.000
433.836; 2504.000;  289.475;    0.000
433.887; 2395.000;  241.475;    0.000
433.937; 2495.000;  252.475;    0.000
433.987; 2306.000;  223.475;    0.000
434.038; 2511.000;  241.475;    0.000
434.088; 2511.000;  231.475;    0.000
434.138; 2417.000;  259.475;    0.000
434.189; 2527.000;  263.475;    0.000
434.239; 2438.000;  194.475;    0.000
434.289; 2457.000;  273.475;    0.000
434.339; 2477.000;  212.475;    0.000
434.389; 2500.000;  248.475;    0.000
434.440; 2525.000;  250.475;    0.000
434.490; 2506.000;  278.475;    0.000
434.540; 2468.000;  241.475;    0.000
434.590; 2448.000;  251.475;    0.000
434.640; 2481.000;  207.475;    0.000
434.691; 2576.000;  242.475;    0.000
434.741; 2518.000;  218.475;    0.000
434.791; 2527.000;  267.475;    0.000
434.841; 2513.000;  272.475;    0.000
434.891; 2586.000;  260.475;    0.000
434.941; 2561.000;  258.475;    0.000
434.991; 2548.000;  264.475;    0.000
435.042; 2525.000;  264.475;    0.000
435.092; 2440.000;  271.475;    0.000
435.142; 2426.000;  229.475;    0.000
435.192; 2390.000;  226.475;    0.000
435.242; 2489.000;  253.475;    0.000
435.292; 2362.000;  215.475;    0.000
435.342; 2411.000;  240.475;    0.000
435.392; 2550.000;  235.475;    0.000
435.442; 2380.000;  230.475;    0.000
435.492; 2476.000;  235.475;    0.000
435.542; 2474.000;  230.475;    0.000
435.592; 2469.000;  239.475;    0.000
435.642; 2422.000;  244.475;    0.000
435.692; 2379.000;  236.475;    0.000
435.742; 2401.000;  236.475;    0.000
435.792; 2338.000;  230.475;    0.000
435.842; 2348.000;  248.475;    0.000
435.891; 2384.000;  233.475;    0.000
435.941; 2335.000;  243.475;    0.000
435.991; 2358.000;  279.475;    0.000
436.041; 2316.000;  204.475;    0.000
436.091; 2347.000;  217.475;    0.000
436.141; 2349.000;  205.475;    0.000
436.191; 2363.000;  220.475;    0.000
436.241; 2404.000;  248.475;    0.000
436.290; 2345.000;  255.475;    0.000
436.340; 2355.000;  235.475;    0.000
436.390; 2386.000;  207.475;    0.000
436.440; 2331.000;  207.475;    0.000
436.490; 2349.000;  251.475;    0.000
436.539; 2400.000;  240.475;    0.000
436.589; 2313.000;  198.475;    0.000
436.639; 2310.000;  240.475;    0.000
436.689; 2383.000;  216.475;    0.000
436.738; 2252.000;  246.475;    0.000
436.788; 2387.000;  203.475;    0.000
436.838; 2298.000;  230.475;    0.000
436.887; 2314.000;  235.475;    0.000
436.937; 2269.000;  249.475;    0.000
436.987; 2367.000;  208.475;    0.000
437.036; 2275.000;  232.475;    0.000
437.086; 2376.000;  238.475;    0.000
437.136; 2338.000;  228.475;    0.000
437.185; 2346.000;  219.475;    0.000
437.235; 2325.000;  227.475;    0.000
437.285; 2309.000;  241.475;    0.000
437.334; 2245.000;  216.475;    0.000
437.384; 2306.000;  243.475;    0.000
437.433; 2278.000;  214.475;    0.000
437.483; 2384.000;  246.475;    0.000
437.532; 2268.000;  261.475;    0.000
437.582; 2244.000;  205.475;    0.000
437.631; 2264.000;  218.475;    0.000
437.681; 2248.000;  240.475;    0.000
437.730; 2273.000;  258.475;    0.000
437.780; 2273.000;  237.475;    0.000
437.829; 2275.000;  209.475;    0.000
437.879; 2211.000;  214.475;    0.000
437.928; 2271.000;  223.475;    0.000
437.978; 2272.000;  220.475;    0.000
438.027; 2308.000;  239.475;    0.000
438.077; 2203.000;  231.475;    0.000
438.126; 2251.000;  266.475;    0.000
438.176; 2331.000;  234.475;    0.000
438.225; 2235.000;  237.475;    0.000
438.274; 2227.000;  234.475;    0.000
438.324; 2267.000;  244.475;    0.000
438.373; 2237.000;  232.475;    0.000
438.422; 2269.000;  218.475;    0.000
438.472; 2297.000;  221.475;    0.000
438.521; 2305.000;  190.475;    0.000
438.570; 2251.000;  243.475;    0.000
438.620; 2256.000;  255.475;    0.000
438.669; 2284.000;  210.475;    0.000
438.718; 2270.000;  237.475;    0.000
438.768; 2174.000;  220.475;    0.000
438.817; 2287.000;  218.475;    0.000
438.866; 2255.000;  198.475;    0.000
438.915; 2293.000;  256.475;    0.000
438.965; 2244.000;  221.475;    0.000
439.014; 2256.000;  255.475;    0.000
439.063; 2245.000;  276.475;    0.000
439.112; 2305.000;  220.475;    0.000
439.162; 2222.000;  253.475;    0.000
439.211; 2365.000;  247.475;    0.000
439.260; 2273.000;  220.475;    0.000
439.309; 2238.000;  235.475;    0.000
439.358; 2322.000;  205.475;    0.000
439.407; 2238.000;  207.475;    0.000
439.456; 2296.000;  216.475;    0.000
439.506; 2312.000;  245.475;    0.000
439.555; 2312.000;  264.475;    0.000
439.604; 2270.000;  227.475;    0.000
439.653; 2268.000;  220.475;    0.000
439.702; 2315.000;  223.475;    0.000
439.751; 2255.000;  197.475;    0.000
439.800; 2367.000;  207.475;    0.000
439.849; 2320.000;  238.475;    0.000
439.898; 2257.000;  209.475;    0.000
439.947; 2295.000;  170.475;    0.000
439.996; 2265.000;  233.475;    0.000
440.045; 2177.000;  222.475;    0.000
440.094; 2321.000;  240.475;    0.000
440.143; 2210.000;  249.475;    0.000
440.192; 2295.000;  252.475;    0.000
440.241; 2260.000;  239.475;    0.000
440.290; 2346.000;  234.475;    0.000
440.339; 2346.000;  241.475;    0.000
440.388; 2294.000;  239.475;    0.000
440.437; 2297.000;  231.475;    0.000
440.486; 2269.000;  254.475;    0.000
440.535; 2316.000;  266.475;    0.000
440.583; 2252.000;  205.475;    0.000
440.632; 2320.000;  234.475;    0.000
440.681; 2300.000;  218.475;    0.000
440.730; 2310.000;  248.475;    0.000
440.779; 2377.000;  246.475;    0.000
440.828; 2303.000;  235.475;    0.000
440.876; 2353.000;  218.475;    0.000
440.925; 2309.000;  228.475;    0.000
440.974; 2352.000;  249.475;    0.000
441.023; 2342.000;  192.475;    0.000
441.072; 2391.000;  226.475;    0.000
441.120; 2382.000;  238.475;    0.000
441.169; 2392.000;  255.475;    0.000
441.218; 2321.000;  233.475;    0.000
441.267; 2336.000;  231.475;    0.000
441.315; 2307.000;  214.475;    0.000
441.364; 2410.000;  250.475;    0.000
441.413; 2339.000;  228.475;    0.000
441.461; 2428.000;  209.475;    0.000
441.510; 2425.000;  260.475;    0.000
441.559; 2393.000;  230.475;    0.000
441.607; 2456.000;  220.475;    0.000
441.656; 2379.000;  251.475;    0.000
441.705; 2379.000;  237.475;    0.000
441.753; 2418.000;  257.475;    0.000
441.802; 2384.000;  256.475;    0.000
441.850; 2287.000;  253.475;    0.000
441.899; 2317.000;  212.475;    0.000
441.948; 2417.000;  251.475;    0.000
441.996; 2394.000;  239.475;    0.000
442.045; 2425.000;  223.475;    0.000
442.093; 2417.000;  211.475;    0.000
442.142; 2388.000;  235.475;    0.000
442.190; 2448.000;  254.475;    0.000
442.239; 2392.000;  226.475;    0.000
442.287; 2436.000;  242.475;    0.000
442.336; 2392.000;  256.475;    0.000
442.384; 2425.000;  252.475;    0.000
442.433; 2385.000;  262.475;    0.000
442.481; 2461.000;  246.475;    0.000
442.529; 2389.000;  290.475;    0.000
442.578; 2389.000;  247.475;    0.000
442.626; 2448.000;  247.475;    0.000
442.675; 2450.000;  272.475;    0.000
442.723; 2328.000;  230.475;    0.000
442.771; 2352.000;  234.475;    0.000
442.820; 2408.000;  224.475;    0.000
442.868; 2329.000;  246.475;    0.000
442.917; 2394.000;  249.475;    0.000
442.965; 2421.000;  260.475;    0.000
443.013; 2423.000;  258.475;    0.000
443.062; 2391.000;  259.475;    0.000
443.110; 2354.000;  226.475;    0.000
443.158; 2394.000;  213.475;    0.000
443.206; 2412.000;  201.475;    0.000
443.255; 2411.000;  280.475;    0.000
443.303; 2415.000;  292.475;    0.000
443.351; 2418.000;  256.475;    0.000
443.399; 2434.000;  215.475;    0.000
443.448; 2451.000;  243.475;    0.000
443.496; 2431.000;  249.475;    0.000
443.544; 2379.000;  231.475;    0.000
443.592; 2462.000;  243.475;    0.000
443.640; 2526.000;  252.475;    0.000
443.689; 2327.000;  220.475;    0.000
443.737; 2421.000;  231.475;    0.000
443.785; 2471.000;  256.475;    0.000
443.833; 2490.000;  268.475;    0.000
443.881; 2400.000;  181.475;    0.000
443.929; 2479.000;  245.475;    0.000
443.977; 2496.000;  278.475;    0.000
444.025; 2419.000;  245.475;    0.000
444.074; 2488.000;  233.475;    0.000
444.122; 2523.000;  267.475;    0.000
444.170; 2601.000;  247.475;    0.000
444.218; 2491.000;  246.475;    0.000
444.266; 2477.000;  275.475;    0.000
444.314; 2499.000;  263.475;    0.000
444.362; 2555.000;  240.475;    0.000
444.410; 2512.000;  220.475;    0.000
444.458; 2595.000;  258.475;    0.000
444.506; 2586.000;  258.475;    0.000
444.554; 2523.000;  224.475;    0.000
444.602; 2591.000;  245.475;    0.000
444.650; 2587.000;  261.475;    0.000
444.698; 2515.000;  232.475;    0.000
444.746; 2514.000;  206.475;    0.000
444.793; 2549.000;  249.475;    0.000
444.841; 2575.000;  261.475;    0.000
444.889; 2515.000;  221.475;    0.000
444.937; 2591.000;  215.475;    0.000
444.985; 2538.000;  244.475;    0.000
445.033; 2556.000;  211.475;    0.000
445.081; 2561.000;  225.475;    0.000
445.129; 2597.000;  217.475;    0.000
445.176; 2493.000;  196.475;    0.000
445.224; 2508.000;  211.475;    0.000
445.272; 2593.000;  242.475;    0.000
445.320; 2604.000;  225.475;    0.000
445.368; 2516.000;  249.475;    0.000
445.415; 2570.000;  243.475;    0.000
445.463; 2435.000;  242.475;    0.000
445.511; 2602.000;  248.475;    0.000
445.559; 2583.000;  219.475;    0.000
445.606; 2637.000;  221.475;    0.000
445.654; 2562.000;  202.475;    0.000
445.702; 2595.000;  210.475;    0.000
445.749; 2658.000;  249.475;    0.000
445.797; 2595.000;  206.475;    0.000
445.845; 2588.000;  213.475;    0.000
445.892; 2658.000;  224.475;    0.000
445.940; 2579.000;  214.475;    0.000
445.988; 2660.000;  247.475;    0.000
446.035; 2559.000;  204.475;    0.000
446.083; 2645.000;  235.475;    0.000
446.130; 2616.000;  195.475;    0.000
446.178; 2565.000;  236.475;    0.000
446.226; 2615.000;  218.475;    0.000
446.273; 2667.000;  215.475;    0.000
446.321; 2674.000;  222.475;    0.000
446.368; 2635.000;  228.475;    0.000
446.416; 2626.000;  223.475;    0.000
446.463; 2629.000;  220.475;    0.000
446.511; 2637.000;  198.475;    0.000
446.558; 2696.000;  208.475;    0.000
446.606; 2683.000;  253.475;    0.000
446.653; 2752.000;  198.475;    0.000
446.701; 2726.000;  231.475;    0.000
446.748; 2766.000;  224.475;    0.000
446.796; 2673.000;  201.475;    0.000
446.843; 2739.000;  257.475;    0.000
446.891; 2829.000;  218.475;    0.000
446.938; 2782.000;  232.475;    0.000
446.985; 2746.000;  229.475;    0.000
447.033; 2806.000;  251.475;    0.000
447.080; 2851.000;  257.475;    0.000
447.128; 2768.000;  232.475;    0.000
447.175; 2950.000;  269.475;    0.000
447.222; 2876.000;  185.475;    0.000
447.270; 2920.000;  264.475;    0.000
447.317; 2921.000;  225.475;    0.000
447.364; 2893.000;  243.475;    0.000
447.411; 2962.000;  263.475;    0.000
447.459; 2947.000;  257.475;    0.000
447.506; 2941.000;  175.475;    0.000
447.553; 3060.000;  203.475;    0.000
447.601; 3092.000;  238.475;    0.000
447.648; 3084.000;  244.475;    0.000
447.695; 3123.000;  249.475;    0.000
447.742; 3072.000;  234.475;    0.000
447.789; 3107.000;  228.475;    0.000
447.837; 3207.000;  258.475;    0.000
447.884; 3303.000;  243.475;    0.000
447.931; 3237.000;  235.475;    0.000
447.978; 3293.000;  224.475;    0.000
448.025; 3311.000;  245.475;    0.000
448.072; 3401.000;  212.475;    0.000
448.120; 3327.000;  256.475;    0.000
448.167; 3348.000;  240.475;    0.000
448.214; 3238.000;  247.475;    0.000
448.261; 3293.000;  245.475;    0.000
448.308; 3270.000;  273.475;    0.000
448.355; 3253.000;  257.475;    0.000
448.402; 3163.000;  259.475;    0.000
448.449; 3100.000;  238.475;    0.000
448.496; 3092.000;  245.475;    0.000
448.543; 3042.000;  217.475;    0.000
448.590; 3072.000;  269.475;    0.000
448.637; 2969.000;  250.475;    0.000
448.684; 2975.000;  250.475;    0.000
448.731; 2905.000;  235.475;    0.000
448.778; 2978.000;  265.475;    0.000
448.825; 2885.000;  257.475;    0.000
448.872; 2846.000;  234.475;    0.000
448.919; 2833.000;  216.475;    0.000
448.966; 2848.000;  274.475;    0.000
449.013; 2748.000;  263.475;    0.000
449.060; 2686.000;  247.475;    0.000
449.107; 2718.000;  218.475;    0.000
449.154; 2740.000;  225.475;    0.000
449.200; 2641.000;  212.475;    0.000
449.247; 2737.000;  242.475;    0.000
449.294; 2668.000;  228.475;    0.000
449.341; 2696.000;  232.475;    0.000
449.388; 2533.000;  247.475;    0.000
449.435; 2668.000;  227.475;    0.000
449.481; 2680.000;  270.475;    0.000
449.528; 2635.000;  265.475;    0.000
449.575; 2639.000;  255.475;    0.000
449.622; 2626.000;  210.475;    0.000
449.668; 2619.000;  234.475;    0.000
449.715; 2527.000;  262.475;    0.000
449.762; 2547.000;  247.475;    0.000
449.809; 2613.000;  286.475;    0.000
449.855; 2508.000;  246.475;    0.000
449.902; 2461.000;  224.475;    0.000
449.949; 2581.000;  244.475;    0.000
449.995; 2515.000;  274.475;    0.000
450.042; 2500.000;  272.475;    0.000
450.089; 2469.000;  274.475;    0.000
450.135; 2532.000;  285.475;    0.000
450.182; 2514.000;  251.475;    0.000
450.229; 2481.000;  242.475;    0.000
450.275; 2493.000;  277.475;    0.000
450.322; 2490.000;  260.475;    0.000
450.368; 2423.000;  257.475;    0.000
450.415; 2526.000;  276.475;    0.000
450.462; 2422.000;  298.475;    0.000
450.508; 2474.000;  255.475;    0.000
450.555; 2492.000;  271.475;    0.000
450.601; 2429.000;  281.475;    0.000
450.648; 2416.000;  249.475;    0.000
450.694; 2350.000;  270.475;    0.000
450.741; 2414.000;  256.475;    0.000
450.787; 2363.000;  292.475;    0.000
450.834; 2404.000;  221.475;    0.000
450.880; 2389.000;  265.475;    0.000
450.927; 2412.000;  242.475;    0.000
450.973; 2422.000;  259.475;    0.000
451.019; 2449.000;  221.475;    0.000
451.066; 2391.000;  257.475;    0.000
451.112; 2398.000;  251.475;    0.000
451.159; 2365.000;  278.475;    0.000
451.205; 2432.000;  274.475;    0.000
451.251; 2402.000;  281.475;    0.000
451.298; 2363.000;  273.475;    0.000
451.344; 2458.000;  246.475;    0.000
451.390; 2352.000;  286.475;    0.000
451.437; 2421.000;  268.475;    0.000
451.483; 2358.000;  315.475;    0.000
451.529; 2367.000;  251.475;    0.000
451.576; 2352.000;  306.475;    0.000
451.622; 2317.000;  234.475;    0.000
451.668; 2364.000;  243.475;    0.000
451.714; 2368.000;  256.475;    0.000
451.761; 2289.000;  264.475;    0.000
451.807; 2321.000;  284.475;    0.000
451.853; 2404.000;  282.475;    0.000
451.899; 2289.000;  240.475;    0.000
451.945; 2281.000;  263.475;    0.000
451.992; 2276.000;  255.475;    0.000
452.038; 2258.000;  273.475;    0.000
452.084; 2281.000;  274.475;    0.000
452.130; 2314.000;  261.475;    0.000
452.176; 2278.000;  246.475;    0.000
452.222; 2297.000;  238.475;    0.000
452.268; 2298.000;  267.475;    0.000
452.315; 2280.000;  274.475;    0.000
452.361; 2268.000;  241.475;    0.000
452.407; 2280.000;  274.475;    0.000
452.453; 2288.000;  260.475;    0.000
452.499; 2214.000;  232.475;    0.000
452.545; 2269.000;  252.475;    0.000
452.591; 2323.000;  263.475;    0.000
452.637; 2265.000;  208.475;    0.000
452.683; 2177.000;  237.475;    0.000
452.729; 2222.000;  263.475;    0.000
452.775; 2314.000;  291.475;    0.000
452.821; 2311.000;  238.475;    0.000
452.867; 2230.000;  223.475;    0.000
452.913; 2298.000;  257.475;    0.000
452.959; 2238.000;  238.475;    0.000
453.005; 2258.000;  252.475;    0.000
453.051; 2241.000;  260.475;    0.000
453.097; 2302.000;  268.475;    0.000
453.142; 2216.000;  231.475;    0.000
453.188; 2218.000;  266.475;    0.000
453.234; 2186.000;  233.475;    0.000
453.280; 2190.000;  219.475;    0.000
453.326; 2204.000;  265.475;    0.000
453.372; 2219.000;  238.475;    0.000
453.418; 2168.000;  240.475;    0.000
453.463; 2234.000;  219.475;    0.000
453.509; 2184.000;  264.475;    0.000
453.555; 2095.000;  247.475;    0.000
453.601; 2153.000;  230.475;    0.000
453.647; 2281.000;  285.475;    0.000
453.692; 2106.000;  240.475;    0.000
453.738; 2243.000;  233.475;    0.000
453.784; 2141.000;  230.475;    0.000
453.829; 2248.000;  246.475;    0.000
453.875; 2118.000;  261.475;    0.000
453.921; 2198.000;  203.475;    0.000
453.967; 2131.000;  241.475;    0.000
454.012; 2254.000;  250.475;    0.000
454.058; 2185.000;  252.475;    0.000
454.104; 2182.000;  239.475;    0.000
454.149; 2188.000;  250.475;    0.000
454.195; 2101.000;  243.475;    0.000
454.240; 2158.000;  252.475;    0.000
454.286; 2096.000;  245.475;    0.000
454.332; 2188.000;  286.475;    0.000
454.377; 2127.000;  254.475;    0.000
454.423; 2148.000;  246.475;    0.000
454.468; 2220.000;  235.475;    0.000
454.514; 2181.000;  231.475;    0.000
454.559; 2169.000;  246.475;    0.000
454.605; 2157.000;  204.475;    0.000
454.650; 2143.000;  272.475;    0.000
454.696; 2171.000;  222.475;    0.000
454.741; 2192.000;  290.475;    0.000
454.787; 2146.000;  262.475;    0.000
454.832; 2168.000;  227.475;    0.000
454.878; 2159.000;  241.475;    0.000
454.923; 2217.000;  272.475;    0.000
454.969; 2185.000;  290.475;    0.000
455.014; 2122.000;  278.475;    0.000
455.060; 2201.000;  246.475;    0.000
455.105; 2119.000;  231.475;    0.000
455.150; 2212.000;  265.475;    0.000
455.196; 2178.000;  266.475;    0.000
455.241; 2274.000;  258.475;    0.000
455.286; 2170.000;  266.475;    0.000
455.332; 2151.000;  252.475;    0.000
455.377; 2147.000;  219.475;    0.000
455.422; 2170.000;  262.475;    0.000
455.468; 2138.000;  260.475;    0.000
455.513; 2136.000;  212.475;    0.000
455.558; 2051.000;  197.475;    0.000
455.604; 2207.000;  262.475;    0.000
455.649; 2176.000;  238.475;    0.000
455.694; 2136.000;  221.475;    0.000
455.739; 2175.000;  251.475;    0.000
455.785; 2287.000;  287.475;    0.000
455.830; 2181.000;  284.475;    0.000
455.875; 2149.000;  234.475;    0.000
455.920; 2173.000;  215.475;    0.000
455.965; 2123.000;  256.475;    0.000
456.010; 2147.000;  266.475;    0.000
456.056; 2106.000;  263.475;    0.000
456.101; 2092.000;  240.475;    0.000
456.146; 2148.000;  258.475;    0.000
456.191; 2065.000;  241.475;    0.000
456.236; 2155.000;  252.475;    0.000
456.281; 2172.000;  218.475;    0.000
456.326; 2119.000;  251.475;    0.000
456.371; 2235.000;  256.475;    0.000
456.416; 2150.000;  301.475;    0.000
456.461; 2159.000;  233.475;    0.000
456.507; 2145.000;  218.475;    0.000
456.552; 2135.000;  278.475;    0.000
456.597; 2183.000;  223.475;    0.000
456.642; 2126.000;  203.475;    0.000
456.687; 2177.000;  245.475;    0.000
456.732; 2190.000;  256.475;    0.000
456.776; 2129.000;  244.475;    0.000
456.821; 2211.000;  276.475;    0.000
456.866; 2184.000;  232.475;    0.000
456.911; 2108.000;  225.475;    0.000
456.956; 2120.000;  237.475;    0.000
457.001; 2180.000;  261.475;    0.000
457.046; 2145.000;  205.475;    0.000
457.091; 2133.000;  241.475;    0.000
457.136; 2201.000;  217.475;    0.000
457.181; 2129.000;  251.475;    0.000
457.225; 2157.000;  241.475;    0.000
457.270; 2238.000;  237.475;    0.000
457.315; 2268.000;  279.475;    0.000
457.360; 2098.000;  245.475;    0.000
457.405; 2160.000;  202.475;    0.000
457.450; 2242.000;  247.475;    0.000
457.494; 2116.000;  243.475;    0.000
457.539; 2203.000;  222.475;    0.000
457.584; 2234.000;  239.475;    0.000
457.629; 2173.000;  236.475;    0.000
457.673; 2164.000;  234.475;    0.000
457.718; 2179.000;  202.475;    0.000
457.763; 2141.000;  274.475;    0.000
457.807; 2232.000;  236.475;    0.000
457.852; 2128.000;  265.475;    0.000
457.897; 2227.000;  252.475;    0.000
457.941; 2201.000;  264.475;    0.000
457.986; 2174.000;  280.475;    0.000
458.031; 2127.000;  217.475;    0.000
458.075; 2135.000;  249.475;    0.000
458.120; 2191.000;  257.475;    0.000
458.165; 2098.000;  183.475;    0.000
458.209; 2214.000;  245.475;    0.000
458.254; 2277.000;  245.475;    0.000
458.298; 2235.000;  265.475;    0.000
458.343; 2241.000;  241.475;    0.000
458.387; 2272.000;  262.475;    0.000
458.432; 2228.000;  245.475;    0.000
458.476; 2264.000;  255.475;    0.000
458.521; 2305.000;  269.475;    0.000
458.565; 2230.000;  265.475;    0.000
458.610; 2271.000;  222.475;    0.000
458.654; 2261.000;  257.475;    0.000
458.699; 2271.000;  296.475;    0.000
458.743; 2218.000;  203.475;    0.000
458.788; 2338.000;  267.475;    0.000
458.832; 2293.000;  274.475;    0.000
458.877; 2252.000;  251.475;    0.000
458.921; 2231.000;  237.475;    0.000
458.965; 2328.000;  264.475;    0.000
459.010; 2334.000;  256.475;    0.000
459.054; 2248.000;  280.475;    0.000
459.099; 2335.000;  240.475;    0.000
459.143; 2323.000;  287.475;    0.000
459.187; 2363.000;  257.475;    0.000
459.231; 2344.000;  273.475;    0.000
459.276; 2307.000;  231.475;    0.000
459.320; 2317.000;  261.475;    0.000
459.364; 2243.000;  278.475;    0.000
459.409; 2353.000;  249.475;    0.000
459.453; 2407.000;  235.475;    0.000
459.497; 2355.000;  262.475;    0.000
459.541; 2308.000;  269.475;    0.000
459.586; 2297.000;  240.475;    0.000
459.630; 2346.000;  261.475;    0.000
459.674; 2271.000;  276.475;    0.000
459.718; 2275.000;  236.475;    0.000
459.762; 2349.000;  263.475;    0.000
459.807; 2372.000;  263.475;    0.000
459.851; 2308.000;  225.475;    0.000
459.895; 2407.000;  247.475;    0.000
459.939; 2455.000;  231.475;    0.000
459.983; 2396.000;  242.475;    0.000
460.027; 2353.000;  248.475;    0.000
460.071; 2305.000;  273.475;    0.000
460.115; 2383.000;  282.475;    0.000
460.159; 2369.000;  264.475;    0.000
460.204; 2353.000;  288.475;    0.000
460.248; 2350.000;  293.475;    0.000
460.292; 2364.000;  277.475;    0.000
460.336; 2457.000;  250.475;    0.000
460.380; 2396.000;  275.475;    0.000
460.424; 2408.000;  243.475;    0.000
460.468; 2442.000;  277.475;    0.000
460.512; 2399.000;  261.475;    0.000
460.556; 2368.000;  266.475;    0.000
460.599; 2447.000;  246.475;    0.000
460.643; 2341.000;  256.475;    0.000
460.687; 2380.000;  257.475;    0.000
460.731; 2389.000;  235.475;    0.000
460.775; 2381.000;  278.475;    0.000
460.819; 2457.000;  268.475;    0.000
460.863; 2420.000;  257.475;    0.000
460.907; 2389.000;  213.475;    0.000
460.951; 2358.000;  274.475;    0.000
460.995; 2376.000;  258.475;    0.000
461.038; 2368.000;  219.475;    0.000
461.082; 2389.000;  253.475;    0.000
461.126; 2434.000;  281.475;    0.000
461.170; 2450.000;  244.475;    0.000
461.214; 2491.000;  262.475;    0.000
461.257; 2447.000;  284.475;    0.000
461.301; 2366.000;  275.475;    0.000
461.345; 2416.000;  267.475;    0.000
461.389; 2382.000;  255.475;    0.000
461.432; 2405.000;  282.475;    0.000
461.476; 2493.000;  263.475;    0.000
461.520; 2378.000;  260.475;    0.000
461.563; 2455.000;  278.475;    0.000
461.607; 2456.000;  236.475;    0.000
461.651; 2430.000;  262.475;    0.000
461.694; 2384.000;  236.475;    0.000
461.738; 2406.000;  295.475;    0.000
461.782; 2451.000;  252.475;    0.000
461.825; 2379.000;  271.475;    0.000
461.869; 2422.000;  278.475;    0.000
461.913; 2377.000;  255.475;    0.000
461.956; 2486.000;  254.475;    0.000
462.000; 2519.000;  299.475;    0.000
462.043; 2413.000;  282.475;    0.000
462.087; 2484.000;  274.475;    0.000
462.130; 2540.000;  270.475;    0.000
462.174; 2528.000;  274.475;    0.000
462.217; 2503.000;  272.475;    0.000
462.261; 2466.000;  286.475;    0.000
462.304; 2409.000;  236.475;    0.000
462.348; 2435.000;  262.475;    0.000
462.391; 2449.000;  244.475;    0.000
462.435; 2511.000;  321.475;    0.000
462.478; 2574.000;  230.475;    0.000
462.522; 2484.000;  245.475;    0.000
462.565; 2531.000;  278.475;    0.000
462.608; 2614.000;  303.475;    0.000
462.652; 2553.000;  275.475;    0.000
462.695; 2524.000;  314.475;    0.000
462.739; 2575.000;  307.475;    0.000
462.782; 2621.000;  286.475;    0.000
462.825; 2630.000;  312.475;    0.000
462.869; 2688.000;  338.475;    0.000
462.912; 2643.000;  304.475;    0.000
462.955; 2587.000;  288.475;    0.000
462.998; 2658.000;  292.475;    0.000
463.042; 2764.000;  309.475;    0.000
463.085; 2645.000;  292.475;    0.000
463.128; 2719.000;  317.475;    0.000
463.172; 2477.000;  287.475;    0.000
463.215;  420.000;  313.475;    0.000
463.258;  327.000;  295.475;    0.000
463.301;  298.000;  275.475;    0.000
463.344;  349.000;  311.475;    0.000
463.388;  320.000;  296.475;    0.000
463.431;  291.000;  277.475;    0.000
463.474;  355.000;  364.475;    0.000
463.517;  294.000;  306.475;    0.000
463.560;  346.000;  308.475;    0.000
463.603;  331.000;  343.475;    0.000
463.646;  329.000;  309.475;    0.000
463.690;  319.000;  309.475;    0.000
463.733;  350.000;  320.475;    0.000
463.776;  320.000;  299.475;    0.000
463.819;  345.000;  320.475;    0.000
463.862;  296.000;  283.475;    0.000

