
Integration time [ms]:   1.000
Averaging Nr. [scans]: 1
Smoothing Nr. [pixels]: 0
Data measured with spectrometer [name]: UV1
Wave   ;Sample   ;Dark     ;Reference
[nm]   ;[counts] ;[counts] ;[counts] 

236.381;  146.075;  175.825;    0.000
236.451;  198.075;  220.825;    0.000
236.520;  150.075;  178.825;    0.000
236.590;  196.075;  182.825;    0.000
236.660;  150.075;  180.825;    0.000
236.730;  204.075;  201.825;    0.000
236.799;  212.075;  168.825;    0.000
236.869;  184.075;  205.825;    0.000
236.939;  163.075;  175.825;    0.000
237.009;  166.075;  186.825;    0.000
237.078;  199.075;  200.825;    0.000
237.148;  153.075;  156.825;    0.000
237.218;  213.075;  190.825;    0.000
237.287;  178.075;  167.825;    0.000
237.357;  164.075;  213.825;    0.000
237.427;  180.075;  164.825;    0.000
237.496; 1129.075;  210.825;    0.000
237.566; 1185.075;  193.825;    0.000
237.636; 1088.075;  179.825;    0.000
237.705; 1113.075;  218.825;    0.000
237.775; 1017.075;  160.825;    0.000
237.845; 1069.075;  207.825;    0.000
237.914; 1061.075;  180.825;    0.000
237.984; 1049.075;  207.825;    0.000
238.054; 1121.075;  149.825;    0.000
238.123; 1087.075;  190.825;    0.000
238.193; 1017.075;  167.825;    0.000
238.263; 1119.075;  172.825;    0.000
238.332; 1065.075;  173.825;    0.000
238.402; 1063.075;  214.825;    0.000
238.471; 1098.075;  181.825;    0.000
238.541; 1103.075;  177.825;    0.000
238.611; 1086.075;  138.825;    0.000
238.680; 1091.075;  168.825;    0.000
238.750; 1030.075;  171.825;    0.000
238.819; 1096.075;  156.825;    0.000
238.889; 1088.075;  194.825;    0.000
238.958; 1092.075;  185.825;    0.000
239.028; 1086.075;  170.825;    0.000
239.097;  996.075;  159.825;    0.000
239.167; 1093.075;  208.825;    0.000
239.237; 1145.075;  167.825;    0.000
239.306; 1057.075;  154.825;    0.000
239.376; 1112.075;  183.825;    0.000
239.445; 1057.075;  221.825;    0.000
239.515; 1057.075;  208.825;    0.000
239.584; 1089.075;  177.825;    0.000
239.654; 1035.075;  133.825;    0.000
239.723; 1069.075;  167.825;    0.000
239.793; 1103.075;  190.825;    0.000
239.862; 1095.075;  192.825;    0.000
239.932; 1063.075;  174.825;    0.000
240.001; 1064.075;  166.825;    0.000
240.070; 1139.075;  179.825;    0.000
240.140; 1064.075;  191.825;    0.000
240.209; 1084.075;  134.825;    0.000
240.279; 1020.075;  185.825;    0.000
240.348; 1083.075;  193.825;    0.000
240.418; 1054.075;  149.825;    0.000
240.487; 1075.075;  197.825;    0.000
240.556;  995.075;  193.825;    0.000
240.626; 1033.075;  178.825;    0.000
240.695; 1060.075;  194.825;    0.000
240.765;  982.075;  178.825;    0.000
240.834; 1044.075;  190.825;    0.000
240.903; 1068.075;  212.825;    0.000
240.973; 1053.075;  153.825;    0.000
241.042; 1037.075;  177.825;    0.000
241.112; 1028.075;  193.825;    0.000
241.181; 1071.075;  171.825;    0.000
241.250; 1073.075;  152.825;    0.000
241.320; 1039.075;  176.825;    0.000
241.389; 1089.075;  186.825;    0.000
241.458; 1119.075;  182.825;    0.000
241.528; 1014.075;  175.825;    0.000
241.597; 1085.075;  180.825;    0.000
241.666;  986.075;  162.825;    0.000
241.736; 1065.075;  187.825;    0.000
241.805; 1018.075;  173.825;    0.000
241.874; 1094.075;  177.825;    0.000
241.943; 1083.075;  208.825;    0.000
242.013; 1042.075;  183.825;    0.000
242.082; 1013.075;  171.825;    0.000
242.151; 1034.075;  208.825;    0.000
242.221; 1098.075;  160.825;    0.000
242.290; 1028.075;  200.825;    0.000
242.359; 1028.075;  167.825;    0.000
242.428; 1129.075;  213.825;    0.000
242.498; 1038.075;  156.825;    0.000
242.567; 1004.075;  200.825;    0.000
242.636; 1041.075;  178.825;    0.000
242.705; 1059.075;  185.825;    0.000
242.774; 1057.075;  190.825;    0.000
242.844; 1038.075;  194.825;    0.000
242.913; 1023.075;  162.825;    0.000
242.982; 1035.075;  189.825;    0.000
243.051; 1080.075;  176.825;    0.000
243.120;  981.075;  213.825;    0.000
243.190; 1016.075;  155.825;    0.000
243.259; 1078.075;  183.825;    0.000
243.328; 1090.075;  170.825;    0.000
243.397; 1053.075;  224.825;    0.000
243.466; 1051.075;  172.825;    0.000
243.535; 1009.075;  145.825;    0.000
243.605;  962.075;  157.825;    0.000
243.674; 1004.075;  199.825;    0.000
243.743; 1033.075;  196.825;    0.000
243.812;  976.075;  152.825;    0.000
243.881; 1011.075;  188.825;    0.000
243.950; 1042.075;  154.825;    0.000
244.019; 1063.075;  195.825;    0.000
244.088; 1009.075;  164.825;    0.000
244.158; 1049.075;  220.825;    0.000
244.227;  996.075;  150.825;    0.000
244.296;  992.075;  153.825;    0.000
244.365;  994.075;  195.825;    0.000
244.434; 1029.075;  136.825;    0.000
244.503; 1007.075;  172.825;    0.000
244.572;  983.075;  129.825;    0.000
244.641;  971.075;  132.825;    0.000
244.710;  990.075;  185.825;    0.000
244.779;  931.075;  164.825;    0.000
244.848;  994.075;  132.825;    0.000
244.917; 1064.075;  196.825;    0.000
244.986;  996.075;  148.825;    0.000
245.055;  962.075;  192.825;    0.000
245.124;  978.075;  170.825;    0.000
245.193;  974.075;  172.825;    0.000
245.262;  965.075;  146.825;    0.000
245.331;  951.075;  178.825;    0.000
245.400;  902.075;  108.825;    0.000
245.469;  966.075;  173.825;    0.000
245.538;  978.075;  180.825;    0.000
245.607;  935.075;  171.825;    0.000
245.676;  878.075;  149.825;    0.000
245.745;  942.075;  194.825;    0.000
245.814;  880.075;  186.825;    0.000
245.883;  970.075;  192.825;    0.000
245.952;  868.075;  169.825;    0.000
246.021;  902.075;  190.825;    0.000
246.090;  896.075;  181.825;    0.000
246.159;  911.075;  179.825;    0.000
246.227;  880.075;  182.825;    0.000
246.296;  881.075;  182.825;    0.000
246.365;  932.075;  171.825;    0.000
246.434;  919.075;  218.825;    0.000
246.503;  878.075;  147.825;    0.000
246.572;  897.075;  227.825;    0.000
246.641;  907.075;  193.825;    0.000
246.710;  951.075;  207.825;    0.000
246.779;  930.075;  181.825;    0.000
246.847;  876.075;  179.825;    0.000
246.916;  893.075;  155.825;    0.000
246.985;  862.075;  168.825;    0.000
247.054;  824.075;  137.825;    0.000
247.123;  840.075;  128.825;    0.000
247.192;  897.075;  163.825;    0.000
247.260;  813.075;  173.825;    0.000
247.329;  902.075;  174.825;    0.000
247.398;  877.075;  238.825;    0.000
247.467;  847.075;  168.825;    0.000
247.536;  891.075;  203.825;    0.000
247.604;  851.075;  194.825;    0.000
247.673;  854.075;  145.825;    0.000
247.742;  827.075;  167.825;    0.000
247.811;  828.075;  180.825;    0.000
247.879;  850.075;  187.825;    0.000
247.948;  834.075;  187.825;    0.000
248.017;  846.075;  170.825;    0.000
248.086;  904.075;  223.825;    0.000
248.154;  853.075;  160.825;    0.000
248.223;  888.075;  163.825;    0.000
248.292;  842.075;  201.825;    0.000
248.361;  882.075;  205.825;    0.000
248.429;  807.075;  191.825;    0.000
248.498;  845.075;  194.825;    0.000
248.567;  833.075;  217.825;    0.000
248.635;  856.075;  224.825;    0.000
248.704;  850.075;  204.825;    0.000
248.773;  828.075;  175.825;    0.000
248.841;  871.075;  157.825;    0.000
248.910;  841.075;  206.825;    0.000
248.979;  827.075;  170.825;    0.000
249.047;  840.075;  178.825;    0.000
249.116;  863.075;  183.825;    0.000
249.185;  836.075;  202.825;    0.000
249.253;  817.075;  159.825;    0.000
249.322;  890.075;  177.825;    0.000
249.390;  829.075;  157.825;    0.000
249.459;  852.075;  211.825;    0.000
249.528;  867.075;  181.825;    0.000
249.596;  875.075;  179.825;    0.000
249.665;  814.075;  176.825;    0.000
249.733;  851.075;  186.825;    0.000
249.802;  803.075;  185.825;    0.000
249.871;  802.075;  166.825;    0.000
249.939;  890.075;  163.825;    0.000
250.008;  826.075;  212.825;    0.000
250.076;  834.075;  227.825;    0.000
250.145;  878.075;  172.825;    0.000
250.213;  818.075;  173.825;    0.000
250.282;  836.075;  189.825;    0.000
250.350;  774.075;  166.825;    0.000
250.419;  850.075;  161.825;    0.000
250.487;  818.075;  178.825;    0.000
250.556;  846.075;  208.825;    0.000
250.624;  803.075;  190.825;    0.000
250.693;  706.075;  163.825;    0.000
250.761;  828.075;  194.825;    0.000
250.830;  820.075;  225.825;    0.000
250.898;  792.075;  140.825;    0.000
250.967;  804.075;  167.825;    0.000
251.035;  788.075;  155.825;    0.000
251.104;  695.075;  189.825;    0.000
251.172;  771.075;  136.825;    0.000
251.241;  753.075;  148.825;    0.000
251.309;  777.075;  201.825;    0.000
251.378;  737.075;  169.825;    0.000
251.446;  776.075;  178.825;    0.000
251.514;  824.075;  206.825;    0.000
251.583;  741.075;  178.825;    0.000
251.651;  805.075;  168.825;    0.000
251.720;  749.075;  190.825;    0.000
251.788;  815.075;  209.825;    0.000
251.856;  689.075;  173.825;    0.000
251.925;  793.075;  171.825;    0.000
251.993;  795.075;  188.825;    0.000
252.062;  837.075;  169.825;    0.000
252.130;  756.075;  196.825;    0.000
252.198;  817.075;  210.825;    0.000
252.267;  743.075;  181.825;    0.000
252.335;  758.075;  164.825;    0.000
252.403;  795.075;  152.825;    0.000
252.472;  761.075;  166.825;    0.000
252.540;  773.075;  189.825;    0.000
252.608;  770.075;  198.825;    0.000
252.677;  694.075;  156.825;    0.000
252.745;  736.075;  184.825;    0.000
252.813;  683.075;  163.825;    0.000
252.881;  679.075;  130.825;    0.000
252.950;  712.075;  189.825;    0.000
253.018;  732.075;  164.825;    0.000
253.086;  645.075;  172.825;    0.000
253.155;  724.075;  205.825;    0.000
253.223;  612.075;  175.825;    0.000
253.291;  655.075;  176.825;    0.000
253.359;  601.075;  182.825;    0.000
253.428;  669.075;  222.825;    0.000
253.496;  625.075;  166.825;    0.000
253.564;  545.075;  135.825;    0.000
253.632;  580.075;  184.825;    0.000
253.700;  595.075;  173.825;    0.000
253.769;  615.075;  163.825;    0.000
253.837;  631.075;  179.825;    0.000
253.905;  611.075;  157.825;    0.000
253.973;  651.075;  164.825;    0.000
254.041;  602.075;  170.825;    0.000
254.110;  596.075;  169.825;    0.000
254.178;  618.075;  165.825;    0.000
254.246;  580.075;  126.825;    0.000
254.314;  604.075;  166.825;    0.000
254.382;  596.075;  169.825;    0.000
254.450;  565.075;  170.825;    0.000
254.518;  614.075;  196.825;    0.000
254.587;  567.075;  161.825;    0.000
254.655;  621.075;  187.825;    0.000
254.723;  605.075;  144.825;    0.000
254.791;  583.075;  175.825;    0.000
254.859;  628.075;  168.825;    0.000
254.927;  620.075;  198.825;    0.000
254.995;  631.075;  165.825;    0.000
255.063;  613.075;  150.825;    0.000
255.131;  624.075;  181.825;    0.000
255.199;  555.075;  160.825;    0.000
255.267;  563.075;  131.825;    0.000
255.336;  618.075;  188.825;    0.000
255.404;  577.075;  163.825;    0.000
255.472;  629.075;  192.825;    0.000
255.540;  628.075;  158.825;    0.000
255.608;  674.075;  147.825;    0.000
255.676;  580.075;  166.825;    0.000
255.744;  639.075;  159.825;    0.000
255.812;  597.075;  164.825;    0.000
255.880;  679.075;  195.825;    0.000
255.948;  684.075;  167.825;    0.000
256.016;  635.075;  185.825;    0.000
256.084;  726.075;  191.825;    0.000
256.152;  653.075;  214.825;    0.000
256.220;  682.075;  195.825;    0.000
256.288;  689.075;  185.825;    0.000
256.356;  644.075;  168.825;    0.000
256.424;  580.075;  161.825;    0.000
256.491;  597.075;  161.825;    0.000
256.559;  692.075;  157.825;    0.000
256.627;  689.075;  164.825;    0.000
256.695;  673.075;  146.825;    0.000
256.763;  659.075;  194.825;    0.000
256.831;  707.075;  182.825;    0.000
256.899;  715.075;  192.825;    0.000
256.967;  727.075;  172.825;    0.000
257.035;  687.075;  169.825;    0.000
257.103;  778.075;  223.825;    0.000
257.171;  684.075;  141.825;    0.000
257.238;  686.075;  146.825;    0.000
257.306;  742.075;  180.825;    0.000
257.374;  758.075;  138.825;    0.000
257.442;  722.075;  135.825;    0.000
257.510;  787.075;  130.825;    0.000
257.578;  768.075;  123.825;    0.000
257.646;  720.075;  162.825;    0.000
257.713;  748.075;  149.825;    0.000
257.781;  774.075;  125.825;    0.000
257.849;  828.075;  149.825;    0.000
257.917;  799.075;  177.825;    0.000
257.985;  737.075;  143.825;    0.000
258.052;  821.075;  154.825;    0.000
258.120;  844.075;  162.825;    0.000
258.188;  861.075;  172.825;    0.000
258.256;  814.075;  160.825;    0.000
258.324;  875.075;  209.825;    0.000
258.391;  855.075;  153.825;    0.000
258.459;  925.075;  133.825;    0.000
258.527;  873.075;  160.825;    0.000
258.595;  852.075;  128.825;    0.000
258.662;  918.075;  114.825;    0.000
258.730;  964.075;  192.825;    0.000
258.798;  913.075;  144.825;    0.000
258.865;  927.075;  140.825;    0.000
258.933;  993.075;  150.825;    0.000
259.001;  932.075;  149.825;    0.000
259.069;  979.075;  110.825;    0.000
259.136;  975.075;  150.825;    0.000
259.204;  990.075;  156.825;    0.000
259.272; 1055.075;  185.825;    0.000
259.339; 1001.075;  148.825;    0.000
259.407; 1038.075;  163.825;    0.000
259.475; 1034.075;  129.825;    0.000
259.542;  992.075;  144.825;    0.000
259.610; 1058.075;  164.825;    0.000
259.677; 1021.075;  188.825;    0.000
259.745; 1086.075;  113.825;    0.000
259.813; 1082.075;  188.825;    0.000
259.880; 1091.075;  174.825;    0.000
259.948; 1126.075;  166.825;    0.000
260.016; 1123.075;  150.825;    0.000
260.083; 1170.075;  178.825;    0.000
260.151; 1142.075;  120.825;    0.000
260.218; 1224.075;  175.825;    0.000
260.286; 1176.075;  155.825;    0.000
260.353; 1228.075;  165.825;    0.000
260.421; 1144.075;  169.825;    0.000
260.489; 1212.075;  194.825;    0.000
260.556; 1321.075;  161.825;    0.000
260.624; 1259.075;  179.825;    0.000
260.691; 1267.075;  174.825;    0.000
260.759; 1317.075;  164.825;    0.000
260.826; 1163.075;  125.825;    0.000
260.894; 1257.075;  164.825;    0.000
260.961; 1276.075;  147.825;    0.000
261.029; 1388.075;  167.825;    0.000
261.096; 1369.075;  136.825;    0.000
261.164; 1386.075;  146.825;    0.000
261.231; 1395.075;  190.825;    0.000
261.299; 1385.075;  171.825;    0.000
261.366; 1347.075;  165.825;    0.000
261.434; 1417.075;  160.825;    0.000
261.501; 1404.075;  149.825;    0.000
261.568; 1444.075;  155.825;    0.000
261.636; 1461.075;  137.825;    0.000
261.703; 1510.075;  186.825;    0.000
261.771; 1455.075;  162.825;    0.000
261.838; 1511.075;  190.825;    0.000
261.906; 1413.075;  133.825;    0.000
261.973; 1509.075;  202.825;    0.000
262.040; 1540.075;  179.825;    0.000
262.108; 1562.075;  161.825;    0.000
262.175; 1542.075;  155.825;    0.000
262.243; 1549.075;  158.825;    0.000
262.310; 1581.075;  129.825;    0.000
262.377; 1651.075;  157.825;    0.000
262.445; 1572.075;  132.825;    0.000
262.512; 1570.075;  161.825;    0.000
262.579; 1685.075;  151.825;    0.000
262.647; 1567.075;  174.825;    0.000
262.714; 1702.075;  174.825;    0.000
262.781; 1653.075;  164.825;    0.000
262.849; 1628.075;  168.825;    0.000
262.916; 1699.075;  153.825;    0.000
262.983; 1768.075;  201.825;    0.000
263.051; 1666.075;  117.825;    0.000
263.118; 1733.075;  150.825;    0.000
263.185; 1695.075;  172.825;    0.000
263.252; 1742.075;  154.825;    0.000
263.320; 1787.075;  152.825;    0.000
263.387; 1850.075;  136.825;    0.000
263.454; 1819.075;  167.825;    0.000
263.522; 1742.075;  122.825;    0.000
263.589; 1858.075;  147.825;    0.000
263.656; 1834.075;  130.825;    0.000
263.723; 1748.075;  182.825;    0.000
263.790; 1814.075;  163.825;    0.000
263.858; 1856.075;  161.825;    0.000
263.925; 1896.075;  153.825;    0.000
263.992; 1854.075;  139.825;    0.000
264.059; 1879.075;  141.825;    0.000
264.126; 1850.075;  153.825;    0.000
264.194; 1897.075;  144.825;    0.000
264.261; 1897.075;  188.825;    0.000
264.328; 2018.075;  161.825;    0.000
264.395; 1952.075;  184.825;    0.000
264.462; 1924.075;  162.825;    0.000
264.529; 2087.075;  178.825;    0.000
264.597; 2019.075;  160.825;    0.000
264.664; 1954.075;  158.825;    0.000
264.731; 1977.075;  176.825;    0.000
264.798; 1951.075;  137.825;    0.000
264.865; 2076.075;  175.825;    0.000
264.932; 2016.075;  162.825;    0.000
264.999; 2088.075;  153.825;    0.000
265.066; 2005.075;  168.825;    0.000
265.133; 2056.075;  142.825;    0.000
265.201; 2103.075;  163.825;    0.000
265.268; 2093.075;  143.825;    0.000
265.335; 2147.075;  156.825;    0.000
265.402; 2089.075;  136.825;    0.000
265.469; 2113.075;  127.825;    0.000
265.536; 2150.075;  159.825;    0.000
265.603; 2271.075;  191.825;    0.000
265.670; 2074.075;  136.825;    0.000
265.737; 2211.075;  186.825;    0.000
265.804; 2101.075;  147.825;    0.000
265.871; 2224.075;  147.825;    0.000
265.938; 2188.075;  153.825;    0.000
266.005; 2284.075;  172.825;    0.000
266.072; 2170.075;  151.825;    0.000
266.139; 2255.075;  175.825;    0.000
266.206; 2247.075;  165.825;    0.000
266.273; 2253.075;  162.825;    0.000
266.340; 2259.075;  150.825;    0.000
266.407; 2252.075;  169.825;    0.000
266.474; 2238.075;  151.825;    0.000
266.541; 2288.075;  164.825;    0.000
266.608; 2269.075;  111.825;    0.000
266.675; 2266.075;  173.825;    0.000
266.742; 2261.075;  148.825;    0.000
266.808; 2294.075;  185.825;    0.000
266.875; 2355.075;  188.825;    0.000
266.942; 2369.075;  131.825;    0.000
267.009; 2396.075;  184.825;    0.000
267.076; 2383.075;  200.825;    0.000
267.143; 2350.075;  216.825;    0.000
267.210; 2392.075;  138.825;    0.000
267.277; 2447.075;  143.825;    0.000
267.344; 2443.075;  172.825;    0.000
267.410; 2370.075;  172.825;    0.000
267.477; 2356.075;  160.825;    0.000
267.544; 2379.075;  175.825;    0.000
267.611; 2458.075;  189.825;    0.000
267.678; 2422.075;  162.825;    0.000
267.745; 2446.075;  206.825;    0.000
267.811; 2477.075;  146.825;    0.000
267.878; 2370.075;  147.825;    0.000
267.945; 2386.075;  170.825;    0.000
268.012; 2438.075;  153.825;    0.000
268.079; 2448.075;  185.825;    0.000
268.145; 2389.075;  197.825;    0.000
268.212; 2396.075;  167.825;    0.000
268.279; 2390.075;  145.825;    0.000
268.346; 2488.075;  182.825;    0.000
268.412; 2401.075;  144.825;    0.000
268.479; 2455.075;  186.825;    0.000
268.546; 2445.075;  147.825;    0.000
268.613; 2446.075;  188.825;    0.000
268.679; 2397.075;  173.825;    0.000
268.746; 2377.075;  204.825;    0.000
268.813; 2424.075;  199.825;    0.000
268.879; 2427.075;  157.825;    0.000
268.946; 2498.075;  192.825;    0.000
269.013; 2517.075;  136.825;    0.000
269.079; 2433.075;  166.825;    0.000
269.146; 2303.075;  129.825;    0.000
269.213; 2416.075;  178.825;    0.000
269.280; 2402.075;  148.825;    0.000
269.346; 2437.075;  194.825;    0.000
269.413; 2413.075;  135.825;    0.000
269.479; 2410.075;  180.825;    0.000
269.546; 2391.075;  169.825;    0.000
269.613; 2410.075;  160.825;    0.000
269.679; 2435.075;  161.825;    0.000
269.746; 2407.075;  143.825;    0.000
269.813; 2460.075;  172.825;    0.000
269.879; 2436.075;  152.825;    0.000
269.946; 2424.075;  156.825;    0.000
270.012; 2424.075;  190.825;    0.000
270.079; 2354.075;  143.825;    0.000
270.145; 2479.075;  148.825;    0.000
270.212; 2441.075;  176.825;    0.000
270.279; 2467.075;  168.825;    0.000
270.345; 2383.075;  143.825;    0.000
270.412; 2458.075;  155.825;    0.000
270.478; 2444.075;  176.825;    0.000
270.545; 2443.075;  112.825;    0.000
270.611; 2452.075;  186.825;    0.000
270.678; 2348.075;  141.825;    0.000
270.744; 2354.075;  145.825;    0.000
270.811; 2383.075;  120.825;    0.000
270.877; 2376.075;  118.825;    0.000
270.944; 2345.075;  135.825;    0.000
271.010; 2463.075;  128.825;    0.000
271.077; 2314.075;  176.825;    0.000
271.143; 2324.075;  162.825;    0.000
271.210; 2389.075;  133.825;    0.000
271.276; 2287.075;  107.825;    0.000
271.342; 2374.075;  202.825;    0.000
271.409; 2370.075;  160.825;    0.000
271.475; 2465.075;  165.825;    0.000
271.542; 2455.075;  152.825;    0.000
271.608; 2398.075;  163.825;    0.000
271.675; 2384.075;  149.825;    0.000
271.741; 2452.075;  164.825;    0.000
271.807; 2389.075;  128.825;    0.000
271.874; 2470.075;  148.825;    0.000
271.940; 2446.075;  179.825;    0.000
272.007; 2469.075;  148.825;    0.000
272.073; 2355.075;  146.825;    0.000
272.139; 2377.075;  166.825;    0.000
272.206; 2436.075;  198.825;    0.000
272.272; 2506.075;  201.825;    0.000
272.338; 2461.075;  208.825;    0.000
272.405; 2430.075;  181.825;    0.000
272.471; 2397.075;  167.825;    0.000
272.537; 2471.075;  189.825;    0.000
272.604; 2408.075;  162.825;    0.000
272.670; 2507.075;  194.825;    0.000
272.736; 2408.075;  176.825;    0.000
272.802; 2519.075;  163.825;    0.000
272.869; 2342.075;  170.825;    0.000
272.935; 2483.075;  145.825;    0.000
273.001; 2412.075;  149.825;    0.000
273.068; 2369.075;  172.825;    0.000
273.134; 2408.075;  155.825;    0.000
273.200; 2562.075;  183.825;    0.000
273.266; 2502.075;  160.825;    0.000
273.333; 2551.075;  190.825;    0.000
273.399; 2511.075;  132.825;    0.000
273.465; 2477.075;  179.825;    0.000
273.531; 2440.075;  161.825;    0.000
273.597; 2590.075;  194.825;    0.000
273.664; 2628.075;  193.825;    0.000
273.730; 2488.075;  180.825;    0.000
273.796; 2549.075;  145.825;    0.000
273.862; 2443.075;  176.825;    0.000
273.928; 2478.075;  169.825;    0.000
273.995; 2583.075;  202.825;    0.000
274.061; 2583.075;  176.825;    0.000
274.127; 2615.075;  178.825;    0.000
274.193; 2634.075;  106.825;    0.000
274.259; 2566.075;  186.825;    0.000
274.325; 2620.075;  163.825;    0.000
274.391; 2634.075;  162.825;    0.000
274.457; 2658.075;  145.825;    0.000
274.524; 2726.075;  189.825;    0.000
274.590; 2622.075;  161.825;    0.000
274.656; 2719.075;  157.825;    0.000
274.722; 2734.075;  143.825;    0.000
274.788; 2722.075;  166.825;    0.000
274.854; 2764.075;  200.825;    0.000
274.920; 2694.075;  132.825;    0.000
274.986; 2746.075;  184.825;    0.000
275.052; 2760.075;  169.825;    0.000
275.118; 2820.075;  153.825;    0.000
275.184; 2761.075;  182.825;    0.000
275.250; 2818.075;  124.825;    0.000
275.316; 2918.075;  154.825;    0.000
275.382; 2887.075;  150.825;    0.000
275.448; 2879.075;  180.825;    0.000
275.514; 2937.075;  143.825;    0.000
275.580; 2972.075;  120.825;    0.000
275.646; 2972.075;  127.825;    0.000
275.712; 3016.075;  109.825;    0.000
275.778; 3046.075;  126.825;    0.000
275.844; 3081.075;  155.825;    0.000
275.910; 3065.075;  164.825;    0.000
275.976; 3235.075;  161.825;    0.000
276.042; 3189.075;  152.825;    0.000
276.108; 3244.075;  159.825;    0.000
276.174; 3169.075;  149.825;    0.000
276.240; 3289.075;  112.825;    0.000
276.306; 3410.075;  142.825;    0.000
276.372; 3409.075;  136.825;    0.000
276.437; 3445.075;  141.825;    0.000
276.503; 3501.075;  150.825;    0.000
276.569; 3695.075;  178.825;    0.000
276.635; 3618.075;  117.825;    0.000
276.701; 3699.075;  174.825;    0.000
276.767; 3739.075;  136.825;    0.000
276.833; 3855.075;  119.825;    0.000
276.899; 4008.075;  171.825;    0.000
276.964; 4026.075;  146.825;    0.000
277.030; 4138.075;  157.825;    0.000
277.096; 4198.075;  124.825;    0.000
277.162; 4372.075;  185.825;    0.000
277.228; 4459.075;  125.825;    0.000
277.293; 4620.075;  159.825;    0.000
277.359; 4756.075;  186.825;    0.000
277.425; 4976.075;  176.825;    0.000
277.491; 5329.075;  140.825;    0.000
277.557; 6408.075;  172.825;    0.000
277.622; 7975.075;  187.825;    0.000
277.688; 8281.075;  203.825;    0.000
277.754; 8359.075;  170.825;    0.000
277.820; 8937.075;  142.825;    0.000
277.885;10533.075;  182.825;    0.000
277.951;12634.075;  171.825;    0.000
278.017;11271.075;  173.825;    0.000
278.083;10146.075;  151.825;    0.000
278.148; 9767.075;  159.825;    0.000
278.214; 9821.075;  173.825;    0.000
278.280;10388.075;  137.825;    0.000
278.345; 9470.075;  190.825;    0.000
278.411; 8924.075;  149.825;    0.000
278.477; 9236.075;  157.825;    0.000
278.542; 9675.075;  136.825;    0.000
278.608;10555.075;  144.825;    0.000
278.674;11772.075;  215.825;    0.000
278.739;12991.075;  148.825;    0.000
278.805;14485.075;  152.825;    0.000
278.871;17006.074;  170.825;    0.000
278.936;21340.074;  180.825;    0.000
279.002;30437.074;  177.825;    0.000
279.067;38922.074;  172.825;    0.000
279.133;37545.074;  160.825;    0.000
279.199;34358.074;  165.825;    0.000
279.264;35683.074;  130.825;    0.000
279.330;40541.074;  154.825;    0.000
279.395;49092.074;  170.825;    0.000
279.461;57275.074;  136.825;    0.000
279.527;60382.074;  174.825;    0.000
279.592;59736.074;  179.825;    0.000
279.658;54871.074;  187.825;    0.000
279.723;54423.074;  201.825;    0.000
279.789;55296.074;  194.825;    0.000
279.854;50684.074;  171.825;    0.000
279.920;43557.074;  183.825;    0.000
279.985;40136.074;  173.825;    0.000
280.051;41342.074;  194.825;    0.000
280.116;46349.074;  197.825;    0.000
280.182;55089.074;  171.825;    0.000
280.247;59447.074;  131.825;    0.000
280.313;54123.074;  166.825;    0.000
280.378;42678.074;  159.825;    0.000
280.444;33069.074;  190.825;    0.000
280.509;26873.074;  189.825;    0.000
280.574;22780.074;  171.825;    0.000
280.640;19838.074;  167.825;    0.000
280.705;17732.074;  129.825;    0.000
280.771;16029.075;  193.825;    0.000
280.836;14759.075;  172.825;    0.000
280.902;13641.075;  189.825;    0.000
280.967;12546.075;  143.825;    0.000
281.032;12085.075;  182.825;    0.000
281.098;11433.075;  172.825;    0.000
281.163;10852.075;  184.825;    0.000
281.229;10313.075;  210.825;    0.000
281.294; 9966.075;  223.825;    0.000
281.359; 9283.075;  197.825;    0.000
281.425; 9321.075;  192.825;    0.000
281.490; 8603.075;  162.825;    0.000
281.555; 8433.075;  193.825;    0.000
281.621; 8240.075;  141.825;    0.000
281.686; 7796.075;  166.825;    0.000
281.751; 7727.075;  204.825;    0.000
281.816; 7470.075;  159.825;    0.000
281.882; 7159.075;  146.825;    0.000
281.947; 6995.075;  176.825;    0.000
282.012; 6795.075;  139.825;    0.000
282.078; 6718.075;  186.825;    0.000
282.143; 6452.075;  151.825;    0.000
282.208; 6476.075;  213.825;    0.000
282.273; 6244.075;  160.825;    0.000
282.339; 6180.075;  175.825;    0.000
282.404; 5918.075;  157.825;    0.000
282.469; 5835.075;  185.825;    0.000
282.534; 5893.075;  166.825;    0.000
282.600; 5803.075;  168.825;    0.000
282.665; 5669.075;  167.825;    0.000
282.730; 5630.075;  148.825;    0.000
282.795; 5658.075;  186.825;    0.000
282.860; 5497.075;  161.825;    0.000
282.926; 5388.075;  178.825;    0.000
282.991; 5343.075;  139.825;    0.000
283.056; 5244.075;  158.825;    0.000
283.121; 5322.075;  191.825;    0.000
283.186; 5059.075;  182.825;    0.000
283.251; 5047.075;  181.825;    0.000
283.316; 5210.075;  187.825;    0.000
283.382; 5001.075;  175.825;    0.000
283.447; 5092.075;  183.825;    0.000
283.512; 4912.075;  175.825;    0.000
283.577; 4898.075;  180.825;    0.000
283.642; 4898.075;  193.825;    0.000
283.707; 5015.075;  145.825;    0.000
283.772; 4793.075;  143.825;    0.000
283.837; 4827.075;  143.825;    0.000
283.902; 4794.075;  150.825;    0.000
283.967; 4876.075;  166.825;    0.000
284.032; 4804.075;  126.825;    0.000
284.097; 4851.075;  201.825;    0.000
284.163; 4842.075;  133.825;    0.000
284.228; 4808.075;  193.825;    0.000
284.293; 4773.075;  157.825;    0.000
284.358; 4919.075;  185.825;    0.000
284.423; 4848.075;  142.825;    0.000
284.488; 4872.075;  192.825;    0.000
284.553; 5171.075;  146.825;    0.000
284.618; 5217.075;  154.825;    0.000
284.683; 5554.075;  172.825;    0.000
284.748; 5613.075;  195.825;    0.000
284.812; 6019.075;  190.825;    0.000
284.877; 6538.075;  169.825;    0.000
284.942; 7251.075;  195.825;    0.000
285.007; 8490.075;  204.825;    0.000
285.072;11063.075;  189.825;    0.000
285.137;15898.075;  149.825;    0.000
285.202;19970.074;  164.825;    0.000
285.267;18600.074;  161.825;    0.000
285.332;13852.075;  140.825;    0.000
285.397;10416.075;  142.825;    0.000
285.462; 8794.075;  146.825;    0.000
285.527; 7688.075;  132.825;    0.000
285.591; 6859.075;  160.825;    0.000
285.656; 6345.075;  136.825;    0.000
285.721; 5923.075;  135.825;    0.000
285.786; 5660.075;  171.825;    0.000
285.851; 5481.075;  168.825;    0.000
285.916; 5220.075;  178.825;    0.000
285.981; 5165.075;  152.825;    0.000
286.045; 5004.075;  167.825;    0.000
286.110; 4887.075;  187.825;    0.000
286.175; 4847.075;  162.825;    0.000
286.240; 4803.075;  163.825;    0.000
286.305; 4677.075;  190.825;    0.000
286.369; 4587.075;  143.825;    0.000
286.434; 4536.075;  185.825;    0.000
286.499; 4476.075;  195.825;    0.000
286.564; 4600.075;  173.825;    0.000
286.628; 4369.075;  159.825;    0.000
286.693; 4350.075;  175.825;    0.000
286.758; 4403.075;  170.825;    0.000
286.823; 4263.075;  129.825;    0.000
286.887; 4307.075;  172.825;    0.000
286.952; 4281.075;  163.825;    0.000
287.017; 4410.075;  217.825;    0.000
287.082; 4190.075;  165.825;    0.000
287.146; 4246.075;  176.825;    0.000
287.211; 4306.075;  192.825;    0.000
287.276; 4153.075;  147.825;    0.000
287.340; 4222.075;  162.825;    0.000
287.405; 4188.075;  196.825;    0.000
287.470; 4068.075;  148.825;    0.000
287.534; 4206.075;  166.825;    0.000
287.599; 4087.075;  193.825;    0.000
287.663; 4154.075;  191.825;    0.000
287.728; 4147.075;  146.825;    0.000
287.793; 4189.075;  234.825;    0.000
287.857; 4118.075;  177.825;    0.000
287.922; 4148.075;  166.825;    0.000
287.987; 4118.075;  169.825;    0.000
288.051; 4124.075;  169.825;    0.000
288.116; 4027.075;  187.825;    0.000
288.180; 4014.075;  200.825;    0.000
288.245; 3843.075;  201.825;    0.000
288.309; 4056.075;  176.825;    0.000
288.374; 3999.075;  162.825;    0.000
288.439; 4008.075;  195.825;    0.000
288.503; 3956.075;  162.825;    0.000
288.568; 3962.075;  228.825;    0.000
288.632; 4009.075;  194.825;    0.000
288.697; 4058.075;  173.825;    0.000
288.761; 3937.075;  153.825;    0.000
288.826; 3967.075;  151.825;    0.000
288.890; 3816.075;  208.825;    0.000
288.955; 3861.075;  159.825;    0.000
289.019; 3946.075;  198.825;    0.000
289.084; 3783.075;  152.825;    0.000
289.148; 3780.075;  171.825;    0.000
289.212; 3875.075;  184.825;    0.000
289.277; 3913.075;  165.825;    0.000
289.341; 3834.075;  207.825;    0.000
289.406; 3850.075;  156.825;    0.000
289.470; 3855.075;  191.825;    0.000
289.535; 3906.075;  222.825;    0.000
289.599; 3813.075;  214.825;    0.000
289.663; 3814.075;  183.825;    0.000
289.728; 3794.075;  192.825;    0.000
289.792; 3940.075;  197.825;    0.000
289.857; 3846.075;  221.825;    0.000
289.921; 3897.075;  177.825;    0.000
289.985; 3788.075;  177.825;    0.000
290.050; 3888.075;  178.825;    0.000
290.114; 3787.075;  112.825;    0.000
290.178; 3846.075;  170.825;    0.000
290.243; 3759.075;  162.825;    0.000
290.307; 3839.075;  178.825;    0.000
290.371; 4025.075;  141.825;    0.000
290.436; 3872.075;  178.825;    0.000
290.500; 3846.075;  135.825;    0.000
290.564; 3924.075;  199.825;    0.000
290.629; 3924.075;  165.825;    0.000
290.693; 3903.075;  154.825;    0.000
290.757; 3903.075;  159.825;    0.000
290.821; 3860.075;  179.825;    0.000
290.886; 3767.075;  141.825;    0.000
290.950; 3901.075;  166.825;    0.000
291.014; 4006.075;  169.825;    0.000
291.078; 3964.075;  191.825;    0.000
291.143; 4029.075;  169.825;    0.000
291.207; 4140.075;  164.825;    0.000
291.271; 3941.075;  193.825;    0.000
291.335; 4078.075;  150.825;    0.000
291.399; 4161.075;  175.825;    0.000
291.464; 4343.075;  128.825;    0.000
291.528; 4555.075;  162.825;    0.000
291.592; 4423.075;  152.825;    0.000
291.656; 4398.075;  175.825;    0.000
291.720; 4285.075;  173.825;    0.000
291.784; 4130.075;  192.825;    0.000
291.849; 4070.075;  159.825;    0.000
291.913; 4264.075;  174.825;    0.000
291.977; 4264.075;  177.825;    0.000
292.041; 4217.075;  188.825;    0.000
292.105; 4232.075;  174.825;    0.000
292.169; 4242.075;  143.825;    0.000
292.233; 4289.075;  149.825;    0.000
292.297; 4353.075;  176.825;    0.000
292.361; 4463.075;  178.825;    0.000
292.425; 4507.075;  153.825;    0.000
292.490; 4722.075;  185.825;    0.000
292.554; 4913.075;  144.825;    0.000
292.618; 5203.075;  166.825;    0.000
292.682; 5636.075;  181.825;    0.000
292.746; 6434.075;  152.825;    0.000
292.810; 8708.075;  208.825;    0.000
292.874;10571.075;  142.825;    0.000
292.938;10804.075;  195.825;    0.000
293.002; 9751.075;  156.825;    0.000
293.066; 8796.075;  108.825;    0.000
293.130; 8027.075;  136.825;    0.000
293.194; 7732.075;  135.825;    0.000
293.258; 7421.075;  187.825;    0.000
293.322; 7300.075;  148.825;    0.000
293.386; 7451.075;  186.825;    0.000
293.450; 7734.075;  196.825;    0.000
293.514; 8757.075;  175.825;    0.000
293.577;11791.075;  137.825;    0.000
293.641;15605.075;  142.825;    0.000
293.705;16988.074;  201.825;    0.000
293.769;15060.075;  150.825;    0.000
293.833;12899.075;  147.825;    0.000
293.897;11758.075;  170.825;    0.000
293.961;10275.075;  121.825;    0.000
294.025; 9417.075;  172.825;    0.000
294.089; 8523.075;  167.825;    0.000
294.152; 7998.075;  167.825;    0.000
294.216; 7390.075;  165.825;    0.000
294.280; 6918.075;  168.825;    0.000
294.344; 6667.075;  160.825;    0.000
294.408; 6446.075;  187.825;    0.000
294.472; 5878.075;  141.825;    0.000
294.536; 5746.075;  184.825;    0.000
294.599; 5522.075;  176.825;    0.000
294.663; 5396.075;  120.825;    0.000
294.727; 5190.075;  159.825;    0.000
294.791; 5214.075;  190.825;    0.000
294.855; 5054.075;  148.825;    0.000
294.918; 4764.075;  160.825;    0.000
294.982; 4709.075;  156.825;    0.000
295.046; 4698.075;  177.825;    0.000
295.110; 4696.075;  149.825;    0.000
295.173; 4546.075;  156.825;    0.000
295.237; 4579.075;  174.825;    0.000
295.301; 4295.075;  152.825;    0.000
295.364; 4474.075;  204.825;    0.000
295.428; 4307.075;  196.825;    0.000
295.492; 4348.075;  178.825;    0.000
295.556; 4116.075;  161.825;    0.000
295.619; 4274.075;  178.825;    0.000
295.683; 4188.075;  152.825;    0.000
295.747; 4152.075;  148.825;    0.000
295.810; 4001.075;  177.825;    0.000
295.874; 4053.075;  146.825;    0.000
295.938; 3920.075;  115.825;    0.000
296.001; 3973.075;  172.825;    0.000
296.065; 3911.075;  146.825;    0.000
296.128; 3813.075;  164.825;    0.000
296.192; 3821.075;  137.825;    0.000
296.256; 3795.075;  143.825;    0.000
296.319; 3807.075;  156.825;    0.000
296.383; 3730.075;  165.825;    0.000
296.447; 3741.075;  170.825;    0.000
296.510; 3777.075;  174.825;    0.000
296.574; 3722.075;  127.825;    0.000
296.637; 3652.075;  132.825;    0.000
296.701; 3602.075;  206.825;    0.000
296.764; 3721.075;  179.825;    0.000
296.828; 3709.075;  213.825;    0.000
296.891; 3714.075;  149.825;    0.000
296.955; 3563.075;  170.825;    0.000
297.018; 3552.075;  185.825;    0.000
297.082; 3601.075;  205.825;    0.000
297.145; 3541.075;  154.825;    0.000
297.209; 3626.075;  200.825;    0.000
297.272; 3556.075;  157.825;    0.000
297.336; 3545.075;  164.825;    0.000
297.399; 3593.075;  166.825;    0.000
297.463; 3591.075;  195.825;    0.000
297.526; 3488.075;  176.825;    0.000
297.590; 3493.075;  198.825;    0.000
297.653; 3449.075;  146.825;    0.000
297.717; 3507.075;  175.825;    0.000
297.780; 3406.075;  139.825;    0.000
297.843; 3399.075;  174.825;    0.000
297.907; 3475.075;  149.825;    0.000
297.970; 3473.075;  161.825;    0.000
298.034; 3448.075;  185.825;    0.000
298.097; 3418.075;  167.825;    0.000
298.160; 3450.075;  195.825;    0.000
298.224; 3472.075;  178.825;    0.000
298.287; 3465.075;  164.825;    0.000
298.350; 3455.075;  194.825;    0.000
298.414; 3328.075;  191.825;    0.000
298.477; 3222.075;  155.825;    0.000
298.540; 3303.075;  139.825;    0.000
298.604; 3415.075;  198.825;    0.000
298.667; 3312.075;  183.825;    0.000
298.730; 3457.075;  185.825;    0.000
298.794; 3254.075;  153.825;    0.000
298.857; 3266.075;  169.825;    0.000
298.920; 3292.075;  159.825;    0.000
298.984; 3249.075;  179.825;    0.000
299.047; 3255.075;  174.825;    0.000
299.110; 3142.075;  144.825;    0.000
299.173; 3170.075;  190.825;    0.000
299.237; 3203.075;  163.825;    0.000
299.300; 3117.075;  153.825;    0.000
299.363; 3234.075;  145.825;    0.000
299.426; 3146.075;  160.825;    0.000
299.489; 3176.075;  173.825;    0.000
299.553; 3146.075;  209.825;    0.000
299.616; 3145.075;  172.825;    0.000
299.679; 3130.075;  204.825;    0.000
299.742; 3164.075;  162.825;    0.000
299.805; 3097.075;  198.825;    0.000
299.868; 3082.075;  176.825;    0.000
299.932; 3201.075;  166.825;    0.000
299.995; 3158.075;  162.825;    0.000
300.058; 3095.075;  175.825;    0.000
300.121; 3135.075;  197.825;    0.000
300.184; 3212.075;  188.825;    0.000
300.247; 3147.075;  181.825;    0.000
300.310; 3156.075;  161.825;    0.000
300.374; 3082.075;  201.825;    0.000
300.437; 3060.075;  156.825;    0.000
300.500; 3035.075;  180.825;    0.000
300.563; 2990.075;  174.825;    0.000
300.626; 3001.075;  206.825;    0.000
300.689; 3102.075;  218.825;    0.000
300.752; 3049.075;  192.825;    0.000
300.815; 3020.075;  172.825;    0.000
300.878; 3060.075;  207.825;    0.000
300.941; 2977.075;  163.825;    0.000
301.004; 2950.075;  171.825;    0.000
301.067; 3107.075;  198.825;    0.000
301.130; 2991.075;  156.825;    0.000
301.193; 3037.075;  173.825;    0.000
301.256; 3001.075;  167.825;    0.000
301.319; 3060.075;  211.825;    0.000
301.382; 2986.075;  167.825;    0.000
301.445; 2960.075;  224.825;    0.000
301.508; 3003.075;  168.825;    0.000
301.571; 2935.075;  161.825;    0.000
301.634; 3005.075;  177.825;    0.000
301.697; 2986.075;  203.825;    0.000
301.760; 2967.075;  190.825;    0.000
301.823; 2962.075;  182.825;    0.000
301.885; 2918.075;  202.825;    0.000
301.948; 2961.075;  200.825;    0.000
302.011; 2928.075;  157.825;    0.000
302.074; 3056.075;  205.825;    0.000
302.137; 2926.075;  149.825;    0.000
302.200; 2940.075;  201.825;    0.000
302.263; 2931.075;  178.825;    0.000
302.326; 3017.075;  184.825;    0.000
302.388; 2995.075;  176.825;    0.000
302.451; 3042.075;  146.825;    0.000
302.514; 2919.075;  192.825;    0.000
302.577; 3018.075;  181.825;    0.000
302.640; 2923.075;  186.825;    0.000
302.703; 2894.075;  164.825;    0.000
302.765; 2870.075;  197.825;    0.000
302.828; 2992.075;  208.825;    0.000
302.891; 3014.075;  168.825;    0.000
302.954; 2824.075;  177.825;    0.000
303.016; 2944.075;  190.825;    0.000
303.079; 2940.075;  216.825;    0.000
303.142; 2945.075;  228.825;    0.000
303.205; 2862.075;  192.825;    0.000
303.267; 2881.075;  182.825;    0.000
303.330; 2971.075;  201.825;    0.000
303.393; 2799.075;  196.825;    0.000
303.456; 2887.075;  184.825;    0.000
303.518; 2926.075;  194.825;    0.000
303.581; 2977.075;  195.825;    0.000
303.644; 2866.075;  184.825;    0.000
303.706; 3002.075;  150.825;    0.000
303.769; 2882.075;  182.825;    0.000
303.832; 2896.075;  143.825;    0.000
303.894; 2979.075;  207.825;    0.000
303.957; 2896.075;  178.825;    0.000
304.020; 2932.075;  203.825;    0.000
304.082; 2868.075;  175.825;    0.000
304.145; 2913.075;  171.825;    0.000
304.207; 2962.075;  157.825;    0.000
304.270; 2965.075;  195.825;    0.000
304.333; 2799.075;  195.825;    0.000
304.395; 2989.075;  197.825;    0.000
304.458; 2907.075;  231.825;    0.000
304.520; 2924.075;  218.825;    0.000
304.583; 2851.075;  177.825;    0.000
304.646; 2888.075;  177.825;    0.000
304.708; 2915.075;  178.825;    0.000
304.771; 2928.075;  143.825;    0.000
304.833; 2943.075;  241.825;    0.000
304.896; 2968.075;  200.825;    0.000
304.958; 2959.075;  176.825;    0.000
305.021; 2872.075;  159.825;    0.000
305.083; 2821.075;  159.825;    0.000
305.146; 2922.075;  190.825;    0.000
305.208; 2895.075;  152.825;    0.000
305.271; 2800.075;  162.825;    0.000
305.333; 2935.075;  219.825;    0.000
305.396; 2901.075;  163.825;    0.000
305.458; 2870.075;  215.825;    0.000
305.520; 3012.075;  174.825;    0.000
305.583; 2887.075;  161.825;    0.000
305.645; 2944.075;  203.825;    0.000
305.708; 2975.075;  163.825;    0.000
305.770; 2966.075;  215.825;    0.000
305.833; 2915.075;  207.825;    0.000
305.895; 2866.075;  166.825;    0.000
305.957; 2995.075;  175.825;    0.000
306.020; 2922.075;  169.825;    0.000
306.082; 2922.075;  203.825;    0.000
306.144; 3006.075;  181.825;    0.000
306.207; 2906.075;  199.825;    0.000
306.269; 2954.075;  177.825;    0.000
306.331; 2886.075;  160.825;    0.000
306.394; 2906.075;  193.825;    0.000
306.456; 2868.075;  136.825;    0.000
306.518; 2924.075;  189.825;    0.000
306.581; 2950.075;  156.825;    0.000
306.643; 2960.075;  190.825;    0.000
306.705; 2952.075;  190.825;    0.000
306.768; 2939.075;  172.825;    0.000
306.830; 2919.075;  214.825;    0.000
306.892; 2954.075;  198.825;    0.000
306.954; 2939.075;  177.825;    0.000
307.017; 2851.075;  183.825;    0.000
307.079; 2886.075;  170.825;    0.000
307.141; 3120.075;  173.825;    0.000
307.203; 3078.075;  171.825;    0.000
307.266; 3032.075;  166.825;    0.000
307.328; 3036.075;  207.825;    0.000
307.390; 2984.075;  201.825;    0.000
307.452; 3025.075;  182.825;    0.000
307.514; 3056.075;  213.825;    0.000
307.577; 3101.075;  213.825;    0.000
307.639; 3021.075;  197.825;    0.000
307.701; 3153.075;  174.825;    0.000
307.763; 3085.075;  181.825;    0.000
307.825; 3031.075;  186.825;    0.000
307.887; 3127.075;  198.825;    0.000
307.949; 3049.075;  158.825;    0.000
308.012; 3113.075;  209.825;    0.000
308.074; 3129.075;  176.825;    0.000
308.136; 3088.075;  227.825;    0.000
308.198; 3046.075;  187.825;    0.000
308.260; 3091.075;  211.825;    0.000
308.322; 3201.075;  206.825;    0.000
308.384; 3197.075;  186.825;    0.000
308.446; 3173.075;  175.825;    0.000
308.508; 3250.075;  211.825;    0.000
308.570; 3256.075;  191.825;    0.000
308.632; 3155.075;  195.825;    0.000
308.694; 3237.075;  173.825;    0.000
308.756; 3127.075;  185.825;    0.000
308.818; 3288.075;  195.825;    0.000
308.880; 3169.075;  189.825;    0.000
308.942; 3204.075;  231.825;    0.000
309.004; 3377.075;  188.825;    0.000
309.066; 3376.075;  196.825;    0.000
309.128; 3429.075;  155.825;    0.000
309.190; 3379.075;  176.825;    0.000
309.252; 3535.075;  191.825;    0.000
309.314; 3601.075;  236.825;    0.000
309.376; 3623.075;  212.825;    0.000
309.438; 3571.075;  201.825;    0.000
309.500; 3548.075;  206.825;    0.000
309.562; 3586.075;  213.825;    0.000
309.624; 3655.075;  196.825;    0.000
309.686; 3860.075;  198.825;    0.000
309.747; 3806.075;  186.825;    0.000
309.809; 3651.075;  215.825;    0.000
309.871; 3530.075;  242.825;    0.000
309.933; 3500.075;  162.825;    0.000
309.995; 3479.075;  163.825;    0.000
310.057; 3522.075;  145.825;    0.000
310.119; 3302.075;  205.825;    0.000
310.180; 3402.075;  195.825;    0.000
310.242; 3301.075;  167.825;    0.000
310.304; 3406.075;  213.825;    0.000
310.366; 3352.075;  224.825;    0.000
310.428; 3268.075;  170.825;    0.000
310.489; 3308.075;  195.825;    0.000
310.551; 3399.075;  207.825;    0.000
310.613; 3238.075;  168.825;    0.000
310.675; 3305.075;  188.825;    0.000
310.737; 3285.075;  211.825;    0.000
310.798; 3285.075;  221.825;    0.000
310.860; 3284.075;  201.825;    0.000
310.922; 3212.075;  206.825;    0.000
310.983; 3237.075;  222.825;    0.000
311.045; 3225.075;  235.825;    0.000
311.107; 3181.075;  184.825;    0.000
311.169; 3193.075;  148.825;    0.000
311.230; 3155.075;  211.825;    0.000
311.292; 3187.075;  235.825;    0.000
311.354; 3213.075;  183.825;    0.000
311.415; 3137.075;  196.825;    0.000
311.477; 3351.075;  200.825;    0.000
311.539; 3176.075;  171.825;    0.000
311.600; 3186.075;  169.825;    0.000
311.662; 3265.075;  231.825;    0.000
311.724; 3187.075;  204.825;    0.000
311.785; 3228.075;  214.825;    0.000
311.847; 3195.075;  193.825;    0.000
311.908; 3170.075;  180.825;    0.000
311.970; 3179.075;  233.825;    0.000
312.032; 3140.075;  192.825;    0.000
312.093; 3159.075;  195.825;    0.000
312.155; 3162.075;  194.825;    0.000
312.216; 3188.075;  238.825;    0.000
312.278; 3132.075;  146.825;    0.000
312.339; 3169.075;  184.825;    0.000
312.401; 3184.075;  201.825;    0.000
312.462; 3184.075;  173.825;    0.000
312.524; 3161.075;  205.825;    0.000
312.585; 3299.075;  199.825;    0.000
312.647; 3167.075;  168.825;    0.000
312.708; 3205.075;  180.825;    0.000
312.770; 3207.075;  180.825;    0.000
312.831; 3173.075;  176.825;    0.000
312.893; 3276.075;  211.825;    0.000
312.954; 3254.075;  178.825;    0.000
313.016; 3235.075;  204.825;    0.000
313.077; 3254.075;  216.825;    0.000
313.139; 3275.075;  172.825;    0.000
313.200; 3235.075;  197.825;    0.000
313.261; 3240.075;  227.825;    0.000
313.323; 3246.075;  204.825;    0.000
313.384; 3202.075;  182.825;    0.000
313.446; 3228.075;  204.825;    0.000
313.507; 3164.075;  164.825;    0.000
313.568; 3229.075;  197.825;    0.000
313.630; 3210.075;  190.825;    0.000
313.691; 3214.075;  185.825;    0.000
313.752; 3281.075;  192.825;    0.000
313.814; 3145.075;  176.825;    0.000
313.875; 3261.075;  210.825;    0.000
313.936; 3266.075;  165.825;    0.000
313.998; 3214.075;  162.825;    0.000
314.059; 3249.075;  178.825;    0.000
314.120; 3205.075;  176.825;    0.000
314.182; 3275.075;  167.825;    0.000
314.243; 3224.075;  204.825;    0.000
314.304; 3272.075;  197.825;    0.000
314.365; 3315.075;  183.825;    0.000
314.427; 3271.075;  176.825;    0.000
314.488; 3248.075;  149.825;    0.000
314.549; 3153.075;  218.825;    0.000
314.610; 3123.075;  160.825;    0.000
314.672; 3168.075;  187.825;    0.000
314.733; 3164.075;  184.825;    0.000
314.794; 3157.075;  164.825;    0.000
314.855; 3199.075;  191.825;    0.000
314.917; 3130.075;  172.825;    0.000
314.978; 3231.075;  185.825;    0.000
315.039; 3147.075;  194.825;    0.000
315.100; 3201.075;  190.825;    0.000
315.161; 3254.075;  185.825;    0.000
315.222; 3174.075;  204.825;    0.000
315.283; 3178.075;  166.825;    0.000
315.345; 3178.075;  133.825;    0.000
315.406; 3193.075;  191.825;    0.000
315.467; 3154.075;  166.825;    0.000
315.528; 3132.075;  194.825;    0.000
315.589; 3224.075;  193.825;    0.000
315.650; 3132.075;  190.825;    0.000
315.711; 3153.075;  219.825;    0.000
315.772; 3082.075;  159.825;    0.000
315.833; 3173.075;  191.825;    0.000
315.894; 3123.075;  202.825;    0.000
315.955; 3157.075;  167.825;    0.000
316.016; 3189.075;  177.825;    0.000
316.078; 3112.075;  185.825;    0.000
316.139; 3183.075;  219.825;    0.000
316.200; 3198.075;  163.825;    0.000
316.261; 3127.075;  183.825;    0.000
316.322; 3191.075;  230.825;    0.000
316.383; 3129.075;  198.825;    0.000
316.444; 3206.075;  209.825;    0.000
316.504; 3172.075;  179.825;    0.000
316.565; 3160.075;  185.825;    0.000
316.626; 3146.075;  155.825;    0.000
316.687; 3157.075;  211.825;    0.000
316.748; 3102.075;  192.825;    0.000
316.809; 3205.075;  183.825;    0.000
316.870; 3123.075;  196.825;    0.000
316.931; 3188.075;  173.825;    0.000
316.992; 3147.075;  179.825;    0.000
317.053; 3136.075;  186.825;    0.000
317.114; 3143.075;  189.825;    0.000
317.175; 3204.075;  226.825;    0.000
317.235; 3131.075;  206.825;    0.000
317.296; 3106.075;  191.825;    0.000
317.357; 3069.075;  173.825;    0.000
317.418; 3162.075;  212.825;    0.000
317.479; 3139.075;  247.825;    0.000
317.540; 3126.075;  205.825;    0.000
317.601; 3074.075;  205.825;    0.000
317.661; 3061.075;  150.825;    0.000
317.722; 3162.075;  198.825;    0.000
317.783; 3008.075;  153.825;    0.000
317.844; 3198.075;  202.825;    0.000
317.904; 3016.075;  180.825;    0.000
317.965; 3133.075;  205.825;    0.000
318.026; 3112.075;  223.825;    0.000
318.087; 3123.075;  218.825;    0.000
318.148; 3178.075;  207.825;    0.000
318.208; 3067.075;  212.825;    0.000
318.269; 3107.075;  174.825;    0.000
318.330; 3063.075;  191.825;    0.000
318.390; 3074.075;  197.825;    0.000
318.451; 3166.075;  167.825;    0.000
318.512; 3146.075;  174.825;    0.000
318.572; 3082.075;  199.825;    0.000
318.633; 3184.075;  233.825;    0.000
318.694; 3124.075;  232.825;    0.000
318.754; 3064.075;  181.825;    0.000
318.815; 3084.075;  199.825;    0.000
318.876; 3082.075;  207.825;    0.000
318.936; 3165.075;  202.825;    0.000
318.997; 3127.075;  182.825;    0.000
319.058; 3137.075;  180.825;    0.000
319.118; 3099.075;  199.825;    0.000
319.179; 3046.075;  199.825;    0.000
319.239; 3059.075;  229.825;    0.000
319.300; 3104.075;  223.825;    0.000
319.361; 3111.075;  210.825;    0.000
319.421; 2978.075;  205.825;    0.000
319.482; 3054.075;  205.825;    0.000
319.542; 3006.075;  176.825;    0.000
319.603; 3013.075;  191.825;    0.000
319.663; 2932.075;  183.825;    0.000
319.724; 2980.075;  174.825;    0.000
319.784; 3068.075;  198.825;    0.000
319.845; 3044.075;  218.825;    0.000
319.905; 3093.075;  217.825;    0.000
319.966; 2967.075;  197.825;    0.000
320.026; 3087.075;  209.825;    0.000
320.087; 3027.075;  225.825;    0.000
320.147; 3073.075;  201.825;    0.000
320.208; 2951.075;  176.825;    0.000
320.268; 3040.075;  168.825;    0.000
320.329; 3074.075;  238.825;    0.000
320.389; 3026.075;  220.825;    0.000
320.449; 3019.075;  230.825;    0.000
320.510; 3128.075;  234.825;    0.000
320.570; 3027.075;  210.825;    0.000
320.631; 3046.075;  207.825;    0.000
320.691; 3000.075;  222.825;    0.000
320.751; 2960.075;  195.825;    0.000
320.812; 3023.075;  193.825;    0.000
320.872; 3104.075;  237.825;    0.000
320.932; 3026.075;  213.825;    0.000
320.993; 3039.075;  185.825;    0.000
321.053; 3111.075;  245.825;    0.000
321.113; 3012.075;  206.825;    0.000
321.174; 3009.075;  202.825;    0.000
321.234; 3096.075;  244.825;    0.000
321.294; 3098.075;  228.825;    0.000
321.355; 3046.075;  208.825;    0.000
321.415; 3087.075;  223.825;    0.000
321.475; 3087.075;  203.825;    0.000
321.535; 2993.075;  230.825;    0.000
321.596; 2978.075;  186.825;    0.000
321.656; 3038.075;  216.825;    0.000
321.716; 2988.075;  207.825;    0.000
321.776; 3010.075;  181.825;    0.000
321.837; 3003.075;  207.825;    0.000
321.897; 3072.075;  225.825;    0.000
321.957; 3052.075;  222.825;    0.000
322.017; 2933.075;  215.825;    0.000
322.077; 2966.075;  250.825;    0.000
322.138; 3064.075;  189.825;    0.000
322.198; 3081.075;  200.825;    0.000
322.258; 2991.075;  217.825;    0.000
322.318; 2937.075;  183.825;    0.000
322.378; 3018.075;  231.825;    0.000
322.438; 2931.075;  228.825;    0.000
322.499; 2939.075;  248.825;    0.000
322.559; 2866.075;  198.825;    0.000
322.619; 2879.075;  221.825;    0.000
322.679; 2954.075;  217.825;    0.000
322.739; 2850.075;  204.825;    0.000
322.799; 3084.075;  236.825;    0.000
322.859; 3074.075;  213.825;    0.000
322.919; 3004.075;  210.825;    0.000
322.979; 3008.075;  244.825;    0.000
323.039; 2948.075;  218.825;    0.000
323.099; 2853.075;  232.825;    0.000
323.159; 2880.075;  216.825;    0.000
323.219; 2985.075;  169.825;    0.000
323.279; 2999.075;  236.825;    0.000
323.339; 3031.075;  243.825;    0.000
323.399; 2987.075;  208.825;    0.000
323.459; 2997.075;  220.825;    0.000
323.519; 3077.075;  228.825;    0.000
323.579; 2952.075;  164.825;    0.000
323.639; 3072.075;  209.825;    0.000
323.699; 3050.075;  188.825;    0.000
323.759; 3005.075;  206.825;    0.000
323.819; 2991.075;  204.825;    0.000
323.879; 3041.075;  222.825;    0.000
323.939; 3033.075;  206.825;    0.000
323.999; 2972.075;  202.825;    0.000
324.059; 2925.075;  245.825;    0.000
324.119; 2942.075;  214.825;    0.000
324.178; 2949.075;  183.825;    0.000
324.238; 2915.075;  193.825;    0.000
324.298; 3013.075;  207.825;    0.000
324.358; 3047.075;  196.825;    0.000
324.418; 2908.075;  193.825;    0.000
324.478; 2941.075;  191.825;    0.000
324.538; 2948.075;  224.825;    0.000
324.597; 3007.075;  187.825;    0.000
324.657; 2878.075;  208.825;    0.000
324.717; 2927.075;  198.825;    0.000
324.777; 2899.075;  159.825;    0.000
324.837; 2935.075;  180.825;    0.000
324.896; 2850.075;  215.825;    0.000
324.956; 2836.075;  210.825;    0.000
325.016; 3014.075;  187.825;    0.000
325.076; 2880.075;  197.825;    0.000
325.135; 2998.075;  226.825;    0.000
325.195; 2938.075;  201.825;    0.000
325.255; 2921.075;  167.825;    0.000
325.315; 2974.075;  217.825;    0.000
325.374; 2993.075;  196.825;    0.000
325.434; 2922.075;  167.825;    0.000
325.494; 2952.075;  214.825;    0.000
325.553; 2975.075;  203.825;    0.000
325.613; 2982.075;  206.825;    0.000
325.673; 2863.075;  148.825;    0.000
325.732; 2998.075;  207.825;    0.000
325.792; 2945.075;  151.825;    0.000
325.852; 2910.075;  195.825;    0.000
325.911; 2854.075;  201.825;    0.000
325.971; 2974.075;  224.825;    0.000
326.031; 2850.075;  201.825;    0.000
326.090; 2841.075;  203.825;    0.000
326.150; 2948.075;  183.825;    0.000
326.209; 2936.075;  226.825;    0.000
326.269; 2990.075;  194.825;    0.000
326.328; 2936.075;  200.825;    0.000
326.388; 2887.075;  177.825;    0.000
326.448; 2923.075;  239.825;    0.000
326.507; 2937.075;  197.825;    0.000
326.567; 2940.075;  161.825;    0.000
326.626; 2945.075;  220.825;    0.000
326.686; 2842.075;  178.825;    0.000
326.745; 2786.075;  167.825;    0.000
326.805; 2827.075;  176.825;    0.000
326.864; 2899.075;  204.825;    0.000
326.924; 2949.075;  218.825;    0.000
326.983; 2842.075;  201.825;    0.000
327.043; 2912.075;  219.825;    0.000
327.102; 2830.075;  202.825;    0.000
327.161; 2796.075;  228.825;    0.000
327.221; 2845.075;  217.825;    0.000
327.280; 2854.075;  188.825;    0.000
327.340; 2845.075;  209.825;    0.000
327.399; 2806.075;  189.825;    0.000
327.459; 2859.075;  216.825;    0.000
327.518; 2823.075;  200.825;    0.000
327.577; 2866.075;  194.825;    0.000
327.637; 2821.075;  180.825;    0.000
327.696; 2774.075;  208.825;    0.000
327.755; 2828.075;  218.825;    0.000
327.815; 2784.075;  234.825;    0.000
327.874; 2786.075;  259.825;    0.000
327.933; 2815.075;  192.825;    0.000
327.993; 2794.075;  208.825;    0.000
328.052; 2903.075;  221.825;    0.000
328.111; 2775.075;  203.825;    0.000
328.171; 2796.075;  221.825;    0.000
328.230; 2758.075;  222.825;    0.000
328.289; 2876.075;  254.825;    0.000
328.349; 2878.075;  232.825;    0.000
328.408; 2714.075;  223.825;    0.000
328.467; 2719.075;  198.825;    0.000
328.526; 2828.075;  217.825;    0.000
328.586; 2805.075;  185.825;    0.000
328.645; 2688.075;  210.825;    0.000
328.704; 2794.075;  211.825;    0.000
328.763; 2784.075;  231.825;    0.000
328.822; 2795.075;  254.825;    0.000
328.882; 2797.075;  216.825;    0.000
328.941; 2847.075;  239.825;    0.000
329.000; 2848.075;  251.825;    0.000
329.059; 2731.075;  227.825;    0.000
329.118; 2752.075;  233.825;    0.000
329.177; 2785.075;  188.825;    0.000
329.237; 2786.075;  257.825;    0.000
329.296; 2791.075;  265.825;    0.000
329.355; 2820.075;  245.825;    0.000
329.414; 2821.075;  236.825;    0.000
329.473; 2815.075;  242.825;    0.000
329.532; 2832.075;  228.825;    0.000
329.591; 2794.075;  206.825;    0.000
329.650; 2831.075;  250.825;    0.000
329.709; 2905.075;  278.825;    0.000
329.768; 2886.075;  219.825;    0.000
329.827; 2899.075;  254.825;    0.000
329.886; 2866.075;  221.825;    0.000
329.945; 2818.075;  239.825;    0.000
330.004; 2907.075;  245.825;    0.000
330.063; 2952.075;  201.825;    0.000
330.122; 3130.075;  227.825;    0.000
330.181; 3274.075;  196.825;    0.000
330.240; 3378.075;  203.825;    0.000
330.299; 3194.075;  214.825;    0.000
330.358; 2811.075;  196.825;    0.000
330.417; 2802.075;  201.825;    0.000
330.476; 2836.075;  248.825;    0.000
330.535; 2752.075;  253.825;    0.000
330.594; 2706.075;  231.825;    0.000
330.653; 2708.075;  210.825;    0.000
330.712; 2710.075;  242.825;    0.000
330.771; 2725.075;  240.825;    0.000
330.830; 2669.075;  230.825;    0.000
330.889; 2698.075;  217.825;    0.000
330.948; 2741.075;  211.825;    0.000
331.006; 2756.075;  217.825;    0.000
331.065; 2681.075;  170.825;    0.000
331.124; 2685.075;  211.825;    0.000
331.183; 2646.075;  192.825;    0.000
331.242; 2665.075;  227.825;    0.000
331.301; 2669.075;  240.825;    0.000
331.359; 2687.075;  223.825;    0.000
331.418; 2693.075;  215.825;    0.000
331.477; 2660.075;  230.825;    0.000
331.536; 2671.075;  221.825;    0.000
331.595; 2665.075;  198.825;    0.000
331.653; 2692.075;  207.825;    0.000
331.712; 2677.075;  217.825;    0.000
331.771; 2731.075;  221.825;    0.000
331.830; 2722.075;  222.825;    0.000
331.888; 2705.075;  213.825;    0.000
331.947; 2633.075;  233.825;    0.000
332.006; 2639.075;  212.825;    0.000
332.065; 2730.075;  200.825;    0.000
332.123; 2680.075;  223.825;    0.000
332.182; 2709.075;  180.825;    0.000
332.241; 2665.075;  192.825;    0.000
332.299; 2664.075;  172.825;    0.000
332.358; 2726.075;  216.825;    0.000
332.417; 2637.075;  211.825;    0.000
332.475; 2711.075;  222.825;    0.000
332.534; 2649.075;  238.825;    0.000
332.592; 2709.075;  216.825;    0.000
332.651; 2696.075;  196.825;    0.000
332.710; 2717.075;  215.825;    0.000
332.768; 2688.075;  193.825;    0.000
332.827; 2609.075;  201.825;    0.000
332.885; 2801.075;  226.825;    0.000
332.944; 2797.075;  174.825;    0.000
333.003; 2759.075;  187.825;    0.000
333.061; 2839.075;  208.825;    0.000
333.120; 2763.075;  202.825;    0.000
333.178; 2905.075;  227.825;    0.000
333.237; 2907.075;  215.825;    0.000
333.295; 2860.075;  245.825;    0.000
333.354; 2890.075;  194.825;    0.000
333.412; 2812.075;  165.825;    0.000
333.471; 2827.075;  219.825;    0.000
333.529; 2894.075;  255.825;    0.000
333.588; 2953.075;  264.825;    0.000
333.646; 3082.075;  231.825;    0.000
333.705; 3105.075;  232.825;    0.000
333.763; 3034.075;  233.825;    0.000
333.822; 2962.075;  221.825;    0.000
333.880; 2909.075;  180.825;    0.000
333.938; 2894.075;  229.825;    0.000
333.997; 2857.075;  194.825;    0.000
334.055; 2832.075;  230.825;    0.000
334.114; 2860.075;  230.825;    0.000
334.172; 2825.075;  170.825;    0.000
334.230; 2788.075;  192.825;    0.000
334.289; 2799.075;  225.825;    0.000
334.347; 2851.075;  233.825;    0.000
334.405; 2843.075;  207.825;    0.000
334.464; 2847.075;  175.825;    0.000
334.522; 2749.075;  180.825;    0.000
334.580; 2790.075;  172.825;    0.000
334.639; 2786.075;  230.825;    0.000
334.697; 2794.075;  217.825;    0.000
334.755; 2854.075;  217.825;    0.000
334.814; 2853.075;  210.825;    0.000
334.872; 2724.075;  170.825;    0.000
334.930; 2720.075;  167.825;    0.000
334.988; 2754.075;  244.825;    0.000
335.047; 2818.075;  202.825;    0.000
335.105; 2805.075;  181.825;    0.000
335.163; 2789.075;  195.825;    0.000
335.221; 2777.075;  203.825;    0.000
335.280; 2806.075;  216.825;    0.000
335.338; 2788.075;  197.825;    0.000
335.396; 2791.075;  232.825;    0.000
335.454; 2753.075;  211.825;    0.000
335.512; 2793.075;  221.825;    0.000
335.570; 2786.075;  216.825;    0.000
335.629; 2755.075;  244.825;    0.000
335.687; 2794.075;  244.825;    0.000
335.745; 2809.075;  189.825;    0.000
335.803; 2823.075;  198.825;    0.000
335.861; 2844.075;  236.825;    0.000
335.919; 2840.075;  234.825;    0.000
335.977; 2850.075;  214.825;    0.000
336.035; 2733.075;  242.825;    0.000
336.094; 2806.075;  219.825;    0.000
336.152; 2867.075;  196.825;    0.000
336.210; 2839.075;  221.825;    0.000
336.268; 2834.075;  257.825;    0.000
336.326; 2883.075;  211.825;    0.000
336.384; 2824.075;  217.825;    0.000
336.442; 2726.075;  176.825;    0.000
336.500; 2814.075;  242.825;    0.000
336.558; 2722.075;  238.825;    0.000
336.616; 2788.075;  261.825;    0.000
336.674; 2731.075;  200.825;    0.000
336.732; 2806.075;  208.825;    0.000
336.790; 2688.075;  183.825;    0.000
336.848; 2752.075;  199.825;    0.000
336.906; 2775.075;  240.825;    0.000
336.964; 2906.075;  234.825;    0.000
337.022; 2786.075;  282.825;    0.000
337.080; 2805.075;  265.825;    0.000
337.138; 2711.075;  255.825;    0.000
337.195; 2756.075;  200.825;    0.000
337.253; 2812.075;  199.825;    0.000
337.311; 2792.075;  233.825;    0.000
337.369; 2783.075;  250.825;    0.000
337.427; 2732.075;  201.825;    0.000
337.485; 2687.075;  228.825;    0.000
337.543; 2617.075;  221.825;    0.000
337.601; 2729.075;  232.825;    0.000
337.658; 2798.075;  215.825;    0.000
337.716; 2677.075;  198.825;    0.000
337.774; 2712.075;  262.825;    0.000
337.832; 2635.075;  220.825;    0.000
337.890; 2675.075;  194.825;    0.000
337.947; 2640.075;  205.825;    0.000
338.005; 2685.075;  229.825;    0.000
338.063; 2689.075;  237.825;    0.000
338.121; 2694.075;  220.825;    0.000
338.178; 2660.075;  227.825;    0.000
338.236; 2695.075;  238.825;    0.000
338.294; 2775.075;  242.825;    0.000
338.352; 2735.075;  230.825;    0.000
338.409; 2592.075;  222.825;    0.000
338.467; 2683.075;  233.825;    0.000
338.525; 2620.075;  253.825;    0.000
338.583; 2662.075;  221.825;    0.000
338.640; 2630.075;  225.825;    0.000
338.698; 2617.075;  229.825;    0.000
338.756; 2626.075;  238.825;    0.000
338.813; 2711.075;  260.825;    0.000
338.871; 2732.075;  246.825;    0.000
338.928; 2684.075;  240.825;    0.000
338.986; 2713.075;  228.825;    0.000
339.044; 2648.075;  265.825;    0.000
339.101; 2612.075;  224.825;    0.000
339.159; 2615.075;  235.825;    0.000
339.216; 2625.075;  244.825;    0.000
339.274; 2639.075;  266.825;    0.000
339.332; 2639.075;  248.825;    0.000
339.389; 2635.075;  246.825;    0.000
339.447; 2560.075;  237.825;    0.000
339.504; 2595.075;  244.825;    0.000
339.562; 2744.075;  249.825;    0.000
339.619; 2650.075;  266.825;    0.000
339.677; 2698.075;  263.825;    0.000
339.734; 2553.075;  216.825;    0.000
339.792; 2518.075;  276.825;    0.000
339.849; 2583.075;  240.825;    0.000
339.907; 2700.075;  275.825;    0.000
339.964; 2652.075;  243.825;    0.000
340.022; 2605.075;  224.825;    0.000
340.079; 2572.075;  230.825;    0.000
340.137; 2580.075;  232.825;    0.000
340.194; 2635.075;  261.825;    0.000
340.252; 2599.075;  219.825;    0.000
340.309; 2565.075;  212.825;    0.000
340.366; 2509.075;  231.825;    0.000
340.424; 2707.075;  244.825;    0.000
340.481; 2656.075;  238.825;    0.000
340.538; 2610.075;  217.825;    0.000
340.596; 2537.075;  224.825;    0.000
340.653; 2635.075;  225.825;    0.000
340.711; 2630.075;  276.825;    0.000
340.768; 2673.075;  239.825;    0.000
340.825; 2630.075;  216.825;    0.000
340.883; 2675.075;  264.825;    0.000
340.940; 2680.075;  256.825;    0.000
340.997; 2680.075;  230.825;    0.000
341.054; 2617.075;  229.825;    0.000
341.112; 2648.075;  220.825;    0.000
341.169; 2632.075;  276.825;    0.000
341.226; 2679.075;  224.825;    0.000
341.284; 2635.075;  235.825;    0.000
341.341; 2701.075;  226.825;    0.000
341.398; 2629.075;  200.825;    0.000
341.455; 2699.075;  242.825;    0.000
341.512; 2662.075;  226.825;    0.000
341.570; 2668.075;  299.825;    0.000
341.627; 2655.075;  221.825;    0.000
341.684; 2633.075;  204.825;    0.000
341.741; 2656.075;  285.825;    0.000
341.798; 2762.075;  237.825;    0.000
341.856; 2551.075;  223.825;    0.000
341.913; 2702.075;  232.825;    0.000
341.970; 2673.075;  250.825;    0.000
342.027; 2749.075;  272.825;    0.000
342.084; 2636.075;  242.825;    0.000
342.141; 2580.075;  207.825;    0.000
342.198; 2664.075;  252.825;    0.000
342.255; 2563.075;  189.825;    0.000
342.313; 2639.075;  222.825;    0.000
342.370; 2589.075;  203.825;    0.000
342.427; 2689.075;  261.825;    0.000
342.484; 2667.075;  230.825;    0.000
342.541; 2658.075;  224.825;    0.000
342.598; 2628.075;  245.825;    0.000
342.655; 2651.075;  235.825;    0.000
342.712; 2681.075;  238.825;    0.000
342.769; 2678.075;  235.825;    0.000
342.826; 2640.075;  232.825;    0.000
342.883; 2625.075;  212.825;    0.000
342.940; 2582.075;  189.825;    0.000
342.997; 2621.075;  241.825;    0.000
343.054; 2700.075;  235.825;    0.000
343.111; 2579.075;  216.825;    0.000
343.168; 2711.075;  202.825;    0.000
343.225; 2762.075;  228.825;    0.000
343.282; 2751.075;  208.825;    0.000
343.339; 2699.075;  241.825;    0.000
343.395; 2792.075;  206.825;    0.000
343.452; 2732.075;  227.825;    0.000
343.509; 2710.075;  212.825;    0.000
343.566; 2778.075;  266.825;    0.000
343.623; 2776.075;  240.825;    0.000
343.680; 2711.075;  215.825;    0.000
343.737; 2833.075;  231.825;    0.000
343.794; 2890.075;  256.825;    0.000
343.850; 2888.075;  235.825;    0.000
343.907; 2853.075;  246.825;    0.000
343.964; 2962.075;  241.825;    0.000
344.021; 2851.075;  237.825;    0.000
344.078; 2930.075;  248.825;    0.000
344.134; 2901.075;  225.825;    0.000
344.191; 2849.075;  209.825;    0.000
344.248; 2908.075;  234.825;    0.000
344.305; 2852.075;  224.825;    0.000
344.361; 2848.075;  194.825;    0.000
344.418; 2791.075;  240.825;    0.000
344.475; 2871.075;  252.825;    0.000
344.532; 2913.075;  251.825;    0.000
344.588; 2833.075;  240.825;    0.000
344.645; 2791.075;  253.825;    0.000
344.702; 2818.075;  216.825;    0.000
344.758; 2860.075;  258.825;    0.000
344.815; 2795.075;  239.825;    0.000
344.872; 2873.075;  216.825;    0.000
344.928; 2812.075;  236.825;    0.000
344.985; 2874.075;  238.825;    0.000
345.042; 2875.075;  211.825;    0.000
345.098; 2738.075;  223.825;    0.000
345.155; 2757.075;  266.825;    0.000
345.212; 2709.075;  266.825;    0.000
345.268; 2790.075;  245.825;    0.000
345.325; 2734.075;  225.825;    0.000
345.381; 2834.075;  223.825;    0.000
345.438; 2771.075;  259.825;    0.000
345.495; 2831.075;  233.825;    0.000
345.551; 2816.075;  254.825;    0.000
345.608; 2732.075;  212.825;    0.000
345.664; 2862.075;  225.825;    0.000
345.721; 2834.075;  223.825;    0.000
345.777; 2796.075;  226.825;    0.000
345.834; 2731.075;  215.825;    0.000
345.890; 2801.075;  230.825;    0.000
345.947; 2722.075;  232.825;    0.000
346.003; 2736.075;  241.825;    0.000
346.060; 2789.075;  241.825;    0.000
346.116; 2806.075;  231.825;    0.000
346.173; 2845.075;  229.825;    0.000
346.229; 2804.075;  262.825;    0.000
346.285; 2835.075;  232.825;    0.000
346.342; 2827.075;  228.825;    0.000
346.398; 2902.075;  203.825;    0.000
346.455; 2827.075;  214.825;    0.000
346.511; 2921.075;  245.825;    0.000
346.567; 2906.075;  192.825;    0.000
346.624; 2870.075;  206.825;    0.000
346.680; 2932.075;  209.825;    0.000
346.737; 2872.075;  239.825;    0.000
346.793; 2947.075;  234.825;    0.000
346.849; 2794.075;  252.825;    0.000
346.906; 2904.075;  247.825;    0.000
346.962; 3011.075;  274.825;    0.000
347.018; 2873.075;  225.825;    0.000
347.074; 2860.075;  261.825;    0.000
347.131; 2858.075;  230.825;    0.000
347.187; 2911.075;  269.825;    0.000
347.243; 2910.075;  261.825;    0.000
347.300; 2853.075;  236.825;    0.000
347.356; 2909.075;  284.825;    0.000
347.412; 2920.075;  243.825;    0.000
347.468; 2792.075;  276.825;    0.000
347.524; 2844.075;  232.825;    0.000
347.581; 2907.075;  242.825;    0.000
347.637; 2911.075;  270.825;    0.000
347.693; 2881.075;  269.825;    0.000
347.749; 2879.075;  278.825;    0.000
347.805; 2829.075;  224.825;    0.000
347.862; 2896.075;  207.825;    0.000
347.918; 2888.075;  259.825;    0.000
347.974; 2915.075;  244.825;    0.000
348.030; 2856.075;  219.825;    0.000
348.086; 2939.075;  250.825;    0.000
348.142; 2773.075;  251.825;    0.000
348.198; 2849.075;  267.825;    0.000
348.254; 2950.075;  230.825;    0.000
348.311; 2945.075;  261.825;    0.000
348.367; 2948.075;  259.825;    0.000
348.423; 2883.075;  251.825;    0.000
348.479; 2815.075;  251.825;    0.000
348.535; 2926.075;  269.825;    0.000
348.591; 2863.075;  238.825;    0.000
348.647; 2875.075;  273.825;    0.000
348.703; 2968.075;  291.825;    0.000
348.759; 2864.075;  231.825;    0.000
348.815; 2942.075;  286.825;    0.000
348.871; 2894.075;  265.825;    0.000
348.927; 2928.075;  234.825;    0.000
348.983; 2941.075;  267.825;    0.000
349.039; 2915.075;  233.825;    0.000
349.095; 2956.075;  225.825;    0.000
349.151; 2874.075;  242.825;    0.000
349.207; 2915.075;  223.825;    0.000
349.263; 2901.075;  219.825;    0.000
349.319; 2970.075;  226.825;    0.000
349.374; 2903.075;  232.825;    0.000
349.430; 2976.075;  235.825;    0.000
349.486; 2904.075;  227.825;    0.000
349.542; 3053.075;  253.825;    0.000
349.598; 2996.075;  227.825;    0.000
349.654; 3016.075;  270.825;    0.000
349.710; 2867.075;  233.825;    0.000
349.766; 2863.075;  245.825;    0.000
349.821; 2961.075;  242.825;    0.000
349.877; 3057.075;  229.825;    0.000
349.933; 2915.075;  229.825;    0.000
349.989; 2922.075;  230.825;    0.000
350.045; 2976.075;  236.825;    0.000
350.100; 2975.075;  237.825;    0.000
350.156; 2873.075;  230.825;    0.000
350.212; 2866.075;  254.825;    0.000
350.268; 2956.075;  239.825;    0.000
350.323; 2873.075;  204.825;    0.000
350.379; 3006.075;  246.825;    0.000
350.435; 2893.075;  249.825;    0.000
350.491; 2888.075;  217.825;    0.000
350.546; 2869.075;  231.825;    0.000
350.602; 2893.075;  240.825;    0.000
350.658; 3008.075;  235.825;    0.000
350.713; 2927.075;  234.825;    0.000
350.769; 3015.075;  218.825;    0.000
350.825; 2949.075;  227.825;    0.000
350.880; 2977.075;  226.825;    0.000
350.936; 2971.075;  247.825;    0.000
350.992; 2910.075;  213.825;    0.000
351.047; 2944.075;  207.825;    0.000
351.103; 2895.075;  271.825;    0.000
351.158; 2937.075;  251.825;    0.000
351.214; 2978.075;  199.825;    0.000
351.270; 2896.075;  214.825;    0.000
351.325; 2993.075;  235.825;    0.000
351.381; 3002.075;  223.825;    0.000
351.436; 3051.075;  237.825;    0.000
351.492; 2954.075;  221.825;    0.000
351.547; 3025.075;  237.825;    0.000
351.603; 2985.075;  239.825;    0.000
351.658; 2952.075;  209.825;    0.000
351.714; 2928.075;  226.825;    0.000
351.769; 3034.075;  238.825;    0.000
351.825; 3033.075;  226.825;    0.000
351.880; 2997.075;  217.825;    0.000
351.936; 3023.075;  246.825;    0.000
351.991; 2899.075;  233.825;    0.000
352.047; 2944.075;  215.825;    0.000
352.102; 2923.075;  243.825;    0.000
352.158; 2953.075;  234.825;    0.000
352.213; 2966.075;  201.825;    0.000
352.268; 2964.075;  234.825;    0.000
352.324; 2905.075;  211.825;    0.000
352.379; 3010.075;  221.825;    0.000
352.434; 2931.075;  259.825;    0.000
352.490; 3022.075;  250.825;    0.000
352.545; 2921.075;  251.825;    0.000
352.601; 2981.075;  283.825;    0.000
352.656; 2974.075;  236.825;    0.000
352.711; 2986.075;  237.825;    0.000
352.767; 3014.075;  201.825;    0.000
352.822; 2899.075;  209.825;    0.000
352.877; 2983.075;  239.825;    0.000
352.932; 2988.075;  228.825;    0.000
352.988; 2910.075;  202.825;    0.000
353.043; 2960.075;  268.825;    0.000
353.098; 2932.075;  208.825;    0.000
353.153; 3016.075;  219.825;    0.000
353.209; 2995.075;  252.825;    0.000
353.264; 2908.075;  225.825;    0.000
353.319; 2981.075;  234.825;    0.000
353.374; 2959.075;  236.825;    0.000
353.430; 2995.075;  245.825;    0.000
353.485; 3022.075;  238.825;    0.000
353.540; 3033.075;  238.825;    0.000
353.595; 2925.075;  215.825;    0.000
353.650; 2998.075;  238.825;    0.000
353.705; 2990.075;  274.825;    0.000
353.761; 2958.075;  229.825;    0.000
353.816; 2983.075;  275.825;    0.000
353.871; 2961.075;  245.825;    0.000
353.926; 3042.075;  253.825;    0.000
353.981; 3002.075;  269.825;    0.000
354.036; 2960.075;  246.825;    0.000
354.091; 3072.075;  257.825;    0.000
354.146; 3015.075;  278.825;    0.000
354.201; 2964.075;  276.825;    0.000
354.256; 2890.075;  224.825;    0.000
354.311; 3077.075;  287.825;    0.000
354.367; 3067.075;  210.825;    0.000
354.422; 2982.075;  231.825;    0.000
354.477; 3077.075;  226.825;    0.000
354.532; 3056.075;  262.825;    0.000
354.587; 3093.075;  275.825;    0.000
354.642; 3094.075;  247.825;    0.000
354.697; 2954.075;  251.825;    0.000
354.751; 2999.075;  249.825;    0.000
354.806; 2979.075;  217.825;    0.000
354.861; 2885.075;  247.825;    0.000
354.916; 3078.075;  259.825;    0.000
354.971; 3050.075;  241.825;    0.000
355.026; 3016.075;  250.825;    0.000
355.081; 3010.075;  244.825;    0.000
355.136; 2945.075;  203.825;    0.000
355.191; 2964.075;  241.825;    0.000
355.246; 3044.075;  248.825;    0.000
355.301; 3027.075;  259.825;    0.000
355.355; 2972.075;  236.825;    0.000
355.410; 3013.075;  221.825;    0.000
355.465; 3007.075;  206.825;    0.000
355.520; 2979.075;  258.825;    0.000
355.575; 3134.075;  273.825;    0.000
355.630; 2993.075;  252.825;    0.000
355.684; 2937.075;  246.825;    0.000
355.739; 3094.075;  251.825;    0.000
355.794; 3042.075;  247.825;    0.000
355.849; 3058.075;  246.825;    0.000
355.904; 3091.075;  262.825;    0.000
355.958; 2983.075;  249.825;    0.000
356.013; 3036.075;  213.825;    0.000
356.068; 3006.075;  255.825;    0.000
356.123; 3028.075;  205.825;    0.000
356.177; 3060.075;  239.825;    0.000
356.232; 3104.075;  258.825;    0.000
356.287; 3029.075;  248.825;    0.000
356.341; 3038.075;  221.825;    0.000
356.396; 3033.075;  220.825;    0.000
356.451; 2983.075;  231.825;    0.000
356.505; 3035.075;  231.825;    0.000
356.560; 3013.075;  254.825;    0.000
356.615; 3052.075;  234.825;    0.000
356.669; 3069.075;  250.825;    0.000
356.724; 2986.075;  261.825;    0.000
356.778; 2954.075;  207.825;    0.000
356.833; 2863.075;  205.825;    0.000
356.888; 3155.075;  235.825;    0.000
356.942; 3057.075;  205.825;    0.000
356.997; 3018.075;  276.825;    0.000
357.051; 2974.075;  243.825;    0.000
357.106; 3060.075;  242.825;    0.000
357.160; 3028.075;  241.825;    0.000
357.215; 3019.075;  212.825;    0.000
357.269; 3168.075;  238.825;    0.000
357.324; 3018.075;  223.825;    0.000
357.378; 3073.075;  221.825;    0.000
357.433; 3011.075;  262.825;    0.000
357.487; 3080.075;  246.825;    0.000
357.542; 3095.075;  221.825;    0.000
357.596; 3096.075;  225.825;    0.000
357.651; 3043.075;  244.825;    0.000
357.705; 3064.075;  269.825;    0.000
357.760; 2985.075;  209.825;    0.000
357.814; 2982.075;  250.825;    0.000
357.868; 2999.075;  266.825;    0.000
357.923; 3054.075;  248.825;    0.000
357.977; 3043.075;  262.825;    0.000
358.032; 3003.075;  228.825;    0.000
358.086; 3116.075;  257.825;    0.000
358.140; 3042.075;  217.825;    0.000
358.195; 3092.075;  246.825;    0.000
358.249; 3012.075;  255.825;    0.000
358.303; 3084.075;  252.825;    0.000
358.358; 3055.075;  278.825;    0.000
358.412; 3112.075;  276.825;    0.000
358.466; 2973.075;  275.825;    0.000
358.521; 2995.075;  229.825;    0.000
358.575; 3007.075;  270.825;    0.000
358.629; 2958.075;  239.825;    0.000
358.683; 3047.075;  254.825;    0.000
358.738; 2975.075;  239.825;    0.000
358.792; 2994.075;  272.825;    0.000
358.846; 2982.075;  289.825;    0.000
358.900; 3002.075;  299.825;    0.000
358.954; 3024.075;  247.825;    0.000
359.009; 3000.075;  245.825;    0.000
359.063; 2986.075;  272.825;    0.000
359.117; 2994.075;  242.825;    0.000
359.171; 3028.075;  279.825;    0.000
359.225; 3037.075;  221.825;    0.000
359.280; 2955.075;  238.825;    0.000
359.334; 2940.075;  264.825;    0.000
359.388; 3054.075;  273.825;    0.000
359.442; 2985.075;  233.825;    0.000
359.496; 2959.075;  226.825;    0.000
359.550; 2962.075;  271.825;    0.000
359.604; 3005.075;  296.825;    0.000
359.658; 3052.075;  252.825;    0.000
359.712; 2961.075;  256.825;    0.000
359.766; 2990.075;  257.825;    0.000
359.820; 3022.075;  239.825;    0.000
359.875; 3081.075;  252.825;    0.000
359.929; 3081.075;  258.825;    0.000
359.983; 2941.075;  232.825;    0.000
360.037; 2952.075;  268.825;    0.000
360.091; 3056.075;  303.825;    0.000
360.145; 2911.075;  232.825;    0.000
360.199; 2923.075;  255.825;    0.000
360.253; 3013.075;  252.825;    0.000
360.306; 3011.075;  278.825;    0.000
360.360; 2953.075;  249.825;    0.000
360.414; 3050.075;  274.825;    0.000
360.468; 3024.075;  247.825;    0.000
360.522; 2977.075;  268.825;    0.000
360.576; 2982.075;  263.825;    0.000
360.630; 3095.075;  296.825;    0.000
360.684; 3066.075;  253.825;    0.000
360.738; 3001.075;  301.825;    0.000
360.792; 3037.075;  282.825;    0.000
360.846; 2954.075;  277.825;    0.000
360.899; 2982.075;  292.825;    0.000
360.953; 2998.075;  266.825;    0.000
361.007; 2979.075;  240.825;    0.000
361.061; 2941.075;  247.825;    0.000
361.115; 3102.075;  276.825;    0.000
361.168; 3010.075;  288.825;    0.000
361.222; 2964.075;  271.825;    0.000
361.276; 2956.075;  270.825;    0.000
361.330; 3015.075;  295.825;    0.000
361.384; 2866.075;  276.825;    0.000
361.437; 3040.075;  280.825;    0.000
361.491; 2997.075;  261.825;    0.000
361.545; 2947.075;  273.825;    0.000
361.599; 2938.075;  269.825;    0.000
361.652; 2998.075;  258.825;    0.000
361.706; 2913.075;  270.825;    0.000
361.760; 3001.075;  294.825;    0.000
361.813; 2934.075;  244.825;    0.000
361.867; 3018.075;  294.825;    0.000
361.921; 2898.075;  285.825;    0.000
361.974; 2987.075;  269.825;    0.000
362.028; 2885.075;  275.825;    0.000
362.082; 2934.075;  270.825;    0.000
362.135; 3022.075;  259.825;    0.000
362.189; 2908.075;  302.825;    0.000
362.242; 2982.075;  296.825;    0.000
362.296; 3053.075;  285.825;    0.000
362.350; 3040.075;  303.825;    0.000
362.403; 3020.075;  271.825;    0.000
362.457; 3095.075;  285.825;    0.000
362.510; 2952.075;  288.825;    0.000
362.564; 2979.075;  268.825;    0.000
362.617; 2981.075;  285.825;    0.000
362.671; 2915.075;  277.825;    0.000
362.724; 2880.075;  242.825;    0.000
362.778; 2979.075;  274.825;    0.000
362.831; 2914.075;  280.825;    0.000
362.885; 2995.075;  284.825;    0.000
362.938; 2822.075;  276.825;    0.000
362.992;  341.075;  289.825;    0.000
363.045;  262.075;  247.825;    0.000
363.099;  274.075;  260.825;    0.000
363.152;  268.075;  258.825;    0.000
363.205;  254.075;  286.825;    0.000
363.259;  245.075;  236.825;    0.000
363.312;  320.075;  297.825;    0.000
363.366;  288.075;  266.825;    0.000
363.419;  293.075;  309.825;    0.000
363.472;  310.075;  293.825;    0.000
363.526;  277.075;  270.825;    0.000
363.579;  295.075;  276.825;    0.000
363.632;  299.075;  279.825;    0.000
363.686;  265.075;  292.825;    0.000
363.739;  266.075;  248.825;    0.000
363.792;  295.075;  287.825;    0.000

