
Integration time [ms]:   1.000
Averaging Nr. [scans]: 1
Smoothing Nr. [pixels]: 0
Data measured with spectrometer [name]: NIR
Wave   ;Sample   ;Dark     ;Reference
[nm]   ;[counts] ;[counts] ;[counts] 

691.496;  -29.600;  163.125;    0.000
691.696;    7.400;  208.125;    0.000
691.896;  -54.600;  111.125;    0.000
692.096;    5.400;  178.125;    0.000
692.296;  -48.600;   93.125;    0.000
692.496;  -30.600;  161.125;    0.000
692.695;  -48.600;  135.125;    0.000
692.895;   -1.600;  179.125;    0.000
693.095;  -21.600;  158.125;    0.000
693.295;  -28.600;  168.125;    0.000
693.495;  -25.600;  170.125;    0.000
693.695;    5.400;  155.125;    0.000
693.894;   -4.600;  151.125;    0.000
694.094;  -40.600;  164.125;    0.000
694.294;  -42.600;  129.125;    0.000
694.494;  315.400;  170.125;    0.000
694.693; 3392.400;  137.125;    0.000
694.893; 3735.400;  163.125;    0.000
695.093; 3737.400;  121.125;    0.000
695.293; 3784.400;  144.125;    0.000
695.492; 3645.400;   88.125;    0.000
695.692; 3762.400;  148.125;    0.000
695.891; 3775.400;  125.125;    0.000
696.091; 3914.400;  184.125;    0.000
696.291; 3824.400;  153.125;    0.000
696.490; 3912.400;  131.125;    0.000
696.690; 3883.400;  123.125;    0.000
696.889; 3879.400;  180.125;    0.000
697.089; 3861.400;  147.125;    0.000
697.288; 3922.400;  164.125;    0.000
697.488; 3872.400;  133.125;    0.000
697.687; 3911.400;  153.125;    0.000
697.887; 3963.400;  119.125;    0.000
698.086; 3920.400;  143.125;    0.000
698.286; 3911.400;  125.125;    0.000
698.485; 3902.400;  120.125;    0.000
698.684; 4119.400;  116.125;    0.000
698.884; 3867.400;  131.125;    0.000
699.083; 3840.400;  115.125;    0.000
699.282; 4033.400;  144.125;    0.000
699.482; 3909.400;  109.125;    0.000
699.681; 3923.400;  115.125;    0.000
699.880; 4009.400;  125.125;    0.000
700.080; 3996.400;  139.125;    0.000
700.279; 4004.400;  111.125;    0.000
700.478; 4000.400;  146.125;    0.000
700.677; 3969.400;  131.125;    0.000
700.877; 4060.400;  156.125;    0.000
701.076; 4158.400;  153.125;    0.000
701.275; 4128.400;  123.125;    0.000
701.474; 4082.400;  150.125;    0.000
701.673; 3926.400;   97.125;    0.000
701.872; 4048.400;  139.125;    0.000
702.071; 4141.400;  108.125;    0.000
702.271; 4034.400;  125.125;    0.000
702.470; 4127.400;  108.125;    0.000
702.669; 4059.400;  102.125;    0.000
702.868; 4142.400;  153.125;    0.000
703.067; 4016.400;  145.125;    0.000
703.266; 4095.400;   96.125;    0.000
703.465; 4061.400;  165.125;    0.000
703.664; 4169.400;  106.125;    0.000
703.863; 4049.400;  144.125;    0.000
704.062; 4140.400;   86.125;    0.000
704.260; 4071.400;   99.125;    0.000
704.459; 4178.400;  112.125;    0.000
704.658; 4084.400;  106.125;    0.000
704.857; 4178.400;  129.125;    0.000
705.056; 4054.400;   98.125;    0.000
705.255; 4095.400;   97.125;    0.000
705.454; 4133.400;  101.125;    0.000
705.652; 4194.400;  142.125;    0.000
705.851; 4133.400;  100.125;    0.000
706.050; 4179.400;  162.125;    0.000
706.249; 4179.400;  146.125;    0.000
706.447; 4196.400;  120.125;    0.000
706.646; 4203.400;  114.125;    0.000
706.845; 4144.400;  117.125;    0.000
707.043; 4213.400;  136.125;    0.000
707.242; 4167.400;   90.125;    0.000
707.441; 4260.400;  131.125;    0.000
707.639; 4295.400;  120.125;    0.000
707.838; 4272.400;  122.125;    0.000
708.037; 4262.400;  109.125;    0.000
708.235; 4329.400;  122.125;    0.000
708.434; 4250.400;  109.125;    0.000
708.632; 4193.400;   47.125;    0.000
708.831; 4328.400;  122.125;    0.000
709.029; 4255.400;  130.125;    0.000
709.228; 4282.400;  112.125;    0.000
709.426; 4343.400;  128.125;    0.000
709.625; 4308.400;  129.125;    0.000
709.823; 4392.400;  130.125;    0.000
710.022; 4287.400;   90.125;    0.000
710.220; 4385.400;  131.125;    0.000
710.418; 4365.400;  133.125;    0.000
710.617; 4362.400;   82.125;    0.000
710.815; 4482.400;   90.125;    0.000
711.013; 4383.400;   86.125;    0.000
711.212; 4344.400;  117.125;    0.000
711.410; 4362.400;  106.125;    0.000
711.608; 4399.400;  138.125;    0.000
711.807; 4487.400;  116.125;    0.000
712.005; 4441.400;   82.125;    0.000
712.203; 4436.400;   90.125;    0.000
712.401; 4513.400;  124.125;    0.000
712.599; 4537.400;   64.125;    0.000
712.798; 4597.400;  113.125;    0.000
712.996; 4372.400;  100.125;    0.000
713.194; 4586.400;  130.125;    0.000
713.392; 4470.400;   89.125;    0.000
713.590; 4528.400;  105.125;    0.000
713.788; 4532.400;  100.125;    0.000
713.986; 4588.400;  117.125;    0.000
714.184; 4665.400;   72.125;    0.000
714.382; 4687.400;   88.125;    0.000
714.580; 4694.400;   88.125;    0.000
714.778; 4770.400;  129.125;    0.000
714.976; 4722.400;   90.125;    0.000
715.174; 4684.400;  119.125;    0.000
715.372; 4909.400;  117.125;    0.000
715.570; 5113.400;  101.125;    0.000
715.768; 5375.400;  122.125;    0.000
715.966; 5491.400;  114.125;    0.000
716.164; 5488.400;  135.125;    0.000
716.362; 5272.400;  126.125;    0.000
716.560; 5352.400;  126.125;    0.000
716.758; 5113.400;   98.125;    0.000
716.955; 5059.400;   76.125;    0.000
717.153; 5066.400;   45.125;    0.000
717.351; 5070.400;  106.125;    0.000
717.549; 4960.400;  108.125;    0.000
717.746; 5048.400;   66.125;    0.000
717.944; 4935.400;  127.125;    0.000
718.142; 5045.400;  148.125;    0.000
718.340; 4909.400;   94.125;    0.000
718.537; 4994.400;  107.125;    0.000
718.735; 5096.400;  130.125;    0.000
718.933; 4893.400;  111.125;    0.000
719.130; 5008.400;  107.125;    0.000
719.328; 5002.400;  128.125;    0.000
719.525; 4889.400;  141.125;    0.000
719.723; 4896.400;  122.125;    0.000
719.920; 4872.400;   85.125;    0.000
720.118; 4936.400;  115.125;    0.000
720.316; 5001.400;  153.125;    0.000
720.513; 4994.400;  120.125;    0.000
720.711; 4956.400;  134.125;    0.000
720.908; 5040.400;  126.125;    0.000
721.105; 5182.400;  119.125;    0.000
721.303; 4924.400;  112.125;    0.000
721.500; 5057.400;  125.125;    0.000
721.698; 4880.400;   94.125;    0.000
721.895; 4912.400;  118.125;    0.000
722.092; 5053.400;   77.125;    0.000
722.290; 5062.400;  135.125;    0.000
722.487; 4978.400;  154.125;    0.000
722.684; 4946.400;  122.125;    0.000
722.882; 4978.400;   90.125;    0.000
723.079; 4990.400;  132.125;    0.000
723.276; 4959.400;   95.125;    0.000
723.473; 4993.400;  106.125;    0.000
723.671; 4929.400;   80.125;    0.000
723.868; 5075.400;  112.125;    0.000
724.065; 5019.400;  107.125;    0.000
724.262; 5049.400;  119.125;    0.000
724.459; 5038.400;   80.125;    0.000
724.656; 5034.400;  109.125;    0.000
724.854; 4997.400;  107.125;    0.000
725.051; 5047.400;  103.125;    0.000
725.248; 4982.400;  101.125;    0.000
725.445; 5059.400;   93.125;    0.000
725.642; 5019.400;   92.125;    0.000
725.839; 5150.400;  157.125;    0.000
726.036; 4985.400;   71.125;    0.000
726.233; 5103.400;   80.125;    0.000
726.430; 5243.400;  146.125;    0.000
726.627; 5197.400;  103.125;    0.000
726.824; 5105.400;   46.125;    0.000
727.021; 5244.400;  149.125;    0.000
727.218; 5131.400;   87.125;    0.000
727.414; 5199.400;  112.125;    0.000
727.611; 5150.400;  111.125;    0.000
727.808; 5160.400;  122.125;    0.000
728.005; 5172.400;   58.125;    0.000
728.202; 5147.400;  129.125;    0.000
728.399; 5225.400;  111.125;    0.000
728.595; 5227.400;   93.125;    0.000
728.792; 5278.400;   78.125;    0.000
728.989; 5246.400;  104.125;    0.000
729.186; 5159.400;  110.125;    0.000
729.382; 5162.400;   93.125;    0.000
729.579; 5159.400;  102.125;    0.000
729.776; 5289.400;  112.125;    0.000
729.972; 5243.400;  101.125;    0.000
730.169; 5359.400;  150.125;    0.000
730.366; 5165.400;   92.125;    0.000
730.562; 5327.400;   74.125;    0.000
730.759; 5306.400;   97.125;    0.000
730.955; 5263.400;   86.125;    0.000
731.152; 5289.400;   88.125;    0.000
731.348; 5288.400;  117.125;    0.000
731.545; 5321.400;   62.125;    0.000
731.741; 5417.400;   84.125;    0.000
731.938; 5445.400;  108.125;    0.000
732.134; 5260.400;  115.125;    0.000
732.331; 5264.400;   88.125;    0.000
732.527; 5366.400;   96.125;    0.000
732.724; 5358.400;  103.125;    0.000
732.920; 5368.400;   93.125;    0.000
733.116; 5378.400;  109.125;    0.000
733.313; 5364.400;   77.125;    0.000
733.509; 5415.400;   81.125;    0.000
733.705; 5359.400;  141.125;    0.000
733.902; 5370.400;   88.125;    0.000
734.098; 5257.400;   56.125;    0.000
734.294; 5350.400;  122.125;    0.000
734.490; 5419.400;  102.125;    0.000
734.687; 5383.400;   70.125;    0.000
734.883; 5379.400;   73.125;    0.000
735.079; 5362.400;   65.125;    0.000
735.275; 5385.400;  112.125;    0.000
735.471; 5389.400;  124.125;    0.000
735.667; 5337.400;   94.125;    0.000
735.863; 5369.400;  106.125;    0.000
736.060; 5399.400;  106.125;    0.000
736.256; 5458.400;   95.125;    0.000
736.452; 5422.400;  103.125;    0.000
736.648; 5262.400;  106.125;    0.000
736.844; 5520.400;   98.125;    0.000
737.040; 5517.400;  118.125;    0.000
737.236; 5631.400;   95.125;    0.000
737.432; 5503.400;   59.125;    0.000
737.628; 5577.400;  120.125;    0.000
737.824; 5540.400;   78.125;    0.000
738.019; 5594.400;   98.125;    0.000
738.215; 5593.400;  127.125;    0.000
738.411; 5669.400;  111.125;    0.000
738.607; 5518.400;   69.125;    0.000
738.803; 5566.400;   40.125;    0.000
738.999; 5565.400;  128.125;    0.000
739.195; 5614.400;   81.125;    0.000
739.390; 5774.400;   97.125;    0.000
739.586; 5561.400;  100.125;    0.000
739.782; 5717.400;  135.125;    0.000
739.978; 5684.400;  121.125;    0.000
740.173; 5787.400;   92.125;    0.000
740.369; 5733.400;   92.125;    0.000
740.565; 5812.400;  119.125;    0.000
740.760; 5852.400;  139.125;    0.000
740.956; 5742.400;  134.125;    0.000
741.152; 5905.400;  107.125;    0.000
741.347; 5972.400;   63.125;    0.000
741.543; 5882.400;   99.125;    0.000
741.738; 6032.400;  119.125;    0.000
741.934; 6287.400;  156.125;    0.000
742.129; 6560.400;   87.125;    0.000
742.325; 7182.400;  143.125;    0.000
742.520; 7651.400;  109.125;    0.000
742.716; 7386.400;  135.125;    0.000
742.911; 7155.400;   77.125;    0.000
743.107; 6916.400;  117.125;    0.000
743.302; 6907.400;   93.125;    0.000
743.498; 6903.400;  118.125;    0.000
743.693; 6903.400;   95.125;    0.000
743.888; 7255.400;  122.125;    0.000
744.084; 8040.400;  104.125;    0.000
744.279; 9589.400;   94.125;    0.000
744.474; 9629.400;  138.125;    0.000
744.670; 8899.400;  113.125;    0.000
744.865; 8243.400;  116.125;    0.000
745.060; 7892.400;   89.125;    0.000
745.255; 7648.400;  144.125;    0.000
745.451; 7518.400;   98.125;    0.000
745.646; 7471.400;  110.125;    0.000
745.841; 7251.400;   87.125;    0.000
746.036; 7422.400;   98.125;    0.000
746.231; 7636.400;  153.125;    0.000
746.426; 7953.400;   90.125;    0.000
746.622; 8901.400;  154.125;    0.000
746.817;11095.400;  111.125;    0.000
747.012;12477.400;  110.125;    0.000
747.207;11242.400;   76.125;    0.000
747.402;10316.400;   94.125;    0.000
747.597; 9542.400;   68.125;    0.000
747.792; 9071.400;  125.125;    0.000
747.987; 8812.400;   92.125;    0.000
748.182; 8343.400;  113.125;    0.000
748.377; 8100.400;   72.125;    0.000
748.572; 8069.400;  135.125;    0.000
748.767; 7701.400;   98.125;    0.000
748.961; 7340.400;  123.125;    0.000
749.156; 7309.400;   96.125;    0.000
749.351; 7210.400;  121.125;    0.000
749.546; 6976.400;   95.125;    0.000
749.741; 7042.400;  144.125;    0.000
749.936; 6836.400;  105.125;    0.000
750.130; 6800.400;  101.125;    0.000
750.325; 6731.400;  126.125;    0.000
750.520; 6764.400;  113.125;    0.000
750.715; 6633.400;  135.125;    0.000
750.909; 6652.400;  138.125;    0.000
751.104; 6568.400;   96.125;    0.000
751.299; 6607.400;  118.125;    0.000
751.493; 6592.400;  124.125;    0.000
751.688; 6552.400;  131.125;    0.000
751.882; 6332.400;   96.125;    0.000
752.077; 6474.400;  123.125;    0.000
752.272; 6531.400;  112.125;    0.000
752.466; 6282.400;  143.125;    0.000
752.661; 6272.400;  107.125;    0.000
752.855; 6362.400;   97.125;    0.000
753.050; 6177.400;  125.125;    0.000
753.244; 6291.400;  161.125;    0.000
753.439; 6219.400;  101.125;    0.000
753.633; 6244.400;  129.125;    0.000
753.828; 6099.400;  114.125;    0.000
754.022; 6184.400;  118.125;    0.000
754.216; 6077.400;  126.125;    0.000
754.411; 6075.400;  148.125;    0.000
754.605; 6150.400;  100.125;    0.000
754.799; 6079.400;  146.125;    0.000
754.994; 6098.400;  116.125;    0.000
755.188; 6104.400;  146.125;    0.000
755.382; 5995.400;  103.125;    0.000
755.576; 6125.400;  119.125;    0.000
755.771; 6139.400;  100.125;    0.000
755.965; 6011.400;  129.125;    0.000
756.159; 5912.400;  100.125;    0.000
756.353; 5921.400;  153.125;    0.000
756.547; 6048.400;  113.125;    0.000
756.742; 6013.400;  129.125;    0.000
756.936; 6033.400;   70.125;    0.000
757.130; 6114.400;   91.125;    0.000
757.324; 6000.400;   92.125;    0.000
757.518; 5932.400;  128.125;    0.000
757.712; 6134.400;  146.125;    0.000
757.906; 5998.400;  114.125;    0.000
758.100; 6023.400;  153.125;    0.000
758.294; 6024.400;  133.125;    0.000
758.488; 6090.400;  149.125;    0.000
758.682; 6191.400;  132.125;    0.000
758.876; 5945.400;  128.125;    0.000
759.070; 6041.400;  178.125;    0.000
759.264; 6038.400;   98.125;    0.000
759.458; 5953.400;  168.125;    0.000
759.651; 5991.400;  131.125;    0.000
759.845; 5960.400;  133.125;    0.000
760.039; 6004.400;  120.125;    0.000
760.233; 6031.400;  116.125;    0.000
760.427; 5950.400;  121.125;    0.000
760.620; 6061.400;  163.125;    0.000
760.814; 5960.400;  106.125;    0.000
761.008; 5950.400;  119.125;    0.000
761.202; 6067.400;  121.125;    0.000
761.395; 6001.400;  136.125;    0.000
761.589; 5910.400;  111.125;    0.000
761.783; 6070.400;  116.125;    0.000
761.976; 6139.400;  139.125;    0.000
762.170; 6065.400;  140.125;    0.000
762.363; 6092.400;  115.125;    0.000
762.557; 5861.400;  129.125;    0.000
762.750; 6083.400;   85.125;    0.000
762.944; 6095.400;  107.125;    0.000
763.138; 6158.400;   99.125;    0.000
763.331; 6008.400;   97.125;    0.000
763.524; 5930.400;  100.125;    0.000
763.718; 6107.400;  130.125;    0.000
763.911; 6069.400;  127.125;    0.000
764.105; 6233.400;   69.125;    0.000
764.298; 6150.400;   94.125;    0.000
764.492; 6007.400;  129.125;    0.000
764.685; 6009.400;  114.125;    0.000
764.878; 6142.400;  145.125;    0.000
765.072; 6116.400;  124.125;    0.000
765.265; 6263.400;  124.125;    0.000
765.458; 6093.400;  108.125;    0.000
765.651; 6222.400;  132.125;    0.000
765.845; 6199.400;  106.125;    0.000
766.038; 6270.400;  155.125;    0.000
766.231; 6877.400;  153.125;    0.000
766.424;10344.400;  165.125;    0.000
766.617;10809.400;   85.125;    0.000
766.811; 6761.400;  140.125;    0.000
767.004; 6453.400;  151.125;    0.000
767.197; 6328.400;  178.125;    0.000
767.390; 6408.400;  112.125;    0.000
767.583; 6296.400;  134.125;    0.000
767.776; 6266.400;  101.125;    0.000
767.969; 6322.400;   99.125;    0.000
768.162; 6398.400;  152.125;    0.000
768.355; 6316.400;  115.125;    0.000
768.548; 6190.400;  154.125;    0.000
768.741; 6321.400;  124.125;    0.000
768.934; 6427.400;  129.125;    0.000
769.127; 6339.400;  137.125;    0.000
769.320; 6564.400;  115.125;    0.000
769.513; 6529.400;  144.125;    0.000
769.706; 7408.400;  107.125;    0.000
769.898;10217.400;  134.125;    0.000
770.091; 8259.400;  128.125;    0.000
770.284; 6664.400;   97.125;    0.000
770.477; 6788.400;  135.125;    0.000
770.670; 6668.400;  137.125;    0.000
770.862; 6712.400;  112.125;    0.000
771.055; 6831.400;  127.125;    0.000
771.248; 6746.400;  116.125;    0.000
771.441; 6838.400;  101.125;    0.000
771.633; 6914.400;  130.125;    0.000
771.826; 6794.400;  147.125;    0.000
772.018; 6845.400;  117.125;    0.000
772.211; 7053.400;  141.125;    0.000
772.404; 6969.400;  104.125;    0.000
772.596; 6969.400;  128.125;    0.000
772.789; 6991.400;  131.125;    0.000
772.981; 7184.400;  134.125;    0.000
773.174; 7388.400;  108.125;    0.000
773.366; 7418.400;  153.125;    0.000
773.559; 7402.400;  137.125;    0.000
773.751; 7497.400;  119.125;    0.000
773.944; 7552.400;  148.125;    0.000
774.136; 7762.400;  155.125;    0.000
774.329; 7813.400;  126.125;    0.000
774.521; 8059.400;  116.125;    0.000
774.713; 8310.400;  119.125;    0.000
774.906; 8608.400;  179.125;    0.000
775.098; 8787.400;  127.125;    0.000
775.290; 9160.400;  146.125;    0.000
775.483; 9549.400;  123.125;    0.000
775.675;10157.400;  119.125;    0.000
775.867;10694.400;  119.125;    0.000
776.059;11475.400;  137.125;    0.000
776.251;12572.400;  154.125;    0.000
776.444;14144.400;  101.125;    0.000
776.636;16360.400;  153.125;    0.000
776.828;19779.400;  127.125;    0.000
777.020;27157.400;  140.125;    0.000
777.212;38766.398;  160.125;    0.000
777.404;43310.398;  170.125;    0.000
777.596;40270.398;  136.125;    0.000
777.788;30985.400;  137.125;    0.000
777.980;24162.400;  129.125;    0.000
778.172;20165.400;  139.125;    0.000
778.364;17267.400;  124.125;    0.000
778.556;15607.400;  163.125;    0.000
778.748;13852.400;  142.125;    0.000
778.940;12815.400;  178.125;    0.000
779.132;11902.400;  159.125;    0.000
779.324;11091.400;  109.125;    0.000
779.516;10549.400;  143.125;    0.000
779.708; 9970.400;  158.125;    0.000
779.900; 9441.400;  142.125;    0.000
780.091; 9069.400;  131.125;    0.000
780.283; 9013.400;  176.125;    0.000
780.475; 8510.400;  151.125;    0.000
780.667; 8429.400;  120.125;    0.000
780.859; 8224.400;  134.125;    0.000
781.050; 7904.400;  183.125;    0.000
781.242; 7754.400;   95.125;    0.000
781.434; 7641.400;  127.125;    0.000
781.625; 7642.400;  163.125;    0.000
781.817; 7248.400;  170.125;    0.000
782.008; 7284.400;  123.125;    0.000
782.200; 7191.400;  141.125;    0.000
782.392; 7148.400;  149.125;    0.000
782.583; 7025.400;  155.125;    0.000
782.775; 6850.400;  140.125;    0.000
782.966; 6906.400;  167.125;    0.000
783.158; 6691.400;  164.125;    0.000
783.349; 6802.400;  174.125;    0.000
783.541; 6748.400;  141.125;    0.000
783.732; 6677.400;  115.125;    0.000
783.924; 6659.400;  135.125;    0.000
784.115; 6525.400;  157.125;    0.000
784.306; 6535.400;  102.125;    0.000
784.498; 6496.400;  124.125;    0.000
784.689; 6508.400;  171.125;    0.000
784.880; 6367.400;  165.125;    0.000
785.072; 6490.400;  152.125;    0.000
785.263; 6389.400;  146.125;    0.000
785.454; 6312.400;  145.125;    0.000
785.645; 6246.400;  127.125;    0.000
785.837; 6305.400;  138.125;    0.000
786.028; 6269.400;  151.125;    0.000
786.219; 6258.400;  142.125;    0.000
786.410; 6290.400;  140.125;    0.000
786.601; 6235.400;  137.125;    0.000
786.792; 6238.400;  158.125;    0.000
786.984; 6218.400;  139.125;    0.000
787.175; 6249.400;  140.125;    0.000
787.366; 6169.400;  145.125;    0.000
787.557; 6191.400;  156.125;    0.000
787.748; 6281.400;  148.125;    0.000
787.939; 6393.400;  157.125;    0.000
788.130; 6374.400;  179.125;    0.000
788.321; 6314.400;  142.125;    0.000
788.512; 6269.400;  167.125;    0.000
788.703; 6408.400;  145.125;    0.000
788.894; 6302.400;  132.125;    0.000
789.084; 6407.400;  113.125;    0.000
789.275; 6425.400;  134.125;    0.000
789.466; 6338.400;  151.125;    0.000
789.657; 6516.400;  138.125;    0.000
789.848; 6567.400;  145.125;    0.000
790.039; 6467.400;  130.125;    0.000
790.229; 6446.400;  140.125;    0.000
790.420; 6383.400;  135.125;    0.000
790.611; 6372.400;  156.125;    0.000
790.801; 6469.400;   64.125;    0.000
790.992; 6431.400;  150.125;    0.000
791.183; 6451.400;  177.125;    0.000
791.373; 6277.400;   91.125;    0.000
791.564; 6336.400;   85.125;    0.000
791.755; 6422.400;  125.125;    0.000
791.945; 6383.400;   94.125;    0.000
792.136; 6343.400;   98.125;    0.000
792.326; 6318.400;  105.125;    0.000
792.517; 6316.400;  136.125;    0.000
792.707; 6431.400;  140.125;    0.000
792.898; 6485.400;  164.125;    0.000
793.088; 6539.400;  116.125;    0.000
793.279; 6545.400;  112.125;    0.000
793.469; 6542.400;  105.125;    0.000
793.660; 6671.400;  161.125;    0.000
793.850; 6712.400;  133.125;    0.000
794.040; 6841.400;  121.125;    0.000
794.231; 7198.400;  115.125;    0.000
794.421; 7433.400;  152.125;    0.000
794.611; 8367.400;  132.125;    0.000
794.802; 9244.400;  144.125;    0.000
794.992; 9804.400;  142.125;    0.000
795.182; 9923.400;  179.125;    0.000
795.372; 9600.400;  167.125;    0.000
795.563; 8815.400;  149.125;    0.000
795.753; 8132.400;  117.125;    0.000
795.943; 7714.400;  146.125;    0.000
796.133; 7277.400;  119.125;    0.000
796.323; 7140.400;  141.125;    0.000
796.513; 6891.400;  134.125;    0.000
796.703; 6632.400;  116.125;    0.000
796.893; 6599.400;  120.125;    0.000
797.083; 6412.400;  131.125;    0.000
797.273; 6412.400;  118.125;    0.000
797.463; 6293.400;  130.125;    0.000
797.653; 6316.400;   87.125;    0.000
797.843; 6159.400;  123.125;    0.000
798.033; 5974.400;  115.125;    0.000
798.223; 5964.400;  142.125;    0.000
798.413; 6014.400;  148.125;    0.000
798.603; 5930.400;  147.125;    0.000
798.793; 5829.400;  107.125;    0.000
798.983; 5677.400;  121.125;    0.000
799.172; 5682.400;  120.125;    0.000
799.362; 5695.400;  145.125;    0.000
799.552; 5687.400;  101.125;    0.000
799.742; 5496.400;  149.125;    0.000
799.932; 5572.400;  104.125;    0.000
800.121; 5585.400;  175.125;    0.000
800.311; 5449.400;  132.125;    0.000
800.501; 5455.400;  118.125;    0.000
800.690; 5538.400;  162.125;    0.000
800.880; 5350.400;  141.125;    0.000
801.070; 5488.400;  151.125;    0.000
801.259; 5328.400;  167.125;    0.000
801.449; 5391.400;  108.125;    0.000
801.638; 5481.400;  176.125;    0.000
801.828; 5427.400;  118.125;    0.000
802.017; 5352.400;  179.125;    0.000
802.207; 5296.400;  127.125;    0.000
802.396; 5315.400;  167.125;    0.000
802.586; 5266.400;  129.125;    0.000
802.775; 5227.400;  142.125;    0.000
802.965; 5298.400;  147.125;    0.000
803.154; 5188.400;  179.125;    0.000
803.343; 5187.400;  117.125;    0.000
803.533; 5221.400;  120.125;    0.000
803.722; 5085.400;  122.125;    0.000
803.911; 5141.400;  155.125;    0.000
804.101; 5064.400;  147.125;    0.000
804.290; 5145.400;  160.125;    0.000
804.479; 5134.400;  139.125;    0.000
804.668; 5176.400;  180.125;    0.000
804.857; 5148.400;  131.125;    0.000
805.047; 5120.400;  119.125;    0.000
805.236; 5144.400;  139.125;    0.000
805.425; 5053.400;  163.125;    0.000
805.614; 5046.400;  103.125;    0.000
805.803; 5122.400;  133.125;    0.000
805.992; 5088.400;  147.125;    0.000
806.181; 5052.400;  109.125;    0.000
806.370; 5066.400;  133.125;    0.000
806.559; 5083.400;  119.125;    0.000
806.748; 5021.400;  144.125;    0.000
806.937; 5164.400;  147.125;    0.000
807.126; 5074.400;  134.125;    0.000
807.315; 5165.400;  132.125;    0.000
807.504; 4987.400;  141.125;    0.000
807.693; 5040.400;  145.125;    0.000
807.882; 5066.400;   91.125;    0.000
808.071; 5053.400;  116.125;    0.000
808.260; 4938.400;  105.125;    0.000
808.448; 5035.400;  184.125;    0.000
808.637; 5236.400;  146.125;    0.000
808.826; 5163.400;  153.125;    0.000
809.015; 5150.400;  113.125;    0.000
809.203; 5165.400;  166.125;    0.000
809.392; 5039.400;  117.125;    0.000
809.581; 5154.400;  186.125;    0.000
809.770; 5149.400;  122.125;    0.000
809.958; 5221.400;  140.125;    0.000
810.147; 5210.400;  130.125;    0.000
810.335; 5229.400;  112.125;    0.000
810.524; 5243.400;  106.125;    0.000
810.713; 5212.400;  154.125;    0.000
810.901; 5322.400;  131.125;    0.000
811.090; 5397.400;  164.125;    0.000
811.278; 5402.400;  159.125;    0.000
811.467; 5487.400;  194.125;    0.000
811.655; 5512.400;  164.125;    0.000
811.844; 5469.400;  149.125;    0.000
812.032; 5400.400;  169.125;    0.000
812.220; 5401.400;  163.125;    0.000
812.409; 5429.400;  134.125;    0.000
812.597; 5430.400;  165.125;    0.000
812.785; 5566.400;  180.125;    0.000
812.974; 5558.400;  166.125;    0.000
813.162; 5534.400;  171.125;    0.000
813.350; 5554.400;  142.125;    0.000
813.539; 5495.400;  126.125;    0.000
813.727; 5651.400;  153.125;    0.000
813.915; 5739.400;  138.125;    0.000
814.103; 5621.400;  191.125;    0.000
814.291; 5691.400;  142.125;    0.000
814.479; 5675.400;  156.125;    0.000
814.668; 5757.400;  152.125;    0.000
814.856; 6041.400;  150.125;    0.000
815.044; 5900.400;  165.125;    0.000
815.232; 6113.400;  172.125;    0.000
815.420; 6125.400;  147.125;    0.000
815.608; 6250.400;  143.125;    0.000
815.796; 6086.400;  126.125;    0.000
815.984; 6260.400;  152.125;    0.000
816.172; 6540.400;  129.125;    0.000
816.360; 6642.400;  177.125;    0.000
816.548; 6815.400;  141.125;    0.000
816.736; 7065.400;  142.125;    0.000
816.924; 7472.400;  161.125;    0.000
817.111; 7652.400;  138.125;    0.000
817.299; 8007.400;  112.125;    0.000
817.487; 8567.400;  180.125;    0.000
817.675; 9274.400;  138.125;    0.000
817.863;10630.400;  172.125;    0.000
818.050;14082.400;  142.125;    0.000
818.238;25141.400;  151.125;    0.000
818.426;35715.398;  129.125;    0.000
818.613;25283.400;  124.125;    0.000
818.801;20515.400;  209.125;    0.000
818.989;19745.400;  178.125;    0.000
819.176;20972.400;  155.125;    0.000
819.364;30799.400;  174.125;    0.000
819.552;44463.398;  131.125;    0.000
819.739;31969.400;  184.125;    0.000
819.927;22584.400;  132.125;    0.000
820.114;18870.400;  173.125;    0.000
820.302;16549.400;  140.125;    0.000
820.489;15039.400;  133.125;    0.000
820.677;14256.400;  167.125;    0.000
820.864;13562.400;  161.125;    0.000
821.052;13757.400;  134.125;    0.000
821.239;14180.400;  149.125;    0.000
821.426;14565.400;  160.125;    0.000
821.614;16832.400;  143.125;    0.000
821.801;18085.400;  118.125;    0.000
821.988;16218.400;  154.125;    0.000
822.176;15258.400;  112.125;    0.000
822.363;15380.400;  131.125;    0.000
822.550;14418.400;  131.125;    0.000
822.737;13030.400;  104.125;    0.000
822.924;11933.400;  160.125;    0.000
823.112;11301.400;  161.125;    0.000
823.299;10700.400;  169.125;    0.000
823.486;10295.400;  129.125;    0.000
823.673; 9889.400;  135.125;    0.000
823.860; 9650.400;  169.125;    0.000
824.047; 9588.400;  124.125;    0.000
824.234;10662.400;  160.125;    0.000
824.421;10779.400;  114.125;    0.000
824.608; 9656.400;  191.125;    0.000
824.795; 8961.400;  160.125;    0.000
824.982; 8320.400;  139.125;    0.000
825.169; 7845.400;  121.125;    0.000
825.356; 7555.400;  148.125;    0.000
825.543; 7308.400;  167.125;    0.000
825.730; 7030.400;  103.125;    0.000
825.917; 6734.400;  113.125;    0.000
826.104; 6592.400;  188.125;    0.000
826.290; 6353.400;  193.125;    0.000
826.477; 6250.400;  175.125;    0.000
826.664; 6155.400;  151.125;    0.000
826.851; 6071.400;  122.125;    0.000
827.038; 5902.400;  121.125;    0.000
827.224; 5740.400;  124.125;    0.000
827.411; 5717.400;  155.125;    0.000
827.598; 5641.400;  127.125;    0.000
827.784; 5471.400;  140.125;    0.000
827.971; 5409.400;  114.125;    0.000
828.157; 5408.400;  135.125;    0.000
828.344; 5316.400;  173.125;    0.000
828.531; 5242.400;  113.125;    0.000
828.717; 5207.400;  137.125;    0.000
828.904; 5060.400;  158.125;    0.000
829.090; 5108.400;  199.125;    0.000
829.277; 4970.400;  156.125;    0.000
829.463; 4849.400;  154.125;    0.000
829.650; 4915.400;  174.125;    0.000
829.836; 4796.400;  136.125;    0.000
830.022; 4954.400;  143.125;    0.000
830.209; 4807.400;  157.125;    0.000
830.395; 4704.400;  156.125;    0.000
830.581; 4527.400;  148.125;    0.000
830.768; 4560.400;  169.125;    0.000
830.954; 4609.400;  169.125;    0.000
831.140; 4587.400;  124.125;    0.000
831.327; 4648.400;  157.125;    0.000
831.513; 4441.400;  163.125;    0.000
831.699; 4588.400;  176.125;    0.000
831.885; 4460.400;  154.125;    0.000
832.071; 4395.400;  159.125;    0.000
832.257; 4378.400;  142.125;    0.000
832.444; 4308.400;  159.125;    0.000
832.630; 4304.400;  129.125;    0.000
832.816; 4164.400;  132.125;    0.000
833.002; 4275.400;  125.125;    0.000
833.188; 4209.400;  144.125;    0.000
833.374; 4186.400;  131.125;    0.000
833.560; 4238.400;  154.125;    0.000
833.746; 4244.400;  171.125;    0.000
833.932; 4057.400;  162.125;    0.000
834.118; 4124.400;  131.125;    0.000
834.303; 4019.400;  113.125;    0.000
834.489; 4103.400;  170.125;    0.000
834.675; 4138.400;  177.125;    0.000
834.861; 3976.400;  154.125;    0.000
835.047; 4126.400;  171.125;    0.000
835.233; 3991.400;   98.125;    0.000
835.418; 4119.400;  138.125;    0.000
835.604; 3967.400;  140.125;    0.000
835.790; 3992.400;  130.125;    0.000
835.976; 3895.400;  129.125;    0.000
836.161; 3933.400;  142.125;    0.000
836.347; 3913.400;  128.125;    0.000
836.533; 3875.400;  143.125;    0.000
836.718; 3908.400;  164.125;    0.000
836.904; 3981.400;  172.125;    0.000
837.089; 3848.400;  152.125;    0.000
837.275; 3898.400;  143.125;    0.000
837.460; 4005.400;  125.125;    0.000
837.646; 3902.400;  137.125;    0.000
837.831; 4018.400;  153.125;    0.000
838.017; 4032.400;  171.125;    0.000
838.202; 3837.400;  111.125;    0.000
838.388; 3868.400;  140.125;    0.000
838.573; 3865.400;  158.125;    0.000
838.759; 3937.400;  188.125;    0.000
838.944; 3844.400;  125.125;    0.000
839.129; 3802.400;  123.125;    0.000
839.315; 3890.400;  181.125;    0.000
839.500; 3880.400;  150.125;    0.000
839.685; 3830.400;  109.125;    0.000
839.870; 3880.400;  202.125;    0.000
840.056; 3923.400;  101.125;    0.000
840.241; 3945.400;  184.125;    0.000
840.426; 3938.400;  192.125;    0.000
840.611; 3855.400;  180.125;    0.000
840.796; 3902.400;  156.125;    0.000
840.981; 3907.400;  142.125;    0.000
841.166; 3968.400;  161.125;    0.000
841.352; 4001.400;  185.125;    0.000
841.537; 4131.400;  139.125;    0.000
841.722; 3953.400;  143.125;    0.000
841.907; 4167.400;  140.125;    0.000
842.092; 4210.400;  176.125;    0.000
842.277; 4208.400;  136.125;    0.000
842.461; 4253.400;  155.125;    0.000
842.646; 4366.400;  163.125;    0.000
842.831; 4407.400;  153.125;    0.000
843.016; 4407.400;  187.125;    0.000
843.201; 4656.400;  179.125;    0.000
843.386; 4812.400;  167.125;    0.000
843.571; 4919.400;  129.125;    0.000
843.755; 5155.400;  136.125;    0.000
843.940; 5565.400;  121.125;    0.000
844.125; 6288.400;  157.125;    0.000
844.310; 7280.400;  175.125;    0.000
844.494; 9057.400;  164.125;    0.000
844.679;12235.400;  167.125;    0.000
844.864;12192.400;  166.125;    0.000
845.048;10106.400;  132.125;    0.000
845.233; 8612.400;  175.125;    0.000
845.418; 7620.400;  159.125;    0.000
845.602; 6795.400;  147.125;    0.000
845.787; 6042.400;  132.125;    0.000
845.971; 5801.400;  187.125;    0.000
846.156; 5294.400;  141.125;    0.000
846.340; 5262.400;  153.125;    0.000
846.525; 4949.400;  157.125;    0.000
846.709; 4819.400;  117.125;    0.000
846.893; 4652.400;  147.125;    0.000
847.078; 4441.400;  170.125;    0.000
847.262; 4281.400;  150.125;    0.000
847.447; 4192.400;  132.125;    0.000
847.631; 4179.400;  144.125;    0.000
847.815; 4116.400;  157.125;    0.000
848.000; 4058.400;  164.125;    0.000
848.184; 3984.400;  174.125;    0.000
848.368; 3932.400;  149.125;    0.000
848.552; 3823.400;  143.125;    0.000
848.736; 3800.400;  132.125;    0.000
848.921; 3751.400;  147.125;    0.000
849.105; 3644.400;  150.125;    0.000
849.289; 3592.400;  146.125;    0.000
849.473; 3623.400;  167.125;    0.000
849.657; 3554.400;  149.125;    0.000
849.841; 3589.400;  181.125;    0.000
850.025; 3566.400;  154.125;    0.000
850.209; 3506.400;  152.125;    0.000
850.393; 3459.400;  139.125;    0.000
850.577; 3435.400;  128.125;    0.000
850.761; 3430.400;  194.125;    0.000
850.945; 3473.400;  152.125;    0.000
851.129; 3511.400;  157.125;    0.000
851.313; 3413.400;  181.125;    0.000
851.497; 3395.400;  145.125;    0.000
851.680; 3405.400;  168.125;    0.000
851.864; 3438.400;  185.125;    0.000
852.048; 3449.400;  170.125;    0.000
852.232; 3412.400;  192.125;    0.000
852.416; 3387.400;  182.125;    0.000
852.599; 3382.400;  169.125;    0.000
852.783; 3415.400;  168.125;    0.000
852.967; 3420.400;  184.125;    0.000
853.150; 3300.400;  163.125;    0.000
853.334; 3291.400;  164.125;    0.000
853.518; 3371.400;  190.125;    0.000
853.701; 3273.400;  137.125;    0.000
853.885; 3250.400;  177.125;    0.000
854.068; 3266.400;  163.125;    0.000
854.252; 3307.400;  139.125;    0.000
854.435; 3357.400;  152.125;    0.000
854.619; 3218.400;  148.125;    0.000
854.802; 3259.400;  168.125;    0.000
854.986; 3317.400;  157.125;    0.000
855.169; 3195.400;  147.125;    0.000
855.353; 3248.400;  173.125;    0.000
855.536; 3249.400;  127.125;    0.000
855.719; 3365.400;  191.125;    0.000
855.903; 3288.400;  186.125;    0.000
856.086; 3329.400;  145.125;    0.000
856.269; 3330.400;  130.125;    0.000
856.452; 3426.400;  153.125;    0.000
856.636; 3496.400;  129.125;    0.000
856.819; 3756.400;  134.125;    0.000
857.002; 3772.400;  152.125;    0.000
857.185; 3625.400;  140.125;    0.000
857.368; 3607.400;  170.125;    0.000
857.552; 3624.400;  132.125;    0.000
857.735; 3466.400;  160.125;    0.000
857.918; 3386.400;  139.125;    0.000
858.101; 3470.400;  159.125;    0.000
858.284; 3445.400;  136.125;    0.000
858.467; 3588.400;  147.125;    0.000
858.650; 3603.400;  153.125;    0.000
858.833; 3555.400;  113.125;    0.000
859.016; 3639.400;  167.125;    0.000
859.199; 3810.400;  141.125;    0.000
859.382; 4136.400;  155.125;    0.000
859.564; 4459.400;  136.125;    0.000
859.747; 4337.400;  142.125;    0.000
859.930; 4091.400;  141.125;    0.000
860.113; 3955.400;  156.125;    0.000
860.296; 3944.400;  167.125;    0.000
860.478; 3797.400;  121.125;    0.000
860.661; 3830.400;  230.125;    0.000
860.844; 3769.400;  186.125;    0.000
861.027; 3757.400;  155.125;    0.000
861.209; 3742.400;  151.125;    0.000
861.392; 3828.400;  162.125;    0.000
861.575; 3843.400;  150.125;    0.000
861.757; 3732.400;  162.125;    0.000
861.940; 3822.400;  207.125;    0.000
862.122; 3837.400;  113.125;    0.000
862.305; 3920.400;  114.125;    0.000
862.487; 4233.400;  162.125;    0.000
862.670; 4398.400;  148.125;    0.000
862.852; 5057.400;  131.125;    0.000
863.035; 6012.400;  174.125;    0.000
863.217; 5914.400;  170.125;    0.000
863.400; 5372.400;  148.125;    0.000
863.582; 5047.400;  129.125;    0.000
863.764; 4876.400;  181.125;    0.000
863.947; 4552.400;  152.125;    0.000
864.129; 4591.400;  178.125;    0.000
864.311; 4358.400;  139.125;    0.000
864.493; 4289.400;  166.125;    0.000
864.676; 4394.400;  148.125;    0.000
864.858; 4286.400;  123.125;    0.000
865.040; 4339.400;  180.125;    0.000
865.222; 4211.400;  131.125;    0.000
865.404; 4302.400;  146.125;    0.000
865.587; 4485.400;  175.125;    0.000
865.769; 4665.400;  183.125;    0.000
865.951; 4753.400;  171.125;    0.000
866.133; 4665.400;  165.125;    0.000
866.315; 4559.400;  138.125;    0.000
866.497; 4672.400;  139.125;    0.000
866.679; 4984.400;  167.125;    0.000
866.861; 5046.400;  151.125;    0.000
867.043; 5158.400;  190.125;    0.000
867.225; 5571.400;  140.125;    0.000
867.407; 6002.400;  125.125;    0.000
867.589; 6692.400;  141.125;    0.000
867.770; 8005.400;  149.125;    0.000
867.952;10763.400;  138.125;    0.000
868.134;14015.400;  153.125;    0.000
868.316;14181.400;  148.125;    0.000
868.498;13518.400;  180.125;    0.000
868.679;11854.400;  152.125;    0.000
868.861;10183.400;  174.125;    0.000
869.043; 8493.400;  152.125;    0.000
869.224; 7514.400;  177.125;    0.000
869.406; 6887.400;  171.125;    0.000
869.588; 6489.400;  177.125;    0.000
869.769; 6157.400;  174.125;    0.000
869.951; 5972.400;  167.125;    0.000
870.132; 6035.400;  144.125;    0.000
870.314; 6469.400;  143.125;    0.000
870.495; 6730.400;  162.125;    0.000
870.677; 6194.400;  136.125;    0.000
870.858; 6094.400;  155.125;    0.000
871.040; 6281.400;  179.125;    0.000
871.221; 6976.400;  177.125;    0.000
871.403; 6735.400;  180.125;    0.000
871.584; 6221.400;  157.125;    0.000
871.765; 6305.400;  183.125;    0.000
871.947; 6486.400;  169.125;    0.000
872.128; 6056.400;  162.125;    0.000
872.309; 5475.400;  159.125;    0.000
872.491; 4922.400;  148.125;    0.000
872.672; 4670.400;  163.125;    0.000
872.853; 4653.400;  152.125;    0.000
873.034; 4328.400;  166.125;    0.000
873.215; 4187.400;  155.125;    0.000
873.396; 3995.400;  147.125;    0.000
873.578; 3887.400;  147.125;    0.000
873.759; 3772.400;  153.125;    0.000
873.940; 3592.400;  194.125;    0.000
874.121; 3629.400;  179.125;    0.000
874.302; 3523.400;  155.125;    0.000
874.483; 3357.400;  131.125;    0.000
874.664; 3450.400;  106.125;    0.000
874.845; 3464.400;  122.125;    0.000
875.026; 3336.400;  127.125;    0.000
875.207; 3349.400;  151.125;    0.000
875.388; 3210.400;  149.125;    0.000
875.568; 3219.400;  164.125;    0.000
875.749; 3198.400;  176.125;    0.000
875.930; 3198.400;  207.125;    0.000
876.111; 3198.400;  177.125;    0.000
876.292; 3101.400;  178.125;    0.000
876.472; 3019.400;  163.125;    0.000
876.653; 3101.400;  159.125;    0.000
876.834; 3041.400;  177.125;    0.000
877.015; 2969.400;  212.125;    0.000
877.195; 2982.400;  166.125;    0.000
877.376; 2901.400;  157.125;    0.000
877.556; 2860.400;  175.125;    0.000
877.737; 2900.400;  220.125;    0.000
877.918; 2964.400;  163.125;    0.000
878.098; 2853.400;  166.125;    0.000
878.279; 2784.400;  136.125;    0.000
878.459; 2866.400;  167.125;    0.000
878.640; 2856.400;  167.125;    0.000
878.820; 2808.400;  155.125;    0.000
879.000; 2818.400;  158.125;    0.000
879.181; 2740.400;  155.125;    0.000
879.361; 2877.400;  181.125;    0.000
879.542; 2748.400;  181.125;    0.000
879.722; 2792.400;  117.125;    0.000
879.902; 2855.400;  180.125;    0.000
880.083; 2886.400;  139.125;    0.000
880.263; 2944.400;  168.125;    0.000
880.443; 3194.400;  206.125;    0.000
880.623; 3768.400;  132.125;    0.000
880.803; 4347.400;  149.125;    0.000
880.984; 3625.400;  189.125;    0.000
881.164; 3264.400;  171.125;    0.000
881.344; 3215.400;  150.125;    0.000
881.524; 3134.400;  185.125;    0.000
881.704; 3073.400;  152.125;    0.000
881.884; 3094.400;  188.125;    0.000
882.064; 3374.400;  155.125;    0.000
882.244; 3255.400;  182.125;    0.000
882.424; 3133.400;  154.125;    0.000
882.604; 3058.400;  175.125;    0.000
882.784; 2955.400;  137.125;    0.000
882.964; 2839.400;  135.125;    0.000
883.144; 2835.400;  142.125;    0.000
883.324; 2862.400;  192.125;    0.000
883.504; 2789.400;  193.125;    0.000
883.683; 2651.400;  208.125;    0.000
883.863; 2781.400;  127.125;    0.000
884.043; 2721.400;  140.125;    0.000
884.223; 2695.400;  167.125;    0.000
884.402; 2582.400;  156.125;    0.000
884.582; 2649.400;  185.125;    0.000
884.762; 2600.400;  187.125;    0.000
884.941; 2660.400;  201.125;    0.000
885.121; 2663.400;  157.125;    0.000
885.301; 2607.400;  173.125;    0.000
885.480; 2624.400;  158.125;    0.000
885.660; 2590.400;  153.125;    0.000
885.839; 2638.400;  144.125;    0.000
886.019; 2559.400;  184.125;    0.000
886.198; 2573.400;  132.125;    0.000
886.378; 2480.400;  124.125;    0.000
886.557; 2547.400;  146.125;    0.000
886.737; 2567.400;  157.125;    0.000
886.916; 2481.400;  203.125;    0.000
887.095; 2502.400;  151.125;    0.000
887.275; 2534.400;  143.125;    0.000
887.454; 2453.400;  140.125;    0.000
887.633; 2439.400;  196.125;    0.000
887.813; 2492.400;  161.125;    0.000
887.992; 2567.400;  183.125;    0.000
888.171; 2535.400;  153.125;    0.000
888.350; 2432.400;  185.125;    0.000
888.530; 2479.400;  163.125;    0.000
888.709; 2504.400;  174.125;    0.000
888.888; 2529.400;  179.125;    0.000
889.067; 2525.400;  178.125;    0.000
889.246; 2460.400;  184.125;    0.000
889.425; 2423.400;  169.125;    0.000
889.604; 2490.400;  210.125;    0.000
889.783; 2486.400;  183.125;    0.000
889.962; 2436.400;  116.125;    0.000
890.141; 2432.400;  179.125;    0.000
890.320; 2477.400;  182.125;    0.000
890.499; 2495.400;  188.125;    0.000
890.678; 2429.400;  167.125;    0.000
890.857; 2422.400;  141.125;    0.000
891.036; 2406.400;  179.125;    0.000
891.214; 2430.400;  156.125;    0.000
891.393; 2407.400;  209.125;    0.000
891.572; 2414.400;  181.125;    0.000
891.751; 2405.400;  172.125;    0.000
891.930; 2413.400;  169.125;    0.000
892.108; 2459.400;  131.125;    0.000
892.287; 2427.400;  162.125;    0.000
892.466; 2439.400;  178.125;    0.000
892.644; 2400.400;  161.125;    0.000
892.823; 2346.400;  180.125;    0.000
893.001; 2433.400;  179.125;    0.000
893.180; 2391.400;  152.125;    0.000
893.359; 2413.400;  184.125;    0.000
893.537; 2404.400;  178.125;    0.000
893.716; 2341.400;  169.125;    0.000
893.894; 2356.400;  159.125;    0.000
894.073; 2477.400;  179.125;    0.000
894.251; 2404.400;  167.125;    0.000
894.429; 2412.400;  142.125;    0.000
894.608; 2362.400;  166.125;    0.000
894.786; 2388.400;  153.125;    0.000
894.964; 2370.400;  181.125;    0.000
895.143; 2308.400;  161.125;    0.000
895.321; 2310.400;  198.125;    0.000
895.499; 2447.400;  184.125;    0.000
895.677; 2432.400;  178.125;    0.000
895.856; 2485.400;  226.125;    0.000
896.034; 2354.400;  180.125;    0.000
896.212; 2477.400;  200.125;    0.000
896.390; 2445.400;  161.125;    0.000
896.568; 2448.400;  204.125;    0.000
896.746; 2442.400;  136.125;    0.000
896.924; 2373.400;  171.125;    0.000
897.102; 2476.400;  203.125;    0.000
897.280; 2332.400;  142.125;    0.000
897.458; 2410.400;  159.125;    0.000
897.636; 2437.400;  163.125;    0.000
897.814; 2378.400;  137.125;    0.000
897.992; 2434.400;  199.125;    0.000
898.170; 2422.400;  176.125;    0.000
898.348; 2471.400;  195.125;    0.000
898.526; 2468.400;  199.125;    0.000
898.704; 2479.400;  260.125;    0.000
898.882; 2517.400;  185.125;    0.000
899.059; 2497.400;  169.125;    0.000
899.237; 2453.400;  197.125;    0.000
899.415; 2474.400;  207.125;    0.000
899.593; 2515.400;  169.125;    0.000
899.770; 2500.400;  182.125;    0.000
899.948; 2486.400;  198.125;    0.000
900.125; 2562.400;  200.125;    0.000
900.303; 2507.400;  165.125;    0.000
900.481; 2481.400;  182.125;    0.000
900.658; 2544.400;  206.125;    0.000
900.836; 2599.400;  188.125;    0.000
901.013; 2631.400;  169.125;    0.000
901.191; 2593.400;  172.125;    0.000
901.368; 2636.400;  170.125;    0.000
901.546; 2670.400;  234.125;    0.000
901.723; 2681.400;  173.125;    0.000
901.901; 2615.400;  190.125;    0.000
902.078; 2784.400;  145.125;    0.000
902.255; 2766.400;  204.125;    0.000
902.433; 2833.400;  198.125;    0.000
902.610; 2754.400;  190.125;    0.000
902.787; 2813.400;  204.125;    0.000
902.964; 2874.400;  208.125;    0.000
903.142; 2977.400;  187.125;    0.000
903.319; 2980.400;  216.125;    0.000
903.496; 2957.400;  186.125;    0.000
903.673; 2982.400;  201.125;    0.000
903.850; 3083.400;  195.125;    0.000
904.027; 3298.400;  211.125;    0.000
904.204; 3360.400;  197.125;    0.000
904.381; 3528.400;  198.125;    0.000
904.558; 3949.400;  188.125;    0.000
904.735; 4403.400;  207.125;    0.000
904.912; 4473.400;  217.125;    0.000
905.089; 4526.400;  188.125;    0.000
905.266; 4148.400;  160.125;    0.000
905.443; 3962.400;  221.125;    0.000
905.620; 3811.400;  163.125;    0.000
905.797; 3548.400;  186.125;    0.000
905.974; 3513.400;  205.125;    0.000
906.151; 3412.400;  159.125;    0.000
906.327; 3453.400;  206.125;    0.000
906.504; 3413.400;  201.125;    0.000
906.681; 3280.400;  202.125;    0.000
906.858; 3192.400;  188.125;    0.000
907.034; 3096.400;  207.125;    0.000
907.211; 3018.400;  182.125;    0.000
907.388; 3040.400;  184.125;    0.000
907.564; 3040.400;  148.125;    0.000
907.741; 2932.400;  181.125;    0.000
907.917; 2948.400;  191.125;    0.000
908.094; 2869.400;  210.125;    0.000
908.271; 2772.400;  171.125;    0.000
908.447; 2792.400;  241.125;    0.000
908.623; 2808.400;  188.125;    0.000
908.800; 2702.400;  205.125;    0.000
908.976; 2716.400;  210.125;    0.000
909.153; 2680.400;  193.125;    0.000
909.329; 2724.400;  206.125;    0.000
909.505; 2626.400;  181.125;    0.000
909.682; 2635.400;  192.125;    0.000
909.858; 2536.400;  134.125;    0.000
910.034; 2580.400;  214.125;    0.000
910.211; 2534.400;  182.125;    0.000
910.387; 2591.400;  194.125;    0.000
910.563; 2503.400;  199.125;    0.000
910.739; 2606.400;  188.125;    0.000
910.915; 2542.400;  192.125;    0.000
911.091; 2633.400;  198.125;    0.000
911.268; 2539.400;  178.125;    0.000
911.444; 2559.400;  201.125;    0.000
911.620; 2501.400;  181.125;    0.000
911.796; 2503.400;  185.125;    0.000
911.972; 2542.400;  176.125;    0.000
912.148; 2483.400;  196.125;    0.000
912.324; 2591.400;  192.125;    0.000
912.500; 2690.400;  204.125;    0.000
912.676; 2493.400;  164.125;    0.000
912.851; 2579.400;  193.125;    0.000
913.027; 2571.400;  175.125;    0.000
913.203; 2513.400;  193.125;    0.000
913.379; 2521.400;  213.125;    0.000
913.555; 2524.400;  211.125;    0.000
913.730; 2483.400;  194.125;    0.000
913.906; 2445.400;  153.125;    0.000
914.082; 2462.400;  212.125;    0.000
914.258; 2460.400;  194.125;    0.000
914.433; 2480.400;  191.125;    0.000
914.609; 2515.400;  208.125;    0.000
914.784; 2438.400;  176.125;    0.000
914.960; 2473.400;  227.125;    0.000
915.136; 2430.400;  152.125;    0.000
915.311; 2482.400;  171.125;    0.000
915.487; 2531.400;  173.125;    0.000
915.662; 2587.400;  189.125;    0.000
915.838; 2590.400;  179.125;    0.000
916.013; 2637.400;  191.125;    0.000
916.189; 2551.400;  207.125;    0.000
916.364; 2487.400;  194.125;    0.000
916.539; 2549.400;  174.125;    0.000
916.715; 2535.400;  207.125;    0.000
916.890; 2614.400;  193.125;    0.000
917.065; 2495.400;  199.125;    0.000
917.240; 2505.400;  214.125;    0.000
917.416; 2600.400;  194.125;    0.000
917.591; 2553.400;  213.125;    0.000
917.766; 2583.400;  194.125;    0.000
917.941; 2573.400;  201.125;    0.000
918.116; 2556.400;  198.125;    0.000
918.292; 2642.400;  176.125;    0.000
918.467; 2626.400;  190.125;    0.000
918.642; 2621.400;  200.125;    0.000
918.817; 2574.400;  186.125;    0.000
918.992; 2458.400;  174.125;    0.000
919.167; 2643.400;  197.125;    0.000
919.342; 2605.400;  188.125;    0.000
919.517; 2686.400;  179.125;    0.000
919.692; 2655.400;  182.125;    0.000
919.867; 2729.400;  216.125;    0.000
920.041; 2739.400;  208.125;    0.000
920.216; 2738.400;  223.125;    0.000
920.391; 2683.400;  203.125;    0.000
920.566; 2891.400;  202.125;    0.000
920.741; 2890.400;  197.125;    0.000
920.915; 2961.400;  223.125;    0.000
921.090; 3137.400;  183.125;    0.000
921.265; 3581.400;  169.125;    0.000
921.439; 3941.400;  212.125;    0.000
921.614; 3577.400;  190.125;    0.000
921.789; 3466.400;  177.125;    0.000
921.963; 3330.400;  233.125;    0.000
922.138; 3214.400;  156.125;    0.000
922.312; 3148.400;  193.125;    0.000
922.487; 3134.400;  208.125;    0.000
922.661; 3151.400;  212.125;    0.000
922.836; 3363.400;  210.125;    0.000
923.010; 3453.400;  183.125;    0.000
923.185; 3316.400;  228.125;    0.000
923.359; 3243.400;  227.125;    0.000
923.534; 3263.400;  189.125;    0.000
923.708; 3375.400;  210.125;    0.000
923.882; 3402.400;  217.125;    0.000
924.057; 3398.400;  195.125;    0.000
924.231; 3257.400;  201.125;    0.000
924.405; 3231.400;  188.125;    0.000
924.579; 3099.400;  188.125;    0.000
924.753; 2961.400;  174.125;    0.000
924.928; 2997.400;  179.125;    0.000
925.102; 2948.400;  186.125;    0.000
925.276; 3003.400;  201.125;    0.000
925.450; 3039.400;  211.125;    0.000
925.624; 3140.400;  238.125;    0.000
925.798; 3128.400;  191.125;    0.000
925.972; 3248.400;  192.125;    0.000
926.146; 3377.400;  198.125;    0.000
926.320; 3619.400;  151.125;    0.000
926.494; 3858.400;  202.125;    0.000
926.668; 3896.400;  197.125;    0.000
926.842; 4208.400;  177.125;    0.000
927.016; 4112.400;  202.125;    0.000
927.190; 4047.400;  207.125;    0.000
927.363; 3977.400;  180.125;    0.000
927.537; 3892.400;  212.125;    0.000
927.711; 3810.400;  148.125;    0.000
927.885; 3650.400;  196.125;    0.000
928.058; 3605.400;  173.125;    0.000
928.232; 3546.400;  219.125;    0.000
928.406; 3562.400;  141.125;    0.000
928.579; 3507.400;  157.125;    0.000
928.753; 3309.400;  205.125;    0.000
928.927; 3368.400;  196.125;    0.000
929.100; 3289.400;  237.125;    0.000
929.274; 3137.400;  166.125;    0.000
929.447; 3135.400;  150.125;    0.000
929.621; 3136.400;  188.125;    0.000
929.794; 3100.400;  169.125;    0.000
929.968; 3014.400;  194.125;    0.000
930.141; 2980.400;  226.125;    0.000
930.315; 2977.400;  196.125;    0.000
930.488; 2938.400;  233.125;    0.000
930.661; 2864.400;  188.125;    0.000
930.835; 2901.400;  170.125;    0.000
931.008; 2796.400;  176.125;    0.000
931.181; 2834.400;  175.125;    0.000
931.354; 2711.400;  212.125;    0.000
931.528; 2746.400;  177.125;    0.000
931.701; 2716.400;  218.125;    0.000
931.874; 2578.400;  175.125;    0.000
932.047; 2579.400;  157.125;    0.000
932.220; 2687.400;  187.125;    0.000
932.393; 2641.400;  166.125;    0.000
932.566; 2556.400;  168.125;    0.000
932.739; 2609.400;  203.125;    0.000
932.912; 2489.400;  202.125;    0.000
933.085; 2527.400;  209.125;    0.000
933.258; 2596.400;  196.125;    0.000
933.431; 2578.400;  207.125;    0.000
933.604; 2518.400;  201.125;    0.000
933.777; 2570.400;  202.125;    0.000
933.950; 2567.400;  184.125;    0.000
934.123; 2506.400;  167.125;    0.000
934.296; 2455.400;  209.125;    0.000
934.468; 2575.400;  216.125;    0.000
934.641; 2459.400;  156.125;    0.000
934.814; 2485.400;  215.125;    0.000
934.987; 2405.400;  201.125;    0.000
935.159; 2489.400;  176.125;    0.000
935.332; 2401.400;  203.125;    0.000
935.505; 2473.400;  163.125;    0.000
935.677; 2454.400;  169.125;    0.000
935.850; 2366.400;  178.125;    0.000
936.022; 2376.400;  187.125;    0.000
936.195; 2428.400;  207.125;    0.000
936.367; 2464.400;  191.125;    0.000
936.540; 2457.400;  214.125;    0.000
936.712; 2471.400;  202.125;    0.000
936.885; 2580.400;  195.125;    0.000
937.057; 2510.400;  173.125;    0.000
937.229; 2492.400;  179.125;    0.000
937.402; 2558.400;  174.125;    0.000
937.574; 2589.400;  140.125;    0.000
937.746; 2666.400;  153.125;    0.000
937.919; 2735.400;  196.125;    0.000
938.091; 2910.400;  173.125;    0.000
938.263; 3015.400;  206.125;    0.000
938.435; 3238.400;  213.125;    0.000
938.608; 3521.400;  204.125;    0.000
938.780; 4053.400;  199.125;    0.000
938.952; 4257.400;  190.125;    0.000
939.124; 4379.400;  182.125;    0.000
939.296; 4839.400;  188.125;    0.000
939.468; 5016.400;  119.125;    0.000
939.640; 4480.400;  171.125;    0.000
939.812; 4202.400;  222.125;    0.000
939.984; 3785.400;  172.125;    0.000
940.156; 3421.400;  171.125;    0.000
940.328; 3370.400;  215.125;    0.000
940.500; 3212.400;  179.125;    0.000
940.672; 3015.400;  178.125;    0.000
940.843; 2940.400;  193.125;    0.000
941.015; 2924.400;  207.125;    0.000
941.187; 2801.400;  179.125;    0.000
941.359; 2792.400;  191.125;    0.000
941.531; 2721.400;  160.125;    0.000
941.702; 2646.400;  208.125;    0.000
941.874; 2704.400;  143.125;    0.000
942.046; 2594.400;  189.125;    0.000
942.217; 2566.400;  167.125;    0.000
942.389; 2524.400;  199.125;    0.000
942.560; 2393.400;  179.125;    0.000
942.732; 2492.400;  209.125;    0.000
942.904; 2469.400;  180.125;    0.000
943.075; 2373.400;  197.125;    0.000
943.247; 2262.400;  207.125;    0.000
943.418; 2328.400;  183.125;    0.000
943.589; 2290.400;  176.125;    0.000
943.761; 2370.400;  165.125;    0.000
943.932; 2310.400;  170.125;    0.000
944.104; 2315.400;  147.125;    0.000
944.275; 2306.400;  149.125;    0.000
944.446; 2233.400;  191.125;    0.000
944.617; 2205.400;  128.125;    0.000
944.789; 2243.400;  166.125;    0.000
944.960; 2189.400;  195.125;    0.000
945.131; 2127.400;  164.125;    0.000
945.302; 2230.400;  229.125;    0.000
945.473; 2176.400;  153.125;    0.000
945.645; 2223.400;  166.125;    0.000
945.816; 2300.400;  187.125;    0.000
945.987; 2307.400;  193.125;    0.000
946.158; 2315.400;  166.125;    0.000
946.329; 2328.400;  196.125;    0.000
946.500; 2269.400;  152.125;    0.000
946.671; 2154.400;  161.125;    0.000
946.842; 2231.400;  176.125;    0.000
947.013; 2129.400;  188.125;    0.000
947.183; 2190.400;  213.125;    0.000
947.354; 2140.400;  163.125;    0.000
947.525; 2115.400;  204.125;    0.000
947.696; 2093.400;  159.125;    0.000
947.867; 2126.400;  197.125;    0.000
948.037; 2091.400;  174.125;    0.000
948.208; 2180.400;  163.125;    0.000
948.379; 2221.400;  189.125;    0.000
948.550; 2126.400;  173.125;    0.000
948.720; 2095.400;  186.125;    0.000
948.891; 2093.400;  166.125;    0.000
949.061; 2098.400;  197.125;    0.000
949.232; 2006.400;  168.125;    0.000
949.403; 2087.400;  188.125;    0.000
949.573; 1993.400;  164.125;    0.000
949.744; 2020.400;  194.125;    0.000
949.914; 2031.400;  154.125;    0.000
950.085; 2127.400;  197.125;    0.000
950.255; 2053.400;  187.125;    0.000
950.425; 2006.400;  193.125;    0.000
950.596; 2048.400;  182.125;    0.000
950.766; 2035.400;  202.125;    0.000
950.936; 2063.400;  230.125;    0.000
951.107; 1972.400;  133.125;    0.000
951.277; 2029.400;  234.125;    0.000
951.447; 2052.400;  200.125;    0.000
951.617; 2057.400;  212.125;    0.000
951.788; 1903.400;  176.125;    0.000
951.958; 2018.400;  218.125;    0.000
952.128; 1980.400;  198.125;    0.000
952.298; 2006.400;  185.125;    0.000
952.468; 1960.400;  231.125;    0.000
952.638; 1915.400;  213.125;    0.000
952.808; 1879.400;  218.125;    0.000
952.978; 1962.400;  252.125;    0.000
953.148; 1933.400;  200.125;    0.000
953.318; 1964.400;  243.125;    0.000
953.488; 1945.400;  140.125;    0.000
953.658; 1887.400;  208.125;    0.000
953.828; 1949.400;  179.125;    0.000
953.998; 1950.400;  211.125;    0.000
954.167; 1854.400;  197.125;    0.000
954.337; 1832.400;  217.125;    0.000
954.507; 1965.400;  219.125;    0.000
954.677; 1850.400;  201.125;    0.000
954.846; 2011.400;  241.125;    0.000
955.016; 1901.400;  222.125;    0.000
955.186; 1848.400;  200.125;    0.000
955.355; 1886.400;  247.125;    0.000
955.525; 1897.400;  212.125;    0.000
955.695; 1893.400;  200.125;    0.000
955.864; 1882.400;  196.125;    0.000
956.034; 1934.400;  195.125;    0.000
956.203; 1873.400;  243.125;    0.000
956.373; 1876.400;  197.125;    0.000
956.542; 1862.400;  237.125;    0.000
956.711; 1841.400;  249.125;    0.000
956.881; 1797.400;  235.125;    0.000
957.050; 1856.400;  259.125;    0.000
957.220; 1880.400;  234.125;    0.000
957.389; 1905.400;  250.125;    0.000
957.558; 1862.400;  214.125;    0.000
957.727; 1812.400;  225.125;    0.000
957.897; 1870.400;  211.125;    0.000
958.066; 1810.400;  200.125;    0.000
958.235; 1820.400;  202.125;    0.000
958.404; 1755.400;  242.125;    0.000
958.573; 1764.400;  222.125;    0.000
958.743; 1699.400;  191.125;    0.000
958.912; 1793.400;  183.125;    0.000
959.081; 1806.400;  212.125;    0.000
959.250; 1803.400;  192.125;    0.000
959.419; 1738.400;  238.125;    0.000
959.588; 1783.400;  205.125;    0.000
959.757; 1748.400;  213.125;    0.000
959.926; 1711.400;  217.125;    0.000
960.094; 1857.400;  215.125;    0.000
960.263; 1755.400;  220.125;    0.000
960.432; 1779.400;  164.125;    0.000
960.601; 1730.400;  228.125;    0.000
960.770; 1697.400;  176.125;    0.000
960.939; 1758.400;  201.125;    0.000
961.107; 1707.400;  183.125;    0.000
961.276; 1741.400;  199.125;    0.000
961.445; 1667.400;  205.125;    0.000
961.613; 1724.400;  183.125;    0.000
961.782; 1703.400;  216.125;    0.000
961.951; 1731.400;  169.125;    0.000
962.119; 1738.400;  211.125;    0.000
962.288; 1725.400;  204.125;    0.000
962.456; 1752.400;  187.125;    0.000
962.625; 1753.400;  223.125;    0.000
962.793; 1765.400;  200.125;    0.000
962.962; 1727.400;  185.125;    0.000
963.130; 1700.400;  195.125;    0.000
963.298; 1746.400;  187.125;    0.000
963.467; 1760.400;  247.125;    0.000
963.635; 1770.400;  165.125;    0.000
963.803; 1777.400;  192.125;    0.000
963.972; 1728.400;  191.125;    0.000
964.140; 1743.400;  163.125;    0.000
964.308; 1676.400;  161.125;    0.000
964.477; 1745.400;  182.125;    0.000
964.645; 1770.400;  195.125;    0.000
964.813; 1782.400;  165.125;    0.000
964.981; 1771.400;  193.125;    0.000
965.149; 1778.400;  174.125;    0.000
965.317; 1736.400;  194.125;    0.000
965.485; 1741.400;  209.125;    0.000
965.653; 1735.400;  210.125;    0.000
965.821; 1693.400;  194.125;    0.000
965.989; 1729.400;  182.125;    0.000
966.157; 1708.400;  180.125;    0.000
966.325; 1732.400;  198.125;    0.000
966.493; 1695.400;  182.125;    0.000
966.661; 1644.400;  200.125;    0.000
966.829; 1646.400;  190.125;    0.000
966.996; 1640.400;  221.125;    0.000
967.164; 1752.400;  176.125;    0.000
967.332; 1669.400;  228.125;    0.000
967.500; 1764.400;  177.125;    0.000
967.667; 1739.400;  202.125;    0.000
967.835; 1674.400;  220.125;    0.000
968.003; 1714.400;  183.125;    0.000
968.170; 1742.400;  163.125;    0.000
968.338; 1682.400;  162.125;    0.000
968.505; 1693.400;  198.125;    0.000
968.673; 1693.400;  213.125;    0.000
968.841; 1591.400;  131.125;    0.000
969.008; 1729.400;  225.125;    0.000
969.175; 1713.400;  202.125;    0.000
969.343; 1638.400;  222.125;    0.000
969.510; 1742.400;  230.125;    0.000
969.678; 1727.400;  161.125;    0.000
969.845; 1732.400;  208.125;    0.000
970.012; 1710.400;  186.125;    0.000
970.180; 1741.400;  226.125;    0.000
970.347; 1767.400;  222.125;    0.000
970.514; 1641.400;  206.125;    0.000
970.681; 1660.400;  173.125;    0.000
970.849; 1703.400;  190.125;    0.000
971.016; 1640.400;  220.125;    0.000
971.183; 1667.400;  202.125;    0.000
971.350; 1640.400;  196.125;    0.000
971.517; 1668.400;  218.125;    0.000
971.684; 1713.400;  228.125;    0.000
971.851; 1682.400;  235.125;    0.000
972.018; 1691.400;  200.125;    0.000
972.185; 1716.400;  183.125;    0.000
972.352; 1692.400;  216.125;    0.000
972.519; 1750.400;  227.125;    0.000
972.686; 1679.400;  209.125;    0.000
972.853; 1627.400;  157.125;    0.000
973.020; 1638.400;  179.125;    0.000
973.186; 1692.400;  173.125;    0.000
973.353; 1753.400;  189.125;    0.000
973.520; 1629.400;  228.125;    0.000
973.687; 1707.400;  190.125;    0.000
973.853; 1741.400;  197.125;    0.000
974.020; 1700.400;  208.125;    0.000
974.187; 1628.400;  158.125;    0.000
974.353; 1662.400;  201.125;    0.000
974.520; 1715.400;  158.125;    0.000
974.687; 1706.400;  192.125;    0.000
974.853; 1612.400;  177.125;    0.000
975.020; 1576.400;  212.125;    0.000
975.186; 1623.400;  200.125;    0.000
975.353; 1613.400;  208.125;    0.000
975.519; 1617.400;  169.125;    0.000
975.685; 1680.400;  176.125;    0.000
975.852; 1610.400;  201.125;    0.000
976.018; 1553.400;  209.125;    0.000
976.184; 1662.400;  197.125;    0.000
976.351; 1616.400;  196.125;    0.000
976.517; 1684.400;  243.125;    0.000
976.683; 1663.400;  210.125;    0.000
976.849; 1692.400;  226.125;    0.000
977.016; 1537.400;  218.125;    0.000
977.182; 1552.400;  213.125;    0.000
977.348; 1596.400;  205.125;    0.000
977.514; 1647.400;  210.125;    0.000
977.680; 1614.400;  226.125;    0.000
977.846; 1560.400;  206.125;    0.000
978.012; 1624.400;  222.125;    0.000
978.178; 1612.400;  216.125;    0.000
978.344; 1617.400;  172.125;    0.000
978.510; 1601.400;  210.125;    0.000
978.676; 1588.400;  184.125;    0.000
978.842; 1570.400;  190.125;    0.000
979.008; 1582.400;  203.125;    0.000
979.174; 1594.400;  211.125;    0.000
979.340; 1616.400;  190.125;    0.000
979.505; 1564.400;  235.125;    0.000
979.671; 1583.400;  182.125;    0.000
979.837; 1569.400;  235.125;    0.000
980.003; 1681.400;  183.125;    0.000
980.168; 1586.400;  220.125;    0.000
980.334; 1526.400;  161.125;    0.000
980.499; 1571.400;  212.125;    0.000
980.665; 1686.400;  219.125;    0.000
980.831; 1620.400;  201.125;    0.000
980.996; 1611.400;  189.125;    0.000
981.162; 1665.400;  222.125;    0.000
981.327; 1597.400;  173.125;    0.000
981.493; 1611.400;  197.125;    0.000
981.658; 1564.400;  178.125;    0.000
981.823; 1629.400;  196.125;    0.000
981.989; 1658.400;  248.125;    0.000
982.154; 1586.400;  222.125;    0.000
982.319; 1671.400;  226.125;    0.000
982.485; 1652.400;  188.125;    0.000
982.650; 1740.400;  203.125;    0.000
982.815; 1549.400;  237.125;    0.000
982.980; 1661.400;  210.125;    0.000
983.146; 1649.400;  202.125;    0.000
983.311; 1610.400;  195.125;    0.000
983.476; 1642.400;  207.125;    0.000
983.641; 1566.400;  198.125;    0.000
983.806; 1578.400;  136.125;    0.000
983.971; 1644.400;  248.125;    0.000
984.136; 1665.400;  213.125;    0.000
984.301; 1591.400;  181.125;    0.000
984.466; 1633.400;  210.125;    0.000
984.631; 1603.400;  219.125;    0.000
984.796; 1636.400;  207.125;    0.000
984.961; 1654.400;  214.125;    0.000
985.126; 1671.400;  218.125;    0.000
985.291; 1602.400;  214.125;    0.000
985.455; 1587.400;  187.125;    0.000
985.620; 1634.400;  191.125;    0.000
985.785; 1573.400;  190.125;    0.000
985.950; 1553.400;  184.125;    0.000
986.114; 1621.400;  242.125;    0.000
986.279; 1689.400;  251.125;    0.000
986.444; 1669.400;  177.125;    0.000
986.608; 1614.400;  216.125;    0.000
986.773; 1674.400;  211.125;    0.000
986.937; 1708.400;  244.125;    0.000
987.102; 1680.400;  187.125;    0.000
987.266; 1632.400;  178.125;    0.000
987.431; 1703.400;  205.125;    0.000
987.595; 1593.400;  221.125;    0.000
987.760; 1640.400;  205.125;    0.000
987.924; 1650.400;  195.125;    0.000
988.088; 1574.400;  184.125;    0.000
988.253; 1669.400;  188.125;    0.000
988.417; 1588.400;  196.125;    0.000
988.581; 1560.400;  218.125;    0.000
988.746; 1543.400;  203.125;    0.000
988.910; 1661.400;  195.125;    0.000
989.074; 1646.400;  187.125;    0.000
989.238; 1610.400;  243.125;    0.000
989.402; 1568.400;  242.125;    0.000
989.566; 1533.400;  205.125;    0.000
989.731; 1592.400;  195.125;    0.000
989.895; 1583.400;  211.125;    0.000
990.059; 1555.400;  175.125;    0.000
990.223; 1504.400;  176.125;    0.000
990.387; 1600.400;  234.125;    0.000
990.551; 1650.400;  231.125;    0.000
990.714; 1557.400;  209.125;    0.000
990.878; 1585.400;  187.125;    0.000
991.042; 1564.400;  183.125;    0.000
991.206; 1606.400;  216.125;    0.000
991.370; 1611.400;  257.125;    0.000
991.534; 1518.400;  188.125;    0.000
991.697; 1572.400;  203.125;    0.000
991.861; 1602.400;  219.125;    0.000
992.025; 1585.400;  221.125;    0.000
992.188; 1533.400;  188.125;    0.000
992.352; 1497.400;  205.125;    0.000
992.516; 1558.400;  189.125;    0.000
992.679; 1521.400;  207.125;    0.000
992.843; 1598.400;  210.125;    0.000
993.006; 1574.400;  191.125;    0.000
993.170; 1532.400;  228.125;    0.000
993.333; 1561.400;  142.125;    0.000
993.497; 1556.400;  175.125;    0.000
993.660; 1577.400;  220.125;    0.000
993.824; 1535.400;  193.125;    0.000
993.987; 1608.400;  219.125;    0.000
994.150; 1550.400;  166.125;    0.000
994.314; 1538.400;  207.125;    0.000
994.477; 1566.400;  227.125;    0.000
994.640; 1541.400;  210.125;    0.000
994.803; 1512.400;  219.125;    0.000
994.967; 1573.400;  192.125;    0.000
995.130; 1565.400;  197.125;    0.000
995.293; 1533.400;  189.125;    0.000
995.456; 1522.400;  180.125;    0.000
995.619; 1504.400;  239.125;    0.000
995.782; 1470.400;  209.125;    0.000
995.945; 1556.400;  216.125;    0.000
996.108; 1584.400;  198.125;    0.000
996.271; 1503.400;  205.125;    0.000
996.434; 1580.400;  205.125;    0.000
996.597; 1487.400;  208.125;    0.000
996.760; 1510.400;  205.125;    0.000
996.923; 1552.400;  174.125;    0.000
997.086; 1537.400;  198.125;    0.000
997.248; 1486.400;  214.125;    0.000
997.411; 1537.400;  237.125;    0.000
997.574; 1447.400;  182.125;    0.000
997.737; 1488.400;  188.125;    0.000
997.899; 1506.400;  216.125;    0.000
998.062; 1481.400;  210.125;    0.000
998.225; 1476.400;  202.125;    0.000
998.387; 1401.400;  202.125;    0.000
998.550; 1468.400;  193.125;    0.000
998.712; 1491.400;  225.125;    0.000
998.875; 1566.400;  228.125;    0.000
999.037; 1448.400;  186.125;    0.000
999.200; 1462.400;  212.125;    0.000
999.362; 1520.400;  234.125;    0.000
999.525; 1489.400;  170.125;    0.000
999.687; 1439.400;  191.125;    0.000
999.849; 1498.400;  218.125;    0.000
1000.012; 1571.400;  187.125;    0.000
1000.174; 1548.400;  216.125;    0.000
1000.336; 1506.400;  194.125;    0.000
1000.499; 1555.400;  209.125;    0.000
1000.661; 1537.400;  208.125;    0.000
1000.823; 1487.400;  197.125;    0.000
1000.985; 1522.400;  201.125;    0.000
1001.147; 1577.400;  234.125;    0.000
1001.309; 1641.400;  180.125;    0.000
1001.471; 1584.400;  223.125;    0.000
1001.633; 1565.400;  198.125;    0.000
1001.796; 1627.400;  200.125;    0.000
1001.958; 1572.400;  204.125;    0.000
1002.119; 1594.400;  193.125;    0.000
1002.281; 1756.400;  205.125;    0.000
1002.443; 1708.400;  236.125;    0.000
1002.605; 1747.400;  197.125;    0.000
1002.767; 1870.400;  223.125;    0.000
1002.929; 1929.400;  220.125;    0.000
1003.091; 1962.400;  214.125;    0.000
1003.252; 2134.400;  233.125;    0.000
1003.414; 2185.400;  230.125;    0.000
1003.576; 2161.400;  203.125;    0.000
1003.738; 2288.400;  201.125;    0.000
1003.899; 2431.400;  222.125;    0.000
1004.061; 2599.400;  208.125;    0.000
1004.222; 2666.400;  194.125;    0.000
1004.384; 2774.400;  205.125;    0.000
1004.546; 2834.400;  162.125;    0.000
1004.707; 2899.400;  232.125;    0.000
1004.869; 2865.400;  223.125;    0.000
1005.030; 2841.400;  204.125;    0.000
1005.191; 2923.400;  214.125;    0.000
1005.353; 2741.400;  226.125;    0.000
1005.514; 2599.400;  201.125;    0.000
1005.675; 2528.400;  205.125;    0.000
1005.837; 2372.400;  235.125;    0.000
1005.998; 2299.400;  210.125;    0.000
1006.159; 2294.400;  214.125;    0.000
1006.321; 2297.400;  236.125;    0.000
1006.482; 2414.400;  214.125;    0.000
1006.643; 2530.400;  213.125;    0.000
1006.804; 2543.400;  204.125;    0.000
1006.965; 2695.400;  212.125;    0.000
1007.126; 2748.400;  251.125;    0.000
1007.287; 2725.400;  238.125;    0.000
1007.448; 2689.400;  198.125;    0.000
1007.609; 2661.400;  241.125;    0.000
1007.770; 2509.400;  213.125;    0.000
1007.931; 2538.400;  225.125;    0.000
1008.092; 2574.400;  204.125;    0.000
1008.253; 2626.400;  220.125;    0.000
1008.414; 2660.400;  180.125;    0.000
1008.575; 2752.400;  224.125;    0.000
1008.736; 2723.400;  164.125;    0.000
1008.896; 2707.400;  247.125;    0.000
1009.057; 2637.400;  263.125;    0.000
1009.218; 2620.400;  233.125;    0.000
1009.379; 2602.400;  207.125;    0.000
1009.539; 2775.400;  221.125;    0.000
1009.700; 2893.400;  209.125;    0.000
1009.860; 2850.400;  217.125;    0.000
1010.021; 2822.400;  182.125;    0.000
1010.182; 2691.400;  233.125;    0.000
1010.342; 2709.400;  210.125;    0.000
1010.503; 2870.400;  232.125;    0.000
1010.663; 3097.400;  228.125;    0.000
1010.823; 3041.400;  212.125;    0.000
1010.984; 3081.400;  244.125;    0.000
1011.144; 3086.400;  200.125;    0.000
1011.305; 3099.400;  237.125;    0.000
1011.465; 3204.400;  225.125;    0.000
1011.625; 3388.400;  215.125;    0.000
1011.785; 3420.400;  235.125;    0.000
1011.946; 3409.400;  231.125;    0.000
1012.106; 3385.400;  206.125;    0.000
1012.266; 3390.400;  218.125;    0.000
1012.426; 3340.400;  249.125;    0.000
1012.586; 3310.400;  217.125;    0.000
1012.746; 3224.400;  231.125;    0.000
1012.906; 3270.400;  230.125;    0.000
1013.066; 3361.400;  260.125;    0.000
1013.226; 3234.400;  206.125;    0.000
1013.386; 3179.400;  220.125;    0.000
1013.546; 3262.400;  233.125;    0.000
1013.706; 3129.400;  194.125;    0.000
1013.866; 3256.400;  209.125;    0.000
1014.026; 3247.400;  204.125;    0.000
1014.186; 3233.400;  203.125;    0.000
1014.346; 3199.400;  244.125;    0.000
1014.505; 3300.400;  206.125;    0.000
1014.665; 3392.400;  210.125;    0.000
1014.825; 3189.400;  235.125;    0.000
1014.985; 3270.400;  227.125;    0.000
1015.144; 3441.400;  237.125;    0.000
1015.304; 3652.400;  196.125;    0.000
1015.464; 3526.400;  228.125;    0.000
1015.623; 3370.400;  235.125;    0.000
1015.783; 3849.400;  187.125;    0.000
1015.942; 4026.400;  184.125;    0.000
1016.102; 4012.400;  245.125;    0.000
1016.261; 3825.400;  203.125;    0.000
1016.420; 4285.400;  209.125;    0.000
1016.580; 4708.400;  235.125;    0.000
1016.739; 4561.400;  175.125;    0.000
1016.899; 4442.400;  220.125;    0.000
1017.058; 4680.400;  219.125;    0.000
1017.217; 4912.400;  238.125;    0.000
1017.376; 4608.400;  235.125;    0.000
1017.536; 4270.400;  195.125;    0.000
1017.695; 4407.400;  215.125;    0.000
1017.854; 4408.400;  231.125;    0.000
1018.013; 4096.400;  184.125;    0.000
1018.172; 4030.400;  179.125;    0.000
1018.331; 3961.400;  205.125;    0.000
1018.490; 4365.400;  203.125;    0.000
1018.649; 4538.400;  261.125;    0.000
1018.808; 4594.400;  253.125;    0.000
1018.967; 4655.400;  201.125;    0.000
1019.126; 4712.400;  216.125;    0.000
1019.285; 4686.400;  169.125;    0.000
1019.444; 4579.400;  226.125;    0.000
1019.603; 4573.400;  252.125;    0.000
1019.762; 4311.400;  206.125;    0.000
1019.921; 4540.400;  235.125;    0.000
1020.079; 4719.400;  192.125;    0.000
1020.238; 4971.400;  226.125;    0.000
1020.397; 4776.400;  231.125;    0.000
1020.555; 4395.400;  218.125;    0.000
1020.714; 4478.400;  235.125;    0.000
1020.873; 5013.400;  229.125;    0.000
1021.031; 4949.400;  234.125;    0.000
1021.190; 4804.400;  223.125;    0.000
1021.348; 4655.400;  186.125;    0.000
1021.507; 4993.400;  201.125;    0.000
1021.665; 5326.400;  222.125;    0.000
1021.824; 5166.400;  208.125;    0.000
1021.982; 4502.400;  209.125;    0.000
1022.141; 4567.400;  224.125;    0.000
1022.299; 5252.400;  214.125;    0.000
1022.457; 5529.400;  176.125;    0.000
1022.616; 4953.400;  211.125;    0.000
1022.774; 4443.400;  218.125;    0.000
1022.932; 4719.400;  205.125;    0.000
1023.090; 5594.400;  246.125;    0.000
1023.249; 5626.400;  249.125;    0.000
1023.407; 5196.400;  235.125;    0.000
1023.565; 4701.400;  202.125;    0.000
1023.723; 4871.400;  210.125;    0.000
1023.881; 5607.400;  206.125;    0.000
1024.039; 5711.400;  240.125;    0.000
1024.197; 5114.400;  275.125;    0.000
1024.355; 4782.400;  228.125;    0.000
1024.513; 4941.400;  234.125;    0.000
1024.671; 5837.400;  222.125;    0.000
1024.829; 5805.400;  241.125;    0.000
1024.987; 5355.400;  209.125;    0.000
1025.145; 4781.400;  227.125;    0.000
1025.302; 5010.400;  208.125;    0.000
1025.460; 5588.400;  210.125;    0.000
1025.618; 6050.400;  192.125;    0.000
1025.776; 5589.400;  220.125;    0.000
1025.933; 4948.400;  223.125;    0.000
1026.091; 4893.400;  189.125;    0.000
1026.249; 5592.400;  210.125;    0.000
1026.406; 6145.400;  231.125;    0.000
1026.564; 5924.400;  247.125;    0.000
1026.721; 5390.400;  213.125;    0.000
1026.879; 5164.400;  208.125;    0.000
1027.036; 5376.400;  222.125;    0.000
1027.194; 5966.400;  253.125;    0.000
1027.351; 6136.400;  239.125;    0.000
1027.509; 5817.400;  232.125;    0.000
1027.666; 5226.400;  251.125;    0.000
1027.823; 5618.400;  212.125;    0.000
1027.981; 5689.400;  260.125;    0.000
1028.138; 6272.400;  263.125;    0.000
1028.295; 5892.400;  251.125;    0.000
1028.452; 5497.400;  249.125;    0.000
1028.609; 5435.400;  259.125;    0.000
1028.767; 5740.400;  255.125;    0.000
1028.924; 6140.400;  201.125;    0.000
1029.081; 6152.400;  217.125;    0.000
1029.238; 5988.400;  230.125;    0.000
1029.395; 5735.400;  263.125;    0.000
1029.552; 5780.400;  207.125;    0.000
1029.709; 6310.400;  220.125;    0.000
1029.866; 6234.400;  214.125;    0.000
1030.023; 6038.400;  224.125;    0.000
1030.180; 5689.400;  209.125;    0.000
1030.337; 5886.400;  269.125;    0.000
1030.494; 6171.400;  207.125;    0.000
1030.650; 6347.400;  230.125;    0.000
1030.807; 6435.400;  217.125;    0.000
1030.964; 5774.400;  212.125;    0.000
1031.121; 5811.400;  220.125;    0.000
1031.277; 5873.400;  233.125;    0.000
1031.434; 6339.400;  266.125;    0.000
1031.591; 6741.400;  270.125;    0.000
1031.747; 6649.400;  229.125;    0.000
1031.904; 6263.400;  227.125;    0.000
1032.060; 6012.400;  210.125;    0.000
1032.217; 5987.400;  218.125;    0.000
1032.373; 6762.400;  190.125;    0.000
1032.530; 7224.400;  236.125;    0.000
1032.686; 7707.400;  199.125;    0.000
1032.843; 7504.400;  216.125;    0.000
1032.999; 6731.400;  204.125;    0.000
1033.155; 7161.400;  208.125;    0.000
1033.312; 7214.400;  231.125;    0.000
1033.468; 8641.400;  213.125;    0.000
1033.624; 9352.400;  235.125;    0.000
1033.780; 9703.400;  233.125;    0.000
1033.937; 9270.400;  201.125;    0.000
1034.093; 8241.400;  233.125;    0.000
1034.249; 8438.400;  214.125;    0.000
1034.405; 8662.400;  245.125;    0.000
1034.561; 9767.400;  228.125;    0.000
1034.717;10817.400;  234.125;    0.000
1034.873;10134.400;  248.125;    0.000
1035.029;10381.400;  220.125;    0.000
1035.185; 9419.400;  294.125;    0.000
1035.341; 9215.400;  231.125;    0.000
1035.497;10118.400;  254.125;    0.000
1035.653;10633.400;  225.125;    0.000
1035.809;11746.400;  243.125;    0.000
1035.964;12275.400;  216.125;    0.000
1036.120;11479.400;  199.125;    0.000
1036.276;11253.400;  220.125;    0.000
1036.432;10828.400;  210.125;    0.000
1036.587;10005.400;  225.125;    0.000
1036.743;11021.400;  245.125;    0.000
1036.899;12329.400;  219.125;    0.000
1037.054;12278.400;  157.125;    0.000
1037.210;13758.400;  208.125;    0.000
1037.365;13744.400;  230.125;    0.000
1037.521;12122.400;  236.125;    0.000
1037.676;11826.400;  193.125;    0.000
1037.832;11119.400;  246.125;    0.000
1037.987;11357.400;  231.125;    0.000
1038.143;11780.400;  234.125;    0.000
1038.298;13851.400;  219.125;    0.000
1038.453;14061.400;  230.125;    0.000
1038.609;15017.400;  254.125;    0.000
1038.764;15614.400;  249.125;    0.000
1038.919;13256.400;  224.125;    0.000
1039.074;13753.400;  209.125;    0.000
1039.229;12474.400;  214.125;    0.000
1039.385;12914.400;  268.125;    0.000
1039.540;13325.400;  268.125;    0.000
1039.695;14880.400;  229.125;    0.000
1039.850;16548.400;  252.125;    0.000
1040.005;17017.400;  248.125;    0.000
1040.160;18035.400;  215.125;    0.000
1040.315;17998.400;  239.125;    0.000
1040.470;16232.400;  210.125;    0.000
1040.625;15700.400;  239.125;    0.000
1040.780;15426.400;  251.125;    0.000
1040.935;15399.400;  247.125;    0.000
1041.089;15567.400;  215.125;    0.000
1041.244;18460.400;  210.125;    0.000
1041.399;19260.400;  237.125;    0.000
1041.554;20653.400;  253.125;    0.000
1041.708;22047.400;  227.125;    0.000
1041.863;21611.400;  219.125;    0.000
1042.018;20518.400;  246.125;    0.000
1042.172;19638.400;  236.125;    0.000
1042.327;18614.400;  272.125;    0.000
1042.481;19027.400;  197.125;    0.000
1042.636;19175.400;  213.125;    0.000
1042.791;19629.400;  250.125;    0.000
1042.945;23147.400;  267.125;    0.000
1043.099;25929.400;  257.125;    0.000
1043.254;23917.400;  206.125;    0.000
1043.408;25435.400;  266.125;    0.000
1043.563;27248.400;  232.125;    0.000
1043.717;25765.400;  241.125;    0.000
1043.871;23910.400;  248.125;    0.000
1044.025;23656.400;  234.125;    0.000
1044.180;23643.400;  222.125;    0.000
1044.334;23416.400;  235.125;    0.000
1044.488;23844.400;  270.125;    0.000
1044.642;26005.400;  215.125;    0.000
1044.796;27316.400;  212.125;    0.000
1044.950;30309.400;  228.125;    0.000
1045.104;34544.398;  223.125;    0.000
1045.258;35180.398;  236.125;    0.000
1045.412;34624.398;  225.125;    0.000
1045.566;32830.398;  245.125;    0.000
1045.720;31666.400;  201.125;    0.000
1045.874;28854.400;  229.125;    0.000
1046.028;27950.400;  243.125;    0.000
1046.182;27328.400;  212.125;    0.000
1046.336;28539.400;  256.125;    0.000
1046.489;28361.400;  234.125;    0.000
1046.643;29235.400;  246.125;    0.000
1046.797;32779.398;  219.125;    0.000
1046.951;33310.398;  231.125;    0.000
1047.104;34071.398;  285.125;    0.000
1047.258;35414.398;  256.125;    0.000
1047.411;37591.398;  232.125;    0.000
1047.565;38129.398;  269.125;    0.000
1047.719;37333.398;  213.125;    0.000
1047.872;34907.398;  210.125;    0.000
1048.026;33601.398;  251.125;    0.000
1048.179;33315.398;  213.125;    0.000
1048.332;33922.398;  212.125;    0.000
1048.486;32250.400;  218.125;    0.000
1048.639;32187.400;  218.125;    0.000
1048.792;31782.400;  247.125;    0.000
1048.946;35233.398;  208.125;    0.000
1049.099;39401.398;  247.125;    0.000
1049.252;40077.398;  274.125;    0.000
1049.406;37415.398;  232.125;    0.000
1049.559;39001.398;  251.125;    0.000
1049.712;44270.398;  243.125;    0.000
1049.865;48376.398;  219.125;    0.000
1050.018;46260.398;  216.125;    0.000
1050.171;40903.398;  237.125;    0.000
1050.324;40216.398;  291.125;    0.000
1050.477;43115.398;  241.125;    0.000
1050.630;44058.398;  245.125;    0.000
1050.783;46082.398;  213.125;    0.000
1050.936;42317.398;  246.125;    0.000
1051.089;39060.398;  255.125;    0.000
1051.242;41235.398;  228.125;    0.000
1051.394;45803.398;  276.125;    0.000
1051.547;47725.398;  246.125;    0.000
1051.700;43074.398;  252.125;    0.000
1051.853;43376.398;  267.125;    0.000
1052.005;43747.398;  261.125;    0.000
1052.158;48431.398;  313.125;    0.000
1052.311;53576.398;  264.125;    0.000
1052.463;52073.398;  271.125;    0.000
1052.616;48008.398;  291.125;    0.000
1052.768;42725.398;  298.125;    0.000
1052.921;40075.398;  262.125;    0.000
1053.073;43544.398;  307.125;    0.000
1053.226;49836.398;  301.125;    0.000
1053.378;57930.398;  309.125;    0.000
1053.531;62066.398;  280.125;    0.000
1053.683;59787.398;  258.125;    0.000
1053.835;50848.398;  267.125;    0.000
1053.988;37414.398;  294.125;    0.000
1054.140; 6541.400;  292.125;    0.000
1054.292; 1629.400;  249.125;    0.000
1054.444; 1381.400;  288.125;    0.000
1054.596; 1234.400;  275.125;    0.000
1054.749; 1101.400;  284.125;    0.000
1054.901;  998.400;  291.125;    0.000
1055.053;  962.400;  274.125;    0.000
1055.205;  900.400;  313.125;    0.000
1055.357;  877.400;  309.125;    0.000
1055.509;  818.400;  283.125;    0.000
1055.661;  763.400;  341.125;    0.000
1055.813;  789.400;  288.125;    0.000
1055.965;  796.400;  300.125;    0.000
1056.116;  746.400;  296.125;    0.000
1056.268;  769.400;  319.125;    0.000
1056.420;  739.400;  298.125;    0.000

