
Integration time [ms]:   0.300
Averaging Nr. [scans]: 1
Smoothing Nr. [pixels]: 0
Data measured with spectrometer [name]: UV1
Wave   ;Sample   ;Dark     ;Reference
[nm]   ;[counts] ;[counts] ;[counts] 

236.381;  175.825;  149.925;    0.000
236.451;  179.825;  206.925;    0.000
236.520;  184.825;  212.925;    0.000
236.590;  199.825;  189.925;    0.000
236.660;  179.825;  184.925;    0.000
236.730;  188.825;  186.925;    0.000
236.799;  220.825;  191.925;    0.000
236.869;  195.825;  184.925;    0.000
236.939;  200.825;  176.925;    0.000
237.009;  180.825;  184.925;    0.000
237.078;  201.825;  189.925;    0.000
237.148;  181.825;  217.925;    0.000
237.218;  168.825;  192.925;    0.000
237.287;  197.825;  182.925;    0.000
237.357;  205.825;  196.925;    0.000
237.427;  167.825;  144.925;    0.000
237.496;  261.825;  224.925;    0.000
237.566;  207.825;  210.925;    0.000
237.636;  165.825;  165.925;    0.000
237.705;  203.825;  214.925;    0.000
237.775;  200.825;  194.925;    0.000
237.845;  205.825;  214.925;    0.000
237.914;  188.825;  191.925;    0.000
237.984;  203.825;  218.925;    0.000
238.054;  192.825;  187.925;    0.000
238.123;  217.825;  179.925;    0.000
238.193;  173.825;  177.925;    0.000
238.263;  217.825;  225.925;    0.000
238.332;  174.825;  197.925;    0.000
238.402;  177.825;  183.925;    0.000
238.471;  173.825;  181.925;    0.000
238.541;  177.825;  200.925;    0.000
238.611;  211.825;  170.925;    0.000
238.680;  168.825;  170.925;    0.000
238.750;  185.825;  175.925;    0.000
238.819;  209.825;  180.925;    0.000
238.889;  185.825;  190.925;    0.000
238.958;  202.825;  207.925;    0.000
239.028;  209.825;  201.925;    0.000
239.097;  175.825;  181.925;    0.000
239.167;  195.825;  222.925;    0.000
239.237;  199.825;  221.925;    0.000
239.306;  162.825;  147.925;    0.000
239.376;  205.825;  188.925;    0.000
239.445;  222.825;  198.925;    0.000
239.515;  214.825;  191.925;    0.000
239.584;  204.825;  178.925;    0.000
239.654;  164.825;  147.925;    0.000
239.723;  203.825;  212.925;    0.000
239.793;  188.825;  185.925;    0.000
239.862;  178.825;  157.925;    0.000
239.932;  161.825;  181.925;    0.000
240.001;  181.825;  163.925;    0.000
240.070;  190.825;  194.925;    0.000
240.140;  195.825;  202.925;    0.000
240.209;  204.825;  180.925;    0.000
240.279;  173.825;  188.925;    0.000
240.348;  179.825;  189.925;    0.000
240.418;  180.825;  143.925;    0.000
240.487;  218.825;  195.925;    0.000
240.556;  181.825;  170.925;    0.000
240.626;  215.825;  172.925;    0.000
240.695;  192.825;  202.925;    0.000
240.765;  179.825;  191.925;    0.000
240.834;  192.825;  177.925;    0.000
240.903;  203.825;  189.925;    0.000
240.973;  180.825;  196.925;    0.000
241.042;  169.825;  183.925;    0.000
241.112;  220.825;  189.925;    0.000
241.181;  187.825;  186.925;    0.000
241.250;  152.825;  168.925;    0.000
241.320;  205.825;  200.925;    0.000
241.389;  187.825;  185.925;    0.000
241.458;  215.825;  194.925;    0.000
241.528;  216.825;  165.925;    0.000
241.597;  233.825;  200.925;    0.000
241.666;  175.825;  184.925;    0.000
241.736;  200.825;  176.925;    0.000
241.805;  198.825;  165.925;    0.000
241.874;  197.825;  200.925;    0.000
241.943;  217.825;  184.925;    0.000
242.013;  206.825;  212.925;    0.000
242.082;  183.825;  200.925;    0.000
242.151;  202.825;  196.925;    0.000
242.221;  179.825;  182.925;    0.000
242.290;  195.825;  222.925;    0.000
242.359;  142.825;  142.925;    0.000
242.428;  214.825;  180.925;    0.000
242.498;  162.825;  180.925;    0.000
242.567;  192.825;  181.925;    0.000
242.636;  206.825;  203.925;    0.000
242.705;  206.825;  209.925;    0.000
242.774;  188.825;  172.925;    0.000
242.844;  172.825;  218.925;    0.000
242.913;  149.825;  188.925;    0.000
242.982;  210.825;  193.925;    0.000
243.051;  156.825;  202.925;    0.000
243.120;  179.825;  174.925;    0.000
243.190;  173.825;  165.925;    0.000
243.259;  197.825;  206.925;    0.000
243.328;  170.825;  166.925;    0.000
243.397;  171.825;  167.925;    0.000
243.466;  208.825;  163.925;    0.000
243.535;  153.825;  162.925;    0.000
243.605;  175.825;  159.925;    0.000
243.674;  198.825;  171.925;    0.000
243.743;  208.825;  189.925;    0.000
243.812;  189.825;  169.925;    0.000
243.881;  165.825;  145.925;    0.000
243.950;  176.825;  197.925;    0.000
244.019;  200.825;  189.925;    0.000
244.088;  219.825;  200.925;    0.000
244.158;  225.825;  208.925;    0.000
244.227;  165.825;  154.925;    0.000
244.296;  169.825;  142.925;    0.000
244.365;  187.825;  198.925;    0.000
244.434;  158.825;  162.925;    0.000
244.503;  167.825;  186.925;    0.000
244.572;  137.825;  143.925;    0.000
244.641;  163.825;  145.925;    0.000
244.710;  162.825;  159.925;    0.000
244.779;  160.825;  175.925;    0.000
244.848;  152.825;  163.925;    0.000
244.917;  191.825;  157.925;    0.000
244.986;  188.825;  166.925;    0.000
245.055;  218.825;  211.925;    0.000
245.124;  177.825;  155.925;    0.000
245.193;  159.825;  187.925;    0.000
245.262;  152.825;  152.925;    0.000
245.331;  195.825;  177.925;    0.000
245.400;  150.825;  157.925;    0.000
245.469;  205.825;  195.925;    0.000
245.538;  156.825;  199.925;    0.000
245.607;  211.825;  194.925;    0.000
245.676;  184.825;  170.925;    0.000
245.745;  180.825;  208.925;    0.000
245.814;  187.825;  185.925;    0.000
245.883;  207.825;  165.925;    0.000
245.952;  214.825;  151.925;    0.000
246.021;  195.825;  171.925;    0.000
246.090;  179.825;  174.925;    0.000
246.159;  168.825;  192.925;    0.000
246.227;  192.825;  178.925;    0.000
246.296;  164.825;  159.925;    0.000
246.365;  206.825;  189.925;    0.000
246.434;  224.825;  205.925;    0.000
246.503;  173.825;  174.925;    0.000
246.572;  207.825;  203.925;    0.000
246.641;  195.825;  169.925;    0.000
246.710;  194.825;  186.925;    0.000
246.779;  207.825;  196.925;    0.000
246.847;  183.825;  209.925;    0.000
246.916;  172.825;  177.925;    0.000
246.985;  176.825;  188.925;    0.000
247.054;  166.825;  189.925;    0.000
247.123;  168.825;  196.925;    0.000
247.192;  168.825;  210.925;    0.000
247.260;  149.825;  164.925;    0.000
247.329;  189.825;  204.925;    0.000
247.398;  186.825;  204.925;    0.000
247.467;  191.825;  160.925;    0.000
247.536;  233.825;  193.925;    0.000
247.604;  221.825;  208.925;    0.000
247.673;  183.825;  168.925;    0.000
247.742;  134.825;  182.925;    0.000
247.811;  202.825;  186.925;    0.000
247.879;  167.825;  166.925;    0.000
247.948;  201.825;  192.925;    0.000
248.017;  196.825;  178.925;    0.000
248.086;  216.825;  193.925;    0.000
248.154;  186.825;  191.925;    0.000
248.223;  198.825;  207.925;    0.000
248.292;  177.825;  168.925;    0.000
248.361;  185.825;  211.925;    0.000
248.429;  175.825;  196.925;    0.000
248.498;  178.825;  163.925;    0.000
248.567;  224.825;  159.925;    0.000
248.635;  193.825;  194.925;    0.000
248.704;  185.825;  205.925;    0.000
248.773;  174.825;  190.925;    0.000
248.841;  188.825;  179.925;    0.000
248.910;  203.825;  193.925;    0.000
248.979;  183.825;  167.925;    0.000
249.047;  205.825;  166.925;    0.000
249.116;  186.825;  191.925;    0.000
249.185;  229.825;  203.925;    0.000
249.253;  154.825;  140.925;    0.000
249.322;  182.825;  173.925;    0.000
249.390;  153.825;  165.925;    0.000
249.459;  186.825;  173.925;    0.000
249.528;  191.825;  203.925;    0.000
249.596;  170.825;  204.925;    0.000
249.665;  186.825;  176.925;    0.000
249.733;  187.825;  178.925;    0.000
249.802;  212.825;  190.925;    0.000
249.871;  182.825;  171.925;    0.000
249.939;  152.825;  160.925;    0.000
250.008;  190.825;  220.925;    0.000
250.076;  208.825;  211.925;    0.000
250.145;  195.825;  145.925;    0.000
250.213;  142.825;  177.925;    0.000
250.282;  179.825;  186.925;    0.000
250.350;  172.825;  170.925;    0.000
250.419;  207.825;  195.925;    0.000
250.487;  208.825;  194.925;    0.000
250.556;  172.825;  178.925;    0.000
250.624;  204.825;  193.925;    0.000
250.693;  143.825;  167.925;    0.000
250.761;  198.825;  253.925;    0.000
250.830;  217.825;  241.925;    0.000
250.898;  197.825;  161.925;    0.000
250.967;  177.825;  178.925;    0.000
251.035;  184.825;  189.925;    0.000
251.104;  178.825;  166.925;    0.000
251.172;  181.825;  178.925;    0.000
251.241;  189.825;  174.925;    0.000
251.309;  219.825;  197.925;    0.000
251.378;  181.825;  172.925;    0.000
251.446;  214.825;  157.925;    0.000
251.514;  187.825;  197.925;    0.000
251.583;  195.825;  191.925;    0.000
251.651;  194.825;  154.925;    0.000
251.720;  185.825;  198.925;    0.000
251.788;  190.825;  226.925;    0.000
251.856;  170.825;  164.925;    0.000
251.925;  144.825;  181.925;    0.000
251.993;  198.825;  203.925;    0.000
252.062;  253.825;  211.925;    0.000
252.130;  194.825;  185.925;    0.000
252.198;  178.825;  190.925;    0.000
252.267;  183.825;  176.925;    0.000
252.335;  192.825;  179.925;    0.000
252.403;  187.825;  173.925;    0.000
252.472;  154.825;  172.925;    0.000
252.540;  188.825;  187.925;    0.000
252.608;  178.825;  204.925;    0.000
252.677;  153.825;  179.925;    0.000
252.745;  184.825;  192.925;    0.000
252.813;  172.825;  168.925;    0.000
252.881;  137.825;  157.925;    0.000
252.950;  186.825;  188.925;    0.000
253.018;  193.825;  191.925;    0.000
253.086;  195.825;  164.925;    0.000
253.155;  201.825;  172.925;    0.000
253.223;  179.825;  168.925;    0.000
253.291;  188.825;  190.925;    0.000
253.359;  165.825;  205.925;    0.000
253.428;  212.825;  228.925;    0.000
253.496;  193.825;  170.925;    0.000
253.564;  154.825;  164.925;    0.000
253.632;  195.825;  159.925;    0.000
253.700;  177.825;  166.925;    0.000
253.769;  159.825;  172.925;    0.000
253.837;  155.825;  157.925;    0.000
253.905;  172.825;  168.925;    0.000
253.973;  176.825;  179.925;    0.000
254.041;  197.825;  187.925;    0.000
254.110;  172.825;  186.925;    0.000
254.178;  170.825;  156.925;    0.000
254.246;  173.825;  132.925;    0.000
254.314;  159.825;  191.925;    0.000
254.382;  205.825;  189.925;    0.000
254.450;  151.825;  163.925;    0.000
254.518;  160.825;  172.925;    0.000
254.587;  163.825;  162.925;    0.000
254.655;  178.825;  191.925;    0.000
254.723;  155.825;  184.925;    0.000
254.791;  202.825;  169.925;    0.000
254.859;  173.825;  186.925;    0.000
254.927;  210.825;  207.925;    0.000
254.995;  160.825;  143.925;    0.000
255.063;  170.825;  198.925;    0.000
255.131;  154.825;  168.925;    0.000
255.199;  169.825;  183.925;    0.000
255.267;  172.825;  159.925;    0.000
255.336;  193.825;  197.925;    0.000
255.404;  108.825;  177.925;    0.000
255.472;  202.825;  204.925;    0.000
255.540;  171.825;  169.925;    0.000
255.608;  169.825;  141.925;    0.000
255.676;  163.825;  176.925;    0.000
255.744;  165.825;  184.925;    0.000
255.812;  166.825;  158.925;    0.000
255.880;  194.825;  202.925;    0.000
255.948;  167.825;  184.925;    0.000
256.016;  186.825;  192.925;    0.000
256.084;  171.825;  204.925;    0.000
256.152;  168.825;  191.925;    0.000
256.220;  138.825;  187.925;    0.000
256.288;  172.825;  176.925;    0.000
256.356;  170.825;  146.925;    0.000
256.424;  172.825;  164.925;    0.000
256.491;  131.825;  161.925;    0.000
256.559;  130.825;  167.925;    0.000
256.627;  189.825;  180.925;    0.000
256.695;  144.825;  159.925;    0.000
256.763;  163.825;  166.925;    0.000
256.831;  162.825;  166.925;    0.000
256.899;  200.825;  161.925;    0.000
256.967;  159.825;  116.925;    0.000
257.035;  187.825;  195.925;    0.000
257.103;  200.825;  227.925;    0.000
257.171;  120.825;  147.925;    0.000
257.238;  151.825;  158.925;    0.000
257.306;  206.825;  188.925;    0.000
257.374;  184.825;  153.925;    0.000
257.442;  187.825;  159.925;    0.000
257.510;  161.825;  201.925;    0.000
257.578;  148.825;  137.925;    0.000
257.646;  170.825;  172.925;    0.000
257.713;  129.825;  164.925;    0.000
257.781;  190.825;  163.925;    0.000
257.849;  191.825;  174.925;    0.000
257.917;  171.825;  164.925;    0.000
257.985;  158.825;  126.925;    0.000
258.052;  161.825;  158.925;    0.000
258.120;  160.825;  151.925;    0.000
258.188;  178.825;  169.925;    0.000
258.256;  140.825;  110.925;    0.000
258.324;  186.825;  193.925;    0.000
258.391;  161.825;  157.925;    0.000
258.459;  221.825;  193.925;    0.000
258.527;  152.825;  150.925;    0.000
258.595;  197.825;  173.925;    0.000
258.662;  146.825;  168.925;    0.000
258.730;  217.825;  190.925;    0.000
258.798;  167.825;  164.925;    0.000
258.865;  161.825;  165.925;    0.000
258.933;  201.825;  162.925;    0.000
259.001;  182.825;  174.925;    0.000
259.069;  169.825;  139.925;    0.000
259.136;  176.825;  160.925;    0.000
259.204;  165.825;  174.925;    0.000
259.272;  167.825;  161.925;    0.000
259.339;  160.825;  157.925;    0.000
259.407;  167.825;  159.925;    0.000
259.475;  137.825;  134.925;    0.000
259.542;  167.825;  179.925;    0.000
259.610;  146.825;  172.925;    0.000
259.677;  153.825;  152.925;    0.000
259.745;   88.825;  131.925;    0.000
259.813;  143.825;  185.925;    0.000
259.880;  194.825;  183.925;    0.000
259.948;  144.825;  168.925;    0.000
260.016;  155.825;  160.925;    0.000
260.083;  213.825;  163.925;    0.000
260.151;  126.825;  162.925;    0.000
260.218;  156.825;  171.925;    0.000
260.286;  155.825;  154.925;    0.000
260.353;  210.825;  182.925;    0.000
260.421;  149.825;  187.925;    0.000
260.489;  208.825;  185.925;    0.000
260.556;  173.825;  165.925;    0.000
260.624;  148.825;  185.925;    0.000
260.691;  162.825;  175.925;    0.000
260.759;  203.825;  201.925;    0.000
260.826;  149.825;  150.925;    0.000
260.894;  183.825;  142.925;    0.000
260.961;  183.825;  156.925;    0.000
261.029;  170.825;  161.925;    0.000
261.096;  152.825;  172.925;    0.000
261.164;  161.825;  149.925;    0.000
261.231;  170.825;  191.925;    0.000
261.299;  168.825;  182.925;    0.000
261.366;  138.825;  156.925;    0.000
261.434;  161.825;  188.925;    0.000
261.501;  149.825;  170.925;    0.000
261.568;  186.825;  167.925;    0.000
261.636;  151.825;  169.925;    0.000
261.703;  186.825;  200.925;    0.000
261.771;  147.825;  170.925;    0.000
261.838;  149.825;  175.925;    0.000
261.906;  180.825;  135.925;    0.000
261.973;  198.825;  184.925;    0.000
262.040;  198.825;  176.925;    0.000
262.108;  192.825;  201.925;    0.000
262.175;  147.825;  141.925;    0.000
262.243;  163.825;  175.925;    0.000
262.310;  136.825;  112.925;    0.000
262.377;  172.825;  158.925;    0.000
262.445;  161.825;  162.925;    0.000
262.512;  190.825;  184.925;    0.000
262.579;  166.825;  185.925;    0.000
262.647;  155.825;  158.925;    0.000
262.714;  173.825;  197.925;    0.000
262.781;  177.825;  133.925;    0.000
262.849;  110.825;  146.925;    0.000
262.916;  158.825;  204.925;    0.000
262.983;  176.825;  191.925;    0.000
263.051;  133.825;  140.925;    0.000
263.118;  163.825;  154.925;    0.000
263.185;  194.825;  169.925;    0.000
263.252;  172.825;  150.925;    0.000
263.320;  143.825;  145.925;    0.000
263.387;  163.825;  144.925;    0.000
263.454;  172.825;  193.925;    0.000
263.522;  150.825;  160.925;    0.000
263.589;  157.825;  153.925;    0.000
263.656;  160.825;  178.925;    0.000
263.723;  128.825;  136.925;    0.000
263.790;  173.825;  162.925;    0.000
263.858;  178.825;  164.925;    0.000
263.925;  155.825;  146.925;    0.000
263.992;  167.825;  191.925;    0.000
264.059;  183.825;  180.925;    0.000
264.126;  175.825;  183.925;    0.000
264.194;  202.825;  174.925;    0.000
264.261;  162.825;  187.925;    0.000
264.328;  148.825;  179.925;    0.000
264.395;  162.825;  166.925;    0.000
264.462;  144.825;  197.925;    0.000
264.529;  138.825;  209.925;    0.000
264.597;  164.825;  173.925;    0.000
264.664;  159.825;  193.925;    0.000
264.731;  184.825;  165.925;    0.000
264.798;  149.825;  148.925;    0.000
264.865;  184.825;  186.925;    0.000
264.932;  141.825;  152.925;    0.000
264.999;  160.825;  166.925;    0.000
265.066;  151.825;  186.925;    0.000
265.133;  173.825;  172.925;    0.000
265.201;  139.825;  159.925;    0.000
265.268;  173.825;  164.925;    0.000
265.335;  171.825;  161.925;    0.000
265.402;  162.825;  157.925;    0.000
265.469;  171.825;  134.925;    0.000
265.536;  180.825;  191.925;    0.000
265.603;  161.825;  170.925;    0.000
265.670;  152.825;  162.925;    0.000
265.737;  184.825;  172.925;    0.000
265.804;  174.825;  151.925;    0.000
265.871;  157.825;  191.925;    0.000
265.938;  191.825;  173.925;    0.000
266.005;  187.825;  201.925;    0.000
266.072;  167.825;  156.925;    0.000
266.139;  198.825;  191.925;    0.000
266.206;  155.825;  151.925;    0.000
266.273;  196.825;  194.925;    0.000
266.340;  138.825;  120.925;    0.000
266.407;  160.825;  130.925;    0.000
266.474;  148.825;  137.925;    0.000
266.541;  150.825;  139.925;    0.000
266.608;  181.825;  139.925;    0.000
266.675;  198.825;  198.925;    0.000
266.742;  143.825;  165.925;    0.000
266.808;  159.825;  174.925;    0.000
266.875;  200.825;  169.925;    0.000
266.942;  147.825;  137.925;    0.000
267.009;  174.825;  181.925;    0.000
267.076;  190.825;  204.925;    0.000
267.143;  234.825;  179.925;    0.000
267.210;  177.825;  160.925;    0.000
267.277;  158.825;  154.925;    0.000
267.344;  164.825;  178.925;    0.000
267.410;  182.825;  190.925;    0.000
267.477;  180.825;  193.925;    0.000
267.544;  171.825;  168.925;    0.000
267.611;  204.825;  177.925;    0.000
267.678;  201.825;  205.925;    0.000
267.745;  182.825;  205.925;    0.000
267.811;  165.825;  164.925;    0.000
267.878;  198.825;  166.925;    0.000
267.945;  181.825;  160.925;    0.000
268.012;  201.825;  172.925;    0.000
268.079;  184.825;  186.925;    0.000
268.145;  175.825;  188.925;    0.000
268.212;  160.825;  181.925;    0.000
268.279;  183.825;  158.925;    0.000
268.346;  159.825;  192.925;    0.000
268.412;  165.825;  159.925;    0.000
268.479;  176.825;  176.925;    0.000
268.546;  175.825;  170.925;    0.000
268.613;  204.825;  133.925;    0.000
268.679;  154.825;  170.925;    0.000
268.746;  193.825;  185.925;    0.000
268.813;  143.825;  170.925;    0.000
268.879;  138.825;  149.925;    0.000
268.946;  179.825;  176.925;    0.000
269.013;  146.825;  153.925;    0.000
269.079;  159.825;  156.925;    0.000
269.146;  156.825;  143.925;    0.000
269.213;  152.825;  170.925;    0.000
269.280;  192.825;  202.925;    0.000
269.346;  206.825;  180.925;    0.000
269.413;  174.825;  162.925;    0.000
269.479;  189.825;  175.925;    0.000
269.546;  151.825;  151.925;    0.000
269.613;  139.825;  159.925;    0.000
269.679;  216.825;  190.925;    0.000
269.746;  166.825;  159.925;    0.000
269.813;  129.825;  151.925;    0.000
269.879;  188.825;  169.925;    0.000
269.946;  182.825;  169.925;    0.000
270.012;  209.825;  185.925;    0.000
270.079;  164.825;  133.925;    0.000
270.145;  147.825;  161.925;    0.000
270.212;  191.825;  156.925;    0.000
270.279;  206.825;  176.925;    0.000
270.345;  137.825;  140.925;    0.000
270.412;  203.825;  162.925;    0.000
270.478;  156.825;  148.925;    0.000
270.545;  152.825;  146.925;    0.000
270.611;  190.825;  168.925;    0.000
270.678;  179.825;  164.925;    0.000
270.744;  122.825;  117.925;    0.000
270.811;  171.825;  196.925;    0.000
270.877;  147.825;  151.925;    0.000
270.944;  152.825;  174.925;    0.000
271.010;  156.825;  180.925;    0.000
271.077;  148.825;  162.925;    0.000
271.143;  168.825;  178.925;    0.000
271.210;  156.825;  159.925;    0.000
271.276;  163.825;  143.925;    0.000
271.342;  165.825;  196.925;    0.000
271.409;  165.825;  161.925;    0.000
271.475;  221.825;  153.925;    0.000
271.542;  169.825;  147.925;    0.000
271.608;  184.825;  175.925;    0.000
271.675;  167.825;  134.925;    0.000
271.741;  191.825;  182.925;    0.000
271.807;  143.825;  174.925;    0.000
271.874;  177.825;  169.925;    0.000
271.940;  151.825;  179.925;    0.000
272.007;  172.825;  173.925;    0.000
272.073;  136.825;  133.925;    0.000
272.139;  150.825;  191.925;    0.000
272.206;  179.825;  168.925;    0.000
272.272;  144.825;  179.925;    0.000
272.338;  197.825;  224.925;    0.000
272.405;  187.825;  156.925;    0.000
272.471;  178.825;  175.925;    0.000
272.537;  202.825;  190.925;    0.000
272.604;  169.825;  199.925;    0.000
272.670;  169.825;  156.925;    0.000
272.736;  158.825;  198.925;    0.000
272.802;  184.825;  169.925;    0.000
272.869;  184.825;  141.925;    0.000
272.935;  163.825;  145.925;    0.000
273.001;  173.825;  156.925;    0.000
273.068;  196.825;  157.925;    0.000
273.134;  163.825;  184.925;    0.000
273.200;  207.825;  158.925;    0.000
273.266;  174.825;  150.925;    0.000
273.333;  187.825;  176.925;    0.000
273.399;  133.825;  118.925;    0.000
273.465;  206.825;  184.925;    0.000
273.531;  128.825;  179.925;    0.000
273.597;  192.825;  167.925;    0.000
273.664;  194.825;  186.925;    0.000
273.730;  157.825;  137.925;    0.000
273.796;  182.825;  148.925;    0.000
273.862;  165.825;  183.925;    0.000
273.928;  175.825;  179.925;    0.000
273.995;  206.825;  189.925;    0.000
274.061;  187.825;  188.925;    0.000
274.127;  190.825;  132.925;    0.000
274.193;  141.825;  135.925;    0.000
274.259;  184.825;  177.925;    0.000
274.325;  156.825;  178.925;    0.000
274.391;  144.825;  140.925;    0.000
274.457;  156.825;  158.925;    0.000
274.524;  181.825;  175.925;    0.000
274.590;  193.825;  182.925;    0.000
274.656;  159.825;  165.925;    0.000
274.722;  159.825;  152.925;    0.000
274.788;  157.825;  159.925;    0.000
274.854;  203.825;  143.925;    0.000
274.920;  153.825;  117.925;    0.000
274.986;  190.825;  140.925;    0.000
275.052;  184.825;  174.925;    0.000
275.118;  145.825;  129.925;    0.000
275.184;  176.825;  173.925;    0.000
275.250;  207.825;  196.925;    0.000
275.316;  158.825;  142.925;    0.000
275.382;  175.825;  149.925;    0.000
275.448;  225.825;  178.925;    0.000
275.514;  195.825;  136.925;    0.000
275.580;  160.825;  140.925;    0.000
275.646;  142.825;  133.925;    0.000
275.712;  166.825;  162.925;    0.000
275.778;  171.825;  129.925;    0.000
275.844;  136.825;  156.925;    0.000
275.910;  153.825;  172.925;    0.000
275.976;  184.825;  158.925;    0.000
276.042;  152.825;  141.925;    0.000
276.108;  166.825;  212.925;    0.000
276.174;  147.825;  148.925;    0.000
276.240;  161.825;  134.925;    0.000
276.306;  137.825;  149.925;    0.000
276.372;  175.825;  126.925;    0.000
276.437;  178.825;  168.925;    0.000
276.503;  166.825;  158.925;    0.000
276.569;  173.825;  191.925;    0.000
276.635;  151.825;  130.925;    0.000
276.701;  186.825;  161.925;    0.000
276.767;  154.825;  148.925;    0.000
276.833;  174.825;  147.925;    0.000
276.899;  171.825;  149.925;    0.000
276.964;  172.825;  181.925;    0.000
277.030;  174.825;  186.925;    0.000
277.096;  174.825;  132.925;    0.000
277.162;  184.825;  181.925;    0.000
277.228;  162.825;  166.925;    0.000
277.293;  135.825;  154.925;    0.000
277.359;  170.825;  181.925;    0.000
277.425;  222.825;  184.925;    0.000
277.491;  177.825;  150.925;    0.000
277.557;  190.825;  159.925;    0.000
277.622;  190.825;  129.925;    0.000
277.688;  204.825;  184.925;    0.000
277.754;  194.825;  182.925;    0.000
277.820;  201.825;  149.925;    0.000
277.885;  206.825;  185.925;    0.000
277.951;  202.825;  164.925;    0.000
278.017;  155.825;  162.925;    0.000
278.083;  160.825;  189.925;    0.000
278.148;  193.825;  184.925;    0.000
278.214;  178.825;  188.925;    0.000
278.280;  164.825;  206.925;    0.000
278.345;  196.825;  187.925;    0.000
278.411;  167.825;  174.925;    0.000
278.477;  201.825;  190.925;    0.000
278.542;  168.825;  154.925;    0.000
278.608;  181.825;  191.925;    0.000
278.674;  197.825;  243.925;    0.000
278.739;  184.825;  141.925;    0.000
278.805;  167.825;  171.925;    0.000
278.871;  185.825;  181.925;    0.000
278.936;  143.825;  191.925;    0.000
279.002;  161.825;  201.925;    0.000
279.067;  189.825;  174.925;    0.000
279.133;  180.825;  165.925;    0.000
279.199;  177.825;  122.925;    0.000
279.264;  150.825;  159.925;    0.000
279.330;  171.825;  170.925;    0.000
279.395;  157.825;  173.925;    0.000
279.461;  195.825;  200.925;    0.000
279.527;  163.825;  199.925;    0.000
279.592;  182.825;  203.925;    0.000
279.658;  208.825;  209.925;    0.000
279.723;  205.825;  188.925;    0.000
279.789;  180.825;  180.925;    0.000
279.854;  172.825;  137.925;    0.000
279.920;  172.825;  223.925;    0.000
279.985;  169.825;  186.925;    0.000
280.051;  207.825;  198.925;    0.000
280.116;  177.825;  178.925;    0.000
280.182;  197.825;  176.925;    0.000
280.247;  187.825;  195.925;    0.000
280.313;  193.825;  165.925;    0.000
280.378;  178.825;  153.925;    0.000
280.444;  175.825;  181.925;    0.000
280.509;  169.825;  188.925;    0.000
280.574;  206.825;  149.925;    0.000
280.640;  197.825;  164.925;    0.000
280.705;  150.825;  166.925;    0.000
280.771;  194.825;  188.925;    0.000
280.836;  181.825;  188.925;    0.000
280.902;  176.825;  168.925;    0.000
280.967;  165.825;  202.925;    0.000
281.032;  186.825;  197.925;    0.000
281.098;  146.825;  138.925;    0.000
281.163;  171.825;  160.925;    0.000
281.229;  207.825;  212.925;    0.000
281.294;  217.825;  227.925;    0.000
281.359;  208.825;  200.925;    0.000
281.425;  212.825;  189.925;    0.000
281.490;  186.825;  176.925;    0.000
281.555;  164.825;  182.925;    0.000
281.621;  153.825;  169.925;    0.000
281.686;  165.825;  182.925;    0.000
281.751;  193.825;  208.925;    0.000
281.816;  150.825;  166.925;    0.000
281.882;  197.825;  181.925;    0.000
281.947;  197.825;  178.925;    0.000
282.012;  145.825;  167.925;    0.000
282.078;  191.825;  170.925;    0.000
282.143;  158.825;  157.925;    0.000
282.208;  173.825;  158.925;    0.000
282.273;  193.825;  187.925;    0.000
282.339;  175.825;  185.925;    0.000
282.404;  198.825;  201.925;    0.000
282.469;  174.825;  202.925;    0.000
282.534;  191.825;  185.925;    0.000
282.600;  223.825;  125.925;    0.000
282.665;  176.825;  162.925;    0.000
282.730;  174.825;  174.925;    0.000
282.795;  202.825;  179.925;    0.000
282.860;  178.825;  190.925;    0.000
282.926;  198.825;  200.925;    0.000
282.991;  185.825;  161.925;    0.000
283.056;  184.825;  175.925;    0.000
283.121;  226.825;  181.925;    0.000
283.186;  188.825;  221.925;    0.000
283.251;  182.825;  168.925;    0.000
283.316;  185.825;  156.925;    0.000
283.382;  197.825;  197.925;    0.000
283.447;  214.825;  210.925;    0.000
283.512;  171.825;  164.925;    0.000
283.577;  214.825;  212.925;    0.000
283.642;  213.825;  186.925;    0.000
283.707;  163.825;  182.925;    0.000
283.772;  188.825;  127.925;    0.000
283.837;  150.825;  160.925;    0.000
283.902;  150.825;  162.925;    0.000
283.967;  177.825;  151.925;    0.000
284.032;  188.825;  175.925;    0.000
284.097;  223.825;  235.925;    0.000
284.163;  168.825;  136.925;    0.000
284.228;  204.825;  209.925;    0.000
284.293;  147.825;  163.925;    0.000
284.358;  185.825;  169.925;    0.000
284.423;  150.825;  145.925;    0.000
284.488;  187.825;  134.925;    0.000
284.553;  165.825;  158.925;    0.000
284.618;  144.825;  163.925;    0.000
284.683;  147.825;  168.925;    0.000
284.748;  138.825;  170.925;    0.000
284.812;  160.825;  151.925;    0.000
284.877;  181.825;  169.925;    0.000
284.942;  175.825;  179.925;    0.000
285.007;  234.825;  202.925;    0.000
285.072;  186.825;  171.925;    0.000
285.137;  189.825;  173.925;    0.000
285.202;  167.825;  196.925;    0.000
285.267;  194.825;  193.925;    0.000
285.332;  176.825;  151.925;    0.000
285.397;  164.825;  183.925;    0.000
285.462;  171.825;  168.925;    0.000
285.527;  156.825;  166.925;    0.000
285.591;  184.825;  124.925;    0.000
285.656;  161.825;  145.925;    0.000
285.721;  153.825;  155.925;    0.000
285.786;  188.825;  170.925;    0.000
285.851;  151.825;  175.925;    0.000
285.916;  193.825;  186.925;    0.000
285.981;  173.825;  204.925;    0.000
286.045;  151.825;  237.925;    0.000
286.110;  165.825;  197.925;    0.000
286.175;  158.825;  143.925;    0.000
286.240;  213.825;  167.925;    0.000
286.305;  207.825;  202.925;    0.000
286.369;  168.825;  214.925;    0.000
286.434;  195.825;  206.925;    0.000
286.499;  206.825;  177.925;    0.000
286.564;  207.825;  201.925;    0.000
286.628;  184.825;  153.925;    0.000
286.693;  161.825;  161.925;    0.000
286.758;  160.825;  181.925;    0.000
286.823;  186.825;  176.925;    0.000
286.887;  168.825;  158.925;    0.000
286.952;  173.825;  198.925;    0.000
287.017;  177.825;  196.925;    0.000
287.082;  191.825;  154.925;    0.000
287.146;  180.825;  178.925;    0.000
287.211;  189.825;  165.925;    0.000
287.276;  171.825;  165.925;    0.000
287.340;  185.825;  178.925;    0.000
287.405;  184.825;  177.925;    0.000
287.470;  141.825;  141.925;    0.000
287.534;  197.825;  224.925;    0.000
287.599;  202.825;  184.925;    0.000
287.663;  191.825;  177.925;    0.000
287.728;  171.825;  144.925;    0.000
287.793;  239.825;  210.925;    0.000
287.857;  211.825;  198.925;    0.000
287.922;  184.825;  168.925;    0.000
287.987;  170.825;  168.925;    0.000
288.051;  206.825;  200.925;    0.000
288.116;  206.825;  199.925;    0.000
288.180;  230.825;  211.925;    0.000
288.245;  183.825;  182.925;    0.000
288.309;  172.825;  180.925;    0.000
288.374;  176.825;  196.925;    0.000
288.439;  198.825;  187.925;    0.000
288.503;  146.825;  159.925;    0.000
288.568;  192.825;  207.925;    0.000
288.632;  205.825;  210.925;    0.000
288.697;  233.825;  196.925;    0.000
288.761;  152.825;  175.925;    0.000
288.826;  156.825;  159.925;    0.000
288.890;  223.825;  183.925;    0.000
288.955;  193.825;  149.925;    0.000
289.019;  179.825;  194.925;    0.000
289.084;  175.825;  171.925;    0.000
289.148;  179.825;  191.925;    0.000
289.212;  212.825;  217.925;    0.000
289.277;  169.825;  196.925;    0.000
289.341;  198.825;  211.925;    0.000
289.406;  180.825;  165.925;    0.000
289.470;  172.825;  197.925;    0.000
289.535;  227.825;  208.925;    0.000
289.599;  209.825;  192.925;    0.000
289.663;  192.825;  169.925;    0.000
289.728;  151.825;  168.925;    0.000
289.792;  179.825;  192.925;    0.000
289.857;  204.825;  202.925;    0.000
289.921;  143.825;  176.925;    0.000
289.985;  153.825;  164.925;    0.000
290.050;  166.825;  166.925;    0.000
290.114;  146.825;  192.925;    0.000
290.178;  173.825;  155.925;    0.000
290.243;  156.825;  158.925;    0.000
290.307;  203.825;  192.925;    0.000
290.371;  192.825;  161.925;    0.000
290.436;  190.825;  182.925;    0.000
290.500;  133.825;  147.925;    0.000
290.564;  199.825;  209.925;    0.000
290.629;  178.825;  172.925;    0.000
290.693;  183.825;  192.925;    0.000
290.757;  188.825;  147.925;    0.000
290.821;  197.825;  139.925;    0.000
290.886;  176.825;  186.925;    0.000
290.950;  204.825;  196.925;    0.000
291.014;  192.825;  166.925;    0.000
291.078;  197.825;  143.925;    0.000
291.143;  185.825;  171.925;    0.000
291.207;  235.825;  187.925;    0.000
291.271;  149.825;  208.925;    0.000
291.335;  177.825;  195.925;    0.000
291.399;  167.825;  139.925;    0.000
291.464;  159.825;  139.925;    0.000
291.528;  176.825;  183.925;    0.000
291.592;  185.825;  152.925;    0.000
291.656;  167.825;  155.925;    0.000
291.720;  208.825;  191.925;    0.000
291.784;  188.825;  185.925;    0.000
291.849;  175.825;  175.925;    0.000
291.913;  167.825;  152.925;    0.000
291.977;  190.825;  203.925;    0.000
292.041;  185.825;  181.925;    0.000
292.105;  203.825;  168.925;    0.000
292.169;  162.825;  133.925;    0.000
292.233;  186.825;  156.925;    0.000
292.297;  182.825;  173.925;    0.000
292.361;  157.825;  124.925;    0.000
292.425;  148.825;  138.925;    0.000
292.490;  156.825;  110.925;    0.000
292.554;  200.825;  180.925;    0.000
292.618;  170.825;  178.925;    0.000
292.682;  185.825;  156.925;    0.000
292.746;  169.825;  151.925;    0.000
292.810;  209.825;  183.925;    0.000
292.874;  183.825;  156.925;    0.000
292.938;  216.825;  195.925;    0.000
293.002;  207.825;  200.925;    0.000
293.066;  157.825;  171.925;    0.000
293.130;  137.825;  163.925;    0.000
293.194;  156.825;  174.925;    0.000
293.258;  161.825;  167.925;    0.000
293.322;  154.825;  212.925;    0.000
293.386;  191.825;  189.925;    0.000
293.450;  215.825;  169.925;    0.000
293.514;  173.825;  175.925;    0.000
293.577;  157.825;  169.925;    0.000
293.641;  174.825;  186.925;    0.000
293.705;  216.825;  222.925;    0.000
293.769;  138.825;  150.925;    0.000
293.833;  179.825;  165.925;    0.000
293.897;  183.825;  152.925;    0.000
293.961;  192.825;  179.925;    0.000
294.025;  147.825;  159.925;    0.000
294.089;  172.825;  181.925;    0.000
294.152;  164.825;  188.925;    0.000
294.216;  178.825;  170.925;    0.000
294.280;  175.825;  167.925;    0.000
294.344;  172.825;  151.925;    0.000
294.408;  155.825;  180.925;    0.000
294.472;  135.825;  144.925;    0.000
294.536;  188.825;  171.925;    0.000
294.599;  194.825;  157.925;    0.000
294.663;  157.825;  139.925;    0.000
294.727;  186.825;  208.925;    0.000
294.791;  154.825;  152.925;    0.000
294.855;  183.825;  181.925;    0.000
294.918;  182.825;  136.925;    0.000
294.982;  179.825;  155.925;    0.000
295.046;  160.825;  200.925;    0.000
295.110;  168.825;  190.925;    0.000
295.173;  146.825;  156.925;    0.000
295.237;  172.825;  160.925;    0.000
295.301;  162.825;  145.925;    0.000
295.364;  187.825;  166.925;    0.000
295.428;  161.825;  125.925;    0.000
295.492;  198.825;  154.925;    0.000
295.556;  169.825;  172.925;    0.000
295.619;  188.825;  210.925;    0.000
295.683;  134.825;  181.925;    0.000
295.747;  173.825;  176.925;    0.000
295.810;  172.825;  181.925;    0.000
295.874;  153.825;  160.925;    0.000
295.938;  161.825;  119.925;    0.000
296.001;  160.825;  206.925;    0.000
296.065;  191.825;  136.925;    0.000
296.128;  183.825;  156.925;    0.000
296.192;  193.825;  174.925;    0.000
296.256;  139.825;  145.925;    0.000
296.319;  157.825;  167.925;    0.000
296.383;  172.825;  168.925;    0.000
296.447;  170.825;  190.925;    0.000
296.510;  175.825;  165.925;    0.000
296.574;  156.825;  184.925;    0.000
296.637;  157.825;  155.925;    0.000
296.701;  191.825;  168.925;    0.000
296.764;  188.825;  161.925;    0.000
296.828;  204.825;  218.925;    0.000
296.891;  169.825;  176.925;    0.000
296.955;  183.825;  169.925;    0.000
297.018;  184.825;  168.925;    0.000
297.082;  209.825;  176.925;    0.000
297.145;  157.825;  171.925;    0.000
297.209;  185.825;  196.925;    0.000
297.272;  186.825;  170.925;    0.000
297.336;  165.825;  156.925;    0.000
297.399;  165.825;  168.925;    0.000
297.463;  191.825;  203.925;    0.000
297.526;  199.825;  164.925;    0.000
297.590;  212.825;  175.925;    0.000
297.653;  193.825;  170.925;    0.000
297.717;  163.825;  156.925;    0.000
297.780;  136.825;  149.925;    0.000
297.843;  200.825;  156.925;    0.000
297.907;  191.825;  129.925;    0.000
297.970;  193.825;  163.925;    0.000
298.034;  178.825;  162.925;    0.000
298.097;  173.825;  182.925;    0.000
298.160;  189.825;  194.925;    0.000
298.224;  160.825;  178.925;    0.000
298.287;  163.825;  147.925;    0.000
298.350;  170.825;  187.925;    0.000
298.414;  197.825;  193.925;    0.000
298.477;  173.825;  127.925;    0.000
298.540;  175.825;  181.925;    0.000
298.604;  168.825;  163.925;    0.000
298.667;  170.825;  177.925;    0.000
298.730;  177.825;  192.925;    0.000
298.794;  157.825;  183.925;    0.000
298.857;  180.825;  194.925;    0.000
298.920;  163.825;  147.925;    0.000
298.984;  156.825;  184.925;    0.000
299.047;  179.825;  218.925;    0.000
299.110;  177.825;  171.925;    0.000
299.173;  205.825;  177.925;    0.000
299.237;  208.825;  181.925;    0.000
299.300;  189.825;  170.925;    0.000
299.363;  152.825;  185.925;    0.000
299.426;  183.825;  193.925;    0.000
299.489;  167.825;  184.925;    0.000
299.553;  185.825;  194.925;    0.000
299.616;  175.825;  171.925;    0.000
299.679;  167.825;  182.925;    0.000
299.742;  154.825;  138.925;    0.000
299.805;  172.825;  172.925;    0.000
299.868;  195.825;  191.925;    0.000
299.932;  188.825;  193.925;    0.000
299.995;  176.825;  201.925;    0.000
300.058;  190.825;  177.925;    0.000
300.121;  203.825;  178.925;    0.000
300.184;  176.825;  171.925;    0.000
300.247;  171.825;  184.925;    0.000
300.310;  167.825;  200.925;    0.000
300.374;  204.825;  172.925;    0.000
300.437;  178.825;  187.925;    0.000
300.500;  195.825;  211.925;    0.000
300.563;  172.825;  190.925;    0.000
300.626;  186.825;  196.925;    0.000
300.689;  217.825;  162.925;    0.000
300.752;  148.825;  163.925;    0.000
300.815;  206.825;  207.925;    0.000
300.878;  211.825;  221.925;    0.000
300.941;  188.825;  176.925;    0.000
301.004;  165.825;  193.925;    0.000
301.067;  169.825;  165.925;    0.000
301.130;  190.825;  179.925;    0.000
301.193;  194.825;  196.925;    0.000
301.256;  209.825;  210.925;    0.000
301.319;  195.825;  196.925;    0.000
301.382;  161.825;  162.925;    0.000
301.445;  216.825;  233.925;    0.000
301.508;  170.825;  176.925;    0.000
301.571;  157.825;  185.925;    0.000
301.634;  196.825;  202.925;    0.000
301.697;  193.825;  189.925;    0.000
301.760;  197.825;  224.925;    0.000
301.823;  160.825;  212.925;    0.000
301.885;  209.825;  196.925;    0.000
301.948;  205.825;  169.925;    0.000
302.011;  205.825;  160.925;    0.000
302.074;  203.825;  202.925;    0.000
302.137;  173.825;  130.925;    0.000
302.200;  209.825;  188.925;    0.000
302.263;  195.825;  196.925;    0.000
302.326;  217.825;  172.925;    0.000
302.388;  222.825;  197.925;    0.000
302.451;  183.825;  203.925;    0.000
302.514;  195.825;  164.925;    0.000
302.577;  190.825;  170.925;    0.000
302.640;  173.825;  156.925;    0.000
302.703;  196.825;  188.925;    0.000
302.765;  194.825;  213.925;    0.000
302.828;  212.825;  212.925;    0.000
302.891;  244.825;  203.925;    0.000
302.954;  193.825;  148.925;    0.000
303.016;  193.825;  168.925;    0.000
303.079;  162.825;  206.925;    0.000
303.142;  217.825;  210.925;    0.000
303.205;  197.825;  189.925;    0.000
303.267;  197.825;  174.925;    0.000
303.330;  209.825;  198.925;    0.000
303.393;  212.825;  207.925;    0.000
303.456;  219.825;  177.925;    0.000
303.518;  213.825;  192.925;    0.000
303.581;  185.825;  171.925;    0.000
303.644;  193.825;  193.925;    0.000
303.706;  189.825;  185.925;    0.000
303.769;  230.825;  198.925;    0.000
303.832;  189.825;  192.925;    0.000
303.894;  231.825;  199.925;    0.000
303.957;  213.825;  160.925;    0.000
304.020;  207.825;  184.925;    0.000
304.082;  210.825;  191.925;    0.000
304.145;  201.825;  216.925;    0.000
304.207;  152.825;  175.925;    0.000
304.270;  173.825;  192.925;    0.000
304.333;  194.825;  218.925;    0.000
304.395;  196.825;  195.925;    0.000
304.458;  219.825;  206.925;    0.000
304.520;  201.825;  229.925;    0.000
304.583;  209.825;  202.925;    0.000
304.646;  194.825;  159.925;    0.000
304.708;  189.825;  167.925;    0.000
304.771;  220.825;  141.925;    0.000
304.833;  179.825;  184.925;    0.000
304.896;  209.825;  197.925;    0.000
304.958;  204.825;  179.925;    0.000
305.021;  195.825;  175.925;    0.000
305.083;  201.825;  182.925;    0.000
305.146;  174.825;  182.925;    0.000
305.208;  181.825;  174.925;    0.000
305.271;  147.825;  157.925;    0.000
305.333;  222.825;  185.925;    0.000
305.396;  183.825;  199.925;    0.000
305.458;  200.825;  203.925;    0.000
305.520;  217.825;  195.925;    0.000
305.583;  190.825;  152.925;    0.000
305.645;  266.825;  200.925;    0.000
305.708;  186.825;  149.925;    0.000
305.770;  185.825;  211.925;    0.000
305.833;  175.825;  189.925;    0.000
305.895;  178.825;  200.925;    0.000
305.957;  188.825;  166.925;    0.000
306.020;  164.825;  186.925;    0.000
306.082;  217.825;  197.925;    0.000
306.144;  188.825;  200.925;    0.000
306.207;  208.825;  180.925;    0.000
306.269;  217.825;  209.925;    0.000
306.331;  177.825;  205.925;    0.000
306.394;  189.825;  176.925;    0.000
306.456;  157.825;  184.925;    0.000
306.518;  211.825;  210.925;    0.000
306.581;  183.825;  162.925;    0.000
306.643;  207.825;  196.925;    0.000
306.705;  157.825;  204.925;    0.000
306.768;  211.825;  158.925;    0.000
306.830;  170.825;  205.925;    0.000
306.892;  202.825;  189.925;    0.000
306.954;  212.825;  188.925;    0.000
307.017;  159.825;  180.925;    0.000
307.079;  190.825;  197.925;    0.000
307.141;  210.825;  184.925;    0.000
307.203;  164.825;  182.925;    0.000
307.266;  177.825;  166.925;    0.000
307.328;  192.825;  186.925;    0.000
307.390;  170.825;  176.925;    0.000
307.452;  190.825;  194.925;    0.000
307.514;  209.825;  225.925;    0.000
307.577;  193.825;  209.925;    0.000
307.639;  217.825;  203.925;    0.000
307.701;  200.825;  214.925;    0.000
307.763;  184.825;  203.925;    0.000
307.825;  221.825;  202.925;    0.000
307.887;  231.825;  244.925;    0.000
307.949;  183.825;  173.925;    0.000
308.012;  223.825;  219.925;    0.000
308.074;  203.825;  157.925;    0.000
308.136;  241.825;  215.925;    0.000
308.198;  180.825;  186.925;    0.000
308.260;  206.825;  186.925;    0.000
308.322;  206.825;  201.925;    0.000
308.384;  208.825;  218.925;    0.000
308.446;  169.825;  159.925;    0.000
308.508;  199.825;  191.925;    0.000
308.570;  182.825;  185.925;    0.000
308.632;  202.825;  208.925;    0.000
308.694;  191.825;  161.925;    0.000
308.756;  195.825;  169.925;    0.000
308.818;  222.825;  187.925;    0.000
308.880;  184.825;  192.925;    0.000
308.942;  218.825;  194.925;    0.000
309.004;  226.825;  206.925;    0.000
309.066;  152.825;  204.925;    0.000
309.128;  196.825;  181.925;    0.000
309.190;  197.825;  166.925;    0.000
309.252;  190.825;  213.925;    0.000
309.314;  266.825;  249.925;    0.000
309.376;  203.825;  238.925;    0.000
309.438;  181.825;  206.925;    0.000
309.500;  211.825;  185.925;    0.000
309.562;  198.825;  214.925;    0.000
309.624;  196.825;  216.925;    0.000
309.686;  206.825;  197.925;    0.000
309.747;  169.825;  171.925;    0.000
309.809;  194.825;  198.925;    0.000
309.871;  192.825;  185.925;    0.000
309.933;  187.825;  172.925;    0.000
309.995;  190.825;  168.925;    0.000
310.057;  169.825;  177.925;    0.000
310.119;  208.825;  207.925;    0.000
310.180;  185.825;  180.925;    0.000
310.242;  186.825;  202.925;    0.000
310.304;  220.825;  200.925;    0.000
310.366;  205.825;  222.925;    0.000
310.428;  189.825;  179.925;    0.000
310.489;  183.825;  196.925;    0.000
310.551;  218.825;  203.925;    0.000
310.613;  211.825;  198.925;    0.000
310.675;  223.825;  203.925;    0.000
310.737;  207.825;  195.925;    0.000
310.798;  194.825;  204.925;    0.000
310.860;  232.825;  195.925;    0.000
310.922;  224.825;  195.925;    0.000
310.983;  232.825;  225.925;    0.000
311.045;  224.825;  203.925;    0.000
311.107;  226.825;  194.925;    0.000
311.169;  159.825;  185.925;    0.000
311.230;  195.825;  175.925;    0.000
311.292;  215.825;  220.925;    0.000
311.354;  193.825;  189.925;    0.000
311.415;  208.825;  187.925;    0.000
311.477;  214.825;  180.925;    0.000
311.539;  178.825;  175.925;    0.000
311.600;  202.825;  192.925;    0.000
311.662;  241.825;  212.925;    0.000
311.724;  181.825;  217.925;    0.000
311.785;  166.825;  218.925;    0.000
311.847;  190.825;  219.925;    0.000
311.908;  214.825;  202.925;    0.000
311.970;  215.825;  186.925;    0.000
312.032;  217.825;  212.925;    0.000
312.093;  208.825;  203.925;    0.000
312.155;  204.825;  165.925;    0.000
312.216;  174.825;  183.925;    0.000
312.278;  170.825;  167.925;    0.000
312.339;  175.825;  190.925;    0.000
312.401;  237.825;  219.925;    0.000
312.462;  219.825;  190.925;    0.000
312.524;  206.825;  203.925;    0.000
312.585;  206.825;  191.925;    0.000
312.647;  180.825;  197.925;    0.000
312.708;  195.825;  203.925;    0.000
312.770;  206.825;  203.925;    0.000
312.831;  176.825;  155.925;    0.000
312.893;  194.825;  189.925;    0.000
312.954;  239.825;  212.925;    0.000
313.016;  226.825;  179.925;    0.000
313.077;  214.825;  209.925;    0.000
313.139;  181.825;  185.925;    0.000
313.200;  194.825;  180.925;    0.000
313.261;  206.825;  220.925;    0.000
313.323;  212.825;  171.925;    0.000
313.384;  194.825;  180.925;    0.000
313.446;  235.825;  202.925;    0.000
313.507;  174.825;  172.925;    0.000
313.568;  198.825;  192.925;    0.000
313.630;  187.825;  191.925;    0.000
313.691;  206.825;  176.925;    0.000
313.752;  202.825;  175.925;    0.000
313.814;  208.825;  202.925;    0.000
313.875;  216.825;  186.925;    0.000
313.936;  210.825;  199.925;    0.000
313.998;  154.825;  164.925;    0.000
314.059;  216.825;  159.925;    0.000
314.120;  173.825;  175.925;    0.000
314.182;  181.825;  181.925;    0.000
314.243;  196.825;  157.925;    0.000
314.304;  176.825;  168.925;    0.000
314.365;  235.825;  203.925;    0.000
314.427;  181.825;  151.925;    0.000
314.488;  171.825;  174.925;    0.000
314.549;  185.825;  184.925;    0.000
314.610;  181.825;  198.925;    0.000
314.672;  212.825;  193.925;    0.000
314.733;  189.825;  171.925;    0.000
314.794;  188.825;  141.925;    0.000
314.855;  215.825;  184.925;    0.000
314.917;  197.825;  175.925;    0.000
314.978;  201.825;  190.925;    0.000
315.039;  197.825;  183.925;    0.000
315.100;  185.825;  204.925;    0.000
315.161;  174.825;  202.925;    0.000
315.222;  203.825;  177.925;    0.000
315.283;  145.825;  191.925;    0.000
315.345;  195.825;  185.925;    0.000
315.406;  181.825;  194.925;    0.000
315.467;  202.825;  167.925;    0.000
315.528;  182.825;  174.925;    0.000
315.589;  189.825;  197.925;    0.000
315.650;  176.825;  192.925;    0.000
315.711;  203.825;  181.925;    0.000
315.772;  172.825;  157.925;    0.000
315.833;  190.825;  189.925;    0.000
315.894;  155.825;  184.925;    0.000
315.955;  185.825;  202.925;    0.000
316.016;  174.825;  220.925;    0.000
316.078;  185.825;  180.925;    0.000
316.139;  236.825;  240.925;    0.000
316.200;  166.825;  190.925;    0.000
316.261;  173.825;  179.925;    0.000
316.322;  232.825;  176.925;    0.000
316.383;  195.825;  188.925;    0.000
316.444;  217.825;  228.925;    0.000
316.504;  214.825;  199.925;    0.000
316.565;  203.825;  221.925;    0.000
316.626;  177.825;  204.925;    0.000
316.687;  216.825;  192.925;    0.000
316.748;  203.825;  220.925;    0.000
316.809;  210.825;  175.925;    0.000
316.870;  184.825;  164.925;    0.000
316.931;  205.825;  208.925;    0.000
316.992;  199.825;  224.925;    0.000
317.053;  220.825;  204.925;    0.000
317.114;  204.825;  199.925;    0.000
317.175;  235.825;  230.925;    0.000
317.235;  205.825;  186.925;    0.000
317.296;  168.825;  224.925;    0.000
317.357;  165.825;  154.925;    0.000
317.418;  203.825;  219.925;    0.000
317.479;  236.825;  229.925;    0.000
317.540;  217.825;  201.925;    0.000
317.601;  181.825;  180.925;    0.000
317.661;  185.825;  179.925;    0.000
317.722;  216.825;  193.925;    0.000
317.783;  165.825;  164.925;    0.000
317.844;  215.825;  232.925;    0.000
317.904;  213.825;  222.925;    0.000
317.965;  177.825;  199.925;    0.000
318.026;  215.825;  200.925;    0.000
318.087;  245.825;  182.925;    0.000
318.148;  194.825;  216.925;    0.000
318.208;  241.825;  239.925;    0.000
318.269;  203.825;  163.925;    0.000
318.330;  232.825;  204.925;    0.000
318.390;  181.825;  191.925;    0.000
318.451;  180.825;  200.925;    0.000
318.512;  173.825;  181.925;    0.000
318.572;  176.825;  233.925;    0.000
318.633;  229.825;  220.925;    0.000
318.694;  207.825;  179.925;    0.000
318.754;  211.825;  214.925;    0.000
318.815;  213.825;  214.925;    0.000
318.876;  209.825;  220.925;    0.000
318.936;  203.825;  212.925;    0.000
318.997;  192.825;  201.925;    0.000
319.058;  196.825;  215.925;    0.000
319.118;  233.825;  251.925;    0.000
319.179;  187.825;  240.925;    0.000
319.239;  220.825;  240.925;    0.000
319.300;  229.825;  232.925;    0.000
319.361;  225.825;  211.925;    0.000
319.421;  225.825;  219.925;    0.000
319.482;  190.825;  228.925;    0.000
319.542;  195.825;  216.925;    0.000
319.603;  191.825;  190.925;    0.000
319.663;  195.825;  227.925;    0.000
319.724;  145.825;  191.925;    0.000
319.784;  218.825;  196.925;    0.000
319.845;  236.825;  190.925;    0.000
319.905;  204.825;  221.925;    0.000
319.966;  236.825;  219.925;    0.000
320.026;  231.825;  233.925;    0.000
320.087;  198.825;  204.925;    0.000
320.147;  177.825;  189.925;    0.000
320.208;  175.825;  200.925;    0.000
320.268;  169.825;  217.925;    0.000
320.329;  228.825;  216.925;    0.000
320.389;  220.825;  228.925;    0.000
320.449;  227.825;  236.925;    0.000
320.510;  238.825;  234.925;    0.000
320.570;  241.825;  176.925;    0.000
320.631;  185.825;  228.925;    0.000
320.691;  219.825;  228.925;    0.000
320.751;  212.825;  188.925;    0.000
320.812;  202.825;  223.925;    0.000
320.872;  283.825;  268.925;    0.000
320.932;  223.825;  226.925;    0.000
320.993;  220.825;  216.925;    0.000
321.053;  251.825;  236.925;    0.000
321.113;  200.825;  197.925;    0.000
321.174;  226.825;  218.925;    0.000
321.234;  252.825;  229.925;    0.000
321.294;  235.825;  208.925;    0.000
321.355;  242.825;  248.925;    0.000
321.415;  211.825;  218.925;    0.000
321.475;  204.825;  173.925;    0.000
321.535;  245.825;  234.925;    0.000
321.596;  230.825;  202.925;    0.000
321.656;  228.825;  246.925;    0.000
321.716;  226.825;  235.925;    0.000
321.776;  223.825;  210.925;    0.000
321.837;  239.825;  217.925;    0.000
321.897;  220.825;  215.925;    0.000
321.957;  227.825;  239.925;    0.000
322.017;  224.825;  173.925;    0.000
322.077;  248.825;  263.925;    0.000
322.138;  250.825;  232.925;    0.000
322.198;  237.825;  211.925;    0.000
322.258;  206.825;  213.925;    0.000
322.318;  207.825;  168.925;    0.000
322.378;  229.825;  251.925;    0.000
322.438;  242.825;  212.925;    0.000
322.499;  227.825;  265.925;    0.000
322.559;  230.825;  210.925;    0.000
322.619;  226.825;  242.925;    0.000
322.679;  213.825;  229.925;    0.000
322.739;  194.825;  216.925;    0.000
322.799;  254.825;  238.925;    0.000
322.859;  234.825;  249.925;    0.000
322.919;  232.825;  211.925;    0.000
322.979;  225.825;  244.925;    0.000
323.039;  234.825;  226.925;    0.000
323.099;  216.825;  223.925;    0.000
323.159;  226.825;  232.925;    0.000
323.219;  215.825;  203.925;    0.000
323.279;  257.825;  218.925;    0.000
323.339;  254.825;  231.925;    0.000
323.399;  209.825;  255.925;    0.000
323.459;  244.825;  244.925;    0.000
323.519;  244.825;  213.925;    0.000
323.579;  187.825;  193.925;    0.000
323.639;  216.825;  191.925;    0.000
323.699;  217.825;  199.925;    0.000
323.759;  213.825;  246.925;    0.000
323.819;  197.825;  206.925;    0.000
323.879;  210.825;  238.925;    0.000
323.939;  205.825;  229.925;    0.000
323.999;  195.825;  219.925;    0.000
324.059;  245.825;  177.925;    0.000
324.119;  249.825;  235.925;    0.000
324.178;  190.825;  211.925;    0.000
324.238;  183.825;  168.925;    0.000
324.298;  226.825;  205.925;    0.000
324.358;  233.825;  224.925;    0.000
324.418;  233.825;  235.925;    0.000
324.478;  206.825;  187.925;    0.000
324.538;  212.825;  230.925;    0.000
324.597;  208.825;  206.925;    0.000
324.657;  213.825;  180.925;    0.000
324.717;  199.825;  175.925;    0.000
324.777;  164.825;  169.925;    0.000
324.837;  199.825;  165.925;    0.000
324.896;  219.825;  205.925;    0.000
324.956;  217.825;  216.925;    0.000
325.016;  192.825;  197.925;    0.000
325.076;  223.825;  220.925;    0.000
325.135;  220.825;  242.925;    0.000
325.195;  222.825;  186.925;    0.000
325.255;  181.825;  160.925;    0.000
325.315;  231.825;  198.925;    0.000
325.374;  202.825;  208.925;    0.000
325.434;  193.825;  209.925;    0.000
325.494;  180.825;  191.925;    0.000
325.553;  203.825;  190.925;    0.000
325.613;  222.825;  229.925;    0.000
325.673;  198.825;  172.925;    0.000
325.732;  219.825;  160.925;    0.000
325.792;  209.825;  177.925;    0.000
325.852;  216.825;  201.925;    0.000
325.911;  204.825;  226.925;    0.000
325.971;  234.825;  224.925;    0.000
326.031;  222.825;  202.925;    0.000
326.090;  201.825;  232.925;    0.000
326.150;  191.825;  230.925;    0.000
326.209;  225.825;  201.925;    0.000
326.269;  240.825;  202.925;    0.000
326.328;  222.825;  203.925;    0.000
326.388;  137.825;  194.925;    0.000
326.448;  220.825;  233.925;    0.000
326.507;  215.825;  192.925;    0.000
326.567;  163.825;  163.925;    0.000
326.626;  230.825;  227.925;    0.000
326.686;  169.825;  177.925;    0.000
326.745;  177.825;  210.925;    0.000
326.805;  202.825;  198.925;    0.000
326.864;  216.825;  185.925;    0.000
326.924;  222.825;  255.925;    0.000
326.983;  207.825;  208.925;    0.000
327.043;  209.825;  241.925;    0.000
327.102;  234.825;  183.925;    0.000
327.161;  199.825;  210.925;    0.000
327.221;  186.825;  213.925;    0.000
327.280;  190.825;  194.925;    0.000
327.340;  231.825;  212.925;    0.000
327.399;  216.825;  209.925;    0.000
327.459;  192.825;  229.925;    0.000
327.518;  202.825;  196.925;    0.000
327.577;  216.825;  197.925;    0.000
327.637;  228.825;  210.925;    0.000
327.696;  213.825;  196.925;    0.000
327.755;  217.825;  216.925;    0.000
327.815;  228.825;  240.925;    0.000
327.874;  275.825;  250.925;    0.000
327.933;  243.825;  229.925;    0.000
327.993;  215.825;  202.925;    0.000
328.052;  207.825;  178.925;    0.000
328.111;  217.825;  230.925;    0.000
328.171;  212.825;  207.925;    0.000
328.230;  238.825;  170.925;    0.000
328.289;  236.825;  205.925;    0.000
328.349;  252.825;  235.925;    0.000
328.408;  233.825;  231.925;    0.000
328.467;  225.825;  217.925;    0.000
328.526;  222.825;  239.925;    0.000
328.586;  237.825;  214.925;    0.000
328.645;  241.825;  205.925;    0.000
328.704;  215.825;  211.925;    0.000
328.763;  187.825;  208.925;    0.000
328.822;  248.825;  251.925;    0.000
328.882;  233.825;  211.925;    0.000
328.941;  245.825;  232.925;    0.000
329.000;  238.825;  235.925;    0.000
329.059;  260.825;  222.925;    0.000
329.118;  253.825;  265.925;    0.000
329.177;  239.825;  237.925;    0.000
329.237;  259.825;  258.925;    0.000
329.296;  234.825;  225.925;    0.000
329.355;  225.825;  227.925;    0.000
329.414;  211.825;  212.925;    0.000
329.473;  254.825;  250.925;    0.000
329.532;  284.825;  263.925;    0.000
329.591;  220.825;  212.925;    0.000
329.650;  213.825;  219.925;    0.000
329.709;  234.825;  218.925;    0.000
329.768;  216.825;  195.925;    0.000
329.827;  259.825;  223.925;    0.000
329.886;  213.825;  230.925;    0.000
329.945;  205.825;  211.925;    0.000
330.004;  256.825;  247.925;    0.000
330.063;  219.825;  193.925;    0.000
330.122;  220.825;  229.925;    0.000
330.181;  231.825;  223.925;    0.000
330.240;  191.825;  199.925;    0.000
330.299;  223.825;  211.925;    0.000
330.358;  204.825;  198.925;    0.000
330.417;  173.825;  190.925;    0.000
330.476;  204.825;  237.925;    0.000
330.535;  250.825;  239.925;    0.000
330.594;  250.825;  207.925;    0.000
330.653;  191.825;  193.925;    0.000
330.712;  217.825;  225.925;    0.000
330.771;  225.825;  236.925;    0.000
330.830;  240.825;  219.925;    0.000
330.889;  246.825;  211.925;    0.000
330.948;  194.825;  194.925;    0.000
331.006;  207.825;  190.925;    0.000
331.065;  245.825;  192.925;    0.000
331.124;  255.825;  195.925;    0.000
331.183;  194.825;  191.925;    0.000
331.242;  208.825;  203.925;    0.000
331.301;  190.825;  183.925;    0.000
331.359;  239.825;  196.925;    0.000
331.418;  232.825;  209.925;    0.000
331.477;  266.825;  255.925;    0.000
331.536;  217.825;  237.925;    0.000
331.595;  190.825;  217.925;    0.000
331.653;  254.825;  198.925;    0.000
331.712;  211.825;  194.925;    0.000
331.771;  214.825;  229.925;    0.000
331.830;  231.825;  254.925;    0.000
331.888;  222.825;  218.925;    0.000
331.947;  226.825;  211.925;    0.000
332.006;  258.825;  261.925;    0.000
332.065;  206.825;  204.925;    0.000
332.123;  226.825;  225.925;    0.000
332.182;  198.825;  193.925;    0.000
332.241;  206.825;  201.925;    0.000
332.299;  198.825;  182.925;    0.000
332.358;  242.825;  244.925;    0.000
332.417;  188.825;  218.925;    0.000
332.475;  220.825;  218.925;    0.000
332.534;  240.825;  228.925;    0.000
332.592;  192.825;  199.925;    0.000
332.651;  220.825;  204.925;    0.000
332.710;  257.825;  217.925;    0.000
332.768;  241.825;  195.925;    0.000
332.827;  215.825;  182.925;    0.000
332.885;  219.825;  247.925;    0.000
332.944;  193.825;  170.925;    0.000
333.003;  231.825;  200.925;    0.000
333.061;  213.825;  243.925;    0.000
333.120;  224.825;  235.925;    0.000
333.178;  252.825;  195.925;    0.000
333.237;  201.825;  217.925;    0.000
333.295;  248.825;  252.925;    0.000
333.354;  229.825;  201.925;    0.000
333.412;  193.825;  181.925;    0.000
333.471;  213.825;  239.925;    0.000
333.529;  261.825;  214.925;    0.000
333.588;  201.825;  232.925;    0.000
333.646;  229.825;  202.925;    0.000
333.705;  231.825;  232.925;    0.000
333.763;  239.825;  215.925;    0.000
333.822;  187.825;  187.925;    0.000
333.880;  193.825;  186.925;    0.000
333.938;  185.825;  185.925;    0.000
333.997;  196.825;  234.925;    0.000
334.055;  256.825;  255.925;    0.000
334.114;  214.825;  225.925;    0.000
334.172;  183.825;  209.925;    0.000
334.230;  193.825;  194.925;    0.000
334.289;  221.825;  213.925;    0.000
334.347;  227.825;  235.925;    0.000
334.405;  248.825;  242.925;    0.000
334.464;  238.825;  208.925;    0.000
334.522;  209.825;  197.925;    0.000
334.580;  213.825;  204.925;    0.000
334.639;  212.825;  217.925;    0.000
334.697;  181.825;  183.925;    0.000
334.755;  244.825;  196.925;    0.000
334.814;  245.825;  216.925;    0.000
334.872;  221.825;  190.925;    0.000
334.930;  209.825;  162.925;    0.000
334.988;  211.825;  261.925;    0.000
335.047;  203.825;  220.925;    0.000
335.105;  227.825;  190.925;    0.000
335.163;  223.825;  201.925;    0.000
335.221;  223.825;  213.925;    0.000
335.280;  206.825;  202.925;    0.000
335.338;  248.825;  210.925;    0.000
335.396;  242.825;  255.925;    0.000
335.454;  234.825;  216.925;    0.000
335.512;  248.825;  242.925;    0.000
335.570;  250.825;  227.925;    0.000
335.629;  253.825;  225.925;    0.000
335.687;  228.825;  227.925;    0.000
335.745;  194.825;  194.925;    0.000
335.803;  199.825;  221.925;    0.000
335.861;  220.825;  217.925;    0.000
335.919;  231.825;  214.925;    0.000
335.977;  229.825;  209.925;    0.000
336.035;  236.825;  215.925;    0.000
336.094;  220.825;  198.925;    0.000
336.152;  205.825;  222.925;    0.000
336.210;  232.825;  225.925;    0.000
336.268;  243.825;  234.925;    0.000
336.326;  231.825;  209.925;    0.000
336.384;  227.825;  271.925;    0.000
336.442;  205.825;  207.925;    0.000
336.500;  237.825;  226.925;    0.000
336.558;  244.825;  219.925;    0.000
336.616;  278.825;  260.925;    0.000
336.674;  180.825;  205.925;    0.000
336.732;  229.825;  225.925;    0.000
336.790;  225.825;  191.925;    0.000
336.848;  217.825;  219.925;    0.000
336.906;  230.825;  230.925;    0.000
336.964;  229.825;  226.925;    0.000
337.022;  205.825;  266.925;    0.000
337.080;  251.825;  231.925;    0.000
337.138;  233.825;  249.925;    0.000
337.195;  228.825;  207.925;    0.000
337.253;  215.825;  207.925;    0.000
337.311;  217.825;  225.925;    0.000
337.369;  226.825;  211.925;    0.000
337.427;  217.825;  196.925;    0.000
337.485;  193.825;  269.925;    0.000
337.543;  234.825;  227.925;    0.000
337.601;  223.825;  260.925;    0.000
337.658;  226.825;  237.925;    0.000
337.716;  211.825;  222.925;    0.000
337.774;  239.825;  256.925;    0.000
337.832;  254.825;  223.925;    0.000
337.890;  174.825;  188.925;    0.000
337.947;  228.825;  212.925;    0.000
338.005;  252.825;  217.925;    0.000
338.063;  222.825;  200.925;    0.000
338.121;  244.825;  217.925;    0.000
338.178;  246.825;  236.925;    0.000
338.236;  229.825;  218.925;    0.000
338.294;  253.825;  238.925;    0.000
338.352;  232.825;  266.925;    0.000
338.409;  213.825;  240.925;    0.000
338.467;  220.825;  210.925;    0.000
338.525;  241.825;  255.925;    0.000
338.583;  197.825;  239.925;    0.000
338.640;  239.825;  243.925;    0.000
338.698;  211.825;  204.925;    0.000
338.756;  217.825;  219.925;    0.000
338.813;  249.825;  227.925;    0.000
338.871;  235.825;  227.925;    0.000
338.928;  258.825;  211.925;    0.000
338.986;  224.825;  254.925;    0.000
339.044;  245.825;  207.925;    0.000
339.101;  245.825;  229.925;    0.000
339.159;  240.825;  237.925;    0.000
339.216;  254.825;  231.925;    0.000
339.274;  255.825;  301.925;    0.000
339.332;  261.825;  259.925;    0.000
339.389;  249.825;  258.925;    0.000
339.447;  235.825;  226.925;    0.000
339.504;  234.825;  229.925;    0.000
339.562;  256.825;  244.925;    0.000
339.619;  267.825;  265.925;    0.000
339.677;  293.825;  253.925;    0.000
339.734;  232.825;  191.925;    0.000
339.792;  248.825;  238.925;    0.000
339.849;  237.825;  236.925;    0.000
339.907;  254.825;  254.925;    0.000
339.964;  235.825;  196.925;    0.000
340.022;  273.825;  247.925;    0.000
340.079;  239.825;  275.925;    0.000
340.137;  253.825;  248.925;    0.000
340.194;  274.825;  263.925;    0.000
340.252;  256.825;  266.925;    0.000
340.309;  223.825;  211.925;    0.000
340.366;  250.825;  237.925;    0.000
340.424;  277.825;  260.925;    0.000
340.481;  270.825;  255.925;    0.000
340.538;  227.825;  235.925;    0.000
340.596;  228.825;  225.925;    0.000
340.653;  218.825;  230.925;    0.000
340.711;  249.825;  272.925;    0.000
340.768;  270.825;  253.925;    0.000
340.825;  236.825;  201.925;    0.000
340.883;  209.825;  232.925;    0.000
340.940;  246.825;  247.925;    0.000
340.997;  241.825;  244.925;    0.000
341.054;  234.825;  244.925;    0.000
341.112;  213.825;  258.925;    0.000
341.169;  271.825;  238.925;    0.000
341.226;  238.825;  213.925;    0.000
341.284;  197.825;  240.925;    0.000
341.341;  220.825;  194.925;    0.000
341.398;  187.825;  191.925;    0.000
341.455;  222.825;  227.925;    0.000
341.512;  274.825;  238.925;    0.000
341.570;  235.825;  236.925;    0.000
341.627;  253.825;  241.925;    0.000
341.684;  208.825;  225.925;    0.000
341.741;  264.825;  299.925;    0.000
341.798;  260.825;  265.925;    0.000
341.856;  228.825;  230.925;    0.000
341.913;  245.825;  234.925;    0.000
341.970;  243.825;  260.925;    0.000
342.027;  235.825;  255.925;    0.000
342.084;  247.825;  260.925;    0.000
342.141;  209.825;  263.925;    0.000
342.198;  209.825;  245.925;    0.000
342.255;  224.825;  210.925;    0.000
342.313;  246.825;  251.925;    0.000
342.370;  206.825;  234.925;    0.000
342.427;  251.825;  249.925;    0.000
342.484;  257.825;  254.925;    0.000
342.541;  209.825;  229.925;    0.000
342.598;  274.825;  255.925;    0.000
342.655;  208.825;  225.925;    0.000
342.712;  254.825;  224.925;    0.000
342.769;  239.825;  215.925;    0.000
342.826;  253.825;  240.925;    0.000
342.883;  222.825;  233.925;    0.000
342.940;  251.825;  212.925;    0.000
342.997;  250.825;  236.925;    0.000
343.054;  224.825;  255.925;    0.000
343.111;  229.825;  228.925;    0.000
343.168;  228.825;  230.925;    0.000
343.225;  238.825;  258.925;    0.000
343.282;  254.825;  202.925;    0.000
343.339;  275.825;  253.925;    0.000
343.395;  235.825;  232.925;    0.000
343.452;  255.825;  253.925;    0.000
343.509;  254.825;  213.925;    0.000
343.566;  262.825;  259.925;    0.000
343.623;  226.825;  244.925;    0.000
343.680;  242.825;  232.925;    0.000
343.737;  210.825;  222.925;    0.000
343.794;  246.825;  204.925;    0.000
343.850;  224.825;  249.925;    0.000
343.907;  252.825;  212.925;    0.000
343.964;  266.825;  226.925;    0.000
344.021;  248.825;  251.925;    0.000
344.078;  272.825;  246.925;    0.000
344.134;  245.825;  218.925;    0.000
344.191;  237.825;  244.925;    0.000
344.248;  234.825;  211.925;    0.000
344.305;  215.825;  221.925;    0.000
344.361;  187.825;  247.925;    0.000
344.418;  267.825;  265.925;    0.000
344.475;  235.825;  254.925;    0.000
344.532;  274.825;  233.925;    0.000
344.588;  254.825;  236.925;    0.000
344.645;  232.825;  249.925;    0.000
344.702;  212.825;  220.925;    0.000
344.758;  280.825;  255.925;    0.000
344.815;  220.825;  236.925;    0.000
344.872;  224.825;  218.925;    0.000
344.928;  229.825;  230.925;    0.000
344.985;  253.825;  222.925;    0.000
345.042;  225.825;  199.925;    0.000
345.098;  203.825;  226.925;    0.000
345.155;  219.825;  245.925;    0.000
345.212;  253.825;  225.925;    0.000
345.268;  293.825;  237.925;    0.000
345.325;  189.825;  213.925;    0.000
345.381;  234.825;  267.925;    0.000
345.438;  268.825;  240.925;    0.000
345.495;  251.825;  254.925;    0.000
345.551;  271.825;  248.925;    0.000
345.608;  215.825;  196.925;    0.000
345.664;  232.825;  245.925;    0.000
345.721;  261.825;  252.925;    0.000
345.777;  224.825;  245.925;    0.000
345.834;  240.825;  210.925;    0.000
345.890;  226.825;  244.925;    0.000
345.947;  239.825;  238.925;    0.000
346.003;  275.825;  224.925;    0.000
346.060;  173.825;  206.925;    0.000
346.116;  257.825;  237.925;    0.000
346.173;  248.825;  242.925;    0.000
346.229;  256.825;  269.925;    0.000
346.285;  252.825;  262.925;    0.000
346.342;  231.825;  263.925;    0.000
346.398;  223.825;  224.925;    0.000
346.455;  253.825;  237.925;    0.000
346.511;  271.825;  216.925;    0.000
346.567;  215.825;  211.925;    0.000
346.624;  246.825;  225.925;    0.000
346.680;  236.825;  242.925;    0.000
346.737;  251.825;  244.925;    0.000
346.793;  272.825;  260.925;    0.000
346.849;  246.825;  251.925;    0.000
346.906;  254.825;  260.925;    0.000
346.962;  311.825;  267.925;    0.000
347.018;  258.825;  246.925;    0.000
347.074;  249.825;  272.925;    0.000
347.131;  266.825;  211.925;    0.000
347.187;  230.825;  240.925;    0.000
347.243;  242.825;  233.925;    0.000
347.300;  214.825;  225.925;    0.000
347.356;  247.825;  236.925;    0.000
347.412;  298.825;  237.925;    0.000
347.468;  252.825;  284.925;    0.000
347.524;  228.825;  252.925;    0.000
347.581;  290.825;  278.925;    0.000
347.637;  274.825;  262.925;    0.000
347.693;  256.825;  268.925;    0.000
347.749;  285.825;  260.925;    0.000
347.805;  245.825;  224.925;    0.000
347.862;  258.825;  243.925;    0.000
347.918;  250.825;  257.925;    0.000
347.974;  293.825;  248.925;    0.000
348.030;  255.825;  242.925;    0.000
348.086;  231.825;  234.925;    0.000
348.142;  248.825;  239.925;    0.000
348.198;  242.825;  260.925;    0.000
348.254;  277.825;  262.925;    0.000
348.311;  262.825;  263.925;    0.000
348.367;  268.825;  235.925;    0.000
348.423;  253.825;  205.925;    0.000
348.479;  262.825;  234.925;    0.000
348.535;  253.825;  257.925;    0.000
348.591;  276.825;  267.925;    0.000
348.647;  241.825;  243.925;    0.000
348.703;  259.825;  278.925;    0.000
348.759;  262.825;  259.925;    0.000
348.815;  281.825;  288.925;    0.000
348.871;  291.825;  269.925;    0.000
348.927;  249.825;  239.925;    0.000
348.983;  250.825;  289.925;    0.000
349.039;  254.825;  221.925;    0.000
349.095;  259.825;  252.925;    0.000
349.151;  234.825;  226.925;    0.000
349.207;  233.825;  263.925;    0.000
349.263;  240.825;  194.925;    0.000
349.319;  244.825;  212.925;    0.000
349.374;  240.825;  236.925;    0.000
349.430;  236.825;  229.925;    0.000
349.486;  243.825;  247.925;    0.000
349.542;  259.825;  263.925;    0.000
349.598;  239.825;  248.925;    0.000
349.654;  253.825;  252.925;    0.000
349.710;  237.825;  230.925;    0.000
349.766;  240.825;  201.925;    0.000
349.821;  244.825;  229.925;    0.000
349.877;  278.825;  282.925;    0.000
349.933;  239.825;  240.925;    0.000
349.989;  279.825;  251.925;    0.000
350.045;  249.825;  240.925;    0.000
350.100;  253.825;  256.925;    0.000
350.156;  258.825;  243.925;    0.000
350.212;  238.825;  250.925;    0.000
350.268;  244.825;  251.925;    0.000
350.323;  243.825;  208.925;    0.000
350.379;  213.825;  244.925;    0.000
350.435;  246.825;  237.925;    0.000
350.491;  194.825;  201.925;    0.000
350.546;  259.825;  225.925;    0.000
350.602;  216.825;  260.925;    0.000
350.658;  241.825;  224.925;    0.000
350.713;  242.825;  264.925;    0.000
350.769;  230.825;  196.925;    0.000
350.825;  222.825;  202.925;    0.000
350.880;  215.825;  232.925;    0.000
350.936;  279.825;  242.925;    0.000
350.992;  246.825;  238.925;    0.000
351.047;  228.825;  242.925;    0.000
351.103;  226.825;  199.925;    0.000
351.158;  242.825;  242.925;    0.000
351.214;  214.825;  225.925;    0.000
351.270;  182.825;  197.925;    0.000
351.325;  215.825;  231.925;    0.000
351.381;  220.825;  215.925;    0.000
351.436;  258.825;  233.925;    0.000
351.492;  228.825;  216.925;    0.000
351.547;  236.825;  244.925;    0.000
351.603;  234.825;  249.925;    0.000
351.658;  235.825;  249.925;    0.000
351.714;  216.825;  222.925;    0.000
351.769;  239.825;  222.925;    0.000
351.825;  259.825;  226.925;    0.000
351.880;  230.825;  238.925;    0.000
351.936;  260.825;  230.925;    0.000
351.991;  259.825;  243.925;    0.000
352.047;  234.825;  201.925;    0.000
352.102;  224.825;  243.925;    0.000
352.158;  228.825;  193.925;    0.000
352.213;  225.825;  219.925;    0.000
352.268;  222.825;  205.925;    0.000
352.324;  232.825;  246.925;    0.000
352.379;  257.825;  247.925;    0.000
352.434;  251.825;  252.925;    0.000
352.490;  221.825;  205.925;    0.000
352.545;  240.825;  262.925;    0.000
352.601;  267.825;  229.925;    0.000
352.656;  205.825;  207.925;    0.000
352.711;  206.825;  228.925;    0.000
352.767;  213.825;  216.925;    0.000
352.822;  249.825;  219.925;    0.000
352.877;  258.825;  234.925;    0.000
352.932;  233.825;  249.925;    0.000
352.988;  244.825;  196.925;    0.000
353.043;  261.825;  228.925;    0.000
353.098;  255.825;  231.925;    0.000
353.153;  278.825;  235.925;    0.000
353.209;  229.825;  250.925;    0.000
353.264;  233.825;  212.925;    0.000
353.319;  245.825;  234.925;    0.000
353.374;  254.825;  245.925;    0.000
353.430;  258.825;  261.925;    0.000
353.485;  239.825;  249.925;    0.000
353.540;  269.825;  260.925;    0.000
353.595;  229.825;  219.925;    0.000
353.650;  264.825;  242.925;    0.000
353.705;  288.825;  244.925;    0.000
353.761;  252.825;  242.925;    0.000
353.816;  261.825;  214.925;    0.000
353.871;  257.825;  237.925;    0.000
353.926;  255.825;  233.925;    0.000
353.981;  275.825;  250.925;    0.000
354.036;  253.825;  239.925;    0.000
354.091;  237.825;  289.925;    0.000
354.146;  261.825;  282.925;    0.000
354.201;  244.825;  244.925;    0.000
354.256;  222.825;  257.925;    0.000
354.311;  283.825;  305.925;    0.000
354.367;  251.825;  220.925;    0.000
354.422;  257.825;  261.925;    0.000
354.477;  207.825;  212.925;    0.000
354.532;  274.825;  254.925;    0.000
354.587;  282.825;  252.925;    0.000
354.642;  242.825;  210.925;    0.000
354.697;  263.825;  232.925;    0.000
354.751;  278.825;  254.925;    0.000
354.806;  278.825;  233.925;    0.000
354.861;  246.825;  244.925;    0.000
354.916;  248.825;  235.925;    0.000
354.971;  268.825;  258.925;    0.000
355.026;  288.825;  251.925;    0.000
355.081;  264.825;  254.925;    0.000
355.136;  254.825;  212.925;    0.000
355.191;  231.825;  211.925;    0.000
355.246;  257.825;  237.925;    0.000
355.301;  255.825;  255.925;    0.000
355.355;  247.825;  231.925;    0.000
355.410;  264.825;  224.925;    0.000
355.465;  214.825;  235.925;    0.000
355.520;  251.825;  244.925;    0.000
355.575;  254.825;  267.925;    0.000
355.630;  250.825;  255.925;    0.000
355.684;  209.825;  254.925;    0.000
355.739;  268.825;  217.925;    0.000
355.794;  242.825;  206.925;    0.000
355.849;  240.825;  221.925;    0.000
355.904;  244.825;  257.925;    0.000
355.958;  249.825;  221.925;    0.000
356.013;  245.825;  192.925;    0.000
356.068;  280.825;  267.925;    0.000
356.123;  251.825;  218.925;    0.000
356.177;  227.825;  236.925;    0.000
356.232;  235.825;  236.925;    0.000
356.287;  225.825;  246.925;    0.000
356.341;  251.825;  241.925;    0.000
356.396;  222.825;  219.925;    0.000
356.451;  248.825;  244.925;    0.000
356.505;  260.825;  248.925;    0.000
356.560;  273.825;  267.925;    0.000
356.615;  224.825;  258.925;    0.000
356.669;  252.825;  291.925;    0.000
356.724;  261.825;  272.925;    0.000
356.778;  235.825;  244.925;    0.000
356.833;  213.825;  223.925;    0.000
356.888;  267.825;  245.925;    0.000
356.942;  239.825;  221.925;    0.000
356.997;  221.825;  254.925;    0.000
357.051;  264.825;  244.925;    0.000
357.106;  229.825;  227.925;    0.000
357.160;  258.825;  176.925;    0.000
357.215;  224.825;  234.925;    0.000
357.269;  261.825;  233.925;    0.000
357.324;  267.825;  232.925;    0.000
357.378;  235.825;  211.925;    0.000
357.433;  230.825;  252.925;    0.000
357.487;  223.825;  227.925;    0.000
357.542;  241.825;  246.925;    0.000
357.596;  268.825;  260.925;    0.000
357.651;  260.825;  301.925;    0.000
357.705;  302.825;  230.925;    0.000
357.760;  286.825;  211.925;    0.000
357.814;  257.825;  265.925;    0.000
357.868;  253.825;  220.925;    0.000
357.923;  265.825;  220.925;    0.000
357.977;  250.825;  245.925;    0.000
358.032;  248.825;  247.925;    0.000
358.086;  275.825;  242.925;    0.000
358.140;  241.825;  270.925;    0.000
358.195;  253.825;  242.925;    0.000
358.249;  246.825;  238.925;    0.000
358.303;  271.825;  285.925;    0.000
358.358;  262.825;  265.925;    0.000
358.412;  261.825;  265.925;    0.000
358.466;  257.825;  257.925;    0.000
358.521;  248.825;  251.925;    0.000
358.575;  270.825;  254.925;    0.000
358.629;  250.825;  278.925;    0.000
358.683;  261.825;  288.925;    0.000
358.738;  279.825;  302.925;    0.000
358.792;  255.825;  239.925;    0.000
358.846;  270.825;  293.925;    0.000
358.900;  258.825;  271.925;    0.000
358.954;  243.825;  300.925;    0.000
359.009;  232.825;  279.925;    0.000
359.063;  246.825;  249.925;    0.000
359.117;  258.825;  264.925;    0.000
359.171;  318.825;  279.925;    0.000
359.225;  292.825;  276.925;    0.000
359.280;  243.825;  237.925;    0.000
359.334;  242.825;  280.925;    0.000
359.388;  312.825;  282.925;    0.000
359.442;  256.825;  243.925;    0.000
359.496;  227.825;  204.925;    0.000
359.550;  294.825;  308.925;    0.000
359.604;  278.825;  264.925;    0.000
359.658;  243.825;  247.925;    0.000
359.712;  275.825;  273.925;    0.000
359.766;  278.825;  212.925;    0.000
359.820;  266.825;  228.925;    0.000
359.875;  296.825;  248.925;    0.000
359.929;  288.825;  271.925;    0.000
359.983;  200.825;  274.925;    0.000
360.037;  262.825;  262.925;    0.000
360.091;  288.825;  302.925;    0.000
360.145;  241.825;  244.925;    0.000
360.199;  283.825;  253.925;    0.000
360.253;  277.825;  285.925;    0.000
360.306;  288.825;  287.925;    0.000
360.360;  279.825;  267.925;    0.000
360.414;  243.825;  250.925;    0.000
360.468;  288.825;  270.925;    0.000
360.522;  261.825;  276.925;    0.000
360.576;  289.825;  269.925;    0.000
360.630;  290.825;  281.925;    0.000
360.684;  288.825;  291.925;    0.000
360.738;  287.825;  325.925;    0.000
360.792;  259.825;  320.925;    0.000
360.846;  277.825;  276.925;    0.000
360.899;  300.825;  314.925;    0.000
360.953;  273.825;  275.925;    0.000
361.007;  272.825;  292.925;    0.000
361.061;  282.825;  278.925;    0.000
361.115;  291.825;  264.925;    0.000
361.168;  291.825;  317.925;    0.000
361.222;  271.825;  277.925;    0.000
361.276;  293.825;  274.925;    0.000
361.330;  248.825;  269.925;    0.000
361.384;  288.825;  280.925;    0.000
361.437;  280.825;  304.925;    0.000
361.491;  272.825;  256.925;    0.000
361.545;  301.825;  293.925;    0.000
361.599;  279.825;  284.925;    0.000
361.652;  317.825;  274.925;    0.000
361.706;  299.825;  284.925;    0.000
361.760;  255.825;  260.925;    0.000
361.813;  279.825;  272.925;    0.000
361.867;  296.825;  300.925;    0.000
361.921;  267.825;  275.925;    0.000
361.974;  264.825;  258.925;    0.000
362.028;  272.825;  248.925;    0.000
362.082;  250.825;  252.925;    0.000
362.135;  275.825;  240.925;    0.000
362.189;  268.825;  259.925;    0.000
362.242;  303.825;  267.925;    0.000
362.296;  307.825;  280.925;    0.000
362.350;  274.825;  282.925;    0.000
362.403;  308.825;  288.925;    0.000
362.457;  283.825;  253.925;    0.000
362.510;  290.825;  323.925;    0.000
362.564;  262.825;  286.925;    0.000
362.617;  260.825;  317.925;    0.000
362.671;  289.825;  286.925;    0.000
362.724;  272.825;  274.925;    0.000
362.778;  310.825;  295.925;    0.000
362.831;  300.825;  289.925;    0.000
362.885;  315.825;  318.925;    0.000
362.938;  285.825;  271.925;    0.000
362.992;  307.825;  285.925;    0.000
363.045;  270.825;  291.925;    0.000
363.099;  289.825;  276.925;    0.000
363.152;  306.825;  309.925;    0.000
363.205;  305.825;  263.925;    0.000
363.259;  272.825;  288.925;    0.000
363.312;  294.825;  333.925;    0.000
363.366;  269.825;  328.925;    0.000
363.419;  292.825;  328.925;    0.000
363.472;  285.825;  295.925;    0.000
363.526;  303.825;  334.925;    0.000
363.579;  310.825;  312.925;    0.000
363.632;  261.825;  274.925;    0.000
363.686;  273.825;  282.925;    0.000
363.739;  259.825;  289.925;    0.000
363.792;  282.825;  287.925;    0.000

