
Integration time [ms]:   0.300
Averaging Nr. [scans]: 1
Smoothing Nr. [pixels]: 0
Data measured with spectrometer [name]: UV1
Wave   ;Sample   ;Dark     ;Reference
[nm]   ;[counts] ;[counts] ;[counts] 

236.381;  118.775;  149.925;    0.000
236.451;  193.775;  206.925;    0.000
236.520;  167.775;  212.925;    0.000
236.590;  209.775;  189.925;    0.000
236.660;  208.775;  184.925;    0.000
236.730;  199.775;  186.925;    0.000
236.799;  213.775;  191.925;    0.000
236.869;  202.775;  184.925;    0.000
236.939;  195.775;  176.925;    0.000
237.009;  192.775;  184.925;    0.000
237.078;  182.775;  189.925;    0.000
237.148;  157.775;  217.925;    0.000
237.218;  219.775;  192.925;    0.000
237.287;  172.775;  182.925;    0.000
237.357;  186.775;  196.925;    0.000
237.427;  175.775;  144.925;    0.000
237.496;  287.775;  224.925;    0.000
237.566;  270.775;  210.925;    0.000
237.636;  200.775;  165.925;    0.000
237.705;  279.775;  214.925;    0.000
237.775;  218.775;  194.925;    0.000
237.845;  246.775;  214.925;    0.000
237.914;  231.775;  191.925;    0.000
237.984;  284.775;  218.925;    0.000
238.054;  216.775;  187.925;    0.000
238.123;  271.775;  179.925;    0.000
238.193;  229.775;  177.925;    0.000
238.263;  268.775;  225.925;    0.000
238.332;  240.775;  197.925;    0.000
238.402;  258.775;  183.925;    0.000
238.471;  240.775;  181.925;    0.000
238.541;  249.775;  200.925;    0.000
238.611;  252.775;  170.925;    0.000
238.680;  270.775;  170.925;    0.000
238.750;  235.775;  175.925;    0.000
238.819;  258.775;  180.925;    0.000
238.889;  239.775;  190.925;    0.000
238.958;  260.775;  207.925;    0.000
239.028;  255.775;  201.925;    0.000
239.097;  248.775;  181.925;    0.000
239.167;  275.775;  222.925;    0.000
239.237;  276.775;  221.925;    0.000
239.306;  252.775;  147.925;    0.000
239.376;  242.775;  188.925;    0.000
239.445;  260.775;  198.925;    0.000
239.515;  242.775;  191.925;    0.000
239.584;  258.775;  178.925;    0.000
239.654;  224.775;  147.925;    0.000
239.723;  309.775;  212.925;    0.000
239.793;  240.775;  185.925;    0.000
239.862;  255.775;  157.925;    0.000
239.932;  227.775;  181.925;    0.000
240.001;  228.775;  163.925;    0.000
240.070;  277.775;  194.925;    0.000
240.140;  234.775;  202.925;    0.000
240.209;  210.775;  180.925;    0.000
240.279;  226.775;  188.925;    0.000
240.348;  250.775;  189.925;    0.000
240.418;  233.775;  143.925;    0.000
240.487;  251.775;  195.925;    0.000
240.556;  233.775;  170.925;    0.000
240.626;  235.775;  172.925;    0.000
240.695;  267.775;  202.925;    0.000
240.765;  235.775;  191.925;    0.000
240.834;  256.775;  177.925;    0.000
240.903;  261.775;  189.925;    0.000
240.973;  208.775;  196.925;    0.000
241.042;  238.775;  183.925;    0.000
241.112;  272.775;  189.925;    0.000
241.181;  280.775;  186.925;    0.000
241.250;  255.775;  168.925;    0.000
241.320;  254.775;  200.925;    0.000
241.389;  207.775;  185.925;    0.000
241.458;  266.775;  194.925;    0.000
241.528;  252.775;  165.925;    0.000
241.597;  258.775;  200.925;    0.000
241.666;  225.775;  184.925;    0.000
241.736;  290.775;  176.925;    0.000
241.805;  227.775;  165.925;    0.000
241.874;  240.775;  200.925;    0.000
241.943;  279.775;  184.925;    0.000
242.013;  285.775;  212.925;    0.000
242.082;  251.775;  200.925;    0.000
242.151;  254.775;  196.925;    0.000
242.221;  228.775;  182.925;    0.000
242.290;  262.775;  222.925;    0.000
242.359;  195.775;  142.925;    0.000
242.428;  278.775;  180.925;    0.000
242.498;  227.775;  180.925;    0.000
242.567;  262.775;  181.925;    0.000
242.636;  277.775;  203.925;    0.000
242.705;  252.775;  209.925;    0.000
242.774;  221.775;  172.925;    0.000
242.844;  242.775;  218.925;    0.000
242.913;  263.775;  188.925;    0.000
242.982;  229.775;  193.925;    0.000
243.051;  234.775;  202.925;    0.000
243.120;  253.775;  174.925;    0.000
243.190;  235.775;  165.925;    0.000
243.259;  262.775;  206.925;    0.000
243.328;  249.775;  166.925;    0.000
243.397;  237.775;  167.925;    0.000
243.466;  261.775;  163.925;    0.000
243.535;  218.775;  162.925;    0.000
243.605;  239.775;  159.925;    0.000
243.674;  249.775;  171.925;    0.000
243.743;  261.775;  189.925;    0.000
243.812;  221.775;  169.925;    0.000
243.881;  221.775;  145.925;    0.000
243.950;  210.775;  197.925;    0.000
244.019;  241.775;  189.925;    0.000
244.088;  281.775;  200.925;    0.000
244.158;  251.775;  208.925;    0.000
244.227;  247.775;  154.925;    0.000
244.296;  203.775;  142.925;    0.000
244.365;  279.775;  198.925;    0.000
244.434;  203.775;  162.925;    0.000
244.503;  216.775;  186.925;    0.000
244.572;  220.775;  143.925;    0.000
244.641;  242.775;  145.925;    0.000
244.710;  262.775;  159.925;    0.000
244.779;  244.775;  175.925;    0.000
244.848;  192.775;  163.925;    0.000
244.917;  270.775;  157.925;    0.000
244.986;  251.775;  166.925;    0.000
245.055;  239.775;  211.925;    0.000
245.124;  222.775;  155.925;    0.000
245.193;  236.775;  187.925;    0.000
245.262;  199.775;  152.925;    0.000
245.331;  266.775;  177.925;    0.000
245.400;  184.775;  157.925;    0.000
245.469;  263.775;  195.925;    0.000
245.538;  236.775;  199.925;    0.000
245.607;  272.775;  194.925;    0.000
245.676;  249.775;  170.925;    0.000
245.745;  234.775;  208.925;    0.000
245.814;  210.775;  185.925;    0.000
245.883;  256.775;  165.925;    0.000
245.952;  244.775;  151.925;    0.000
246.021;  207.775;  171.925;    0.000
246.090;  271.775;  174.925;    0.000
246.159;  209.775;  192.925;    0.000
246.227;  226.775;  178.925;    0.000
246.296;  196.775;  159.925;    0.000
246.365;  230.775;  189.925;    0.000
246.434;  268.775;  205.925;    0.000
246.503;  231.775;  174.925;    0.000
246.572;  279.775;  203.925;    0.000
246.641;  216.775;  169.925;    0.000
246.710;  235.775;  186.925;    0.000
246.779;  228.775;  196.925;    0.000
246.847;  236.775;  209.925;    0.000
246.916;  208.775;  177.925;    0.000
246.985;  264.775;  188.925;    0.000
247.054;  190.775;  189.925;    0.000
247.123;  224.775;  196.925;    0.000
247.192;  238.775;  210.925;    0.000
247.260;  258.775;  164.925;    0.000
247.329;  262.775;  204.925;    0.000
247.398;  245.775;  204.925;    0.000
247.467;  206.775;  160.925;    0.000
247.536;  265.775;  193.925;    0.000
247.604;  271.775;  208.925;    0.000
247.673;  261.775;  168.925;    0.000
247.742;  209.775;  182.925;    0.000
247.811;  275.775;  186.925;    0.000
247.879;  231.775;  166.925;    0.000
247.948;  242.775;  192.925;    0.000
248.017;  207.775;  178.925;    0.000
248.086;  281.775;  193.925;    0.000
248.154;  224.775;  191.925;    0.000
248.223;  252.775;  207.925;    0.000
248.292;  251.775;  168.925;    0.000
248.361;  236.775;  211.925;    0.000
248.429;  247.775;  196.925;    0.000
248.498;  208.775;  163.925;    0.000
248.567;  226.775;  159.925;    0.000
248.635;  244.775;  194.925;    0.000
248.704;  238.775;  205.925;    0.000
248.773;  248.775;  190.925;    0.000
248.841;  206.775;  179.925;    0.000
248.910;  295.775;  193.925;    0.000
248.979;  212.775;  167.925;    0.000
249.047;  191.775;  166.925;    0.000
249.116;  250.775;  191.925;    0.000
249.185;  255.775;  203.925;    0.000
249.253;  236.775;  140.925;    0.000
249.322;  260.775;  173.925;    0.000
249.390;  234.775;  165.925;    0.000
249.459;  263.775;  173.925;    0.000
249.528;  256.775;  203.925;    0.000
249.596;  250.775;  204.925;    0.000
249.665;  266.775;  176.925;    0.000
249.733;  247.775;  178.925;    0.000
249.802;  226.775;  190.925;    0.000
249.871;  228.775;  171.925;    0.000
249.939;  255.775;  160.925;    0.000
250.008;  255.775;  220.925;    0.000
250.076;  230.775;  211.925;    0.000
250.145;  235.775;  145.925;    0.000
250.213;  222.775;  177.925;    0.000
250.282;  226.775;  186.925;    0.000
250.350;  222.775;  170.925;    0.000
250.419;  213.775;  195.925;    0.000
250.487;  260.775;  194.925;    0.000
250.556;  233.775;  178.925;    0.000
250.624;  229.775;  193.925;    0.000
250.693;  211.775;  167.925;    0.000
250.761;  235.775;  253.925;    0.000
250.830;  302.775;  241.925;    0.000
250.898;  217.775;  161.925;    0.000
250.967;  251.775;  178.925;    0.000
251.035;  204.775;  189.925;    0.000
251.104;  268.775;  166.925;    0.000
251.172;  225.775;  178.925;    0.000
251.241;  231.775;  174.925;    0.000
251.309;  236.775;  197.925;    0.000
251.378;  238.775;  172.925;    0.000
251.446;  192.775;  157.925;    0.000
251.514;  253.775;  197.925;    0.000
251.583;  250.775;  191.925;    0.000
251.651;  248.775;  154.925;    0.000
251.720;  225.775;  198.925;    0.000
251.788;  240.775;  226.925;    0.000
251.856;  217.775;  164.925;    0.000
251.925;  203.775;  181.925;    0.000
251.993;  262.775;  203.925;    0.000
252.062;  251.775;  211.925;    0.000
252.130;  244.775;  185.925;    0.000
252.198;  211.775;  190.925;    0.000
252.267;  226.775;  176.925;    0.000
252.335;  239.775;  179.925;    0.000
252.403;  194.775;  173.925;    0.000
252.472;  232.775;  172.925;    0.000
252.540;  198.775;  187.925;    0.000
252.608;  233.775;  204.925;    0.000
252.677;  218.775;  179.925;    0.000
252.745;  239.775;  192.925;    0.000
252.813;  204.775;  168.925;    0.000
252.881;  167.775;  157.925;    0.000
252.950;  227.775;  188.925;    0.000
253.018;  241.775;  191.925;    0.000
253.086;  232.775;  164.925;    0.000
253.155;  212.775;  172.925;    0.000
253.223;  184.775;  168.925;    0.000
253.291;  234.775;  190.925;    0.000
253.359;  193.775;  205.925;    0.000
253.428;  246.775;  228.925;    0.000
253.496;  214.775;  170.925;    0.000
253.564;  174.775;  164.925;    0.000
253.632;  179.775;  159.925;    0.000
253.700;  221.775;  166.925;    0.000
253.769;  197.775;  172.925;    0.000
253.837;  219.775;  157.925;    0.000
253.905;  189.775;  168.925;    0.000
253.973;  182.775;  179.925;    0.000
254.041;  233.775;  187.925;    0.000
254.110;  207.775;  186.925;    0.000
254.178;  194.775;  156.925;    0.000
254.246;  209.775;  132.925;    0.000
254.314;  205.775;  191.925;    0.000
254.382;  201.775;  189.925;    0.000
254.450;  172.775;  163.925;    0.000
254.518;  245.775;  172.925;    0.000
254.587;  199.775;  162.925;    0.000
254.655;  239.775;  191.925;    0.000
254.723;  197.775;  184.925;    0.000
254.791;  222.775;  169.925;    0.000
254.859;  221.775;  186.925;    0.000
254.927;  246.775;  207.925;    0.000
254.995;  196.775;  143.925;    0.000
255.063;  223.775;  198.925;    0.000
255.131;  205.775;  168.925;    0.000
255.199;  191.775;  183.925;    0.000
255.267;  175.775;  159.925;    0.000
255.336;  244.775;  197.925;    0.000
255.404;  176.775;  177.925;    0.000
255.472;  251.775;  204.925;    0.000
255.540;  194.775;  169.925;    0.000
255.608;  222.775;  141.925;    0.000
255.676;  232.775;  176.925;    0.000
255.744;  212.775;  184.925;    0.000
255.812;  238.775;  158.925;    0.000
255.880;  259.775;  202.925;    0.000
255.948;  229.775;  184.925;    0.000
256.016;  268.775;  192.925;    0.000
256.084;  214.775;  204.925;    0.000
256.152;  219.775;  191.925;    0.000
256.220;  188.775;  187.925;    0.000
256.288;  229.775;  176.925;    0.000
256.356;  198.775;  146.925;    0.000
256.424;  207.775;  164.925;    0.000
256.491;  230.775;  161.925;    0.000
256.559;  230.775;  167.925;    0.000
256.627;  231.775;  180.925;    0.000
256.695;  195.775;  159.925;    0.000
256.763;  196.775;  166.925;    0.000
256.831;  209.775;  166.925;    0.000
256.899;  175.775;  161.925;    0.000
256.967;  168.775;  116.925;    0.000
257.035;  226.775;  195.925;    0.000
257.103;  250.775;  227.925;    0.000
257.171;  219.775;  147.925;    0.000
257.238;  206.775;  158.925;    0.000
257.306;  208.775;  188.925;    0.000
257.374;  211.775;  153.925;    0.000
257.442;  189.775;  159.925;    0.000
257.510;  238.775;  201.925;    0.000
257.578;  221.775;  137.925;    0.000
257.646;  210.775;  172.925;    0.000
257.713;  240.775;  164.925;    0.000
257.781;  211.775;  163.925;    0.000
257.849;  209.775;  174.925;    0.000
257.917;  203.775;  164.925;    0.000
257.985;  211.775;  126.925;    0.000
258.052;  224.775;  158.925;    0.000
258.120;  256.775;  151.925;    0.000
258.188;  245.775;  169.925;    0.000
258.256;  206.775;  110.925;    0.000
258.324;  234.775;  193.925;    0.000
258.391;  204.775;  157.925;    0.000
258.459;  252.775;  193.925;    0.000
258.527;  215.775;  150.925;    0.000
258.595;  221.775;  173.925;    0.000
258.662;  155.775;  168.925;    0.000
258.730;  248.775;  190.925;    0.000
258.798;  178.775;  164.925;    0.000
258.865;  248.775;  165.925;    0.000
258.933;  219.775;  162.925;    0.000
259.001;  254.775;  174.925;    0.000
259.069;  170.775;  139.925;    0.000
259.136;  291.775;  160.925;    0.000
259.204;  202.775;  174.925;    0.000
259.272;  258.775;  161.925;    0.000
259.339;  255.775;  157.925;    0.000
259.407;  263.775;  159.925;    0.000
259.475;  208.775;  134.925;    0.000
259.542;  205.775;  179.925;    0.000
259.610;  231.775;  172.925;    0.000
259.677;  246.775;  152.925;    0.000
259.745;  186.775;  131.925;    0.000
259.813;  238.775;  185.925;    0.000
259.880;  269.775;  183.925;    0.000
259.948;  226.775;  168.925;    0.000
260.016;  221.775;  160.925;    0.000
260.083;  297.775;  163.925;    0.000
260.151;  219.775;  162.925;    0.000
260.218;  243.775;  171.925;    0.000
260.286;  247.775;  154.925;    0.000
260.353;  259.775;  182.925;    0.000
260.421;  227.775;  187.925;    0.000
260.489;  260.775;  185.925;    0.000
260.556;  250.775;  165.925;    0.000
260.624;  252.775;  185.925;    0.000
260.691;  252.775;  175.925;    0.000
260.759;  296.775;  201.925;    0.000
260.826;  240.775;  150.925;    0.000
260.894;  281.775;  142.925;    0.000
260.961;  242.775;  156.925;    0.000
261.029;  250.775;  161.925;    0.000
261.096;  260.775;  172.925;    0.000
261.164;  250.775;  149.925;    0.000
261.231;  263.775;  191.925;    0.000
261.299;  249.775;  182.925;    0.000
261.366;  267.775;  156.925;    0.000
261.434;  276.775;  188.925;    0.000
261.501;  251.775;  170.925;    0.000
261.568;  288.775;  167.925;    0.000
261.636;  253.775;  169.925;    0.000
261.703;  270.775;  200.925;    0.000
261.771;  234.775;  170.925;    0.000
261.838;  276.775;  175.925;    0.000
261.906;  280.775;  135.925;    0.000
261.973;  311.775;  184.925;    0.000
262.040;  261.775;  176.925;    0.000
262.108;  283.775;  201.925;    0.000
262.175;  284.775;  141.925;    0.000
262.243;  294.775;  175.925;    0.000
262.310;  268.775;  112.925;    0.000
262.377;  253.775;  158.925;    0.000
262.445;  294.775;  162.925;    0.000
262.512;  286.775;  184.925;    0.000
262.579;  249.775;  185.925;    0.000
262.647;  284.775;  158.925;    0.000
262.714;  317.775;  197.925;    0.000
262.781;  265.775;  133.925;    0.000
262.849;  229.775;  146.925;    0.000
262.916;  251.775;  204.925;    0.000
262.983;  286.775;  191.925;    0.000
263.051;  243.775;  140.925;    0.000
263.118;  253.775;  154.925;    0.000
263.185;  281.775;  169.925;    0.000
263.252;  290.775;  150.925;    0.000
263.320;  225.775;  145.925;    0.000
263.387;  270.775;  144.925;    0.000
263.454;  321.775;  193.925;    0.000
263.522;  289.775;  160.925;    0.000
263.589;  275.775;  153.925;    0.000
263.656;  259.775;  178.925;    0.000
263.723;  247.775;  136.925;    0.000
263.790;  283.775;  162.925;    0.000
263.858;  313.775;  164.925;    0.000
263.925;  324.775;  146.925;    0.000
263.992;  310.775;  191.925;    0.000
264.059;  296.775;  180.925;    0.000
264.126;  366.775;  183.925;    0.000
264.194;  335.775;  174.925;    0.000
264.261;  316.775;  187.925;    0.000
264.328;  265.775;  179.925;    0.000
264.395;  334.775;  166.925;    0.000
264.462;  327.775;  197.925;    0.000
264.529;  310.775;  209.925;    0.000
264.597;  266.775;  173.925;    0.000
264.664;  331.775;  193.925;    0.000
264.731;  317.775;  165.925;    0.000
264.798;  296.775;  148.925;    0.000
264.865;  311.775;  186.925;    0.000
264.932;  279.775;  152.925;    0.000
264.999;  308.775;  166.925;    0.000
265.066;  257.775;  186.925;    0.000
265.133;  362.775;  172.925;    0.000
265.201;  318.775;  159.925;    0.000
265.268;  288.775;  164.925;    0.000
265.335;  314.775;  161.925;    0.000
265.402;  335.775;  157.925;    0.000
265.469;  273.775;  134.925;    0.000
265.536;  321.775;  191.925;    0.000
265.603;  286.775;  170.925;    0.000
265.670;  301.775;  162.925;    0.000
265.737;  332.775;  172.925;    0.000
265.804;  267.775;  151.925;    0.000
265.871;  349.775;  191.925;    0.000
265.938;  315.775;  173.925;    0.000
266.005;  343.775;  201.925;    0.000
266.072;  280.775;  156.925;    0.000
266.139;  336.775;  191.925;    0.000
266.206;  319.775;  151.925;    0.000
266.273;  326.775;  194.925;    0.000
266.340;  272.775;  120.925;    0.000
266.407;  306.775;  130.925;    0.000
266.474;  288.775;  137.925;    0.000
266.541;  322.775;  139.925;    0.000
266.608;  317.775;  139.925;    0.000
266.675;  370.775;  198.925;    0.000
266.742;  285.775;  165.925;    0.000
266.808;  300.775;  174.925;    0.000
266.875;  353.775;  169.925;    0.000
266.942;  349.775;  137.925;    0.000
267.009;  319.775;  181.925;    0.000
267.076;  345.775;  204.925;    0.000
267.143;  364.775;  179.925;    0.000
267.210;  277.775;  160.925;    0.000
267.277;  337.775;  154.925;    0.000
267.344;  336.775;  178.925;    0.000
267.410;  359.775;  190.925;    0.000
267.477;  360.775;  193.925;    0.000
267.544;  337.775;  168.925;    0.000
267.611;  299.775;  177.925;    0.000
267.678;  348.775;  205.925;    0.000
267.745;  366.775;  205.925;    0.000
267.811;  332.775;  164.925;    0.000
267.878;  349.775;  166.925;    0.000
267.945;  334.775;  160.925;    0.000
268.012;  362.775;  172.925;    0.000
268.079;  395.775;  186.925;    0.000
268.145;  330.775;  188.925;    0.000
268.212;  347.775;  181.925;    0.000
268.279;  341.775;  158.925;    0.000
268.346;  331.775;  192.925;    0.000
268.412;  356.775;  159.925;    0.000
268.479;  351.775;  176.925;    0.000
268.546;  288.775;  170.925;    0.000
268.613;  349.775;  133.925;    0.000
268.679;  378.775;  170.925;    0.000
268.746;  376.775;  185.925;    0.000
268.813;  356.775;  170.925;    0.000
268.879;  290.775;  149.925;    0.000
268.946;  373.775;  176.925;    0.000
269.013;  349.775;  153.925;    0.000
269.079;  348.775;  156.925;    0.000
269.146;  308.775;  143.925;    0.000
269.213;  339.775;  170.925;    0.000
269.280;  339.775;  202.925;    0.000
269.346;  365.775;  180.925;    0.000
269.413;  328.775;  162.925;    0.000
269.479;  298.775;  175.925;    0.000
269.546;  310.775;  151.925;    0.000
269.613;  288.775;  159.925;    0.000
269.679;  329.775;  190.925;    0.000
269.746;  322.775;  159.925;    0.000
269.813;  361.775;  151.925;    0.000
269.879;  323.775;  169.925;    0.000
269.946;  330.775;  169.925;    0.000
270.012;  327.775;  185.925;    0.000
270.079;  289.775;  133.925;    0.000
270.145;  281.775;  161.925;    0.000
270.212;  384.775;  156.925;    0.000
270.279;  373.775;  176.925;    0.000
270.345;  320.775;  140.925;    0.000
270.412;  321.775;  162.925;    0.000
270.478;  321.775;  148.925;    0.000
270.545;  346.775;  146.925;    0.000
270.611;  325.775;  168.925;    0.000
270.678;  294.775;  164.925;    0.000
270.744;  291.775;  117.925;    0.000
270.811;  373.775;  196.925;    0.000
270.877;  355.775;  151.925;    0.000
270.944;  349.775;  174.925;    0.000
271.010;  291.775;  180.925;    0.000
271.077;  360.775;  162.925;    0.000
271.143;  355.775;  178.925;    0.000
271.210;  324.775;  159.925;    0.000
271.276;  321.775;  143.925;    0.000
271.342;  338.775;  196.925;    0.000
271.409;  332.775;  161.925;    0.000
271.475;  322.775;  153.925;    0.000
271.542;  290.775;  147.925;    0.000
271.608;  299.775;  175.925;    0.000
271.675;  307.775;  134.925;    0.000
271.741;  404.775;  182.925;    0.000
271.807;  357.775;  174.925;    0.000
271.874;  333.775;  169.925;    0.000
271.940;  324.775;  179.925;    0.000
272.007;  310.775;  173.925;    0.000
272.073;  332.775;  133.925;    0.000
272.139;  335.775;  191.925;    0.000
272.206;  341.775;  168.925;    0.000
272.272;  304.775;  179.925;    0.000
272.338;  397.775;  224.925;    0.000
272.405;  306.775;  156.925;    0.000
272.471;  286.775;  175.925;    0.000
272.537;  359.775;  190.925;    0.000
272.604;  290.775;  199.925;    0.000
272.670;  347.775;  156.925;    0.000
272.736;  305.775;  198.925;    0.000
272.802;  317.775;  169.925;    0.000
272.869;  296.775;  141.925;    0.000
272.935;  291.775;  145.925;    0.000
273.001;  304.775;  156.925;    0.000
273.068;  311.775;  157.925;    0.000
273.134;  277.775;  184.925;    0.000
273.200;  358.775;  158.925;    0.000
273.266;  354.775;  150.925;    0.000
273.333;  314.775;  176.925;    0.000
273.399;  292.775;  118.925;    0.000
273.465;  387.775;  184.925;    0.000
273.531;  317.775;  179.925;    0.000
273.597;  351.775;  167.925;    0.000
273.664;  395.775;  186.925;    0.000
273.730;  352.775;  137.925;    0.000
273.796;  342.775;  148.925;    0.000
273.862;  355.775;  183.925;    0.000
273.928;  298.775;  179.925;    0.000
273.995;  330.775;  189.925;    0.000
274.061;  304.775;  188.925;    0.000
274.127;  281.775;  132.925;    0.000
274.193;  306.775;  135.925;    0.000
274.259;  323.775;  177.925;    0.000
274.325;  299.775;  178.925;    0.000
274.391;  326.775;  140.925;    0.000
274.457;  345.775;  158.925;    0.000
274.524;  335.775;  175.925;    0.000
274.590;  322.775;  182.925;    0.000
274.656;  374.775;  165.925;    0.000
274.722;  309.775;  152.925;    0.000
274.788;  367.775;  159.925;    0.000
274.854;  314.775;  143.925;    0.000
274.920;  333.775;  117.925;    0.000
274.986;  335.775;  140.925;    0.000
275.052;  311.775;  174.925;    0.000
275.118;  324.775;  129.925;    0.000
275.184;  357.775;  173.925;    0.000
275.250;  369.775;  196.925;    0.000
275.316;  344.775;  142.925;    0.000
275.382;  334.775;  149.925;    0.000
275.448;  392.775;  178.925;    0.000
275.514;  359.775;  136.925;    0.000
275.580;  355.775;  140.925;    0.000
275.646;  316.775;  133.925;    0.000
275.712;  303.775;  162.925;    0.000
275.778;  314.775;  129.925;    0.000
275.844;  280.775;  156.925;    0.000
275.910;  370.775;  172.925;    0.000
275.976;  420.775;  158.925;    0.000
276.042;  324.775;  141.925;    0.000
276.108;  387.775;  212.925;    0.000
276.174;  398.775;  148.925;    0.000
276.240;  325.775;  134.925;    0.000
276.306;  392.775;  149.925;    0.000
276.372;  384.775;  126.925;    0.000
276.437;  336.775;  168.925;    0.000
276.503;  317.775;  158.925;    0.000
276.569;  401.775;  191.925;    0.000
276.635;  322.775;  130.925;    0.000
276.701;  338.775;  161.925;    0.000
276.767;  420.775;  148.925;    0.000
276.833;  355.775;  147.925;    0.000
276.899;  393.775;  149.925;    0.000
276.964;  367.775;  181.925;    0.000
277.030;  389.775;  186.925;    0.000
277.096;  388.775;  132.925;    0.000
277.162;  388.775;  181.925;    0.000
277.228;  341.775;  166.925;    0.000
277.293;  452.775;  154.925;    0.000
277.359;  421.775;  181.925;    0.000
277.425;  458.775;  184.925;    0.000
277.491;  532.775;  150.925;    0.000
277.557;  449.775;  159.925;    0.000
277.622;  738.775;  129.925;    0.000
277.688;  661.775;  184.925;    0.000
277.754;  807.775;  182.925;    0.000
277.820;  778.775;  149.925;    0.000
277.885;  813.775;  185.925;    0.000
277.951; 1109.775;  164.925;    0.000
278.017;  989.775;  162.925;    0.000
278.083;  822.775;  189.925;    0.000
278.148;  839.775;  184.925;    0.000
278.214;  769.775;  188.925;    0.000
278.280;  805.775;  206.925;    0.000
278.345;  839.775;  187.925;    0.000
278.411;  663.775;  174.925;    0.000
278.477;  602.775;  190.925;    0.000
278.542;  697.775;  154.925;    0.000
278.608;  711.775;  191.925;    0.000
278.674;  840.775;  243.925;    0.000
278.739;  772.775;  141.925;    0.000
278.805;  989.775;  171.925;    0.000
278.871;  943.775;  181.925;    0.000
278.936; 1128.775;  191.925;    0.000
279.002; 1332.775;  201.925;    0.000
279.067; 1840.775;  174.925;    0.000
279.133; 1961.775;  165.925;    0.000
279.199; 1490.775;  122.925;    0.000
279.264; 1756.775;  159.925;    0.000
279.330; 1908.775;  170.925;    0.000
279.395; 2470.775;  173.925;    0.000
279.461; 3439.775;  200.925;    0.000
279.527; 3783.775;  199.925;    0.000
279.592; 3238.775;  203.925;    0.000
279.658; 2688.775;  209.925;    0.000
279.723; 2535.775;  188.925;    0.000
279.789; 3056.775;  180.925;    0.000
279.854; 2226.775;  137.925;    0.000
279.920; 2051.775;  223.925;    0.000
279.985; 1998.775;  186.925;    0.000
280.051; 1856.775;  198.925;    0.000
280.116; 2122.775;  178.925;    0.000
280.182; 3409.775;  176.925;    0.000
280.247; 3702.775;  195.925;    0.000
280.313; 3183.775;  165.925;    0.000
280.378; 2220.775;  153.925;    0.000
280.444; 1741.775;  181.925;    0.000
280.509; 1363.775;  188.925;    0.000
280.574; 1417.775;  149.925;    0.000
280.640; 1082.775;  164.925;    0.000
280.705; 1044.775;  166.925;    0.000
280.771; 1121.775;  188.925;    0.000
280.836;  980.775;  188.925;    0.000
280.902;  811.775;  168.925;    0.000
280.967;  863.775;  202.925;    0.000
281.032;  960.775;  197.925;    0.000
281.098;  711.775;  138.925;    0.000
281.163;  720.775;  160.925;    0.000
281.229;  726.775;  212.925;    0.000
281.294;  638.775;  227.925;    0.000
281.359;  732.775;  200.925;    0.000
281.425;  694.775;  189.925;    0.000
281.490;  642.775;  176.925;    0.000
281.555;  681.775;  182.925;    0.000
281.621;  571.775;  169.925;    0.000
281.686;  534.775;  182.925;    0.000
281.751;  589.775;  208.925;    0.000
281.816;  597.775;  166.925;    0.000
281.882;  563.775;  181.925;    0.000
281.947;  504.775;  178.925;    0.000
282.012;  505.775;  167.925;    0.000
282.078;  475.775;  170.925;    0.000
282.143;  591.775;  157.925;    0.000
282.208;  560.775;  158.925;    0.000
282.273;  502.775;  187.925;    0.000
282.339;  491.775;  185.925;    0.000
282.404;  526.775;  201.925;    0.000
282.469;  524.775;  202.925;    0.000
282.534;  524.775;  185.925;    0.000
282.600;  511.775;  125.925;    0.000
282.665;  498.775;  162.925;    0.000
282.730;  409.775;  174.925;    0.000
282.795;  576.775;  179.925;    0.000
282.860;  476.775;  190.925;    0.000
282.926;  488.775;  200.925;    0.000
282.991;  477.775;  161.925;    0.000
283.056;  465.775;  175.925;    0.000
283.121;  544.775;  181.925;    0.000
283.186;  528.775;  221.925;    0.000
283.251;  442.775;  168.925;    0.000
283.316;  521.775;  156.925;    0.000
283.382;  465.775;  197.925;    0.000
283.447;  488.775;  210.925;    0.000
283.512;  456.775;  164.925;    0.000
283.577;  487.775;  212.925;    0.000
283.642;  473.775;  186.925;    0.000
283.707;  469.775;  182.925;    0.000
283.772;  444.775;  127.925;    0.000
283.837;  454.775;  160.925;    0.000
283.902;  482.775;  162.925;    0.000
283.967;  447.775;  151.925;    0.000
284.032;  469.775;  175.925;    0.000
284.097;  450.775;  235.925;    0.000
284.163;  477.775;  136.925;    0.000
284.228;  467.775;  209.925;    0.000
284.293;  430.775;  163.925;    0.000
284.358;  501.775;  169.925;    0.000
284.423;  457.775;  145.925;    0.000
284.488;  485.775;  134.925;    0.000
284.553;  508.775;  158.925;    0.000
284.618;  457.775;  163.925;    0.000
284.683;  579.775;  168.925;    0.000
284.748;  529.775;  170.925;    0.000
284.812;  561.775;  151.925;    0.000
284.877;  686.775;  169.925;    0.000
284.942;  721.775;  179.925;    0.000
285.007;  982.775;  202.925;    0.000
285.072; 1141.775;  171.925;    0.000
285.137; 1777.775;  173.925;    0.000
285.202; 2315.775;  196.925;    0.000
285.267; 2067.775;  193.925;    0.000
285.332; 1367.775;  151.925;    0.000
285.397;  959.775;  183.925;    0.000
285.462;  859.775;  168.925;    0.000
285.527;  640.775;  166.925;    0.000
285.591;  706.775;  124.925;    0.000
285.656;  578.775;  145.925;    0.000
285.721;  600.775;  155.925;    0.000
285.786;  540.775;  170.925;    0.000
285.851;  530.775;  175.925;    0.000
285.916;  539.775;  186.925;    0.000
285.981;  493.775;  204.925;    0.000
286.045;  472.775;  237.925;    0.000
286.110;  486.775;  197.925;    0.000
286.175;  473.775;  143.925;    0.000
286.240;  520.775;  167.925;    0.000
286.305;  517.775;  202.925;    0.000
286.369;  492.775;  214.925;    0.000
286.434;  431.775;  206.925;    0.000
286.499;  459.775;  177.925;    0.000
286.564;  508.775;  201.925;    0.000
286.628;  441.775;  153.925;    0.000
286.693;  474.775;  161.925;    0.000
286.758;  430.775;  181.925;    0.000
286.823;  444.775;  176.925;    0.000
286.887;  480.775;  158.925;    0.000
286.952;  463.775;  198.925;    0.000
287.017;  501.775;  196.925;    0.000
287.082;  457.775;  154.925;    0.000
287.146;  416.775;  178.925;    0.000
287.211;  394.775;  165.925;    0.000
287.276;  432.775;  165.925;    0.000
287.340;  467.775;  178.925;    0.000
287.405;  489.775;  177.925;    0.000
287.470;  418.775;  141.925;    0.000
287.534;  477.775;  224.925;    0.000
287.599;  436.775;  184.925;    0.000
287.663;  448.775;  177.925;    0.000
287.728;  471.775;  144.925;    0.000
287.793;  465.775;  210.925;    0.000
287.857;  411.775;  198.925;    0.000
287.922;  446.775;  168.925;    0.000
287.987;  444.775;  168.925;    0.000
288.051;  430.775;  200.925;    0.000
288.116;  425.775;  199.925;    0.000
288.180;  438.775;  211.925;    0.000
288.245;  465.775;  182.925;    0.000
288.309;  426.775;  180.925;    0.000
288.374;  477.775;  196.925;    0.000
288.439;  457.775;  187.925;    0.000
288.503;  381.775;  159.925;    0.000
288.568;  427.775;  207.925;    0.000
288.632;  415.775;  210.925;    0.000
288.697;  413.775;  196.925;    0.000
288.761;  399.775;  175.925;    0.000
288.826;  383.775;  159.925;    0.000
288.890;  502.775;  183.925;    0.000
288.955;  506.775;  149.925;    0.000
289.019;  425.775;  194.925;    0.000
289.084;  422.775;  171.925;    0.000
289.148;  442.775;  191.925;    0.000
289.212;  449.775;  217.925;    0.000
289.277;  415.775;  196.925;    0.000
289.341;  445.775;  211.925;    0.000
289.406;  429.775;  165.925;    0.000
289.470;  397.775;  197.925;    0.000
289.535;  427.775;  208.925;    0.000
289.599;  518.775;  192.925;    0.000
289.663;  427.775;  169.925;    0.000
289.728;  467.775;  168.925;    0.000
289.792;  455.775;  192.925;    0.000
289.857;  440.775;  202.925;    0.000
289.921;  455.775;  176.925;    0.000
289.985;  454.775;  164.925;    0.000
290.050;  446.775;  166.925;    0.000
290.114;  396.775;  192.925;    0.000
290.178;  412.775;  155.925;    0.000
290.243;  464.775;  158.925;    0.000
290.307;  495.775;  192.925;    0.000
290.371;  445.775;  161.925;    0.000
290.436;  434.775;  182.925;    0.000
290.500;  448.775;  147.925;    0.000
290.564;  424.775;  209.925;    0.000
290.629;  408.775;  172.925;    0.000
290.693;  461.775;  192.925;    0.000
290.757;  475.775;  147.925;    0.000
290.821;  440.775;  139.925;    0.000
290.886;  390.775;  186.925;    0.000
290.950;  414.775;  196.925;    0.000
291.014;  503.775;  166.925;    0.000
291.078;  410.775;  143.925;    0.000
291.143;  488.775;  171.925;    0.000
291.207;  517.775;  187.925;    0.000
291.271;  415.775;  208.925;    0.000
291.335;  408.775;  195.925;    0.000
291.399;  465.775;  139.925;    0.000
291.464;  462.775;  139.925;    0.000
291.528;  491.775;  183.925;    0.000
291.592;  438.775;  152.925;    0.000
291.656;  474.775;  155.925;    0.000
291.720;  475.775;  191.925;    0.000
291.784;  493.775;  185.925;    0.000
291.849;  454.775;  175.925;    0.000
291.913;  463.775;  152.925;    0.000
291.977;  473.775;  203.925;    0.000
292.041;  506.775;  181.925;    0.000
292.105;  457.775;  168.925;    0.000
292.169;  403.775;  133.925;    0.000
292.233;  436.775;  156.925;    0.000
292.297;  459.775;  173.925;    0.000
292.361;  377.775;  124.925;    0.000
292.425;  451.775;  138.925;    0.000
292.490;  484.775;  110.925;    0.000
292.554;  446.775;  180.925;    0.000
292.618;  510.775;  178.925;    0.000
292.682;  493.775;  156.925;    0.000
292.746;  456.775;  151.925;    0.000
292.810;  608.775;  183.925;    0.000
292.874;  701.775;  156.925;    0.000
292.938;  775.775;  195.925;    0.000
293.002;  679.775;  200.925;    0.000
293.066;  604.775;  171.925;    0.000
293.130;  568.775;  163.925;    0.000
293.194;  587.775;  174.925;    0.000
293.258;  580.775;  167.925;    0.000
293.322;  484.775;  212.925;    0.000
293.386;  544.775;  189.925;    0.000
293.450;  504.775;  169.925;    0.000
293.514;  726.775;  175.925;    0.000
293.577;  754.775;  169.925;    0.000
293.641; 1014.775;  186.925;    0.000
293.705; 1022.775;  222.925;    0.000
293.769;  898.775;  150.925;    0.000
293.833;  723.775;  165.925;    0.000
293.897;  671.775;  152.925;    0.000
293.961;  659.775;  179.925;    0.000
294.025;  577.775;  159.925;    0.000
294.089;  705.775;  181.925;    0.000
294.152;  606.775;  188.925;    0.000
294.216;  550.775;  170.925;    0.000
294.280;  596.775;  167.925;    0.000
294.344;  515.775;  151.925;    0.000
294.408;  571.775;  180.925;    0.000
294.472;  481.775;  144.925;    0.000
294.536;  483.775;  171.925;    0.000
294.599;  480.775;  157.925;    0.000
294.663;  428.775;  139.925;    0.000
294.727;  512.775;  208.925;    0.000
294.791;  495.775;  152.925;    0.000
294.855;  544.775;  181.925;    0.000
294.918;  446.775;  136.925;    0.000
294.982;  490.775;  155.925;    0.000
295.046;  474.775;  200.925;    0.000
295.110;  436.775;  190.925;    0.000
295.173;  404.775;  156.925;    0.000
295.237;  449.775;  160.925;    0.000
295.301;  377.775;  145.925;    0.000
295.364;  457.775;  166.925;    0.000
295.428;  450.775;  125.925;    0.000
295.492;  458.775;  154.925;    0.000
295.556;  417.775;  172.925;    0.000
295.619;  463.775;  210.925;    0.000
295.683;  457.775;  181.925;    0.000
295.747;  409.775;  176.925;    0.000
295.810;  489.775;  181.925;    0.000
295.874;  417.775;  160.925;    0.000
295.938;  368.775;  119.925;    0.000
296.001;  423.775;  206.925;    0.000
296.065;  405.775;  136.925;    0.000
296.128;  391.775;  156.925;    0.000
296.192;  419.775;  174.925;    0.000
296.256;  412.775;  145.925;    0.000
296.319;  354.775;  167.925;    0.000
296.383;  437.775;  168.925;    0.000
296.447;  450.775;  190.925;    0.000
296.510;  386.775;  165.925;    0.000
296.574;  434.775;  184.925;    0.000
296.637;  435.775;  155.925;    0.000
296.701;  421.775;  168.925;    0.000
296.764;  473.775;  161.925;    0.000
296.828;  415.775;  218.925;    0.000
296.891;  463.775;  176.925;    0.000
296.955;  380.775;  169.925;    0.000
297.018;  425.775;  168.925;    0.000
297.082;  431.775;  176.925;    0.000
297.145;  344.775;  171.925;    0.000
297.209;  426.775;  196.925;    0.000
297.272;  448.775;  170.925;    0.000
297.336;  409.775;  156.925;    0.000
297.399;  382.775;  168.925;    0.000
297.463;  384.775;  203.925;    0.000
297.526;  451.775;  164.925;    0.000
297.590;  384.775;  175.925;    0.000
297.653;  457.775;  170.925;    0.000
297.717;  405.775;  156.925;    0.000
297.780;  390.775;  149.925;    0.000
297.843;  462.775;  156.925;    0.000
297.907;  432.775;  129.925;    0.000
297.970;  427.775;  163.925;    0.000
298.034;  381.775;  162.925;    0.000
298.097;  415.775;  182.925;    0.000
298.160;  427.775;  194.925;    0.000
298.224;  436.775;  178.925;    0.000
298.287;  426.775;  147.925;    0.000
298.350;  401.775;  187.925;    0.000
298.414;  406.775;  193.925;    0.000
298.477;  332.775;  127.925;    0.000
298.540;  368.775;  181.925;    0.000
298.604;  395.775;  163.925;    0.000
298.667;  415.775;  177.925;    0.000
298.730;  429.775;  192.925;    0.000
298.794;  368.775;  183.925;    0.000
298.857;  400.775;  194.925;    0.000
298.920;  362.775;  147.925;    0.000
298.984;  418.775;  184.925;    0.000
299.047;  425.775;  218.925;    0.000
299.110;  378.775;  171.925;    0.000
299.173;  338.775;  177.925;    0.000
299.237;  399.775;  181.925;    0.000
299.300;  353.775;  170.925;    0.000
299.363;  377.775;  185.925;    0.000
299.426;  379.775;  193.925;    0.000
299.489;  407.775;  184.925;    0.000
299.553;  416.775;  194.925;    0.000
299.616;  445.775;  171.925;    0.000
299.679;  421.775;  182.925;    0.000
299.742;  330.775;  138.925;    0.000
299.805;  342.775;  172.925;    0.000
299.868;  374.775;  191.925;    0.000
299.932;  405.775;  193.925;    0.000
299.995;  381.775;  201.925;    0.000
300.058;  307.775;  177.925;    0.000
300.121;  473.775;  178.925;    0.000
300.184;  347.775;  171.925;    0.000
300.247;  379.775;  184.925;    0.000
300.310;  407.775;  200.925;    0.000
300.374;  410.775;  172.925;    0.000
300.437;  349.775;  187.925;    0.000
300.500;  392.775;  211.925;    0.000
300.563;  348.775;  190.925;    0.000
300.626;  422.775;  196.925;    0.000
300.689;  423.775;  162.925;    0.000
300.752;  391.775;  163.925;    0.000
300.815;  488.775;  207.925;    0.000
300.878;  406.775;  221.925;    0.000
300.941;  425.775;  176.925;    0.000
301.004;  378.775;  193.925;    0.000
301.067;  430.775;  165.925;    0.000
301.130;  390.775;  179.925;    0.000
301.193;  347.775;  196.925;    0.000
301.256;  375.775;  210.925;    0.000
301.319;  375.775;  196.925;    0.000
301.382;  411.775;  162.925;    0.000
301.445;  385.775;  233.925;    0.000
301.508;  340.775;  176.925;    0.000
301.571;  342.775;  185.925;    0.000
301.634;  404.775;  202.925;    0.000
301.697;  330.775;  189.925;    0.000
301.760;  433.775;  224.925;    0.000
301.823;  438.775;  212.925;    0.000
301.885;  351.775;  196.925;    0.000
301.948;  378.775;  169.925;    0.000
302.011;  383.775;  160.925;    0.000
302.074;  399.775;  202.925;    0.000
302.137;  395.775;  130.925;    0.000
302.200;  378.775;  188.925;    0.000
302.263;  373.775;  196.925;    0.000
302.326;  338.775;  172.925;    0.000
302.388;  358.775;  197.925;    0.000
302.451;  372.775;  203.925;    0.000
302.514;  355.775;  164.925;    0.000
302.577;  385.775;  170.925;    0.000
302.640;  357.775;  156.925;    0.000
302.703;  381.775;  188.925;    0.000
302.765;  400.775;  213.925;    0.000
302.828;  450.775;  212.925;    0.000
302.891;  411.775;  203.925;    0.000
302.954;  425.775;  148.925;    0.000
303.016;  421.775;  168.925;    0.000
303.079;  422.775;  206.925;    0.000
303.142;  435.775;  210.925;    0.000
303.205;  358.775;  189.925;    0.000
303.267;  417.775;  174.925;    0.000
303.330;  451.775;  198.925;    0.000
303.393;  381.775;  207.925;    0.000
303.456;  364.775;  177.925;    0.000
303.518;  345.775;  192.925;    0.000
303.581;  325.775;  171.925;    0.000
303.644;  310.775;  193.925;    0.000
303.706;  365.775;  185.925;    0.000
303.769;  420.775;  198.925;    0.000
303.832;  381.775;  192.925;    0.000
303.894;  409.775;  199.925;    0.000
303.957;  407.775;  160.925;    0.000
304.020;  421.775;  184.925;    0.000
304.082;  426.775;  191.925;    0.000
304.145;  349.775;  216.925;    0.000
304.207;  407.775;  175.925;    0.000
304.270;  434.775;  192.925;    0.000
304.333;  393.775;  218.925;    0.000
304.395;  367.775;  195.925;    0.000
304.458;  413.775;  206.925;    0.000
304.520;  422.775;  229.925;    0.000
304.583;  403.775;  202.925;    0.000
304.646;  379.775;  159.925;    0.000
304.708;  324.775;  167.925;    0.000
304.771;  387.775;  141.925;    0.000
304.833;  405.775;  184.925;    0.000
304.896;  398.775;  197.925;    0.000
304.958;  396.775;  179.925;    0.000
305.021;  382.775;  175.925;    0.000
305.083;  424.775;  182.925;    0.000
305.146;  441.775;  182.925;    0.000
305.208;  387.775;  174.925;    0.000
305.271;  336.775;  157.925;    0.000
305.333;  475.775;  185.925;    0.000
305.396;  380.775;  199.925;    0.000
305.458;  415.775;  203.925;    0.000
305.520;  378.775;  195.925;    0.000
305.583;  362.775;  152.925;    0.000
305.645;  428.775;  200.925;    0.000
305.708;  348.775;  149.925;    0.000
305.770;  404.775;  211.925;    0.000
305.833;  427.775;  189.925;    0.000
305.895;  395.775;  200.925;    0.000
305.957;  412.775;  166.925;    0.000
306.020;  370.775;  186.925;    0.000
306.082;  358.775;  197.925;    0.000
306.144;  428.775;  200.925;    0.000
306.207;  394.775;  180.925;    0.000
306.269;  362.775;  209.925;    0.000
306.331;  463.775;  205.925;    0.000
306.394;  351.775;  176.925;    0.000
306.456;  382.775;  184.925;    0.000
306.518;  429.775;  210.925;    0.000
306.581;  349.775;  162.925;    0.000
306.643;  396.775;  196.925;    0.000
306.705;  382.775;  204.925;    0.000
306.768;  391.775;  158.925;    0.000
306.830;  411.775;  205.925;    0.000
306.892;  421.775;  189.925;    0.000
306.954;  362.775;  188.925;    0.000
307.017;  379.775;  180.925;    0.000
307.079;  362.775;  197.925;    0.000
307.141;  414.775;  184.925;    0.000
307.203;  395.775;  182.925;    0.000
307.266;  415.775;  166.925;    0.000
307.328;  444.775;  186.925;    0.000
307.390;  385.775;  176.925;    0.000
307.452;  377.775;  194.925;    0.000
307.514;  388.775;  225.925;    0.000
307.577;  344.775;  209.925;    0.000
307.639;  440.775;  203.925;    0.000
307.701;  411.775;  214.925;    0.000
307.763;  453.775;  203.925;    0.000
307.825;  456.775;  202.925;    0.000
307.887;  482.775;  244.925;    0.000
307.949;  370.775;  173.925;    0.000
308.012;  418.775;  219.925;    0.000
308.074;  419.775;  157.925;    0.000
308.136;  478.775;  215.925;    0.000
308.198;  359.775;  186.925;    0.000
308.260;  375.775;  186.925;    0.000
308.322;  441.775;  201.925;    0.000
308.384;  428.775;  218.925;    0.000
308.446;  419.775;  159.925;    0.000
308.508;  404.775;  191.925;    0.000
308.570;  472.775;  185.925;    0.000
308.632;  421.775;  208.925;    0.000
308.694;  434.775;  161.925;    0.000
308.756;  446.775;  169.925;    0.000
308.818;  390.775;  187.925;    0.000
308.880;  444.775;  192.925;    0.000
308.942;  461.775;  194.925;    0.000
309.004;  449.775;  206.925;    0.000
309.066;  447.775;  204.925;    0.000
309.128;  457.775;  181.925;    0.000
309.190;  452.775;  166.925;    0.000
309.252;  449.775;  213.925;    0.000
309.314;  519.775;  249.925;    0.000
309.376;  486.775;  238.925;    0.000
309.438;  497.775;  206.925;    0.000
309.500;  428.775;  185.925;    0.000
309.562;  501.775;  214.925;    0.000
309.624;  504.775;  216.925;    0.000
309.686;  515.775;  197.925;    0.000
309.747;  491.775;  171.925;    0.000
309.809;  428.775;  198.925;    0.000
309.871;  473.775;  185.925;    0.000
309.933;  452.775;  172.925;    0.000
309.995;  458.775;  168.925;    0.000
310.057;  486.775;  177.925;    0.000
310.119;  454.775;  207.925;    0.000
310.180;  411.775;  180.925;    0.000
310.242;  526.775;  202.925;    0.000
310.304;  431.775;  200.925;    0.000
310.366;  483.775;  222.925;    0.000
310.428;  411.775;  179.925;    0.000
310.489;  456.775;  196.925;    0.000
310.551;  465.775;  203.925;    0.000
310.613;  438.775;  198.925;    0.000
310.675;  430.775;  203.925;    0.000
310.737;  450.775;  195.925;    0.000
310.798;  488.775;  204.925;    0.000
310.860;  447.775;  195.925;    0.000
310.922;  459.775;  195.925;    0.000
310.983;  445.775;  225.925;    0.000
311.045;  443.775;  203.925;    0.000
311.107;  458.775;  194.925;    0.000
311.169;  428.775;  185.925;    0.000
311.230;  410.775;  175.925;    0.000
311.292;  439.775;  220.925;    0.000
311.354;  418.775;  189.925;    0.000
311.415;  435.775;  187.925;    0.000
311.477;  414.775;  180.925;    0.000
311.539;  349.775;  175.925;    0.000
311.600;  388.775;  192.925;    0.000
311.662;  529.775;  212.925;    0.000
311.724;  480.775;  217.925;    0.000
311.785;  469.775;  218.925;    0.000
311.847;  459.775;  219.925;    0.000
311.908;  362.775;  202.925;    0.000
311.970;  409.775;  186.925;    0.000
312.032;  402.775;  212.925;    0.000
312.093;  399.775;  203.925;    0.000
312.155;  398.775;  165.925;    0.000
312.216;  457.775;  183.925;    0.000
312.278;  401.775;  167.925;    0.000
312.339;  393.775;  190.925;    0.000
312.401;  476.775;  219.925;    0.000
312.462;  417.775;  190.925;    0.000
312.524;  421.775;  203.925;    0.000
312.585;  441.775;  191.925;    0.000
312.647;  389.775;  197.925;    0.000
312.708;  438.775;  203.925;    0.000
312.770;  501.775;  203.925;    0.000
312.831;  405.775;  155.925;    0.000
312.893;  435.775;  189.925;    0.000
312.954;  411.775;  212.925;    0.000
313.016;  411.775;  179.925;    0.000
313.077;  497.775;  209.925;    0.000
313.139;  445.775;  185.925;    0.000
313.200;  478.775;  180.925;    0.000
313.261;  466.775;  220.925;    0.000
313.323;  404.775;  171.925;    0.000
313.384;  365.775;  180.925;    0.000
313.446;  449.775;  202.925;    0.000
313.507;  403.775;  172.925;    0.000
313.568;  391.775;  192.925;    0.000
313.630;  406.775;  191.925;    0.000
313.691;  375.775;  176.925;    0.000
313.752;  433.775;  175.925;    0.000
313.814;  420.775;  202.925;    0.000
313.875;  492.775;  186.925;    0.000
313.936;  417.775;  199.925;    0.000
313.998;  392.775;  164.925;    0.000
314.059;  407.775;  159.925;    0.000
314.120;  408.775;  175.925;    0.000
314.182;  412.775;  181.925;    0.000
314.243;  409.775;  157.925;    0.000
314.304;  366.775;  168.925;    0.000
314.365;  374.775;  203.925;    0.000
314.427;  442.775;  151.925;    0.000
314.488;  382.775;  174.925;    0.000
314.549;  441.775;  184.925;    0.000
314.610;  407.775;  198.925;    0.000
314.672;  437.775;  193.925;    0.000
314.733;  407.775;  171.925;    0.000
314.794;  471.775;  141.925;    0.000
314.855;  503.775;  184.925;    0.000
314.917;  470.775;  175.925;    0.000
314.978;  395.775;  190.925;    0.000
315.039;  428.775;  183.925;    0.000
315.100;  442.775;  204.925;    0.000
315.161;  398.775;  202.925;    0.000
315.222;  439.775;  177.925;    0.000
315.283;  424.775;  191.925;    0.000
315.345;  384.775;  185.925;    0.000
315.406;  391.775;  194.925;    0.000
315.467;  397.775;  167.925;    0.000
315.528;  488.775;  174.925;    0.000
315.589;  422.775;  197.925;    0.000
315.650;  422.775;  192.925;    0.000
315.711;  466.775;  181.925;    0.000
315.772;  399.775;  157.925;    0.000
315.833;  408.775;  189.925;    0.000
315.894;  423.775;  184.925;    0.000
315.955;  465.775;  202.925;    0.000
316.016;  431.775;  220.925;    0.000
316.078;  438.775;  180.925;    0.000
316.139;  480.775;  240.925;    0.000
316.200;  414.775;  190.925;    0.000
316.261;  397.775;  179.925;    0.000
316.322;  392.775;  176.925;    0.000
316.383;  435.775;  188.925;    0.000
316.444;  444.775;  228.925;    0.000
316.504;  421.775;  199.925;    0.000
316.565;  459.775;  221.925;    0.000
316.626;  470.775;  204.925;    0.000
316.687;  442.775;  192.925;    0.000
316.748;  420.775;  220.925;    0.000
316.809;  373.775;  175.925;    0.000
316.870;  380.775;  164.925;    0.000
316.931;  409.775;  208.925;    0.000
316.992;  407.775;  224.925;    0.000
317.053;  386.775;  204.925;    0.000
317.114;  441.775;  199.925;    0.000
317.175;  446.775;  230.925;    0.000
317.235;  381.775;  186.925;    0.000
317.296;  462.775;  224.925;    0.000
317.357;  387.775;  154.925;    0.000
317.418;  449.775;  219.925;    0.000
317.479;  469.775;  229.925;    0.000
317.540;  421.775;  201.925;    0.000
317.601;  507.775;  180.925;    0.000
317.661;  360.775;  179.925;    0.000
317.722;  461.775;  193.925;    0.000
317.783;  389.775;  164.925;    0.000
317.844;  445.775;  232.925;    0.000
317.904;  388.775;  222.925;    0.000
317.965;  438.775;  199.925;    0.000
318.026;  391.775;  200.925;    0.000
318.087;  423.775;  182.925;    0.000
318.148;  419.775;  216.925;    0.000
318.208;  406.775;  239.925;    0.000
318.269;  457.775;  163.925;    0.000
318.330;  510.775;  204.925;    0.000
318.390;  394.775;  191.925;    0.000
318.451;  384.775;  200.925;    0.000
318.512;  405.775;  181.925;    0.000
318.572;  451.775;  233.925;    0.000
318.633;  431.775;  220.925;    0.000
318.694;  453.775;  179.925;    0.000
318.754;  420.775;  214.925;    0.000
318.815;  499.775;  214.925;    0.000
318.876;  422.775;  220.925;    0.000
318.936;  462.775;  212.925;    0.000
318.997;  373.775;  201.925;    0.000
319.058;  408.775;  215.925;    0.000
319.118;  390.775;  251.925;    0.000
319.179;  393.775;  240.925;    0.000
319.239;  421.775;  240.925;    0.000
319.300;  507.775;  232.925;    0.000
319.361;  406.775;  211.925;    0.000
319.421;  395.775;  219.925;    0.000
319.482;  437.775;  228.925;    0.000
319.542;  445.775;  216.925;    0.000
319.603;  398.775;  190.925;    0.000
319.663;  409.775;  227.925;    0.000
319.724;  364.775;  191.925;    0.000
319.784;  373.775;  196.925;    0.000
319.845;  419.775;  190.925;    0.000
319.905;  457.775;  221.925;    0.000
319.966;  447.775;  219.925;    0.000
320.026;  412.775;  233.925;    0.000
320.087;  403.775;  204.925;    0.000
320.147;  408.775;  189.925;    0.000
320.208;  367.775;  200.925;    0.000
320.268;  402.775;  217.925;    0.000
320.329;  438.775;  216.925;    0.000
320.389;  394.775;  228.925;    0.000
320.449;  480.775;  236.925;    0.000
320.510;  492.775;  234.925;    0.000
320.570;  441.775;  176.925;    0.000
320.631;  421.775;  228.925;    0.000
320.691;  435.775;  228.925;    0.000
320.751;  390.775;  188.925;    0.000
320.812;  426.775;  223.925;    0.000
320.872;  467.775;  268.925;    0.000
320.932;  465.775;  226.925;    0.000
320.993;  404.775;  216.925;    0.000
321.053;  405.775;  236.925;    0.000
321.113;  375.775;  197.925;    0.000
321.174;  438.775;  218.925;    0.000
321.234;  433.775;  229.925;    0.000
321.294;  434.775;  208.925;    0.000
321.355;  439.775;  248.925;    0.000
321.415;  430.775;  218.925;    0.000
321.475;  399.775;  173.925;    0.000
321.535;  391.775;  234.925;    0.000
321.596;  413.775;  202.925;    0.000
321.656;  446.775;  246.925;    0.000
321.716;  457.775;  235.925;    0.000
321.776;  414.775;  210.925;    0.000
321.837;  478.775;  217.925;    0.000
321.897;  415.775;  215.925;    0.000
321.957;  501.775;  239.925;    0.000
322.017;  431.775;  173.925;    0.000
322.077;  439.775;  263.925;    0.000
322.138;  499.775;  232.925;    0.000
322.198;  432.775;  211.925;    0.000
322.258;  407.775;  213.925;    0.000
322.318;  446.775;  168.925;    0.000
322.378;  426.775;  251.925;    0.000
322.438;  490.775;  212.925;    0.000
322.499;  458.775;  265.925;    0.000
322.559;  440.775;  210.925;    0.000
322.619;  433.775;  242.925;    0.000
322.679;  397.775;  229.925;    0.000
322.739;  463.775;  216.925;    0.000
322.799;  441.775;  238.925;    0.000
322.859;  432.775;  249.925;    0.000
322.919;  451.775;  211.925;    0.000
322.979;  433.775;  244.925;    0.000
323.039;  386.775;  226.925;    0.000
323.099;  379.775;  223.925;    0.000
323.159;  428.775;  232.925;    0.000
323.219;  414.775;  203.925;    0.000
323.279;  419.775;  218.925;    0.000
323.339;  429.775;  231.925;    0.000
323.399;  428.775;  255.925;    0.000
323.459;  382.775;  244.925;    0.000
323.519;  415.775;  213.925;    0.000
323.579;  424.775;  193.925;    0.000
323.639;  461.775;  191.925;    0.000
323.699;  410.775;  199.925;    0.000
323.759;  481.775;  246.925;    0.000
323.819;  480.775;  206.925;    0.000
323.879;  442.775;  238.925;    0.000
323.939;  383.775;  229.925;    0.000
323.999;  467.775;  219.925;    0.000
324.059;  391.775;  177.925;    0.000
324.119;  436.775;  235.925;    0.000
324.178;  361.775;  211.925;    0.000
324.238;  424.775;  168.925;    0.000
324.298;  384.775;  205.925;    0.000
324.358;  350.775;  224.925;    0.000
324.418;  388.775;  235.925;    0.000
324.478;  433.775;  187.925;    0.000
324.538;  428.775;  230.925;    0.000
324.597;  412.775;  206.925;    0.000
324.657;  377.775;  180.925;    0.000
324.717;  426.775;  175.925;    0.000
324.777;  405.775;  169.925;    0.000
324.837;  426.775;  165.925;    0.000
324.896;  412.775;  205.925;    0.000
324.956;  399.775;  216.925;    0.000
325.016;  417.775;  197.925;    0.000
325.076;  401.775;  220.925;    0.000
325.135;  369.775;  242.925;    0.000
325.195;  448.775;  186.925;    0.000
325.255;  374.775;  160.925;    0.000
325.315;  419.775;  198.925;    0.000
325.374;  441.775;  208.925;    0.000
325.434;  379.775;  209.925;    0.000
325.494;  438.775;  191.925;    0.000
325.553;  503.775;  190.925;    0.000
325.613;  488.775;  229.925;    0.000
325.673;  395.775;  172.925;    0.000
325.732;  440.775;  160.925;    0.000
325.792;  457.775;  177.925;    0.000
325.852;  434.775;  201.925;    0.000
325.911;  412.775;  226.925;    0.000
325.971;  452.775;  224.925;    0.000
326.031;  402.775;  202.925;    0.000
326.090;  401.775;  232.925;    0.000
326.150;  455.775;  230.925;    0.000
326.209;  470.775;  201.925;    0.000
326.269;  426.775;  202.925;    0.000
326.328;  463.775;  203.925;    0.000
326.388;  425.775;  194.925;    0.000
326.448;  498.775;  233.925;    0.000
326.507;  433.775;  192.925;    0.000
326.567;  387.775;  163.925;    0.000
326.626;  422.775;  227.925;    0.000
326.686;  385.775;  177.925;    0.000
326.745;  421.775;  210.925;    0.000
326.805;  421.775;  198.925;    0.000
326.864;  466.775;  185.925;    0.000
326.924;  487.775;  255.925;    0.000
326.983;  425.775;  208.925;    0.000
327.043;  479.775;  241.925;    0.000
327.102;  421.775;  183.925;    0.000
327.161;  425.775;  210.925;    0.000
327.221;  416.775;  213.925;    0.000
327.280;  461.775;  194.925;    0.000
327.340;  464.775;  212.925;    0.000
327.399;  425.775;  209.925;    0.000
327.459;  415.775;  229.925;    0.000
327.518;  416.775;  196.925;    0.000
327.577;  435.775;  197.925;    0.000
327.637;  400.775;  210.925;    0.000
327.696;  395.775;  196.925;    0.000
327.755;  380.775;  216.925;    0.000
327.815;  450.775;  240.925;    0.000
327.874;  510.775;  250.925;    0.000
327.933;  440.775;  229.925;    0.000
327.993;  476.775;  202.925;    0.000
328.052;  450.775;  178.925;    0.000
328.111;  431.775;  230.925;    0.000
328.171;  435.775;  207.925;    0.000
328.230;  458.775;  170.925;    0.000
328.289;  476.775;  205.925;    0.000
328.349;  473.775;  235.925;    0.000
328.408;  490.775;  231.925;    0.000
328.467;  444.775;  217.925;    0.000
328.526;  447.775;  239.925;    0.000
328.586;  424.775;  214.925;    0.000
328.645;  465.775;  205.925;    0.000
328.704;  477.775;  211.925;    0.000
328.763;  390.775;  208.925;    0.000
328.822;  484.775;  251.925;    0.000
328.882;  514.775;  211.925;    0.000
328.941;  491.775;  232.925;    0.000
329.000;  491.775;  235.925;    0.000
329.059;  423.775;  222.925;    0.000
329.118;  486.775;  265.925;    0.000
329.177;  453.775;  237.925;    0.000
329.237;  452.775;  258.925;    0.000
329.296;  534.775;  225.925;    0.000
329.355;  492.775;  227.925;    0.000
329.414;  475.775;  212.925;    0.000
329.473;  435.775;  250.925;    0.000
329.532;  496.775;  263.925;    0.000
329.591;  523.775;  212.925;    0.000
329.650;  550.775;  219.925;    0.000
329.709;  508.775;  218.925;    0.000
329.768;  532.775;  195.925;    0.000
329.827;  494.775;  223.925;    0.000
329.886;  482.775;  230.925;    0.000
329.945;  533.775;  211.925;    0.000
330.004;  578.775;  247.925;    0.000
330.063;  578.775;  193.925;    0.000
330.122;  805.775;  229.925;    0.000
330.181; 1079.775;  223.925;    0.000
330.240; 1085.775;  199.925;    0.000
330.299; 1015.775;  211.925;    0.000
330.358;  737.775;  198.925;    0.000
330.417;  577.775;  190.925;    0.000
330.476;  562.775;  237.925;    0.000
330.535;  443.775;  239.925;    0.000
330.594;  520.775;  207.925;    0.000
330.653;  433.775;  193.925;    0.000
330.712;  495.775;  225.925;    0.000
330.771;  461.775;  236.925;    0.000
330.830;  424.775;  219.925;    0.000
330.889;  472.775;  211.925;    0.000
330.948;  461.775;  194.925;    0.000
331.006;  388.775;  190.925;    0.000
331.065;  407.775;  192.925;    0.000
331.124;  496.775;  195.925;    0.000
331.183;  406.775;  191.925;    0.000
331.242;  433.775;  203.925;    0.000
331.301;  428.775;  183.925;    0.000
331.359;  440.775;  196.925;    0.000
331.418;  476.775;  209.925;    0.000
331.477;  497.775;  255.925;    0.000
331.536;  459.775;  237.925;    0.000
331.595;  410.775;  217.925;    0.000
331.653;  402.775;  198.925;    0.000
331.712;  404.775;  194.925;    0.000
331.771;  501.775;  229.925;    0.000
331.830;  430.775;  254.925;    0.000
331.888;  369.775;  218.925;    0.000
331.947;  399.775;  211.925;    0.000
332.006;  384.775;  261.925;    0.000
332.065;  413.775;  204.925;    0.000
332.123;  465.775;  225.925;    0.000
332.182;  427.775;  193.925;    0.000
332.241;  416.775;  201.925;    0.000
332.299;  384.775;  182.925;    0.000
332.358;  451.775;  244.925;    0.000
332.417;  433.775;  218.925;    0.000
332.475;  410.775;  218.925;    0.000
332.534;  454.775;  228.925;    0.000
332.592;  396.775;  199.925;    0.000
332.651;  434.775;  204.925;    0.000
332.710;  457.775;  217.925;    0.000
332.768;  469.775;  195.925;    0.000
332.827;  399.775;  182.925;    0.000
332.885;  414.775;  247.925;    0.000
332.944;  375.775;  170.925;    0.000
333.003;  403.775;  200.925;    0.000
333.061;  459.775;  243.925;    0.000
333.120;  432.775;  235.925;    0.000
333.178;  453.775;  195.925;    0.000
333.237;  374.775;  217.925;    0.000
333.295;  498.775;  252.925;    0.000
333.354;  424.775;  201.925;    0.000
333.412;  446.775;  181.925;    0.000
333.471;  423.775;  239.925;    0.000
333.529;  461.775;  214.925;    0.000
333.588;  477.775;  232.925;    0.000
333.646;  508.775;  202.925;    0.000
333.705;  437.775;  232.925;    0.000
333.763;  434.775;  215.925;    0.000
333.822;  433.775;  187.925;    0.000
333.880;  417.775;  186.925;    0.000
333.938;  460.775;  185.925;    0.000
333.997;  435.775;  234.925;    0.000
334.055;  433.775;  255.925;    0.000
334.114;  509.775;  225.925;    0.000
334.172;  355.775;  209.925;    0.000
334.230;  474.775;  194.925;    0.000
334.289;  460.775;  213.925;    0.000
334.347;  433.775;  235.925;    0.000
334.405;  515.775;  242.925;    0.000
334.464;  434.775;  208.925;    0.000
334.522;  425.775;  197.925;    0.000
334.580;  426.775;  204.925;    0.000
334.639;  413.775;  217.925;    0.000
334.697;  372.775;  183.925;    0.000
334.755;  373.775;  196.925;    0.000
334.814;  413.775;  216.925;    0.000
334.872;  423.775;  190.925;    0.000
334.930;  387.775;  162.925;    0.000
334.988;  444.775;  261.925;    0.000
335.047;  363.775;  220.925;    0.000
335.105;  485.775;  190.925;    0.000
335.163;  436.775;  201.925;    0.000
335.221;  398.775;  213.925;    0.000
335.280;  354.775;  202.925;    0.000
335.338;  412.775;  210.925;    0.000
335.396;  469.775;  255.925;    0.000
335.454;  412.775;  216.925;    0.000
335.512;  431.775;  242.925;    0.000
335.570;  465.775;  227.925;    0.000
335.629;  434.775;  225.925;    0.000
335.687;  437.775;  227.925;    0.000
335.745;  398.775;  194.925;    0.000
335.803;  444.775;  221.925;    0.000
335.861;  449.775;  217.925;    0.000
335.919;  419.775;  214.925;    0.000
335.977;  433.775;  209.925;    0.000
336.035;  423.775;  215.925;    0.000
336.094;  388.775;  198.925;    0.000
336.152;  419.775;  222.925;    0.000
336.210;  470.775;  225.925;    0.000
336.268;  457.775;  234.925;    0.000
336.326;  508.775;  209.925;    0.000
336.384;  414.775;  271.925;    0.000
336.442;  412.775;  207.925;    0.000
336.500;  389.775;  226.925;    0.000
336.558;  419.775;  219.925;    0.000
336.616;  512.775;  260.925;    0.000
336.674;  375.775;  205.925;    0.000
336.732;  386.775;  225.925;    0.000
336.790;  371.775;  191.925;    0.000
336.848;  488.775;  219.925;    0.000
336.906;  450.775;  230.925;    0.000
336.964;  446.775;  226.925;    0.000
337.022;  467.775;  266.925;    0.000
337.080;  490.775;  231.925;    0.000
337.138;  480.775;  249.925;    0.000
337.195;  405.775;  207.925;    0.000
337.253;  457.775;  207.925;    0.000
337.311;  454.775;  225.925;    0.000
337.369;  427.775;  211.925;    0.000
337.427;  430.775;  196.925;    0.000
337.485;  441.775;  269.925;    0.000
337.543;  477.775;  227.925;    0.000
337.601;  495.775;  260.925;    0.000
337.658;  424.775;  237.925;    0.000
337.716;  409.775;  222.925;    0.000
337.774;  457.775;  256.925;    0.000
337.832;  473.775;  223.925;    0.000
337.890;  424.775;  188.925;    0.000
337.947;  450.775;  212.925;    0.000
338.005;  465.775;  217.925;    0.000
338.063;  395.775;  200.925;    0.000
338.121;  467.775;  217.925;    0.000
338.178;  408.775;  236.925;    0.000
338.236;  449.775;  218.925;    0.000
338.294;  427.775;  238.925;    0.000
338.352;  444.775;  266.925;    0.000
338.409;  430.775;  240.925;    0.000
338.467;  414.775;  210.925;    0.000
338.525;  491.775;  255.925;    0.000
338.583;  478.775;  239.925;    0.000
338.640;  462.775;  243.925;    0.000
338.698;  415.775;  204.925;    0.000
338.756;  435.775;  219.925;    0.000
338.813;  470.775;  227.925;    0.000
338.871;  473.775;  227.925;    0.000
338.928;  437.775;  211.925;    0.000
338.986;  408.775;  254.925;    0.000
339.044;  466.775;  207.925;    0.000
339.101;  429.775;  229.925;    0.000
339.159;  437.775;  237.925;    0.000
339.216;  451.775;  231.925;    0.000
339.274;  476.775;  301.925;    0.000
339.332;  443.775;  259.925;    0.000
339.389;  441.775;  258.925;    0.000
339.447;  461.775;  226.925;    0.000
339.504;  470.775;  229.925;    0.000
339.562;  440.775;  244.925;    0.000
339.619;  504.775;  265.925;    0.000
339.677;  523.775;  253.925;    0.000
339.734;  397.775;  191.925;    0.000
339.792;  419.775;  238.925;    0.000
339.849;  484.775;  236.925;    0.000
339.907;  464.775;  254.925;    0.000
339.964;  464.775;  196.925;    0.000
340.022;  477.775;  247.925;    0.000
340.079;  464.775;  275.925;    0.000
340.137;  434.775;  248.925;    0.000
340.194;  438.775;  263.925;    0.000
340.252;  402.775;  266.925;    0.000
340.309;  415.775;  211.925;    0.000
340.366;  436.775;  237.925;    0.000
340.424;  457.775;  260.925;    0.000
340.481;  493.775;  255.925;    0.000
340.538;  461.775;  235.925;    0.000
340.596;  454.775;  225.925;    0.000
340.653;  458.775;  230.925;    0.000
340.711;  481.775;  272.925;    0.000
340.768;  481.775;  253.925;    0.000
340.825;  401.775;  201.925;    0.000
340.883;  457.775;  232.925;    0.000
340.940;  445.775;  247.925;    0.000
340.997;  437.775;  244.925;    0.000
341.054;  427.775;  244.925;    0.000
341.112;  383.775;  258.925;    0.000
341.169;  437.775;  238.925;    0.000
341.226;  431.775;  213.925;    0.000
341.284;  433.775;  240.925;    0.000
341.341;  392.775;  194.925;    0.000
341.398;  366.775;  191.925;    0.000
341.455;  419.775;  227.925;    0.000
341.512;  494.775;  238.925;    0.000
341.570;  449.775;  236.925;    0.000
341.627;  450.775;  241.925;    0.000
341.684;  371.775;  225.925;    0.000
341.741;  466.775;  299.925;    0.000
341.798;  457.775;  265.925;    0.000
341.856;  383.775;  230.925;    0.000
341.913;  447.775;  234.925;    0.000
341.970;  396.775;  260.925;    0.000
342.027;  439.775;  255.925;    0.000
342.084;  423.775;  260.925;    0.000
342.141;  456.775;  263.925;    0.000
342.198;  468.775;  245.925;    0.000
342.255;  456.775;  210.925;    0.000
342.313;  418.775;  251.925;    0.000
342.370;  398.775;  234.925;    0.000
342.427;  476.775;  249.925;    0.000
342.484;  468.775;  254.925;    0.000
342.541;  474.775;  229.925;    0.000
342.598;  473.775;  255.925;    0.000
342.655;  401.775;  225.925;    0.000
342.712;  442.775;  224.925;    0.000
342.769;  382.775;  215.925;    0.000
342.826;  403.775;  240.925;    0.000
342.883;  505.775;  233.925;    0.000
342.940;  429.775;  212.925;    0.000
342.997;  439.775;  236.925;    0.000
343.054;  403.775;  255.925;    0.000
343.111;  408.775;  228.925;    0.000
343.168;  493.775;  230.925;    0.000
343.225;  421.775;  258.925;    0.000
343.282;  440.775;  202.925;    0.000
343.339;  436.775;  253.925;    0.000
343.395;  444.775;  232.925;    0.000
343.452;  511.775;  253.925;    0.000
343.509;  471.775;  213.925;    0.000
343.566;  470.775;  259.925;    0.000
343.623;  454.775;  244.925;    0.000
343.680;  436.775;  232.925;    0.000
343.737;  426.775;  222.925;    0.000
343.794;  456.775;  204.925;    0.000
343.850;  421.775;  249.925;    0.000
343.907;  461.775;  212.925;    0.000
343.964;  452.775;  226.925;    0.000
344.021;  415.775;  251.925;    0.000
344.078;  450.775;  246.925;    0.000
344.134;  431.775;  218.925;    0.000
344.191;  487.775;  244.925;    0.000
344.248;  488.775;  211.925;    0.000
344.305;  438.775;  221.925;    0.000
344.361;  481.775;  247.925;    0.000
344.418;  434.775;  265.925;    0.000
344.475;  466.775;  254.925;    0.000
344.532;  532.775;  233.925;    0.000
344.588;  445.775;  236.925;    0.000
344.645;  481.775;  249.925;    0.000
344.702;  455.775;  220.925;    0.000
344.758;  471.775;  255.925;    0.000
344.815;  450.775;  236.925;    0.000
344.872;  477.775;  218.925;    0.000
344.928;  479.775;  230.925;    0.000
344.985;  484.775;  222.925;    0.000
345.042;  474.775;  199.925;    0.000
345.098;  445.775;  226.925;    0.000
345.155;  487.775;  245.925;    0.000
345.212;  440.775;  225.925;    0.000
345.268;  450.775;  237.925;    0.000
345.325;  459.775;  213.925;    0.000
345.381;  459.775;  267.925;    0.000
345.438;  504.775;  240.925;    0.000
345.495;  462.775;  254.925;    0.000
345.551;  485.775;  248.925;    0.000
345.608;  418.775;  196.925;    0.000
345.664;  450.775;  245.925;    0.000
345.721;  472.775;  252.925;    0.000
345.777;  437.775;  245.925;    0.000
345.834;  387.775;  210.925;    0.000
345.890;  439.775;  244.925;    0.000
345.947;  471.775;  238.925;    0.000
346.003;  474.775;  224.925;    0.000
346.060;  435.775;  206.925;    0.000
346.116;  498.775;  237.925;    0.000
346.173;  448.775;  242.925;    0.000
346.229;  426.775;  269.925;    0.000
346.285;  455.775;  262.925;    0.000
346.342;  498.775;  263.925;    0.000
346.398;  451.775;  224.925;    0.000
346.455;  502.775;  237.925;    0.000
346.511;  503.775;  216.925;    0.000
346.567;  436.775;  211.925;    0.000
346.624;  475.775;  225.925;    0.000
346.680;  470.775;  242.925;    0.000
346.737;  481.775;  244.925;    0.000
346.793;  462.775;  260.925;    0.000
346.849;  474.775;  251.925;    0.000
346.906;  500.775;  260.925;    0.000
346.962;  489.775;  267.925;    0.000
347.018;  507.775;  246.925;    0.000
347.074;  481.775;  272.925;    0.000
347.131;  447.775;  211.925;    0.000
347.187;  470.775;  240.925;    0.000
347.243;  477.775;  233.925;    0.000
347.300;  468.775;  225.925;    0.000
347.356;  493.775;  236.925;    0.000
347.412;  462.775;  237.925;    0.000
347.468;  513.775;  284.925;    0.000
347.524;  461.775;  252.925;    0.000
347.581;  502.775;  278.925;    0.000
347.637;  561.775;  262.925;    0.000
347.693;  473.775;  268.925;    0.000
347.749;  441.775;  260.925;    0.000
347.805;  395.775;  224.925;    0.000
347.862;  493.775;  243.925;    0.000
347.918;  489.775;  257.925;    0.000
347.974;  477.775;  248.925;    0.000
348.030;  513.775;  242.925;    0.000
348.086;  492.775;  234.925;    0.000
348.142;  445.775;  239.925;    0.000
348.198;  471.775;  260.925;    0.000
348.254;  473.775;  262.925;    0.000
348.311;  433.775;  263.925;    0.000
348.367;  486.775;  235.925;    0.000
348.423;  477.775;  205.925;    0.000
348.479;  444.775;  234.925;    0.000
348.535;  447.775;  257.925;    0.000
348.591;  459.775;  267.925;    0.000
348.647;  439.775;  243.925;    0.000
348.703;  469.775;  278.925;    0.000
348.759;  468.775;  259.925;    0.000
348.815;  524.775;  288.925;    0.000
348.871;  472.775;  269.925;    0.000
348.927;  460.775;  239.925;    0.000
348.983;  487.775;  289.925;    0.000
349.039;  418.775;  221.925;    0.000
349.095;  436.775;  252.925;    0.000
349.151;  472.775;  226.925;    0.000
349.207;  462.775;  263.925;    0.000
349.263;  496.775;  194.925;    0.000
349.319;  505.775;  212.925;    0.000
349.374;  452.775;  236.925;    0.000
349.430;  418.775;  229.925;    0.000
349.486;  477.775;  247.925;    0.000
349.542;  484.775;  263.925;    0.000
349.598;  469.775;  248.925;    0.000
349.654;  536.775;  252.925;    0.000
349.710;  521.775;  230.925;    0.000
349.766;  445.775;  201.925;    0.000
349.821;  450.775;  229.925;    0.000
349.877;  455.775;  282.925;    0.000
349.933;  490.775;  240.925;    0.000
349.989;  507.775;  251.925;    0.000
350.045;  443.775;  240.925;    0.000
350.100;  493.775;  256.925;    0.000
350.156;  496.775;  243.925;    0.000
350.212;  427.775;  250.925;    0.000
350.268;  418.775;  251.925;    0.000
350.323;  452.775;  208.925;    0.000
350.379;  507.775;  244.925;    0.000
350.435;  472.775;  237.925;    0.000
350.491;  488.775;  201.925;    0.000
350.546;  517.775;  225.925;    0.000
350.602;  482.775;  260.925;    0.000
350.658;  550.775;  224.925;    0.000
350.713;  448.775;  264.925;    0.000
350.769;  452.775;  196.925;    0.000
350.825;  439.775;  202.925;    0.000
350.880;  505.775;  232.925;    0.000
350.936;  521.775;  242.925;    0.000
350.992;  416.775;  238.925;    0.000
351.047;  466.775;  242.925;    0.000
351.103;  394.775;  199.925;    0.000
351.158;  515.775;  242.925;    0.000
351.214;  449.775;  225.925;    0.000
351.270;  428.775;  197.925;    0.000
351.325;  487.775;  231.925;    0.000
351.381;  491.775;  215.925;    0.000
351.436;  424.775;  233.925;    0.000
351.492;  467.775;  216.925;    0.000
351.547;  508.775;  244.925;    0.000
351.603;  440.775;  249.925;    0.000
351.658;  442.775;  249.925;    0.000
351.714;  460.775;  222.925;    0.000
351.769;  490.775;  222.925;    0.000
351.825;  498.775;  226.925;    0.000
351.880;  374.775;  238.925;    0.000
351.936;  461.775;  230.925;    0.000
351.991;  506.775;  243.925;    0.000
352.047;  409.775;  201.925;    0.000
352.102;  493.775;  243.925;    0.000
352.158;  453.775;  193.925;    0.000
352.213;  415.775;  219.925;    0.000
352.268;  431.775;  205.925;    0.000
352.324;  467.775;  246.925;    0.000
352.379;  507.775;  247.925;    0.000
352.434;  503.775;  252.925;    0.000
352.490;  458.775;  205.925;    0.000
352.545;  504.775;  262.925;    0.000
352.601;  482.775;  229.925;    0.000
352.656;  524.775;  207.925;    0.000
352.711;  476.775;  228.925;    0.000
352.767;  395.775;  216.925;    0.000
352.822;  452.775;  219.925;    0.000
352.877;  497.775;  234.925;    0.000
352.932;  484.775;  249.925;    0.000
352.988;  438.775;  196.925;    0.000
353.043;  496.775;  228.925;    0.000
353.098;  478.775;  231.925;    0.000
353.153;  459.775;  235.925;    0.000
353.209;  516.775;  250.925;    0.000
353.264;  487.775;  212.925;    0.000
353.319;  456.775;  234.925;    0.000
353.374;  435.775;  245.925;    0.000
353.430;  466.775;  261.925;    0.000
353.485;  522.775;  249.925;    0.000
353.540;  510.775;  260.925;    0.000
353.595;  496.775;  219.925;    0.000
353.650;  480.775;  242.925;    0.000
353.705;  489.775;  244.925;    0.000
353.761;  483.775;  242.925;    0.000
353.816;  505.775;  214.925;    0.000
353.871;  474.775;  237.925;    0.000
353.926;  520.775;  233.925;    0.000
353.981;  465.775;  250.925;    0.000
354.036;  512.775;  239.925;    0.000
354.091;  477.775;  289.925;    0.000
354.146;  503.775;  282.925;    0.000
354.201;  526.775;  244.925;    0.000
354.256;  433.775;  257.925;    0.000
354.311;  582.775;  305.925;    0.000
354.367;  501.775;  220.925;    0.000
354.422;  448.775;  261.925;    0.000
354.477;  485.775;  212.925;    0.000
354.532;  491.775;  254.925;    0.000
354.587;  431.775;  252.925;    0.000
354.642;  445.775;  210.925;    0.000
354.697;  446.775;  232.925;    0.000
354.751;  493.775;  254.925;    0.000
354.806;  506.775;  233.925;    0.000
354.861;  498.775;  244.925;    0.000
354.916;  515.775;  235.925;    0.000
354.971;  503.775;  258.925;    0.000
355.026;  461.775;  251.925;    0.000
355.081;  507.775;  254.925;    0.000
355.136;  523.775;  212.925;    0.000
355.191;  436.775;  211.925;    0.000
355.246;  434.775;  237.925;    0.000
355.301;  485.775;  255.925;    0.000
355.355;  578.775;  231.925;    0.000
355.410;  438.775;  224.925;    0.000
355.465;  484.775;  235.925;    0.000
355.520;  469.775;  244.925;    0.000
355.575;  515.775;  267.925;    0.000
355.630;  533.775;  255.925;    0.000
355.684;  447.775;  254.925;    0.000
355.739;  390.775;  217.925;    0.000
355.794;  435.775;  206.925;    0.000
355.849;  432.775;  221.925;    0.000
355.904;  449.775;  257.925;    0.000
355.958;  474.775;  221.925;    0.000
356.013;  479.775;  192.925;    0.000
356.068;  492.775;  267.925;    0.000
356.123;  494.775;  218.925;    0.000
356.177;  489.775;  236.925;    0.000
356.232;  511.775;  236.925;    0.000
356.287;  444.775;  246.925;    0.000
356.341;  472.775;  241.925;    0.000
356.396;  401.775;  219.925;    0.000
356.451;  525.775;  244.925;    0.000
356.505;  466.775;  248.925;    0.000
356.560;  558.775;  267.925;    0.000
356.615;  448.775;  258.925;    0.000
356.669;  497.775;  291.925;    0.000
356.724;  519.775;  272.925;    0.000
356.778;  465.775;  244.925;    0.000
356.833;  429.775;  223.925;    0.000
356.888;  474.775;  245.925;    0.000
356.942;  461.775;  221.925;    0.000
356.997;  506.775;  254.925;    0.000
357.051;  463.775;  244.925;    0.000
357.106;  455.775;  227.925;    0.000
357.160;  429.775;  176.925;    0.000
357.215;  475.775;  234.925;    0.000
357.269;  465.775;  233.925;    0.000
357.324;  496.775;  232.925;    0.000
357.378;  454.775;  211.925;    0.000
357.433;  507.775;  252.925;    0.000
357.487;  546.775;  227.925;    0.000
357.542;  457.775;  246.925;    0.000
357.596;  486.775;  260.925;    0.000
357.651;  481.775;  301.925;    0.000
357.705;  466.775;  230.925;    0.000
357.760;  475.775;  211.925;    0.000
357.814;  493.775;  265.925;    0.000
357.868;  439.775;  220.925;    0.000
357.923;  449.775;  220.925;    0.000
357.977;  425.775;  245.925;    0.000
358.032;  444.775;  247.925;    0.000
358.086;  477.775;  242.925;    0.000
358.140;  548.775;  270.925;    0.000
358.195;  495.775;  242.925;    0.000
358.249;  473.775;  238.925;    0.000
358.303;  514.775;  285.925;    0.000
358.358;  423.775;  265.925;    0.000
358.412;  504.775;  265.925;    0.000
358.466;  558.775;  257.925;    0.000
358.521;  505.775;  251.925;    0.000
358.575;  521.775;  254.925;    0.000
358.629;  418.775;  278.925;    0.000
358.683;  486.775;  288.925;    0.000
358.738;  543.775;  302.925;    0.000
358.792;  485.775;  239.925;    0.000
358.846;  479.775;  293.925;    0.000
358.900;  495.775;  271.925;    0.000
358.954;  469.775;  300.925;    0.000
359.009;  444.775;  279.925;    0.000
359.063;  417.775;  249.925;    0.000
359.117;  506.775;  264.925;    0.000
359.171;  544.775;  279.925;    0.000
359.225;  551.775;  276.925;    0.000
359.280;  412.775;  237.925;    0.000
359.334;  461.775;  280.925;    0.000
359.388;  507.775;  282.925;    0.000
359.442;  464.775;  243.925;    0.000
359.496;  390.775;  204.925;    0.000
359.550;  472.775;  308.925;    0.000
359.604;  545.775;  264.925;    0.000
359.658;  528.775;  247.925;    0.000
359.712;  534.775;  273.925;    0.000
359.766;  405.775;  212.925;    0.000
359.820;  492.775;  228.925;    0.000
359.875;  451.775;  248.925;    0.000
359.929;  506.775;  271.925;    0.000
359.983;  463.775;  274.925;    0.000
360.037;  513.775;  262.925;    0.000
360.091;  484.775;  302.925;    0.000
360.145;  500.775;  244.925;    0.000
360.199;  463.775;  253.925;    0.000
360.253;  470.775;  285.925;    0.000
360.306;  495.775;  287.925;    0.000
360.360;  516.775;  267.925;    0.000
360.414;  486.775;  250.925;    0.000
360.468;  514.775;  270.925;    0.000
360.522;  449.775;  276.925;    0.000
360.576;  476.775;  269.925;    0.000
360.630;  552.775;  281.925;    0.000
360.684;  539.775;  291.925;    0.000
360.738;  551.775;  325.925;    0.000
360.792;  497.775;  320.925;    0.000
360.846;  486.775;  276.925;    0.000
360.899;  574.775;  314.925;    0.000
360.953;  604.775;  275.925;    0.000
361.007;  496.775;  292.925;    0.000
361.061;  453.775;  278.925;    0.000
361.115;  451.775;  264.925;    0.000
361.168;  531.775;  317.925;    0.000
361.222;  502.775;  277.925;    0.000
361.276;  542.775;  274.925;    0.000
361.330;  487.775;  269.925;    0.000
361.384;  486.775;  280.925;    0.000
361.437;  486.775;  304.925;    0.000
361.491;  463.775;  256.925;    0.000
361.545;  507.775;  293.925;    0.000
361.599;  492.775;  284.925;    0.000
361.652;  525.775;  274.925;    0.000
361.706;  509.775;  284.925;    0.000
361.760;  478.775;  260.925;    0.000
361.813;  466.775;  272.925;    0.000
361.867;  570.775;  300.925;    0.000
361.921;  487.775;  275.925;    0.000
361.974;  497.775;  258.925;    0.000
362.028;  505.775;  248.925;    0.000
362.082;  509.775;  252.925;    0.000
362.135;  481.775;  240.925;    0.000
362.189;  534.775;  259.925;    0.000
362.242;  547.775;  267.925;    0.000
362.296;  523.775;  280.925;    0.000
362.350;  535.775;  282.925;    0.000
362.403;  523.775;  288.925;    0.000
362.457;  449.775;  253.925;    0.000
362.510;  488.775;  323.925;    0.000
362.564;  520.775;  286.925;    0.000
362.617;  488.775;  317.925;    0.000
362.671;  520.775;  286.925;    0.000
362.724;  457.775;  274.925;    0.000
362.778;  522.775;  295.925;    0.000
362.831;  494.775;  289.925;    0.000
362.885;  518.775;  318.925;    0.000
362.938;  530.775;  271.925;    0.000
362.992;  291.775;  285.925;    0.000
363.045;  283.775;  291.925;    0.000
363.099;  289.775;  276.925;    0.000
363.152;  267.775;  309.925;    0.000
363.205;  287.775;  263.925;    0.000
363.259;  250.775;  288.925;    0.000
363.312;  316.775;  333.925;    0.000
363.366;  307.775;  328.925;    0.000
363.419;  314.775;  328.925;    0.000
363.472;  294.775;  295.925;    0.000
363.526;  281.775;  334.925;    0.000
363.579;  328.775;  312.925;    0.000
363.632;  294.775;  274.925;    0.000
363.686;  291.775;  282.925;    0.000
363.739;  271.775;  289.925;    0.000
363.792;  317.775;  287.925;    0.000

