
Integration time [ms]:   0.300
Averaging Nr. [scans]: 1
Smoothing Nr. [pixels]: 0
Data measured with spectrometer [name]: UV2
Wave   ;Sample   ;Dark     ;Reference
[nm]   ;[counts] ;[counts] ;[counts] 

353.533;  237.900;  235.675;    0.000
353.597;  228.900;  239.675;    0.000
353.660;  209.900;  203.675;    0.000
353.723;  156.900;  225.675;    0.000
353.786;  216.900;  178.675;    0.000
353.850;  240.900;  199.675;    0.000
353.913;  206.900;  179.675;    0.000
353.976;  198.900;  209.675;    0.000
354.039;  184.900;  188.675;    0.000
354.102;  208.900;  219.675;    0.000
354.166;  222.900;  237.675;    0.000
354.229;  227.900;  179.675;    0.000
354.292;  171.900;  210.675;    0.000
354.355;  228.900;  214.675;    0.000
354.418;  210.900;  173.675;    0.000
354.481;  229.900;  170.675;    0.000
354.545;  719.900;  229.675;    0.000
354.608;  721.900;  233.675;    0.000
354.671;  690.900;  183.675;    0.000
354.734;  703.900;  208.675;    0.000
354.797;  724.900;  263.675;    0.000
354.860;  743.900;  208.675;    0.000
354.923;  764.900;  202.675;    0.000
354.986;  747.900;  207.675;    0.000
355.050;  763.900;  180.675;    0.000
355.113;  842.900;  189.675;    0.000
355.176;  843.900;  214.675;    0.000
355.239;  838.900;  199.675;    0.000
355.302;  873.900;  229.675;    0.000
355.365;  865.900;  220.675;    0.000
355.428;  883.900;  196.675;    0.000
355.491;  893.900;  243.675;    0.000
355.554;  867.900;  191.675;    0.000
355.617;  848.900;  200.675;    0.000
355.680;  844.900;  190.675;    0.000
355.743;  873.900;  236.675;    0.000
355.806;  870.900;  193.675;    0.000
355.869;  969.900;  223.675;    0.000
355.932;  888.900;  208.675;    0.000
355.995;  888.900;  231.675;    0.000
356.058;  924.900;  202.675;    0.000
356.121;  907.900;  198.675;    0.000
356.184;  970.900;  209.675;    0.000
356.247;  970.900;  224.675;    0.000
356.310;  984.900;  149.675;    0.000
356.373; 1028.900;  211.675;    0.000
356.436;  979.900;  195.675;    0.000
356.498; 1021.900;  176.675;    0.000
356.561;  943.900;  186.675;    0.000
356.624;  998.900;  184.675;    0.000
356.687;  996.900;  179.675;    0.000
356.750;  993.900;  213.675;    0.000
356.813;  954.900;  172.675;    0.000
356.876;  979.900;  189.675;    0.000
356.939;  973.900;  204.675;    0.000
357.001; 1068.900;  195.675;    0.000
357.064; 1054.900;  202.675;    0.000
357.127;  973.900;  176.675;    0.000
357.190;  989.900;  186.675;    0.000
357.253; 1018.900;  178.675;    0.000
357.316; 1070.900;  187.675;    0.000
357.378; 1001.900;  181.675;    0.000
357.441; 1026.900;  142.675;    0.000
357.504; 1036.900;  161.675;    0.000
357.567; 1029.900;  113.675;    0.000
357.629;  981.900;  193.675;    0.000
357.692; 1036.900;  144.675;    0.000
357.755; 1085.900;  177.675;    0.000
357.818; 1066.900;  144.675;    0.000
357.880; 1242.900;  182.675;    0.000
357.943; 1148.900;  166.675;    0.000
358.006; 1058.900;  184.675;    0.000
358.069; 1114.900;  200.675;    0.000
358.131; 1213.900;  148.675;    0.000
358.194; 1155.900;  155.675;    0.000
358.257; 1024.900;  173.675;    0.000
358.319; 1031.900;  178.675;    0.000
358.382; 1069.900;  184.675;    0.000
358.445; 1094.900;  156.675;    0.000
358.507; 1167.900;  199.675;    0.000
358.570; 1066.900;  182.675;    0.000
358.633; 1039.900;  167.675;    0.000
358.695; 1044.900;  124.675;    0.000
358.758; 1031.900;  164.675;    0.000
358.821; 1039.900;  147.675;    0.000
358.883; 1057.900;  153.675;    0.000
358.946; 1079.900;  171.675;    0.000
359.008; 1108.900;  196.675;    0.000
359.071; 1115.900;  178.675;    0.000
359.134; 1027.900;  123.675;    0.000
359.196; 1032.900;  166.675;    0.000
359.259; 1125.900;  173.675;    0.000
359.321; 1170.900;  164.675;    0.000
359.384; 1267.900;  155.675;    0.000
359.446; 1163.900;  157.675;    0.000
359.509; 1118.900;  153.675;    0.000
359.571; 1070.900;  184.675;    0.000
359.634; 1129.900;  138.675;    0.000
359.696; 1057.900;  169.675;    0.000
359.759; 1137.900;  152.675;    0.000
359.821; 1077.900;  150.675;    0.000
359.884; 1139.900;  166.675;    0.000
359.946; 1156.900;  165.675;    0.000
360.009; 1086.900;  176.675;    0.000
360.071; 1072.900;  148.675;    0.000
360.134; 1210.900;  193.675;    0.000
360.196; 1119.900;  151.675;    0.000
360.259; 1154.900;  182.675;    0.000
360.321; 1151.900;  168.675;    0.000
360.384; 1212.900;  176.675;    0.000
360.446; 1161.900;  156.675;    0.000
360.508; 1247.900;  183.675;    0.000
360.571; 1259.900;  193.675;    0.000
360.633; 1193.900;  184.675;    0.000
360.696; 1110.900;  136.675;    0.000
360.758; 1152.900;  186.675;    0.000
360.820; 1161.900;  127.675;    0.000
360.883; 1135.900;  146.675;    0.000
360.945; 1202.900;  144.675;    0.000
361.007; 1173.900;  160.675;    0.000
361.070; 1160.900;  175.675;    0.000
361.132; 1176.900;  195.675;    0.000
361.194; 1243.900;  167.675;    0.000
361.257; 1205.900;  140.675;    0.000
361.319; 1214.900;  154.675;    0.000
361.381; 1152.900;  181.675;    0.000
361.443; 1120.900;  137.675;    0.000
361.506; 1221.900;  159.675;    0.000
361.568; 1238.900;  144.675;    0.000
361.630; 1185.900;  189.675;    0.000
361.693; 1138.900;  162.675;    0.000
361.755; 1272.900;  156.675;    0.000
361.817; 1296.900;  225.675;    0.000
361.879; 1255.900;  172.675;    0.000
361.941; 1244.900;  138.675;    0.000
362.004; 1263.900;  163.675;    0.000
362.066; 1174.900;  164.675;    0.000
362.128; 1196.900;  160.675;    0.000
362.190; 1235.900;  168.675;    0.000
362.252; 1206.900;  177.675;    0.000
362.315; 1233.900;  169.675;    0.000
362.377; 1187.900;  188.675;    0.000
362.439; 1248.900;  158.675;    0.000
362.501; 1229.900;  168.675;    0.000
362.563; 1181.900;  168.675;    0.000
362.625; 1214.900;  188.675;    0.000
362.688; 1225.900;  162.675;    0.000
362.750; 1348.900;  209.675;    0.000
362.812; 1318.900;  154.675;    0.000
362.874; 1244.900;  190.675;    0.000
362.936; 1329.900;  190.675;    0.000
362.998; 1254.900;  143.675;    0.000
363.060; 1368.900;  186.675;    0.000
363.122; 1345.900;  167.675;    0.000
363.184; 1362.900;  163.675;    0.000
363.246; 1318.900;  169.675;    0.000
363.308; 1235.900;  165.675;    0.000
363.370; 1232.900;  177.675;    0.000
363.432; 1234.900;  139.675;    0.000
363.494; 1223.900;  177.675;    0.000
363.556; 1251.900;  164.675;    0.000
363.618; 1259.900;  170.675;    0.000
363.680; 1274.900;  146.675;    0.000
363.742; 1331.900;  179.675;    0.000
363.804; 1285.900;  188.675;    0.000
363.866; 1283.900;  186.675;    0.000
363.928; 1205.900;  147.675;    0.000
363.990; 1241.900;  185.675;    0.000
364.052; 1283.900;  197.675;    0.000
364.114; 1298.900;  150.675;    0.000
364.176; 1263.900;  217.675;    0.000
364.238; 1286.900;  159.675;    0.000
364.300; 1278.900;  192.675;    0.000
364.362; 1303.900;  130.675;    0.000
364.424; 1207.900;  131.675;    0.000
364.486; 1247.900;  178.675;    0.000
364.548; 1227.900;  203.675;    0.000
364.609; 1361.900;  192.675;    0.000
364.671; 1261.900;  169.675;    0.000
364.733; 1309.900;  169.675;    0.000
364.795; 1311.900;  157.675;    0.000
364.857; 1327.900;  171.675;    0.000
364.919; 1328.900;  134.675;    0.000
364.981; 1250.900;  162.675;    0.000
365.042; 1250.900;  136.675;    0.000
365.104; 1243.900;  152.675;    0.000
365.166; 1269.900;  149.675;    0.000
365.228; 1258.900;  195.675;    0.000
365.290; 1257.900;  147.675;    0.000
365.351; 1279.900;  138.675;    0.000
365.413; 1307.900;  168.675;    0.000
365.475; 1300.900;  150.675;    0.000
365.537; 1353.900;  179.675;    0.000
365.598; 1266.900;  177.675;    0.000
365.660; 1279.900;  149.675;    0.000
365.722; 1315.900;  160.675;    0.000
365.784; 1346.900;  175.675;    0.000
365.845; 1270.900;  149.675;    0.000
365.907; 1271.900;  154.675;    0.000
365.969; 1285.900;  128.675;    0.000
366.030; 1289.900;  176.675;    0.000
366.092; 1297.900;  181.675;    0.000
366.154; 1349.900;  194.675;    0.000
366.215; 1309.900;  149.675;    0.000
366.277; 1258.900;  144.675;    0.000
366.339; 1298.900;  160.675;    0.000
366.400; 1326.900;  144.675;    0.000
366.462; 1248.900;  145.675;    0.000
366.524; 1336.900;  148.675;    0.000
366.585; 1299.900;  128.675;    0.000
366.647; 1353.900;  156.675;    0.000
366.708; 1289.900;  128.675;    0.000
366.770; 1418.900;  188.675;    0.000
366.832; 1326.900;  170.675;    0.000
366.893; 1361.900;  158.675;    0.000
366.955; 1338.900;  150.675;    0.000
367.016; 1276.900;  160.675;    0.000
367.078; 1373.900;  144.675;    0.000
367.139; 1307.900;  109.675;    0.000
367.201; 1350.900;  155.675;    0.000
367.262; 1343.900;  165.675;    0.000
367.324; 1284.900;  180.675;    0.000
367.385; 1336.900;  150.675;    0.000
367.447; 1325.900;  164.675;    0.000
367.508; 1307.900;  137.675;    0.000
367.570; 1291.900;  174.675;    0.000
367.631; 1352.900;  126.675;    0.000
367.693; 1340.900;  153.675;    0.000
367.754; 1320.900;  194.675;    0.000
367.816; 1369.900;  154.675;    0.000
367.877; 1417.900;  183.675;    0.000
367.939; 1374.900;  179.675;    0.000
368.000; 1322.900;  142.675;    0.000
368.062; 1310.900;  147.675;    0.000
368.123; 1414.900;  155.675;    0.000
368.184; 1412.900;  169.675;    0.000
368.246; 1251.900;  145.675;    0.000
368.307; 1379.900;  165.675;    0.000
368.369; 1385.900;  177.675;    0.000
368.430; 1335.900;  161.675;    0.000
368.491; 1298.900;  156.675;    0.000
368.553; 1321.900;  156.675;    0.000
368.614; 1329.900;  186.675;    0.000
368.675; 1384.900;  154.675;    0.000
368.737; 1385.900;  162.675;    0.000
368.798; 1397.900;  202.675;    0.000
368.859; 1384.900;  162.675;    0.000
368.921; 1360.900;  171.675;    0.000
368.982; 1366.900;  193.675;    0.000
369.043; 1380.900;  207.675;    0.000
369.104; 1396.900;  143.675;    0.000
369.166; 1406.900;  203.675;    0.000
369.227; 1398.900;  125.675;    0.000
369.288; 1341.900;  154.675;    0.000
369.349; 1416.900;  187.675;    0.000
369.411; 1404.900;  191.675;    0.000
369.472; 1431.900;  175.675;    0.000
369.533; 1405.900;  180.675;    0.000
369.594; 1322.900;  161.675;    0.000
369.656; 1394.900;  169.675;    0.000
369.717; 1366.900;  103.675;    0.000
369.778; 1343.900;  159.675;    0.000
369.839; 1402.900;  146.675;    0.000
369.900; 1483.900;  218.675;    0.000
369.961; 1397.900;  200.675;    0.000
370.023; 1397.900;  177.675;    0.000
370.084; 1343.900;  149.675;    0.000
370.145; 1467.900;  179.675;    0.000
370.206; 1363.900;  179.675;    0.000
370.267; 1434.900;  166.675;    0.000
370.328; 1380.900;  164.675;    0.000
370.389; 1467.900;  162.675;    0.000
370.451; 1419.900;  179.675;    0.000
370.512; 1479.900;  181.675;    0.000
370.573; 1449.900;  173.675;    0.000
370.634; 1478.900;  162.675;    0.000
370.695; 1425.900;  167.675;    0.000
370.756; 1377.900;  177.675;    0.000
370.817; 1433.900;  178.675;    0.000
370.878; 1522.900;  152.675;    0.000
370.939; 1393.900;  185.675;    0.000
371.000; 1382.900;  173.675;    0.000
371.061; 1452.900;  176.675;    0.000
371.122; 1454.900;  169.675;    0.000
371.183; 1387.900;  116.675;    0.000
371.244; 1450.900;  174.675;    0.000
371.305; 1405.900;  152.675;    0.000
371.366; 1520.900;  168.675;    0.000
371.427; 1415.900;  188.675;    0.000
371.488; 1429.900;  180.675;    0.000
371.549; 1433.900;  145.675;    0.000
371.610; 1482.900;  160.675;    0.000
371.671; 1452.900;  164.675;    0.000
371.732; 1431.900;  158.675;    0.000
371.793; 1434.900;  162.675;    0.000
371.853; 1524.900;  130.675;    0.000
371.914; 1497.900;  172.675;    0.000
371.975; 1534.900;   98.675;    0.000
372.036; 1633.900;  161.675;    0.000
372.097; 1511.900;  143.675;    0.000
372.158; 1488.900;  175.675;    0.000
372.219; 1484.900;  196.675;    0.000
372.280; 1527.900;  175.675;    0.000
372.340; 1528.900;  160.675;    0.000
372.401; 1465.900;  163.675;    0.000
372.462; 1440.900;  147.675;    0.000
372.523; 1506.900;  146.675;    0.000
372.584; 1533.900;  173.675;    0.000
372.645; 1516.900;  126.675;    0.000
372.705; 1584.900;  179.675;    0.000
372.766; 1466.900;  173.675;    0.000
372.827; 1587.900;  171.675;    0.000
372.888; 1466.900;  134.675;    0.000
372.948; 1538.900;  167.675;    0.000
373.009; 1426.900;  167.675;    0.000
373.070; 1517.900;  152.675;    0.000
373.131; 1427.900;  177.675;    0.000
373.191; 1571.900;  225.675;    0.000
373.252; 1465.900;  165.675;    0.000
373.313; 1547.900;  171.675;    0.000
373.373; 1530.900;  160.675;    0.000
373.434; 1597.900;  172.675;    0.000
373.495; 1729.900;  150.675;    0.000
373.555; 1782.900;  130.675;    0.000
373.616; 1511.900;  155.675;    0.000
373.677; 1591.900;  212.675;    0.000
373.737; 1662.900;  188.675;    0.000
373.798; 1600.900;  203.675;    0.000
373.859; 1601.900;  169.675;    0.000
373.919; 1491.900;  197.675;    0.000
373.980; 1487.900;  134.675;    0.000
374.041; 1585.900;  186.675;    0.000
374.101; 1516.900;  207.675;    0.000
374.162; 1588.900;  190.675;    0.000
374.222; 1469.900;  182.675;    0.000
374.283; 1551.900;  213.675;    0.000
374.343; 1478.900;  191.675;    0.000
374.404; 1588.900;  181.675;    0.000
374.465; 1530.900;  193.675;    0.000
374.525; 1534.900;  153.675;    0.000
374.586; 1595.900;  190.675;    0.000
374.646; 1599.900;  173.675;    0.000
374.707; 1594.900;  210.675;    0.000
374.767; 1575.900;  218.675;    0.000
374.828; 1585.900;  174.675;    0.000
374.888; 1667.900;  197.675;    0.000
374.949; 1781.900;  196.675;    0.000
375.009; 1793.900;  169.675;    0.000
375.070; 1615.900;  157.675;    0.000
375.130; 1520.900;  203.675;    0.000
375.190; 1525.900;  174.675;    0.000
375.251; 1574.900;  230.675;    0.000
375.311; 1560.900;  198.675;    0.000
375.372; 1519.900;  160.675;    0.000
375.432; 1636.900;  169.675;    0.000
375.493; 1576.900;  159.675;    0.000
375.553; 1551.900;  179.675;    0.000
375.613; 1560.900;  157.675;    0.000
375.674; 1585.900;  174.675;    0.000
375.734; 1574.900;  180.675;    0.000
375.794; 1590.900;  175.675;    0.000
375.855; 1663.900;  193.675;    0.000
375.915; 1668.900;  148.675;    0.000
375.975; 1562.900;  183.675;    0.000
376.036; 1575.900;  144.675;    0.000
376.096; 1591.900;  195.675;    0.000
376.156; 1565.900;  200.675;    0.000
376.217; 1642.900;  160.675;    0.000
376.277; 1617.900;  193.675;    0.000
376.337; 1635.900;  168.675;    0.000
376.398; 1619.900;  183.675;    0.000
376.458; 1606.900;  168.675;    0.000
376.518; 1563.900;  184.675;    0.000
376.578; 1590.900;  176.675;    0.000
376.639; 1595.900;  158.675;    0.000
376.699; 1601.900;  157.675;    0.000
376.759; 1721.900;  184.675;    0.000
376.819; 1555.900;  166.675;    0.000
376.880; 1599.900;  220.675;    0.000
376.940; 1571.900;  195.675;    0.000
377.000; 1462.900;  178.675;    0.000
377.060; 1602.900;  212.675;    0.000
377.120; 1529.900;  161.675;    0.000
377.180; 1549.900;  168.675;    0.000
377.241; 1557.900;  167.675;    0.000
377.301; 1599.900;  171.675;    0.000
377.361; 1611.900;  174.675;    0.000
377.421; 1600.900;  216.675;    0.000
377.481; 1624.900;  164.675;    0.000
377.541; 1522.900;  163.675;    0.000
377.601; 1589.900;  197.675;    0.000
377.661; 1557.900;  175.675;    0.000
377.722; 1690.900;  196.675;    0.000
377.782; 1596.900;  162.675;    0.000
377.842; 1635.900;  179.675;    0.000
377.902; 1650.900;  140.675;    0.000
377.962; 1674.900;  121.675;    0.000
378.022; 1565.900;  174.675;    0.000
378.082; 1576.900;  167.675;    0.000
378.142; 1635.900;  151.675;    0.000
378.202; 1669.900;  174.675;    0.000
378.262; 1653.900;  168.675;    0.000
378.322; 1706.900;  183.675;    0.000
378.382; 1634.900;  159.675;    0.000
378.442; 1725.900;  177.675;    0.000
378.502; 1588.900;  137.675;    0.000
378.562; 1612.900;  140.675;    0.000
378.622; 1573.900;  197.675;    0.000
378.682; 1673.900;  205.675;    0.000
378.742; 1730.900;  160.675;    0.000
378.802; 1700.900;  132.675;    0.000
378.862; 1750.900;  222.675;    0.000
378.921; 1690.900;  178.675;    0.000
378.981; 1738.900;  160.675;    0.000
379.041; 1699.900;  136.675;    0.000
379.101; 1782.900;  184.675;    0.000
379.161; 1729.900;  147.675;    0.000
379.221; 1675.900;  139.675;    0.000
379.281; 1801.900;  204.675;    0.000
379.341; 1705.900;  142.675;    0.000
379.401; 1717.900;  136.675;    0.000
379.460; 1702.900;  161.675;    0.000
379.520; 1727.900;  171.675;    0.000
379.580; 1742.900;  168.675;    0.000
379.640; 1718.900;  183.675;    0.000
379.700; 1744.900;  182.675;    0.000
379.759; 1759.900;  190.675;    0.000
379.819; 1781.900;  149.675;    0.000
379.879; 1785.900;  140.675;    0.000
379.939; 1755.900;  155.675;    0.000
379.999; 1778.900;  199.675;    0.000
380.058; 1805.900;  163.675;    0.000
380.118; 1746.900;  190.675;    0.000
380.178; 1732.900;  220.675;    0.000
380.237; 1639.900;  181.675;    0.000
380.297; 1813.900;  187.675;    0.000
380.357; 1838.900;  193.675;    0.000
380.417; 1787.900;  157.675;    0.000
380.476; 1808.900;  176.675;    0.000
380.536; 1759.900;  180.675;    0.000
380.596; 1824.900;  191.675;    0.000
380.655; 1815.900;  190.675;    0.000
380.715; 1777.900;  180.675;    0.000
380.775; 1824.900;  202.675;    0.000
380.834; 1817.900;  190.675;    0.000
380.894; 1756.900;  163.675;    0.000
380.954; 1751.900;  181.675;    0.000
381.013; 1844.900;  218.675;    0.000
381.073; 1862.900;  181.675;    0.000
381.132; 1828.900;  193.675;    0.000
381.192; 1906.900;  209.675;    0.000
381.252; 1755.900;  206.675;    0.000
381.311; 1920.900;  173.675;    0.000
381.371; 1811.900;  188.675;    0.000
381.430; 1870.900;  162.675;    0.000
381.490; 1873.900;  168.675;    0.000
381.549; 1845.900;  213.675;    0.000
381.609; 2036.900;  194.675;    0.000
381.668; 1957.900;  190.675;    0.000
381.728; 1815.900;  183.675;    0.000
381.787; 1998.900;  172.675;    0.000
381.847; 1942.900;  198.675;    0.000
381.906; 2004.900;  197.675;    0.000
381.966; 2056.900;  201.675;    0.000
382.025; 2129.900;  219.675;    0.000
382.085; 2323.900;  194.675;    0.000
382.144; 2185.900;  187.675;    0.000
382.204; 1942.900;  196.675;    0.000
382.263; 2068.900;  168.675;    0.000
382.323; 2074.900;  135.675;    0.000
382.382; 2101.900;  173.675;    0.000
382.441; 2164.900;  155.675;    0.000
382.501; 2197.900;  168.675;    0.000
382.560; 2298.900;  200.675;    0.000
382.619; 2427.900;  155.675;    0.000
382.679; 2478.900;  198.675;    0.000
382.738; 2446.900;  211.675;    0.000
382.798; 2634.900;  214.675;    0.000
382.857; 2733.900;  146.675;    0.000
382.916; 2965.900;  183.675;    0.000
382.976; 3059.900;  173.675;    0.000
383.035; 2961.900;  165.675;    0.000
383.094; 2969.900;  173.675;    0.000
383.154; 3348.900;  143.675;    0.000
383.213; 3916.900;  173.675;    0.000
383.272; 3929.900;  166.675;    0.000
383.331; 3284.900;  154.675;    0.000
383.391; 3000.900;  232.675;    0.000
383.450; 2978.900;  185.675;    0.000
383.509; 2916.900;  204.675;    0.000
383.568; 2936.900;  197.675;    0.000
383.628; 2964.900;  171.675;    0.000
383.687; 3232.900;  202.675;    0.000
383.746; 3795.900;  116.675;    0.000
383.805; 4540.900;  156.675;    0.000
383.864; 4824.900;  150.675;    0.000
383.924; 3832.900;  195.675;    0.000
383.983; 3048.900;  157.675;    0.000
384.042; 2783.900;  184.675;    0.000
384.101; 2722.900;  210.675;    0.000
384.160; 2560.900;  123.675;    0.000
384.219; 2376.900;  191.675;    0.000
384.279; 2414.900;  184.675;    0.000
384.338; 2143.900;  172.675;    0.000
384.397; 2151.900;  153.675;    0.000
384.456; 2192.900;  181.675;    0.000
384.515; 2210.900;  171.675;    0.000
384.574; 2155.900;  172.675;    0.000
384.633; 2179.900;  174.675;    0.000
384.692; 2075.900;  178.675;    0.000
384.751; 2120.900;  180.675;    0.000
384.810; 2047.900;  161.675;    0.000
384.869; 2095.900;  162.675;    0.000
384.929; 2125.900;  157.675;    0.000
384.988; 2119.900;  153.675;    0.000
385.047; 2116.900;  178.675;    0.000
385.106; 2099.900;  164.675;    0.000
385.165; 2119.900;  127.675;    0.000
385.224; 2056.900;  156.675;    0.000
385.283; 2115.900;  178.675;    0.000
385.342; 2072.900;  177.675;    0.000
385.401; 2077.900;  178.675;    0.000
385.459; 2047.900;  177.675;    0.000
385.518; 2104.900;  152.675;    0.000
385.577; 2035.900;  133.675;    0.000
385.636; 2216.900;  204.675;    0.000
385.695; 2160.900;  161.675;    0.000
385.754; 2109.900;  190.675;    0.000
385.813; 2042.900;  160.675;    0.000
385.872; 2063.900;  138.675;    0.000
385.931; 2088.900;  192.675;    0.000
385.990; 2246.900;  158.675;    0.000
386.049; 2196.900;  187.675;    0.000
386.107; 2059.900;  140.675;    0.000
386.166; 2043.900;  139.675;    0.000
386.225; 2118.900;  182.675;    0.000
386.284; 2015.900;  123.675;    0.000
386.343; 2148.900;  207.675;    0.000
386.402; 2021.900;  150.675;    0.000
386.460; 2099.900;  185.675;    0.000
386.519; 2031.900;  145.675;    0.000
386.578; 2031.900;  153.675;    0.000
386.637; 2044.900;  153.675;    0.000
386.696; 2206.900;  189.675;    0.000
386.754; 1971.900;  128.675;    0.000
386.813; 2091.900;  202.675;    0.000
386.872; 2077.900;  152.675;    0.000
386.931; 2076.900;  166.675;    0.000
386.989; 2071.900;  194.675;    0.000
387.048; 2009.900;  176.675;    0.000
387.107; 2209.900;  203.675;    0.000
387.165; 2004.900;  136.675;    0.000
387.224; 2082.900;  193.675;    0.000
387.283; 1995.900;  157.675;    0.000
387.342; 2080.900;  194.675;    0.000
387.400; 2164.900;  191.675;    0.000
387.459; 2002.900;  142.675;    0.000
387.517; 2061.900;  202.675;    0.000
387.576; 2055.900;  164.675;    0.000
387.635; 1976.900;  147.675;    0.000
387.693; 2080.900;  199.675;    0.000
387.752; 2079.900;  181.675;    0.000
387.811; 2104.900;  161.675;    0.000
387.869; 2113.900;  184.675;    0.000
387.928; 2096.900;  175.675;    0.000
387.986; 2114.900;  143.675;    0.000
388.045; 2035.900;  146.675;    0.000
388.103; 2020.900;  164.675;    0.000
388.162; 2104.900;  170.675;    0.000
388.221; 2124.900;  169.675;    0.000
388.279; 2135.900;  151.675;    0.000
388.338; 2171.900;  175.675;    0.000
388.396; 2086.900;  170.675;    0.000
388.455; 2136.900;  193.675;    0.000
388.513; 2080.900;  134.675;    0.000
388.572; 2057.900;  201.675;    0.000
388.630; 2151.900;  181.675;    0.000
388.689; 2145.900;  165.675;    0.000
388.747; 2162.900;  164.675;    0.000
388.806; 2154.900;  155.675;    0.000
388.864; 2136.900;  172.675;    0.000
388.922; 2157.900;  190.675;    0.000
388.981; 2126.900;  170.675;    0.000
389.039; 2091.900;  142.675;    0.000
389.098; 2147.900;  177.675;    0.000
389.156; 2086.900;  184.675;    0.000
389.214; 2060.900;  197.675;    0.000
389.273; 2037.900;  141.675;    0.000
389.331; 2033.900;  145.675;    0.000
389.390; 2095.900;  160.675;    0.000
389.448; 2037.900;  142.675;    0.000
389.506; 2104.900;  192.675;    0.000
389.565; 2120.900;  176.675;    0.000
389.623; 2060.900;  174.675;    0.000
389.681; 2153.900;  184.675;    0.000
389.740; 2196.900;  193.675;    0.000
389.798; 2044.900;  130.675;    0.000
389.856; 2172.900;  224.675;    0.000
389.914; 2100.900;  223.675;    0.000
389.973; 2026.900;  164.675;    0.000
390.031; 2112.900;  198.675;    0.000
390.089; 2150.900;  177.675;    0.000
390.147; 2046.900;  158.675;    0.000
390.206; 2148.900;  213.675;    0.000
390.264; 2127.900;  178.675;    0.000
390.322; 2196.900;  181.675;    0.000
390.380; 2073.900;  148.675;    0.000
390.439; 2075.900;  185.675;    0.000
390.497; 2116.900;  208.675;    0.000
390.555; 2077.900;  175.675;    0.000
390.613; 2064.900;  178.675;    0.000
390.671; 2176.900;  190.675;    0.000
390.729; 2095.900;  172.675;    0.000
390.788; 2090.900;  194.675;    0.000
390.846; 2136.900;  187.675;    0.000
390.904; 2090.900;  207.675;    0.000
390.962; 2138.900;  211.675;    0.000
391.020; 2123.900;  218.675;    0.000
391.078; 2211.900;  179.675;    0.000
391.136; 2098.900;  223.675;    0.000
391.194; 2243.900;  209.675;    0.000
391.253; 2213.900;  217.675;    0.000
391.311; 2251.900;  217.675;    0.000
391.369; 2149.900;  217.675;    0.000
391.427; 2215.900;  253.675;    0.000
391.485; 2191.900;  176.675;    0.000
391.543; 2246.900;  252.675;    0.000
391.601; 2245.900;  168.675;    0.000
391.659; 2186.900;  206.675;    0.000
391.717; 2159.900;  172.675;    0.000
391.775; 2183.900;  170.675;    0.000
391.833; 2295.900;  196.675;    0.000
391.891; 2148.900;  180.675;    0.000
391.949; 2255.900;  201.675;    0.000
392.007; 2333.900;  196.675;    0.000
392.065; 2209.900;  191.675;    0.000
392.123; 2291.900;  158.675;    0.000
392.180; 2302.900;  192.675;    0.000
392.238; 2275.900;  186.675;    0.000
392.296; 2292.900;  150.675;    0.000
392.354; 2338.900;  175.675;    0.000
392.412; 2203.900;  219.675;    0.000
392.470; 2291.900;  200.675;    0.000
392.528; 2385.900;  177.675;    0.000
392.586; 2338.900;  169.675;    0.000
392.644; 2381.900;  155.675;    0.000
392.701; 2341.900;  215.675;    0.000
392.759; 2363.900;  218.675;    0.000
392.817; 2380.900;  178.675;    0.000
392.875; 2289.900;  190.675;    0.000
392.933; 2382.900;  197.675;    0.000
392.991; 2422.900;  179.675;    0.000
393.048; 2633.900;  205.675;    0.000
393.106; 2614.900;  229.675;    0.000
393.164; 2664.900;  167.675;    0.000
393.222; 2987.900;  156.675;    0.000
393.279; 3721.900;  203.675;    0.000
393.337; 5734.900;  216.675;    0.000
393.395; 7223.900;  180.675;    0.000
393.453; 5408.900;  163.675;    0.000
393.510; 3157.900;  194.675;    0.000
393.568; 2776.900;  207.675;    0.000
393.626; 2575.900;  200.675;    0.000
393.684; 2567.900;  234.675;    0.000
393.741; 2428.900;  197.675;    0.000
393.799; 2412.900;  201.675;    0.000
393.857; 2398.900;  185.675;    0.000
393.914; 2309.900;  200.675;    0.000
393.972; 2307.900;  181.675;    0.000
394.030; 2274.900;  188.675;    0.000
394.087; 2366.900;  202.675;    0.000
394.145; 2495.900;  214.675;    0.000
394.202; 2410.900;  204.675;    0.000
394.260; 2385.900;  178.675;    0.000
394.318; 2439.900;  208.675;    0.000
394.375; 2395.900;  183.675;    0.000
394.433; 2313.900;  175.675;    0.000
394.490; 2405.900;  170.675;    0.000
394.548; 2400.900;  161.675;    0.000
394.605; 2361.900;  196.675;    0.000
394.663; 2335.900;  191.675;    0.000
394.720; 2326.900;  179.675;    0.000
394.778; 2280.900;  193.675;    0.000
394.836; 2368.900;  160.675;    0.000
394.893; 2360.900;  152.675;    0.000
394.951; 2433.900;  179.675;    0.000
395.008; 2479.900;  185.675;    0.000
395.065; 2452.900;  154.675;    0.000
395.123; 2374.900;  176.675;    0.000
395.180; 2350.900;  202.675;    0.000
395.238; 2328.900;  135.675;    0.000
395.295; 2411.900;  178.675;    0.000
395.353; 2368.900;  181.675;    0.000
395.410; 2483.900;  160.675;    0.000
395.468; 2459.900;  179.675;    0.000
395.525; 2464.900;  187.675;    0.000
395.582; 2463.900;  221.675;    0.000
395.640; 2506.900;  220.675;    0.000
395.697; 2447.900;  174.675;    0.000
395.754; 2441.900;  177.675;    0.000
395.812; 2468.900;  193.675;    0.000
395.869; 2575.900;  220.675;    0.000
395.927; 2549.900;  206.675;    0.000
395.984; 2529.900;  213.675;    0.000
396.041; 2414.900;  194.675;    0.000
396.098; 2476.900;  144.675;    0.000
396.156; 2509.900;  168.675;    0.000
396.213; 2582.900;  181.675;    0.000
396.270; 2480.900;  186.675;    0.000
396.328; 2451.900;  165.675;    0.000
396.385; 2524.900;  192.675;    0.000
396.442; 2606.900;  196.675;    0.000
396.499; 2579.900;  162.675;    0.000
396.557; 2598.900;  177.675;    0.000
396.614; 2625.900;  184.675;    0.000
396.671; 2712.900;  180.675;    0.000
396.728; 3151.900;  194.675;    0.000
396.785; 3663.900;  173.675;    0.000
396.843; 5107.900;  154.675;    0.000
396.900; 5414.900;  200.675;    0.000
396.957; 3652.900;  158.675;    0.000
397.014; 2913.900;  203.675;    0.000
397.071; 2785.900;  178.675;    0.000
397.128; 2739.900;  201.675;    0.000
397.186; 2651.900;  200.675;    0.000
397.243; 2574.900;  187.675;    0.000
397.300; 2598.900;  173.675;    0.000
397.357; 2714.900;  189.675;    0.000
397.414; 2595.900;  202.675;    0.000
397.471; 2603.900;  156.675;    0.000
397.528; 2615.900;  197.675;    0.000
397.585; 2541.900;  174.675;    0.000
397.642; 2581.900;  202.675;    0.000
397.699; 2621.900;  197.675;    0.000
397.756; 2579.900;  188.675;    0.000
397.814; 2553.900;  210.675;    0.000
397.871; 2628.900;  203.675;    0.000
397.928; 2652.900;  189.675;    0.000
397.985; 2506.900;  192.675;    0.000
398.042; 2573.900;  198.675;    0.000
398.099; 2676.900;  181.675;    0.000
398.156; 2606.900;  201.675;    0.000
398.212; 2708.900;  216.675;    0.000
398.269; 2653.900;  206.675;    0.000
398.326; 2680.900;  213.675;    0.000
398.383; 2628.900;  168.675;    0.000
398.440; 2633.900;  184.675;    0.000
398.497; 2624.900;  194.675;    0.000
398.554; 2682.900;  219.675;    0.000
398.611; 2726.900;  190.675;    0.000
398.668; 2682.900;  138.675;    0.000
398.725; 2758.900;  170.675;    0.000
398.782; 2738.900;  223.675;    0.000
398.839; 2709.900;  211.675;    0.000
398.895; 2821.900;  173.675;    0.000
398.952; 2817.900;  207.675;    0.000
399.009; 2693.900;  173.675;    0.000
399.066; 2835.900;  171.675;    0.000
399.123; 2886.900;  189.675;    0.000
399.180; 2944.900;  170.675;    0.000
399.236; 2888.900;  193.675;    0.000
399.293; 2902.900;  222.675;    0.000
399.350; 2927.900;  195.675;    0.000
399.407; 3063.900;  214.675;    0.000
399.463; 2950.900;  181.675;    0.000
399.520; 3066.900;  168.675;    0.000
399.577; 3017.900;  231.675;    0.000
399.634; 3207.900;  215.675;    0.000
399.690; 3143.900;  177.675;    0.000
399.747; 3263.900;  212.675;    0.000
399.804; 3129.900;  208.675;    0.000
399.861; 3148.900;  225.675;    0.000
399.917; 3057.900;  191.675;    0.000
399.974; 3059.900;  182.675;    0.000
400.031; 3123.900;  218.675;    0.000
400.087; 2972.900;  202.675;    0.000
400.144; 3004.900;  192.675;    0.000
400.201; 3056.900;  187.675;    0.000
400.257; 2875.900;  193.675;    0.000
400.314; 2945.900;  185.675;    0.000
400.370; 2904.900;  201.675;    0.000
400.427; 2922.900;  208.675;    0.000
400.484; 2732.900;  201.675;    0.000
400.540; 2879.900;  204.675;    0.000
400.597; 2836.900;  210.675;    0.000
400.653; 2868.900;  224.675;    0.000
400.710; 2699.900;  196.675;    0.000
400.766; 2794.900;  224.675;    0.000
400.823; 2765.900;  210.675;    0.000
400.879; 2866.900;  213.675;    0.000
400.936; 2770.900;  182.675;    0.000
400.993; 2773.900;  184.675;    0.000
401.049; 2837.900;  216.675;    0.000
401.105; 2888.900;  235.675;    0.000
401.162; 2921.900;  196.675;    0.000
401.218; 2853.900;  221.675;    0.000
401.275; 2704.900;  216.675;    0.000
401.331; 2842.900;  198.675;    0.000
401.388; 2676.900;  205.675;    0.000
401.444; 2748.900;  154.675;    0.000
401.501; 2812.900;  208.675;    0.000
401.557; 2750.900;  162.675;    0.000
401.614; 2691.900;  157.675;    0.000
401.670; 2830.900;  198.675;    0.000
401.726; 2766.900;  195.675;    0.000
401.783; 2772.900;  186.675;    0.000
401.839; 2757.900;  205.675;    0.000
401.895; 2895.900;  202.675;    0.000
401.952; 2847.900;  143.675;    0.000
402.008; 2841.900;  177.675;    0.000
402.064; 2706.900;  177.675;    0.000
402.121; 2810.900;  194.675;    0.000
402.177; 2859.900;  181.675;    0.000
402.233; 2855.900;  205.675;    0.000
402.290; 2916.900;  190.675;    0.000
402.346; 2853.900;  190.675;    0.000
402.402; 2839.900;  151.675;    0.000
402.458; 2843.900;  194.675;    0.000
402.515; 2903.900;  212.675;    0.000
402.571; 2820.900;  209.675;    0.000
402.627; 2770.900;  199.675;    0.000
402.683; 2859.900;  213.675;    0.000
402.740; 2789.900;  165.675;    0.000
402.796; 2869.900;  168.675;    0.000
402.852; 2828.900;  200.675;    0.000
402.908; 2857.900;  193.675;    0.000
402.964; 2891.900;  166.675;    0.000
403.021; 2772.900;  196.675;    0.000
403.077; 2936.900;  212.675;    0.000
403.133; 2750.900;  186.675;    0.000
403.189; 2888.900;  206.675;    0.000
403.245; 2823.900;  207.675;    0.000
403.301; 2810.900;  204.675;    0.000
403.357; 2950.900;  246.675;    0.000
403.414; 2793.900;  227.675;    0.000
403.470; 2838.900;  207.675;    0.000
403.526; 2921.900;  171.675;    0.000
403.582; 2893.900;  200.675;    0.000
403.638; 2983.900;  213.675;    0.000
403.694; 3048.900;  239.675;    0.000
403.750; 2789.900;  221.675;    0.000
403.806; 2956.900;  197.675;    0.000
403.862; 2974.900;  222.675;    0.000
403.918; 2943.900;  174.675;    0.000
403.974; 2966.900;  183.675;    0.000
404.030; 2928.900;  184.675;    0.000
404.086; 2952.900;  170.675;    0.000
404.142; 2935.900;  215.675;    0.000
404.198; 2737.900;  189.675;    0.000
404.254; 2959.900;  195.675;    0.000
404.310; 2998.900;  206.675;    0.000
404.366; 2902.900;  179.675;    0.000
404.422; 3015.900;  197.675;    0.000
404.478; 3156.900;  176.675;    0.000
404.534; 2955.900;  165.675;    0.000
404.590; 3233.900;  203.675;    0.000
404.646; 3309.900;  195.675;    0.000
404.701; 2991.900;  180.675;    0.000
404.757; 3044.900;  218.675;    0.000
404.813; 2995.900;  160.675;    0.000
404.869; 3022.900;  213.675;    0.000
404.925; 2906.900;  171.675;    0.000
404.981; 2987.900;  194.675;    0.000
405.037; 2868.900;  211.675;    0.000
405.092; 2857.900;  158.675;    0.000
405.148; 2909.900;  140.675;    0.000
405.204; 3065.900;  161.675;    0.000
405.260; 2949.900;  161.675;    0.000
405.316; 3032.900;  155.675;    0.000
405.371; 3114.900;  151.675;    0.000
405.427; 3010.900;  186.675;    0.000
405.483; 2976.900;  206.675;    0.000
405.539; 2922.900;  162.675;    0.000
405.594; 2980.900;  205.675;    0.000
405.650; 2975.900;  153.675;    0.000
405.706; 3125.900;  185.675;    0.000
405.761; 3010.900;  205.675;    0.000
405.817; 2993.900;  185.675;    0.000
405.873; 3130.900;  160.675;    0.000
405.928; 2975.900;  182.675;    0.000
405.984; 3034.900;  206.675;    0.000
406.040; 3061.900;  200.675;    0.000
406.095; 2966.900;  138.675;    0.000
406.151; 3141.900;  178.675;    0.000
406.207; 3027.900;  225.675;    0.000
406.262; 3017.900;  161.675;    0.000
406.318; 3152.900;  186.675;    0.000
406.374; 3181.900;  173.675;    0.000
406.429; 3282.900;  197.675;    0.000
406.485; 3167.900;  260.675;    0.000
406.540; 3122.900;  184.675;    0.000
406.596; 3152.900;  193.675;    0.000
406.651; 3120.900;  176.675;    0.000
406.707; 3047.900;  158.675;    0.000
406.763; 3103.900;  174.675;    0.000
406.818; 3165.900;  188.675;    0.000
406.874; 3088.900;  176.675;    0.000
406.929; 3372.900;  220.675;    0.000
406.985; 3277.900;  167.675;    0.000
407.040; 3257.900;  191.675;    0.000
407.095; 3228.900;  190.675;    0.000
407.151; 3422.900;  196.675;    0.000
407.206; 3504.900;  184.675;    0.000
407.262; 3376.900;  167.675;    0.000
407.317; 3418.900;  199.675;    0.000
407.373; 3456.900;  211.675;    0.000
407.428; 3497.900;  202.675;    0.000
407.484; 3312.900;  172.675;    0.000
407.539; 3354.900;  171.675;    0.000
407.594; 3489.900;  219.675;    0.000
407.650; 3376.900;  179.675;    0.000
407.705; 3304.900;  141.675;    0.000
407.760; 3340.900;  182.675;    0.000
407.816; 3369.900;  203.675;    0.000
407.871; 3404.900;  219.675;    0.000
407.926; 3390.900;  197.675;    0.000
407.982; 3324.900;  176.675;    0.000
408.037; 3270.900;  187.675;    0.000
408.092; 3344.900;  161.675;    0.000
408.148; 3552.900;  185.675;    0.000
408.203; 3311.900;  196.675;    0.000
408.258; 3306.900;  188.675;    0.000
408.314; 3351.900;  225.675;    0.000
408.369; 3236.900;  172.675;    0.000
408.424; 3230.900;  204.675;    0.000
408.479; 3227.900;  182.675;    0.000
408.534; 3355.900;  220.675;    0.000
408.590; 3399.900;  196.675;    0.000
408.645; 3298.900;  170.675;    0.000
408.700; 3237.900;  204.675;    0.000
408.755; 3261.900;  219.675;    0.000
408.810; 3227.900;  174.675;    0.000
408.866; 3223.900;  212.675;    0.000
408.921; 3461.900;  233.675;    0.000
408.976; 3234.900;  198.675;    0.000
409.031; 3290.900;  179.675;    0.000
409.086; 3179.900;  181.675;    0.000
409.141; 3277.900;  192.675;    0.000
409.196; 3154.900;  172.675;    0.000
409.252; 3221.900;  199.675;    0.000
409.307; 3281.900;  159.675;    0.000
409.362; 3267.900;  158.675;    0.000
409.417; 3302.900;  164.675;    0.000
409.472; 3177.900;  186.675;    0.000
409.527; 3224.900;  215.675;    0.000
409.582; 3296.900;  227.675;    0.000
409.637; 3115.900;  211.675;    0.000
409.692; 3187.900;  224.675;    0.000
409.747; 3204.900;  147.675;    0.000
409.802; 3278.900;  203.675;    0.000
409.857; 3118.900;  203.675;    0.000
409.912; 3185.900;  219.675;    0.000
409.967; 3181.900;  200.675;    0.000
410.022; 3206.900;  199.675;    0.000
410.077; 3265.900;  171.675;    0.000
410.132; 3343.900;  193.675;    0.000
410.187; 3206.900;  167.675;    0.000
410.242; 3186.900;  188.675;    0.000
410.297; 3109.900;  195.675;    0.000
410.351; 3200.900;  225.675;    0.000
410.406; 3315.900;  188.675;    0.000
410.461; 3273.900;  197.675;    0.000
410.516; 3107.900;  212.675;    0.000
410.571; 3194.900;  173.675;    0.000
410.626; 3360.900;  180.675;    0.000
410.681; 3111.900;  198.675;    0.000
410.736; 3236.900;  190.675;    0.000
410.790; 3157.900;  204.675;    0.000
410.845; 3333.900;  214.675;    0.000
410.900; 3324.900;  184.675;    0.000
410.955; 3279.900;  231.675;    0.000
411.010; 3254.900;  211.675;    0.000
411.064; 3150.900;  204.675;    0.000
411.119; 3146.900;  219.675;    0.000
411.174; 3236.900;  208.675;    0.000
411.229; 3235.900;  207.675;    0.000
411.283; 3175.900;  199.675;    0.000
411.338; 3261.900;  198.675;    0.000
411.393; 3123.900;  155.675;    0.000
411.447; 3236.900;  200.675;    0.000
411.502; 3241.900;  229.675;    0.000
411.557; 3249.900;  197.675;    0.000
411.612; 3258.900;  171.675;    0.000
411.666; 3227.900;  201.675;    0.000
411.721; 3196.900;  174.675;    0.000
411.776; 3330.900;  222.675;    0.000
411.830; 3186.900;  150.675;    0.000
411.885; 3219.900;  169.675;    0.000
411.939; 3365.900;  216.675;    0.000
411.994; 3234.900;  215.675;    0.000
412.049; 3393.900;  219.675;    0.000
412.103; 3287.900;  225.675;    0.000
412.158; 3193.900;  216.675;    0.000
412.212; 3244.900;  218.675;    0.000
412.267; 3197.900;  219.675;    0.000
412.322; 3386.900;  235.675;    0.000
412.376; 3277.900;  208.675;    0.000
412.431; 3322.900;  232.675;    0.000
412.485; 3254.900;  223.675;    0.000
412.540; 3218.900;  217.675;    0.000
412.594; 3267.900;  195.675;    0.000
412.649; 3220.900;  236.675;    0.000
412.703; 3323.900;  216.675;    0.000
412.758; 3205.900;  201.675;    0.000
412.812; 3109.900;  176.675;    0.000
412.866; 3161.900;  179.675;    0.000
412.921; 3206.900;  196.675;    0.000
412.975; 3199.900;  238.675;    0.000
413.030; 3186.900;  272.675;    0.000
413.084; 3356.900;  208.675;    0.000
413.139; 3240.900;  201.675;    0.000
413.193; 3139.900;  198.675;    0.000
413.247; 3381.900;  213.675;    0.000
413.302; 3137.900;  202.675;    0.000
413.356; 3324.900;  184.675;    0.000
413.410; 3182.900;  202.675;    0.000
413.465; 3217.900;  145.675;    0.000
413.519; 3228.900;  200.675;    0.000
413.573; 3374.900;  197.675;    0.000
413.628; 3196.900;  224.675;    0.000
413.682; 3291.900;  211.675;    0.000
413.736; 3156.900;  202.675;    0.000
413.791; 3230.900;  228.675;    0.000
413.845; 3297.900;  184.675;    0.000
413.899; 3198.900;  226.675;    0.000
413.953; 3205.900;  213.675;    0.000
414.008; 3098.900;  175.675;    0.000
414.062; 3185.900;  216.675;    0.000
414.116; 3252.900;  206.675;    0.000
414.170; 3261.900;  229.675;    0.000
414.225; 3264.900;  196.675;    0.000
414.279; 3321.900;  199.675;    0.000
414.333; 3340.900;  220.675;    0.000
414.387; 3314.900;  217.675;    0.000
414.441; 3230.900;  206.675;    0.000
414.496; 3222.900;  264.675;    0.000
414.550; 3304.900;  217.675;    0.000
414.604; 3260.900;  224.675;    0.000
414.658; 3179.900;  156.675;    0.000
414.712; 3359.900;  203.675;    0.000
414.766; 3119.900;  216.675;    0.000
414.820; 3278.900;  218.675;    0.000
414.874; 3280.900;  240.675;    0.000
414.928; 3077.900;  204.675;    0.000
414.982; 3125.900;  195.675;    0.000
415.037; 3133.900;  212.675;    0.000
415.091; 3281.900;  211.675;    0.000
415.145; 3276.900;  230.675;    0.000
415.199; 3312.900;  208.675;    0.000
415.253; 3280.900;  213.675;    0.000
415.307; 3270.900;  208.675;    0.000
415.361; 3272.900;  193.675;    0.000
415.415; 3166.900;  207.675;    0.000
415.469; 3250.900;  214.675;    0.000
415.523; 3238.900;  226.675;    0.000
415.577; 3293.900;  194.675;    0.000
415.631; 3216.900;  258.675;    0.000
415.684; 3209.900;  239.675;    0.000
415.738; 3389.900;  191.675;    0.000
415.792; 3225.900;  185.675;    0.000
415.846; 3194.900;  239.675;    0.000
415.900; 3256.900;  209.675;    0.000
415.954; 3124.900;  215.675;    0.000
416.008; 3290.900;  229.675;    0.000
416.062; 3244.900;  200.675;    0.000
416.116; 3137.900;  195.675;    0.000
416.169; 3168.900;  238.675;    0.000
416.223; 3254.900;  271.675;    0.000
416.277; 3199.900;  232.675;    0.000
416.331; 3178.900;  226.675;    0.000
416.385; 3218.900;  207.675;    0.000
416.439; 3218.900;  221.675;    0.000
416.492; 3257.900;  269.675;    0.000
416.546; 3215.900;  254.675;    0.000
416.600; 3153.900;  225.675;    0.000
416.654; 3171.900;  269.675;    0.000
416.707; 3053.900;  232.675;    0.000
416.761; 3148.900;  226.675;    0.000
416.815; 3249.900;  219.675;    0.000
416.869; 3364.900;  234.675;    0.000
416.922; 3311.900;  230.675;    0.000
416.976; 3262.900;  216.675;    0.000
417.030; 3232.900;  271.675;    0.000
417.083; 3162.900;  229.675;    0.000
417.137; 3218.900;  249.675;    0.000
417.191; 3179.900;  241.675;    0.000
417.244; 3183.900;  230.675;    0.000
417.298; 3090.900;  215.675;    0.000
417.352; 3241.900;  188.675;    0.000
417.405; 3181.900;  248.675;    0.000
417.459; 3197.900;  256.675;    0.000
417.512; 3225.900;  263.675;    0.000
417.566; 3247.900;  227.675;    0.000
417.620; 3378.900;  270.675;    0.000
417.673; 3272.900;  216.675;    0.000
417.727; 3218.900;  234.675;    0.000
417.780; 3220.900;  215.675;    0.000
417.834; 3217.900;  203.675;    0.000
417.887; 3237.900;  257.675;    0.000
417.941; 3270.900;  216.675;    0.000
417.994; 3297.900;  245.675;    0.000
418.048; 3346.900;  209.675;    0.000
418.101; 3276.900;  207.675;    0.000
418.155; 3264.900;  204.675;    0.000
418.208; 3375.900;  270.675;    0.000
418.262; 3182.900;  228.675;    0.000
418.315; 3315.900;  254.675;    0.000
418.369; 3284.900;  245.675;    0.000
418.422; 3310.900;  224.675;    0.000
418.476; 3155.900;  221.675;    0.000
418.529; 3125.900;  234.675;    0.000
418.582; 3221.900;  249.675;    0.000
418.636; 3288.900;  224.675;    0.000
418.689; 3123.900;  228.675;    0.000
418.743; 3229.900;  240.675;    0.000
418.796; 3196.900;  197.675;    0.000
418.849; 3122.900;  220.675;    0.000
418.903; 3342.900;  246.675;    0.000
418.956; 3237.900;  250.675;    0.000
419.009; 3286.900;  276.675;    0.000
419.063; 3216.900;  232.675;    0.000
419.116; 3197.900;  228.675;    0.000
419.169; 3175.900;  249.675;    0.000
419.222; 3212.900;  215.675;    0.000
419.276; 3269.900;  228.675;    0.000
419.329; 3178.900;  246.675;    0.000
419.382; 3082.900;  188.675;    0.000
419.435; 3193.900;  240.675;    0.000
419.489; 3156.900;  261.675;    0.000
419.542; 3236.900;  224.675;    0.000
419.595; 3263.900;  251.675;    0.000
419.648; 3203.900;  236.675;    0.000
419.701; 3218.900;  244.675;    0.000
419.755; 3224.900;  242.675;    0.000
419.808; 3224.900;  242.675;    0.000
419.861; 3157.900;  189.675;    0.000
419.914; 3175.900;  258.675;    0.000
419.967; 3183.900;  230.675;    0.000
420.020; 3114.900;  223.675;    0.000
420.073; 3112.900;  221.675;    0.000
420.127; 3126.900;  252.675;    0.000
420.180; 3119.900;  219.675;    0.000
420.233; 3117.900;  201.675;    0.000
420.286; 3067.900;  221.675;    0.000
420.339; 3138.900;  250.675;    0.000
420.392; 2959.900;  268.675;    0.000
420.445; 3123.900;  223.675;    0.000
420.498; 3002.900;  240.675;    0.000
420.551; 3077.900;  220.675;    0.000
420.604; 3027.900;  231.675;    0.000
420.657; 2949.900;  228.675;    0.000
420.710; 3101.900;  219.675;    0.000
420.763; 3153.900;  280.675;    0.000
420.816; 2932.900;  202.675;    0.000
420.869; 2989.900;  219.675;    0.000
420.922; 3052.900;  218.675;    0.000
420.975; 3104.900;  237.675;    0.000
421.028; 2940.900;  242.675;    0.000
421.081; 3128.900;  247.675;    0.000
421.134; 2876.900;  239.675;    0.000
421.187; 3124.900;  229.675;    0.000
421.239; 3052.900;  200.675;    0.000
421.292; 2934.900;  205.675;    0.000
421.345; 2990.900;  219.675;    0.000
421.398; 2974.900;  187.675;    0.000
421.451; 3114.900;  226.675;    0.000
421.504; 3078.900;  206.675;    0.000
421.557; 2977.900;  226.675;    0.000
421.609; 2951.900;  209.675;    0.000
421.662; 2999.900;  229.675;    0.000
421.715; 2985.900;  231.675;    0.000
421.768; 3103.900;  215.675;    0.000
421.821; 3064.900;  211.675;    0.000
421.873; 2979.900;  220.675;    0.000
421.926; 2917.900;  212.675;    0.000
421.979; 2954.900;  209.675;    0.000
422.032; 3023.900;  203.675;    0.000
422.084; 2958.900;  213.675;    0.000
422.137; 2903.900;  196.675;    0.000
422.190; 2898.900;  246.675;    0.000
422.243; 2963.900;  194.675;    0.000
422.295; 3011.900;  225.675;    0.000
422.348; 3115.900;  248.675;    0.000
422.401; 2899.900;  252.675;    0.000
422.453; 3029.900;  249.675;    0.000
422.506; 2949.900;  233.675;    0.000
422.559; 3045.900;  228.675;    0.000
422.611; 3283.900;  224.675;    0.000
422.664; 3723.900;  226.675;    0.000
422.716; 4288.900;  226.675;    0.000
422.769; 3778.900;  216.675;    0.000
422.822; 3190.900;  256.675;    0.000
422.874; 3063.900;  206.675;    0.000
422.927; 2975.900;  257.675;    0.000
422.979; 3000.900;  209.675;    0.000
423.032; 3053.900;  244.675;    0.000
423.084; 2997.900;  244.675;    0.000
423.137; 3121.900;  213.675;    0.000
423.189; 2891.900;  208.675;    0.000
423.242; 2900.900;  226.675;    0.000
423.294; 3046.900;  250.675;    0.000
423.347; 2882.900;  206.675;    0.000
423.399; 2994.900;  268.675;    0.000
423.452; 3031.900;  262.675;    0.000
423.504; 2918.900;  237.675;    0.000
423.557; 2979.900;  245.675;    0.000
423.609; 2957.900;  211.675;    0.000
423.662; 3117.900;  222.675;    0.000
423.714; 2885.900;  219.675;    0.000
423.766; 2865.900;  250.675;    0.000
423.819; 2913.900;  220.675;    0.000
423.871; 3034.900;  229.675;    0.000
423.923; 2970.900;  219.675;    0.000
423.976; 2950.900;  221.675;    0.000
424.028; 2988.900;  211.675;    0.000
424.081; 2826.900;  254.675;    0.000
424.133; 2881.900;  230.675;    0.000
424.185; 2881.900;  241.675;    0.000
424.238; 2913.900;  182.675;    0.000
424.290; 2894.900;  215.675;    0.000
424.342; 2817.900;  235.675;    0.000
424.394; 2846.900;  225.675;    0.000
424.447; 2860.900;  264.675;    0.000
424.499; 2878.900;  225.675;    0.000
424.551; 3001.900;  237.675;    0.000
424.603; 2862.900;  219.675;    0.000
424.656; 2823.900;  240.675;    0.000
424.708; 2874.900;  266.675;    0.000
424.760; 2801.900;  230.675;    0.000
424.812; 2932.900;  284.675;    0.000
424.864; 2861.900;  189.675;    0.000
424.917; 2835.900;  226.675;    0.000
424.969; 2887.900;  253.675;    0.000
425.021; 2856.900;  233.675;    0.000
425.073; 2984.900;  246.675;    0.000
425.125; 2828.900;  238.675;    0.000
425.177; 2789.900;  253.675;    0.000
425.229; 2811.900;  254.675;    0.000
425.282; 2848.900;  252.675;    0.000
425.334; 2790.900;  261.675;    0.000
425.386; 2908.900;  227.675;    0.000
425.438; 3216.900;  246.675;    0.000
425.490; 3343.900;  249.675;    0.000
425.542; 2992.900;  236.675;    0.000
425.594; 2805.900;  236.675;    0.000
425.646; 2820.900;  237.675;    0.000
425.698; 2848.900;  271.675;    0.000
425.750; 2877.900;  240.675;    0.000
425.802; 2806.900;  238.675;    0.000
425.854; 2792.900;  256.675;    0.000
425.906; 2836.900;  230.675;    0.000
425.958; 2736.900;  231.675;    0.000
426.010; 2704.900;  268.675;    0.000
426.062; 2865.900;  227.675;    0.000
426.114; 2744.900;  234.675;    0.000
426.166; 2794.900;  239.675;    0.000
426.218; 2868.900;  255.675;    0.000
426.270; 2772.900;  196.675;    0.000
426.321; 2786.900;  231.675;    0.000
426.373; 2712.900;  199.675;    0.000
426.425; 2799.900;  245.675;    0.000
426.477; 2664.900;  259.675;    0.000
426.529; 2712.900;  274.675;    0.000
426.581; 2787.900;  221.675;    0.000
426.633; 2726.900;  231.675;    0.000
426.684; 2623.900;  248.675;    0.000
426.736; 2698.900;  237.675;    0.000
426.788; 2672.900;  191.675;    0.000
426.840; 2643.900;  180.675;    0.000
426.892; 2791.900;  259.675;    0.000
426.943; 2717.900;  256.675;    0.000
426.995; 2643.900;  212.675;    0.000
427.047; 2654.900;  233.675;    0.000
427.099; 2725.900;  222.675;    0.000
427.150; 2747.900;  203.675;    0.000
427.202; 2878.900;  218.675;    0.000
427.254; 2735.900;  198.675;    0.000
427.306; 2769.900;  248.675;    0.000
427.357; 2686.900;  239.675;    0.000
427.409; 2679.900;  193.675;    0.000
427.461; 2883.900;  215.675;    0.000
427.512; 3043.900;  251.675;    0.000
427.564; 3016.900;  210.675;    0.000
427.616; 2769.900;  251.675;    0.000
427.667; 2751.900;  246.675;    0.000
427.719; 2663.900;  227.675;    0.000
427.770; 2665.900;  247.675;    0.000
427.822; 2700.900;  261.675;    0.000
427.874; 2626.900;  231.675;    0.000
427.925; 2669.900;  231.675;    0.000
427.977; 2643.900;  243.675;    0.000
428.028; 2538.900;  249.675;    0.000
428.080; 2658.900;  224.675;    0.000
428.131; 2639.900;  247.675;    0.000
428.183; 2614.900;  213.675;    0.000
428.234; 2571.900;  213.675;    0.000
428.286; 2759.900;  224.675;    0.000
428.337; 2595.900;  212.675;    0.000
428.389; 2705.900;  231.675;    0.000
428.440; 2665.900;  248.675;    0.000
428.492; 2679.900;  242.675;    0.000
428.543; 2611.900;  220.675;    0.000
428.595; 2557.900;  212.675;    0.000
428.646; 2638.900;  231.675;    0.000
428.697; 2616.900;  232.675;    0.000
428.749; 2641.900;  231.675;    0.000
428.800; 2527.900;  270.675;    0.000
428.852; 2636.900;  266.675;    0.000
428.903; 2547.900;  215.675;    0.000
428.954; 2720.900;  200.675;    0.000
429.006; 2814.900;  247.675;    0.000
429.057; 2831.900;  247.675;    0.000
429.108; 2736.900;  193.675;    0.000
429.160; 2631.900;  249.675;    0.000
429.211; 2608.900;  228.675;    0.000
429.262; 2535.900;  243.675;    0.000
429.314; 2639.900;  227.675;    0.000
429.365; 2542.900;  242.675;    0.000
429.416; 2671.900;  240.675;    0.000
429.467; 2598.900;  222.675;    0.000
429.519; 2529.900;  233.675;    0.000
429.570; 2561.900;  223.675;    0.000
429.621; 2547.900;  257.675;    0.000
429.672; 2517.900;  220.675;    0.000
429.724; 2611.900;  203.675;    0.000
429.775; 2466.900;  242.675;    0.000
429.826; 2540.900;  195.675;    0.000
429.877; 2527.900;  248.675;    0.000
429.928; 2602.900;  226.675;    0.000
429.980; 2527.900;  189.675;    0.000
430.031; 2577.900;  223.675;    0.000
430.082; 2484.900;  217.675;    0.000
430.133; 2513.900;  210.675;    0.000
430.184; 2563.900;  271.675;    0.000
430.235; 2591.900;  190.675;    0.000
430.286; 2586.900;  233.675;    0.000
430.337; 2520.900;  232.675;    0.000
430.388; 2488.900;  221.675;    0.000
430.439; 2503.900;  221.675;    0.000
430.490; 2557.900;  229.675;    0.000
430.542; 2579.900;  196.675;    0.000
430.593; 2502.900;  214.675;    0.000
430.644; 2484.900;  224.675;    0.000
430.695; 2537.900;  216.675;    0.000
430.746; 2466.900;  228.675;    0.000
430.797; 2659.900;  190.675;    0.000
430.848; 2665.900;  231.675;    0.000
430.898; 2690.900;  232.675;    0.000
430.949; 2578.900;  224.675;    0.000
431.000; 2495.900;  236.675;    0.000
431.051; 2507.900;  251.675;    0.000
431.102; 2424.900;  205.675;    0.000
431.153; 2521.900;  212.675;    0.000
431.204; 2529.900;  200.675;    0.000
431.255; 2489.900;  220.675;    0.000
431.306; 2597.900;  223.675;    0.000
431.357; 2468.900;  240.675;    0.000
431.408; 2524.900;  232.675;    0.000
431.458; 2428.900;  204.675;    0.000
431.509; 2508.900;  196.675;    0.000
431.560; 2518.900;  243.675;    0.000
431.611; 2530.900;  222.675;    0.000
431.662; 2608.900;  246.675;    0.000
431.713; 2542.900;  188.675;    0.000
431.763; 2558.900;  226.675;    0.000
431.814; 2657.900;  239.675;    0.000
431.865; 2499.900;  245.675;    0.000
431.916; 2528.900;  173.675;    0.000
431.966; 2503.900;  220.675;    0.000
432.017; 2423.900;  247.675;    0.000
432.068; 2442.900;  241.675;    0.000
432.118; 2529.900;  220.675;    0.000
432.169; 2438.900;  244.675;    0.000
432.220; 2517.900;  246.675;    0.000
432.271; 2493.900;  203.675;    0.000
432.321; 2545.900;  244.675;    0.000
432.372; 2438.900;  254.675;    0.000
432.423; 2495.900;  224.675;    0.000
432.473; 2442.900;  211.675;    0.000
432.524; 2542.900;  227.675;    0.000
432.574; 2614.900;  228.675;    0.000
432.625; 2615.900;  223.675;    0.000
432.676; 2489.900;  220.675;    0.000
432.726; 2521.900;  257.675;    0.000
432.777; 2443.900;  257.675;    0.000
432.827; 2535.900;  240.675;    0.000
432.878; 2407.900;  219.675;    0.000
432.928; 2466.900;  234.675;    0.000
432.979; 2382.900;  226.675;    0.000
433.029; 2393.900;  216.675;    0.000
433.080; 2381.900;  232.675;    0.000
433.130; 2531.900;  257.675;    0.000
433.181; 2425.900;  243.675;    0.000
433.231; 2461.900;  239.675;    0.000
433.282; 2506.900;  232.675;    0.000
433.332; 2536.900;  256.675;    0.000
433.383; 2503.900;  268.675;    0.000
433.433; 2484.900;  291.675;    0.000
433.484; 2488.900;  263.675;    0.000
433.534; 2493.900;  248.675;    0.000
433.585; 2484.900;  244.675;    0.000
433.635; 2475.900;  242.675;    0.000
433.685; 2506.900;  243.675;    0.000
433.736; 2594.900;  283.675;    0.000
433.786; 2432.900;  264.675;    0.000
433.836; 2524.900;  282.675;    0.000
433.887; 2503.900;  265.675;    0.000
433.937; 2393.900;  255.675;    0.000
433.987; 2493.900;  245.675;    0.000
434.038; 2410.900;  276.675;    0.000
434.088; 2438.900;  249.675;    0.000
434.138; 2489.900;  260.675;    0.000
434.189; 2424.900;  241.675;    0.000
434.239; 2394.900;  232.675;    0.000
434.289; 2471.900;  272.675;    0.000
434.339; 2439.900;  288.675;    0.000
434.389; 2430.900;  258.675;    0.000
434.440; 2462.900;  244.675;    0.000
434.490; 2565.900;  288.675;    0.000
434.540; 2473.900;  252.675;    0.000
434.590; 2551.900;  256.675;    0.000
434.640; 2549.900;  259.675;    0.000
434.691; 2575.900;  220.675;    0.000
434.741; 2656.900;  238.675;    0.000
434.791; 2492.900;  276.675;    0.000
434.841; 2429.900;  256.675;    0.000
434.891; 2556.900;  297.675;    0.000
434.941; 2653.900;  290.675;    0.000
434.991; 2574.900;  261.675;    0.000
435.042; 2594.900;  300.675;    0.000
435.092; 2462.900;  248.675;    0.000
435.142; 2494.900;  246.675;    0.000
435.192; 2516.900;  201.675;    0.000
435.242; 2587.900;  234.675;    0.000
435.292; 2485.900;  266.675;    0.000
435.342; 2451.900;  250.675;    0.000
435.392; 2493.900;  279.675;    0.000
435.442; 2448.900;  242.675;    0.000
435.492; 2535.900;  265.675;    0.000
435.542; 2418.900;  243.675;    0.000
435.592; 2389.900;  243.675;    0.000
435.642; 2388.900;  241.675;    0.000
435.692; 2434.900;  263.675;    0.000
435.742; 2503.900;  264.675;    0.000
435.792; 2377.900;  291.675;    0.000
435.842; 2348.900;  257.675;    0.000
435.891; 2366.900;  224.675;    0.000
435.941; 2269.900;  243.675;    0.000
435.991; 2387.900;  300.675;    0.000
436.041; 2466.900;  197.675;    0.000
436.091; 2424.900;  238.675;    0.000
436.141; 2337.900;  222.675;    0.000
436.191; 2348.900;  249.675;    0.000
436.241; 2327.900;  208.675;    0.000
436.290; 2477.900;  282.675;    0.000
436.340; 2358.900;  233.675;    0.000
436.390; 2424.900;  223.675;    0.000
436.440; 2208.900;  252.675;    0.000
436.490; 2329.900;  254.675;    0.000
436.539; 2314.900;  271.675;    0.000
436.589; 2275.900;  248.675;    0.000
436.639; 2284.900;  235.675;    0.000
436.689; 2294.900;  238.675;    0.000
436.738; 2412.900;  267.675;    0.000
436.788; 2247.900;  239.675;    0.000
436.838; 2249.900;  244.675;    0.000
436.887; 2334.900;  265.675;    0.000
436.937; 2333.900;  261.675;    0.000
436.987; 2274.900;  235.675;    0.000
437.036; 2311.900;  267.675;    0.000
437.086; 2368.900;  258.675;    0.000
437.136; 2391.900;  250.675;    0.000
437.185; 2238.900;  214.675;    0.000
437.235; 2221.900;  257.675;    0.000
437.285; 2193.900;  259.675;    0.000
437.334; 2228.900;  241.675;    0.000
437.384; 2279.900;  231.675;    0.000
437.433; 2169.900;  239.675;    0.000
437.483; 2320.900;  260.675;    0.000
437.532; 2362.900;  277.675;    0.000
437.582; 2180.900;  268.675;    0.000
437.631; 2261.900;  239.675;    0.000
437.681; 2256.900;  251.675;    0.000
437.730; 2262.900;  246.675;    0.000
437.780; 2163.900;  226.675;    0.000
437.829; 2180.900;  256.675;    0.000
437.879; 2168.900;  239.675;    0.000
437.928; 2168.900;  253.675;    0.000
437.978; 2313.900;  245.675;    0.000
438.027; 2305.900;  277.675;    0.000
438.077; 2076.900;  248.675;    0.000
438.126; 2322.900;  201.675;    0.000
438.176; 2122.900;  220.675;    0.000
438.225; 2182.900;  250.675;    0.000
438.274; 2274.900;  234.675;    0.000
438.324; 2246.900;  276.675;    0.000
438.373; 2441.900;  226.675;    0.000
438.422; 2485.900;  228.675;    0.000
438.472; 2317.900;  225.675;    0.000
438.521; 2255.900;  227.675;    0.000
438.570; 2243.900;  242.675;    0.000
438.620; 2290.900;  277.675;    0.000
438.669; 2278.900;  256.675;    0.000
438.718; 2186.900;  248.675;    0.000
438.768; 2225.900;  225.675;    0.000
438.817; 2061.900;  229.675;    0.000
438.866; 2225.900;  218.675;    0.000
438.915; 2139.900;  256.675;    0.000
438.965; 2249.900;  242.675;    0.000
439.014; 2152.900;  260.675;    0.000
439.063; 2258.900;  238.675;    0.000
439.112; 2158.900;  209.675;    0.000
439.162; 2179.900;  258.675;    0.000
439.211; 2224.900;  275.675;    0.000
439.260; 2216.900;  238.675;    0.000
439.309; 2141.900;  237.675;    0.000
439.358; 2267.900;  252.675;    0.000
439.407; 2139.900;  239.675;    0.000
439.456; 2136.900;  211.675;    0.000
439.506; 2228.900;  261.675;    0.000
439.555; 2296.900;  274.675;    0.000
439.604; 2157.900;  262.675;    0.000
439.653; 2213.900;  245.675;    0.000
439.702; 2200.900;  247.675;    0.000
439.751; 2078.900;  228.675;    0.000
439.800; 2218.900;  253.675;    0.000
439.849; 2200.900;  219.675;    0.000
439.898; 2200.900;  246.675;    0.000
439.947; 2152.900;  229.675;    0.000
439.996; 2241.900;  274.675;    0.000
440.045; 2183.900;  224.675;    0.000
440.094; 2218.900;  225.675;    0.000
440.143; 2202.900;  277.675;    0.000
440.192; 2220.900;  252.675;    0.000
440.241; 2216.900;  253.675;    0.000
440.290; 2209.900;  242.675;    0.000
440.339; 2173.900;  220.675;    0.000
440.388; 2177.900;  244.675;    0.000
440.437; 2288.900;  268.675;    0.000
440.486; 2204.900;  242.675;    0.000
440.535; 2314.900;  269.675;    0.000
440.583; 2216.900;  258.675;    0.000
440.632; 2176.900;  286.675;    0.000
440.681; 2190.900;  238.675;    0.000
440.730; 2262.900;  271.675;    0.000
440.779; 2275.900;  226.675;    0.000
440.828; 2188.900;  213.675;    0.000
440.876; 2144.900;  207.675;    0.000
440.925; 2095.900;  247.675;    0.000
440.974; 2229.900;  229.675;    0.000
441.023; 2237.900;  227.675;    0.000
441.072; 2206.900;  222.675;    0.000
441.120; 2228.900;  273.675;    0.000
441.169; 2273.900;  263.675;    0.000
441.218; 2240.900;  264.675;    0.000
441.267; 2304.900;  287.675;    0.000
441.315; 2297.900;  251.675;    0.000
441.364; 2220.900;  252.675;    0.000
441.413; 2326.900;  227.675;    0.000
441.461; 2338.900;  198.675;    0.000
441.510; 2318.900;  273.675;    0.000
441.559; 2434.900;  245.675;    0.000
441.607; 2388.900;  218.675;    0.000
441.656; 2303.900;  261.675;    0.000
441.705; 2331.900;  259.675;    0.000
441.753; 2295.900;  272.675;    0.000
441.802; 2329.900;  246.675;    0.000
441.850; 2264.900;  255.675;    0.000
441.899; 2309.900;  236.675;    0.000
441.948; 2361.900;  267.675;    0.000
441.996; 2331.900;  246.675;    0.000
442.045; 2306.900;  279.675;    0.000
442.093; 2290.900;  251.675;    0.000
442.142; 2286.900;  274.675;    0.000
442.190; 2302.900;  279.675;    0.000
442.239; 2331.900;  295.675;    0.000
442.287; 2317.900;  229.675;    0.000
442.336; 2367.900;  265.675;    0.000
442.384; 2231.900;  219.675;    0.000
442.433; 2307.900;  287.675;    0.000
442.481; 2297.900;  271.675;    0.000
442.529; 2252.900;  262.675;    0.000
442.578; 2305.900;  282.675;    0.000
442.626; 2291.900;  245.675;    0.000
442.675; 2289.900;  283.675;    0.000
442.723; 2262.900;  247.675;    0.000
442.771; 2214.900;  221.675;    0.000
442.820; 2276.900;  253.675;    0.000
442.868; 2209.900;  204.675;    0.000
442.917; 2256.900;  263.675;    0.000
442.965; 2241.900;  255.675;    0.000
443.013; 2187.900;  282.675;    0.000
443.062; 2216.900;  258.675;    0.000
443.110; 2296.900;  268.675;    0.000
443.158; 2276.900;  247.675;    0.000
443.206; 2298.900;  243.675;    0.000
443.255; 2331.900;  271.675;    0.000
443.303; 2322.900;  279.675;    0.000
443.351; 2144.900;  264.675;    0.000
443.399; 2330.900;  245.675;    0.000
443.448; 2259.900;  259.675;    0.000
443.496; 2317.900;  281.675;    0.000
443.544; 2317.900;  213.675;    0.000
443.592; 2268.900;  290.675;    0.000
443.640; 2269.900;  270.675;    0.000
443.689; 2273.900;  229.675;    0.000
443.737; 2338.900;  254.675;    0.000
443.785; 2216.900;  234.675;    0.000
443.833; 2282.900;  287.675;    0.000
443.881; 2310.900;  229.675;    0.000
443.929; 2300.900;  260.675;    0.000
443.977; 2245.900;  265.675;    0.000
444.025; 2298.900;  257.675;    0.000
444.074; 2357.900;  245.675;    0.000
444.122; 2263.900;  282.675;    0.000
444.170; 2394.900;  240.675;    0.000
444.218; 2500.900;  270.675;    0.000
444.266; 2349.900;  254.675;    0.000
444.314; 2428.900;  264.675;    0.000
444.362; 2453.900;  287.675;    0.000
444.410; 2449.900;  236.675;    0.000
444.458; 2346.900;  273.675;    0.000
444.506; 2386.900;  235.675;    0.000
444.554; 2358.900;  242.675;    0.000
444.602; 2472.900;  283.675;    0.000
444.650; 2488.900;  266.675;    0.000
444.698; 2359.900;  248.675;    0.000
444.746; 2403.900;  247.675;    0.000
444.793; 2333.900;  211.675;    0.000
444.841; 2402.900;  259.675;    0.000
444.889; 2500.900;  253.675;    0.000
444.937; 2355.900;  248.675;    0.000
444.985; 2431.900;  233.675;    0.000
445.033; 2344.900;  245.675;    0.000
445.081; 2415.900;  243.675;    0.000
445.129; 2346.900;  238.675;    0.000
445.176; 2405.900;  204.675;    0.000
445.224; 2383.900;  262.675;    0.000
445.272; 2298.900;  256.675;    0.000
445.320; 2301.900;  235.675;    0.000
445.368; 2329.900;  251.675;    0.000
445.415; 2274.900;  250.675;    0.000
445.463; 2367.900;  225.675;    0.000
445.511; 2401.900;  226.675;    0.000
445.559; 2424.900;  251.675;    0.000
445.606; 2436.900;  213.675;    0.000
445.654; 2409.900;  261.675;    0.000
445.702; 2349.900;  222.675;    0.000
445.749; 2330.900;  257.675;    0.000
445.797; 2292.900;  263.675;    0.000
445.845; 2286.900;  218.675;    0.000
445.892; 2318.900;  228.675;    0.000
445.940; 2348.900;  249.675;    0.000
445.988; 2289.900;  276.675;    0.000
446.035; 2370.900;  229.675;    0.000
446.083; 2323.900;  255.675;    0.000
446.130; 2199.900;  200.675;    0.000
446.178; 2330.900;  256.675;    0.000
446.226; 2322.900;  238.675;    0.000
446.273; 2359.900;  250.675;    0.000
446.321; 2431.900;  233.675;    0.000
446.368; 2419.900;  244.675;    0.000
446.416; 2381.900;  214.675;    0.000
446.463; 2363.900;  225.675;    0.000
446.511; 2413.900;  253.675;    0.000
446.558; 2263.900;  246.675;    0.000
446.606; 2421.900;  238.675;    0.000
446.653; 2344.900;  215.675;    0.000
446.701; 2327.900;  248.675;    0.000
446.748; 2354.900;  258.675;    0.000
446.796; 2353.900;  259.675;    0.000
446.843; 2450.900;  269.675;    0.000
446.891; 2364.900;  259.675;    0.000
446.938; 2463.900;  226.675;    0.000
446.985; 2443.900;  225.675;    0.000
447.033; 2480.900;  269.675;    0.000
447.080; 2455.900;  258.675;    0.000
447.128; 2380.900;  225.675;    0.000
447.175; 2457.900;  259.675;    0.000
447.222; 2367.900;  238.675;    0.000
447.270; 2462.900;  250.675;    0.000
447.317; 2455.900;  217.675;    0.000
447.364; 2402.900;  262.675;    0.000
447.411; 2426.900;  269.675;    0.000
447.459; 2505.900;  251.675;    0.000
447.506; 2511.900;  227.675;    0.000
447.553; 2585.900;  250.675;    0.000
447.601; 2613.900;  251.675;    0.000
447.648; 2569.900;  276.675;    0.000
447.695; 2558.900;  229.675;    0.000
447.742; 2599.900;  245.675;    0.000
447.789; 2768.900;  243.675;    0.000
447.837; 2726.900;  267.675;    0.000
447.884; 2718.900;  246.675;    0.000
447.931; 2817.900;  266.675;    0.000
447.978; 2717.900;  242.675;    0.000
448.025; 2826.900;  267.675;    0.000
448.072; 2807.900;  257.675;    0.000
448.120; 2951.900;  279.675;    0.000
448.167; 2948.900;  275.675;    0.000
448.214; 2910.900;  241.675;    0.000
448.261; 2771.900;  271.675;    0.000
448.308; 2701.900;  256.675;    0.000
448.355; 2689.900;  253.675;    0.000
448.402; 2650.900;  267.675;    0.000
448.449; 2619.900;  252.675;    0.000
448.496; 2737.900;  241.675;    0.000
448.543; 2434.900;  250.675;    0.000
448.590; 2540.900;  288.675;    0.000
448.637; 2519.900;  255.675;    0.000
448.684; 2469.900;  284.675;    0.000
448.731; 2452.900;  244.675;    0.000
448.778; 2385.900;  257.675;    0.000
448.825; 2366.900;  252.675;    0.000
448.872; 2387.900;  205.675;    0.000
448.919; 2338.900;  244.675;    0.000
448.966; 2358.900;  278.675;    0.000
449.013; 2324.900;  262.675;    0.000
449.060; 2383.900;  278.675;    0.000
449.107; 2265.900;  248.675;    0.000
449.154; 2257.900;  230.675;    0.000
449.200; 2289.900;  211.675;    0.000
449.247; 2318.900;  283.675;    0.000
449.294; 2303.900;  251.675;    0.000
449.341; 2266.900;  280.675;    0.000
449.388; 2340.900;  247.675;    0.000
449.435; 2206.900;  267.675;    0.000
449.481; 2177.900;  303.675;    0.000
449.528; 2187.900;  279.675;    0.000
449.575; 2199.900;  226.675;    0.000
449.622; 2252.900;  263.675;    0.000
449.668; 2205.900;  249.675;    0.000
449.715; 2204.900;  257.675;    0.000
449.762; 2179.900;  251.675;    0.000
449.809; 2245.900;  289.675;    0.000
449.855; 2168.900;  239.675;    0.000
449.902; 2108.900;  262.675;    0.000
449.949; 2144.900;  262.675;    0.000
449.995; 2191.900;  265.675;    0.000
450.042; 2184.900;  280.675;    0.000
450.089; 2162.900;  277.675;    0.000
450.135; 2160.900;  285.675;    0.000
450.182; 2066.900;  275.675;    0.000
450.229; 2149.900;  278.675;    0.000
450.275; 2212.900;  288.675;    0.000
450.322; 2229.900;  238.675;    0.000
450.368; 2168.900;  276.675;    0.000
450.415; 2225.900;  295.675;    0.000
450.462; 2166.900;  283.675;    0.000
450.508; 2112.900;  264.675;    0.000
450.555; 2156.900;  275.675;    0.000
450.601; 2214.900;  278.675;    0.000
450.648; 2070.900;  251.675;    0.000
450.694; 2149.900;  237.675;    0.000
450.741; 2168.900;  280.675;    0.000
450.787; 2096.900;  279.675;    0.000
450.834; 2119.900;  287.675;    0.000
450.880; 2047.900;  265.675;    0.000
450.927; 2172.900;  270.675;    0.000
450.973; 2218.900;  308.675;    0.000
451.019; 2108.900;  253.675;    0.000
451.066; 2063.900;  261.675;    0.000
451.112; 2165.900;  276.675;    0.000
451.159; 2168.900;  235.675;    0.000
451.205; 2081.900;  284.675;    0.000
451.251; 2104.900;  264.675;    0.000
451.298; 2183.900;  262.675;    0.000
451.344; 2020.900;  278.675;    0.000
451.390; 2142.900;  273.675;    0.000
451.437; 2022.900;  272.675;    0.000
451.483; 2012.900;  302.675;    0.000
451.529; 2031.900;  255.675;    0.000
451.576; 2058.900;  287.675;    0.000
451.622; 2115.900;  254.675;    0.000
451.668; 2037.900;  260.675;    0.000
451.714; 2038.900;  289.675;    0.000
451.761; 2073.900;  273.675;    0.000
451.807; 2085.900;  307.675;    0.000
451.853; 2041.900;  281.675;    0.000
451.899; 2048.900;  246.675;    0.000
451.945; 1951.900;  258.675;    0.000
451.992; 2094.900;  276.675;    0.000
452.038; 2004.900;  287.675;    0.000
452.084; 2080.900;  288.675;    0.000
452.130; 2028.900;  259.675;    0.000
452.176; 1999.900;  265.675;    0.000
452.222; 2013.900;  222.675;    0.000
452.268; 2022.900;  271.675;    0.000
452.315; 2096.900;  258.675;    0.000
452.361; 2074.900;  233.675;    0.000
452.407; 2057.900;  270.675;    0.000
452.453; 2042.900;  261.675;    0.000
452.499; 1999.900;  279.675;    0.000
452.545; 2010.900;  269.675;    0.000
452.591; 2059.900;  288.675;    0.000
452.637; 1952.900;  279.675;    0.000
452.683; 1941.900;  232.675;    0.000
452.729; 2111.900;  285.675;    0.000
452.775; 1977.900;  280.675;    0.000
452.821; 2039.900;  260.675;    0.000
452.867; 1976.900;  239.675;    0.000
452.913; 1974.900;  240.675;    0.000
452.959; 2113.900;  214.675;    0.000
453.005; 2000.900;  266.675;    0.000
453.051; 2151.900;  258.675;    0.000
453.097; 2116.900;  253.675;    0.000
453.142; 1957.900;  244.675;    0.000
453.188; 1936.900;  241.675;    0.000
453.234; 2070.900;  257.675;    0.000
453.280; 2025.900;  231.675;    0.000
453.326; 1940.900;  240.675;    0.000
453.372; 1976.900;  208.675;    0.000
453.418; 2004.900;  266.675;    0.000
453.463; 1961.900;  232.675;    0.000
453.509; 1998.900;  221.675;    0.000
453.555; 2040.900;  268.675;    0.000
453.601; 2002.900;  242.675;    0.000
453.647; 2024.900;  283.675;    0.000
453.692; 1860.900;  242.675;    0.000
453.738; 1959.900;  294.675;    0.000
453.784; 1938.900;  256.675;    0.000
453.829; 1925.900;  267.675;    0.000
453.875; 2012.900;  233.675;    0.000
453.921; 1928.900;  247.675;    0.000
453.967; 1941.900;  249.675;    0.000
454.012; 2059.900;  274.675;    0.000
454.058; 2006.900;  249.675;    0.000
454.104; 1998.900;  272.675;    0.000
454.149; 1994.900;  277.675;    0.000
454.195; 1952.900;  256.675;    0.000
454.240; 2037.900;  263.675;    0.000
454.286; 1923.900;  276.675;    0.000
454.332; 2027.900;  290.675;    0.000
454.377; 2001.900;  274.675;    0.000
454.423; 1934.900;  282.675;    0.000
454.468; 1982.900;  275.675;    0.000
454.514; 1957.900;  270.675;    0.000
454.559; 1979.900;  249.675;    0.000
454.605; 1972.900;  241.675;    0.000
454.650; 2041.900;  269.675;    0.000
454.696; 1975.900;  253.675;    0.000
454.741; 1974.900;  279.675;    0.000
454.787; 2057.900;  252.675;    0.000
454.832; 1982.900;  246.675;    0.000
454.878; 1984.900;  264.675;    0.000
454.923; 2013.900;  268.675;    0.000
454.969; 2011.900;  253.675;    0.000
455.014; 2056.900;  264.675;    0.000
455.060; 2057.900;  265.675;    0.000
455.105; 1968.900;  270.675;    0.000
455.150; 1998.900;  284.675;    0.000
455.196; 2005.900;  278.675;    0.000
455.241; 2000.900;  248.675;    0.000
455.286; 1930.900;  274.675;    0.000
455.332; 1980.900;  269.675;    0.000
455.377; 1987.900;  218.675;    0.000
455.422; 2082.900;  261.675;    0.000
455.468; 1982.900;  278.675;    0.000
455.513; 1927.900;  235.675;    0.000
455.558; 1898.900;  232.675;    0.000
455.604; 1965.900;  285.675;    0.000
455.649; 2019.900;  264.675;    0.000
455.694; 1903.900;  235.675;    0.000
455.739; 1917.900;  265.675;    0.000
455.785; 1999.900;  266.675;    0.000
455.830; 1894.900;  272.675;    0.000
455.875; 1957.900;  256.675;    0.000
455.920; 1915.900;  191.675;    0.000
455.965; 1982.900;  280.675;    0.000
456.010; 2003.900;  267.675;    0.000
456.056; 1903.900;  270.675;    0.000
456.101; 2020.900;  248.675;    0.000
456.146; 2025.900;  287.675;    0.000
456.191; 1975.900;  280.675;    0.000
456.236; 1895.900;  229.675;    0.000
456.281; 1983.900;  241.675;    0.000
456.326; 2014.900;  248.675;    0.000
456.371; 1888.900;  233.675;    0.000
456.416; 1927.900;  284.675;    0.000
456.461; 1957.900;  256.675;    0.000
456.507; 1967.900;  250.675;    0.000
456.552; 2051.900;  290.675;    0.000
456.597; 1912.900;  260.675;    0.000
456.642; 1935.900;  252.675;    0.000
456.687; 2078.900;  272.675;    0.000
456.732; 1975.900;  303.675;    0.000
456.776; 2019.900;  269.675;    0.000
456.821; 2006.900;  256.675;    0.000
456.866; 1979.900;  278.675;    0.000
456.911; 1955.900;  230.675;    0.000
456.956; 1895.900;  275.675;    0.000
457.001; 1909.900;  248.675;    0.000
457.046; 1975.900;  222.675;    0.000
457.091; 1933.900;  251.675;    0.000
457.136; 1945.900;  231.675;    0.000
457.181; 1967.900;  245.675;    0.000
457.225; 2056.900;  262.675;    0.000
457.270; 1913.900;  277.675;    0.000
457.315; 2018.900;  235.675;    0.000
457.360; 1888.900;  231.675;    0.000
457.405; 2003.900;  214.675;    0.000
457.450; 1996.900;  255.675;    0.000
457.494; 1916.900;  220.675;    0.000
457.539; 1975.900;  257.675;    0.000
457.584; 2002.900;  279.675;    0.000
457.629; 2063.900;  249.675;    0.000
457.673; 1926.900;  237.675;    0.000
457.718; 1984.900;  232.675;    0.000
457.763; 2031.900;  278.675;    0.000
457.807; 1931.900;  279.675;    0.000
457.852; 2007.900;  246.675;    0.000
457.897; 1979.900;  284.675;    0.000
457.941; 1958.900;  272.675;    0.000
457.986; 2013.900;  285.675;    0.000
458.031; 2071.900;  235.675;    0.000
458.075; 2021.900;  299.675;    0.000
458.120; 2003.900;  284.675;    0.000
458.165; 1987.900;  212.675;    0.000
458.209; 2070.900;  254.675;    0.000
458.254; 1983.900;  257.675;    0.000
458.298; 1978.900;  265.675;    0.000
458.343; 2043.900;  278.675;    0.000
458.387; 2105.900;  316.675;    0.000
458.432; 2069.900;  279.675;    0.000
458.476; 2007.900;  272.675;    0.000
458.521; 1991.900;  240.675;    0.000
458.565; 2105.900;  307.675;    0.000
458.610; 2132.900;  246.675;    0.000
458.654; 2114.900;  275.675;    0.000
458.699; 2033.900;  288.675;    0.000
458.743; 2091.900;  244.675;    0.000
458.788; 2118.900;  245.675;    0.000
458.832; 2152.900;  277.675;    0.000
458.877; 2067.900;  285.675;    0.000
458.921; 2070.900;  216.675;    0.000
458.965; 2169.900;  260.675;    0.000
459.010; 2051.900;  284.675;    0.000
459.054; 2132.900;  272.675;    0.000
459.099; 2085.900;  262.675;    0.000
459.143; 2199.900;  276.675;    0.000
459.187; 2124.900;  258.675;    0.000
459.231; 2211.900;  278.675;    0.000
459.276; 2174.900;  262.675;    0.000
459.320; 2146.900;  291.675;    0.000
459.364; 2081.900;  294.675;    0.000
459.409; 2176.900;  269.675;    0.000
459.453; 2143.900;  257.675;    0.000
459.497; 2289.900;  283.675;    0.000
459.541; 2187.900;  275.675;    0.000
459.586; 2208.900;  261.675;    0.000
459.630; 2174.900;  284.675;    0.000
459.674; 2143.900;  244.675;    0.000
459.718; 2160.900;  309.675;    0.000
459.762; 2135.900;  281.675;    0.000
459.807; 2182.900;  250.675;    0.000
459.851; 2227.900;  286.675;    0.000
459.895; 2123.900;  230.675;    0.000
459.939; 2250.900;  262.675;    0.000
459.983; 2231.900;  250.675;    0.000
460.027; 2221.900;  275.675;    0.000
460.071; 2319.900;  301.675;    0.000
460.115; 2263.900;  279.675;    0.000
460.159; 2295.900;  301.675;    0.000
460.204; 2201.900;  287.675;    0.000
460.248; 2310.900;  293.675;    0.000
460.292; 2325.900;  310.675;    0.000
460.336; 2269.900;  263.675;    0.000
460.380; 2273.900;  268.675;    0.000
460.424; 2358.900;  281.675;    0.000
460.468; 2315.900;  310.675;    0.000
460.512; 2224.900;  273.675;    0.000
460.556; 2336.900;  291.675;    0.000
460.599; 2224.900;  240.675;    0.000
460.643; 2331.900;  260.675;    0.000
460.687; 2283.900;  283.675;    0.000
460.731; 2306.900;  254.675;    0.000
460.775; 2290.900;  265.675;    0.000
460.819; 2276.900;  280.675;    0.000
460.863; 2379.900;  316.675;    0.000
460.907; 2191.900;  231.675;    0.000
460.951; 2283.900;  275.675;    0.000
460.995; 2293.900;  290.675;    0.000
461.038; 2346.900;  284.675;    0.000
461.082; 2167.900;  278.675;    0.000
461.126; 2317.900;  321.675;    0.000
461.170; 2165.900;  273.675;    0.000
461.214; 2346.900;  289.675;    0.000
461.257; 2313.900;  296.675;    0.000
461.301; 2227.900;  287.675;    0.000
461.345; 2236.900;  290.675;    0.000
461.389; 2348.900;  260.675;    0.000
461.432; 2241.900;  262.675;    0.000
461.476; 2334.900;  254.675;    0.000
461.520; 2293.900;  305.675;    0.000
461.563; 2256.900;  289.675;    0.000
461.607; 2280.900;  286.675;    0.000
461.651; 2272.900;  271.675;    0.000
461.694; 2261.900;  245.675;    0.000
461.738; 2242.900;  278.675;    0.000
461.782; 2304.900;  284.675;    0.000
461.825; 2322.900;  305.675;    0.000
461.869; 2398.900;  293.675;    0.000
461.913; 2380.900;  280.675;    0.000
461.956; 2257.900;  237.675;    0.000
462.000; 2362.900;  288.675;    0.000
462.043; 2371.900;  282.675;    0.000
462.087; 2303.900;  268.675;    0.000
462.130; 2312.900;  286.675;    0.000
462.174; 2406.900;  312.675;    0.000
462.217; 2427.900;  270.675;    0.000
462.261; 2281.900;  281.675;    0.000
462.304; 2353.900;  248.675;    0.000
462.348; 2350.900;  267.675;    0.000
462.391; 2437.900;  270.675;    0.000
462.435; 2413.900;  287.675;    0.000
462.478; 2390.900;  290.675;    0.000
462.522; 2438.900;  296.675;    0.000
462.565; 2621.900;  275.675;    0.000
462.608; 2498.900;  325.675;    0.000
462.652; 2462.900;  303.675;    0.000
462.695; 2481.900;  355.675;    0.000
462.739; 2499.900;  272.675;    0.000
462.782; 2532.900;  295.675;    0.000
462.825; 2511.900;  300.675;    0.000
462.869; 2475.900;  319.675;    0.000
462.912; 2528.900;  363.675;    0.000
462.955; 2715.900;  298.675;    0.000
462.998; 2532.900;  321.675;    0.000
463.042; 2605.900;  310.675;    0.000
463.085; 2573.900;  305.675;    0.000
463.128; 2622.900;  345.675;    0.000
463.172; 2543.900;  341.675;    0.000
463.215;  386.900;  300.675;    0.000
463.258;  316.900;  287.675;    0.000
463.301;  286.900;  290.675;    0.000
463.344;  331.900;  320.675;    0.000
463.388;  331.900;  340.675;    0.000
463.431;  267.900;  278.675;    0.000
463.474;  360.900;  353.675;    0.000
463.517;  291.900;  295.675;    0.000
463.560;  347.900;  328.675;    0.000
463.603;  311.900;  316.675;    0.000
463.646;  335.900;  295.675;    0.000
463.690;  302.900;  334.675;    0.000
463.733;  325.900;  343.675;    0.000
463.776;  301.900;  300.675;    0.000
463.819;  331.900;  368.675;    0.000
463.862;  339.900;  327.675;    0.000

