
Integration time [ms]:   0.300
Averaging Nr. [scans]: 1
Smoothing Nr. [pixels]: 0
Data measured with spectrometer [name]: UV1
Wave   ;Sample   ;Dark     ;Reference
[nm]   ;[counts] ;[counts] ;[counts] 

236.381;  161.000;  149.925;    0.000
236.451;  205.000;  206.925;    0.000
236.520;  199.000;  212.925;    0.000
236.590;  191.000;  189.925;    0.000
236.660;  175.000;  184.925;    0.000
236.730;  224.000;  186.925;    0.000
236.799;  180.000;  191.925;    0.000
236.869;  191.000;  184.925;    0.000
236.939;  193.000;  176.925;    0.000
237.009;  203.000;  184.925;    0.000
237.078;  203.000;  189.925;    0.000
237.148;  175.000;  217.925;    0.000
237.218;  189.000;  192.925;    0.000
237.287;  190.000;  182.925;    0.000
237.357;  189.000;  196.925;    0.000
237.427;  205.000;  144.925;    0.000
237.496;  765.000;  224.925;    0.000
237.566;  736.000;  210.925;    0.000
237.636;  718.000;  165.925;    0.000
237.705;  770.000;  214.925;    0.000
237.775;  722.000;  194.925;    0.000
237.845;  730.000;  214.925;    0.000
237.914;  755.000;  191.925;    0.000
237.984;  788.000;  218.925;    0.000
238.054;  834.000;  187.925;    0.000
238.123;  896.000;  179.925;    0.000
238.193;  844.000;  177.925;    0.000
238.263;  813.000;  225.925;    0.000
238.332;  745.000;  197.925;    0.000
238.402;  734.000;  183.925;    0.000
238.471;  727.000;  181.925;    0.000
238.541;  689.000;  200.925;    0.000
238.611;  766.000;  170.925;    0.000
238.680;  700.000;  170.925;    0.000
238.750;  768.000;  175.925;    0.000
238.819;  823.000;  180.925;    0.000
238.889;  764.000;  190.925;    0.000
238.958;  766.000;  207.925;    0.000
239.028;  741.000;  201.925;    0.000
239.097;  707.000;  181.925;    0.000
239.167;  773.000;  222.925;    0.000
239.237;  741.000;  221.925;    0.000
239.306;  736.000;  147.925;    0.000
239.376;  762.000;  188.925;    0.000
239.445;  763.000;  198.925;    0.000
239.515;  884.000;  191.925;    0.000
239.584;  730.000;  178.925;    0.000
239.654;  705.000;  147.925;    0.000
239.723;  762.000;  212.925;    0.000
239.793;  745.000;  185.925;    0.000
239.862;  779.000;  157.925;    0.000
239.932;  744.000;  181.925;    0.000
240.001;  692.000;  163.925;    0.000
240.070;  742.000;  194.925;    0.000
240.140;  726.000;  202.925;    0.000
240.209;  749.000;  180.925;    0.000
240.279;  759.000;  188.925;    0.000
240.348;  711.000;  189.925;    0.000
240.418;  766.000;  143.925;    0.000
240.487;  816.000;  195.925;    0.000
240.556;  784.000;  170.925;    0.000
240.626;  749.000;  172.925;    0.000
240.695;  737.000;  202.925;    0.000
240.765;  702.000;  191.925;    0.000
240.834;  757.000;  177.925;    0.000
240.903;  705.000;  189.925;    0.000
240.973;  792.000;  196.925;    0.000
241.042;  742.000;  183.925;    0.000
241.112;  754.000;  189.925;    0.000
241.181;  748.000;  186.925;    0.000
241.250;  736.000;  168.925;    0.000
241.320;  745.000;  200.925;    0.000
241.389;  680.000;  185.925;    0.000
241.458;  744.000;  194.925;    0.000
241.528;  707.000;  165.925;    0.000
241.597;  731.000;  200.925;    0.000
241.666;  720.000;  184.925;    0.000
241.736;  731.000;  176.925;    0.000
241.805;  695.000;  165.925;    0.000
241.874;  675.000;  200.925;    0.000
241.943;  709.000;  184.925;    0.000
242.013;  717.000;  212.925;    0.000
242.082;  737.000;  200.925;    0.000
242.151;  685.000;  196.925;    0.000
242.221;  711.000;  182.925;    0.000
242.290;  708.000;  222.925;    0.000
242.359;  646.000;  142.925;    0.000
242.428;  738.000;  180.925;    0.000
242.498;  656.000;  180.925;    0.000
242.567;  725.000;  181.925;    0.000
242.636;  721.000;  203.925;    0.000
242.705;  746.000;  209.925;    0.000
242.774;  724.000;  172.925;    0.000
242.844;  665.000;  218.925;    0.000
242.913;  642.000;  188.925;    0.000
242.982;  694.000;  193.925;    0.000
243.051;  720.000;  202.925;    0.000
243.120;  677.000;  174.925;    0.000
243.190;  718.000;  165.925;    0.000
243.259;  730.000;  206.925;    0.000
243.328;  686.000;  166.925;    0.000
243.397;  745.000;  167.925;    0.000
243.466;  676.000;  163.925;    0.000
243.535;  696.000;  162.925;    0.000
243.605;  680.000;  159.925;    0.000
243.674;  686.000;  171.925;    0.000
243.743;  748.000;  189.925;    0.000
243.812;  635.000;  169.925;    0.000
243.881;  709.000;  145.925;    0.000
243.950;  679.000;  197.925;    0.000
244.019;  718.000;  189.925;    0.000
244.088;  673.000;  200.925;    0.000
244.158;  753.000;  208.925;    0.000
244.227;  712.000;  154.925;    0.000
244.296;  659.000;  142.925;    0.000
244.365;  714.000;  198.925;    0.000
244.434;  694.000;  162.925;    0.000
244.503;  680.000;  186.925;    0.000
244.572;  707.000;  143.925;    0.000
244.641;  677.000;  145.925;    0.000
244.710;  658.000;  159.925;    0.000
244.779;  688.000;  175.925;    0.000
244.848;  641.000;  163.925;    0.000
244.917;  697.000;  157.925;    0.000
244.986;  704.000;  166.925;    0.000
245.055;  692.000;  211.925;    0.000
245.124;  695.000;  155.925;    0.000
245.193;  672.000;  187.925;    0.000
245.262;  642.000;  152.925;    0.000
245.331;  617.000;  177.925;    0.000
245.400;  565.000;  157.925;    0.000
245.469;  597.000;  195.925;    0.000
245.538;  631.000;  199.925;    0.000
245.607;  638.000;  194.925;    0.000
245.676;  668.000;  170.925;    0.000
245.745;  680.000;  208.925;    0.000
245.814;  640.000;  185.925;    0.000
245.883;  613.000;  165.925;    0.000
245.952;  620.000;  151.925;    0.000
246.021;  637.000;  171.925;    0.000
246.090;  675.000;  174.925;    0.000
246.159;  629.000;  192.925;    0.000
246.227;  660.000;  178.925;    0.000
246.296;  665.000;  159.925;    0.000
246.365;  614.000;  189.925;    0.000
246.434;  673.000;  205.925;    0.000
246.503;  638.000;  174.925;    0.000
246.572;  643.000;  203.925;    0.000
246.641;  620.000;  169.925;    0.000
246.710;  638.000;  186.925;    0.000
246.779;  624.000;  196.925;    0.000
246.847;  668.000;  209.925;    0.000
246.916;  595.000;  177.925;    0.000
246.985;  613.000;  188.925;    0.000
247.054;  580.000;  189.925;    0.000
247.123;  605.000;  196.925;    0.000
247.192;  623.000;  210.925;    0.000
247.260;  605.000;  164.925;    0.000
247.329;  636.000;  204.925;    0.000
247.398;  655.000;  204.925;    0.000
247.467;  574.000;  160.925;    0.000
247.536;  683.000;  193.925;    0.000
247.604;  688.000;  208.925;    0.000
247.673;  603.000;  168.925;    0.000
247.742;  567.000;  182.925;    0.000
247.811;  668.000;  186.925;    0.000
247.879;  589.000;  166.925;    0.000
247.948;  603.000;  192.925;    0.000
248.017;  609.000;  178.925;    0.000
248.086;  623.000;  193.925;    0.000
248.154;  611.000;  191.925;    0.000
248.223;  650.000;  207.925;    0.000
248.292;  617.000;  168.925;    0.000
248.361;  642.000;  211.925;    0.000
248.429;  619.000;  196.925;    0.000
248.498;  583.000;  163.925;    0.000
248.567;  590.000;  159.925;    0.000
248.635;  604.000;  194.925;    0.000
248.704;  620.000;  205.925;    0.000
248.773;  579.000;  190.925;    0.000
248.841;  587.000;  179.925;    0.000
248.910;  626.000;  193.925;    0.000
248.979;  613.000;  167.925;    0.000
249.047;  613.000;  166.925;    0.000
249.116;  573.000;  191.925;    0.000
249.185;  671.000;  203.925;    0.000
249.253;  570.000;  140.925;    0.000
249.322;  630.000;  173.925;    0.000
249.390;  584.000;  165.925;    0.000
249.459;  606.000;  173.925;    0.000
249.528;  639.000;  203.925;    0.000
249.596;  592.000;  204.925;    0.000
249.665;  622.000;  176.925;    0.000
249.733;  625.000;  178.925;    0.000
249.802;  584.000;  190.925;    0.000
249.871;  623.000;  171.925;    0.000
249.939;  595.000;  160.925;    0.000
250.008;  604.000;  220.925;    0.000
250.076;  598.000;  211.925;    0.000
250.145;  545.000;  145.925;    0.000
250.213;  593.000;  177.925;    0.000
250.282;  543.000;  186.925;    0.000
250.350;  617.000;  170.925;    0.000
250.419;  576.000;  195.925;    0.000
250.487;  628.000;  194.925;    0.000
250.556;  616.000;  178.925;    0.000
250.624;  597.000;  193.925;    0.000
250.693;  568.000;  167.925;    0.000
250.761;  633.000;  253.925;    0.000
250.830;  649.000;  241.925;    0.000
250.898;  601.000;  161.925;    0.000
250.967;  618.000;  178.925;    0.000
251.035;  567.000;  189.925;    0.000
251.104;  522.000;  166.925;    0.000
251.172;  570.000;  178.925;    0.000
251.241;  552.000;  174.925;    0.000
251.309;  582.000;  197.925;    0.000
251.378;  603.000;  172.925;    0.000
251.446;  616.000;  157.925;    0.000
251.514;  546.000;  197.925;    0.000
251.583;  579.000;  191.925;    0.000
251.651;  580.000;  154.925;    0.000
251.720;  595.000;  198.925;    0.000
251.788;  587.000;  226.925;    0.000
251.856;  530.000;  164.925;    0.000
251.925;  531.000;  181.925;    0.000
251.993;  593.000;  203.925;    0.000
252.062;  599.000;  211.925;    0.000
252.130;  587.000;  185.925;    0.000
252.198;  646.000;  190.925;    0.000
252.267;  535.000;  176.925;    0.000
252.335;  558.000;  179.925;    0.000
252.403;  547.000;  173.925;    0.000
252.472;  517.000;  172.925;    0.000
252.540;  560.000;  187.925;    0.000
252.608;  589.000;  204.925;    0.000
252.677;  554.000;  179.925;    0.000
252.745;  569.000;  192.925;    0.000
252.813;  538.000;  168.925;    0.000
252.881;  515.000;  157.925;    0.000
252.950;  554.000;  188.925;    0.000
253.018;  518.000;  191.925;    0.000
253.086;  542.000;  164.925;    0.000
253.155;  506.000;  172.925;    0.000
253.223;  495.000;  168.925;    0.000
253.291;  526.000;  190.925;    0.000
253.359;  524.000;  205.925;    0.000
253.428;  538.000;  228.925;    0.000
253.496;  476.000;  170.925;    0.000
253.564;  447.000;  164.925;    0.000
253.632;  458.000;  159.925;    0.000
253.700;  449.000;  166.925;    0.000
253.769;  490.000;  172.925;    0.000
253.837;  559.000;  157.925;    0.000
253.905;  507.000;  168.925;    0.000
253.973;  456.000;  179.925;    0.000
254.041;  440.000;  187.925;    0.000
254.110;  464.000;  186.925;    0.000
254.178;  465.000;  156.925;    0.000
254.246;  479.000;  132.925;    0.000
254.314;  465.000;  191.925;    0.000
254.382;  459.000;  189.925;    0.000
254.450;  445.000;  163.925;    0.000
254.518;  454.000;  172.925;    0.000
254.587;  447.000;  162.925;    0.000
254.655;  470.000;  191.925;    0.000
254.723;  435.000;  184.925;    0.000
254.791;  534.000;  169.925;    0.000
254.859;  492.000;  186.925;    0.000
254.927;  531.000;  207.925;    0.000
254.995;  456.000;  143.925;    0.000
255.063;  461.000;  198.925;    0.000
255.131;  454.000;  168.925;    0.000
255.199;  491.000;  183.925;    0.000
255.267;  455.000;  159.925;    0.000
255.336;  471.000;  197.925;    0.000
255.404;  452.000;  177.925;    0.000
255.472;  464.000;  204.925;    0.000
255.540;  469.000;  169.925;    0.000
255.608;  485.000;  141.925;    0.000
255.676;  455.000;  176.925;    0.000
255.744;  461.000;  184.925;    0.000
255.812;  459.000;  158.925;    0.000
255.880;  512.000;  202.925;    0.000
255.948;  500.000;  184.925;    0.000
256.016;  501.000;  192.925;    0.000
256.084;  514.000;  204.925;    0.000
256.152;  533.000;  191.925;    0.000
256.220;  555.000;  187.925;    0.000
256.288;  607.000;  176.925;    0.000
256.356;  508.000;  146.925;    0.000
256.424;  474.000;  164.925;    0.000
256.491;  464.000;  161.925;    0.000
256.559;  491.000;  167.925;    0.000
256.627;  527.000;  180.925;    0.000
256.695;  521.000;  159.925;    0.000
256.763;  524.000;  166.925;    0.000
256.831;  539.000;  166.925;    0.000
256.899;  525.000;  161.925;    0.000
256.967;  537.000;  116.925;    0.000
257.035;  540.000;  195.925;    0.000
257.103;  587.000;  227.925;    0.000
257.171;  521.000;  147.925;    0.000
257.238;  502.000;  158.925;    0.000
257.306;  556.000;  188.925;    0.000
257.374;  565.000;  153.925;    0.000
257.442;  543.000;  159.925;    0.000
257.510;  564.000;  201.925;    0.000
257.578;  556.000;  137.925;    0.000
257.646;  583.000;  172.925;    0.000
257.713;  608.000;  164.925;    0.000
257.781;  575.000;  163.925;    0.000
257.849;  575.000;  174.925;    0.000
257.917;  595.000;  164.925;    0.000
257.985;  537.000;  126.925;    0.000
258.052;  585.000;  158.925;    0.000
258.120;  587.000;  151.925;    0.000
258.188;  611.000;  169.925;    0.000
258.256;  597.000;  110.925;    0.000
258.324;  634.000;  193.925;    0.000
258.391;  626.000;  157.925;    0.000
258.459;  647.000;  193.925;    0.000
258.527;  969.000;  150.925;    0.000
258.595;  864.000;  173.925;    0.000
258.662;  650.000;  168.925;    0.000
258.730;  708.000;  190.925;    0.000
258.798;  613.000;  164.925;    0.000
258.865;  622.000;  165.925;    0.000
258.933;  667.000;  162.925;    0.000
259.001;  710.000;  174.925;    0.000
259.069;  699.000;  139.925;    0.000
259.136;  766.000;  160.925;    0.000
259.204;  794.000;  174.925;    0.000
259.272;  829.000;  161.925;    0.000
259.339;  754.000;  157.925;    0.000
259.407;  729.000;  159.925;    0.000
259.475;  724.000;  134.925;    0.000
259.542;  684.000;  179.925;    0.000
259.610;  762.000;  172.925;    0.000
259.677;  804.000;  152.925;    0.000
259.745; 1066.000;  131.925;    0.000
259.813; 1499.000;  185.925;    0.000
259.880; 2271.000;  183.925;    0.000
259.948; 1968.000;  168.925;    0.000
260.016;  969.000;  160.925;    0.000
260.083;  848.000;  163.925;    0.000
260.151;  767.000;  162.925;    0.000
260.218;  799.000;  171.925;    0.000
260.286;  863.000;  154.925;    0.000
260.353;  858.000;  182.925;    0.000
260.421;  845.000;  187.925;    0.000
260.489;  909.000;  185.925;    0.000
260.556;  979.000;  165.925;    0.000
260.624; 1227.000;  185.925;    0.000
260.691; 1394.000;  175.925;    0.000
260.759; 1092.000;  201.925;    0.000
260.826;  846.000;  150.925;    0.000
260.894;  881.000;  142.925;    0.000
260.961;  887.000;  156.925;    0.000
261.029; 1020.000;  161.925;    0.000
261.096; 1345.000;  172.925;    0.000
261.164; 1662.000;  149.925;    0.000
261.231; 1268.000;  191.925;    0.000
261.299; 1131.000;  182.925;    0.000
261.366; 1249.000;  156.925;    0.000
261.434; 1112.000;  188.925;    0.000
261.501;  916.000;  170.925;    0.000
261.568; 1001.000;  167.925;    0.000
261.636;  949.000;  169.925;    0.000
261.703; 1124.000;  200.925;    0.000
261.771; 1141.000;  170.925;    0.000
261.838; 1043.000;  175.925;    0.000
261.906; 1020.000;  135.925;    0.000
261.973; 1012.000;  184.925;    0.000
262.040; 1015.000;  176.925;    0.000
262.108; 1132.000;  201.925;    0.000
262.175; 1037.000;  141.925;    0.000
262.243; 1001.000;  175.925;    0.000
262.310;  971.000;  112.925;    0.000
262.377; 1073.000;  158.925;    0.000
262.445; 1257.000;  162.925;    0.000
262.512; 1512.000;  184.925;    0.000
262.579; 1378.000;  185.925;    0.000
262.647; 1059.000;  158.925;    0.000
262.714; 1190.000;  197.925;    0.000
262.781; 1376.000;  133.925;    0.000
262.849; 1313.000;  146.925;    0.000
262.916; 1222.000;  204.925;    0.000
262.983; 1301.000;  191.925;    0.000
263.051; 2058.000;  140.925;    0.000
263.118; 2147.000;  154.925;    0.000
263.185; 1394.000;  169.925;    0.000
263.252; 1074.000;  150.925;    0.000
263.320; 1092.000;  145.925;    0.000
263.387; 1066.000;  144.925;    0.000
263.454; 1047.000;  193.925;    0.000
263.522; 1090.000;  160.925;    0.000
263.589; 1054.000;  153.925;    0.000
263.656; 1043.000;  178.925;    0.000
263.723; 1080.000;  136.925;    0.000
263.790; 1125.000;  162.925;    0.000
263.858; 1186.000;  164.925;    0.000
263.925; 1086.000;  146.925;    0.000
263.992; 1141.000;  191.925;    0.000
264.059; 1133.000;  180.925;    0.000
264.126; 1184.000;  183.925;    0.000
264.194; 1180.000;  174.925;    0.000
264.261; 1144.000;  187.925;    0.000
264.328; 1184.000;  179.925;    0.000
264.395; 1166.000;  166.925;    0.000
264.462; 1275.000;  197.925;    0.000
264.529; 1137.000;  209.925;    0.000
264.597; 1159.000;  173.925;    0.000
264.664; 1217.000;  193.925;    0.000
264.731; 1238.000;  165.925;    0.000
264.798; 1233.000;  148.925;    0.000
264.865; 1198.000;  186.925;    0.000
264.932; 1159.000;  152.925;    0.000
264.999; 1192.000;  166.925;    0.000
265.066; 1118.000;  186.925;    0.000
265.133; 1234.000;  172.925;    0.000
265.201; 1284.000;  159.925;    0.000
265.268; 1249.000;  164.925;    0.000
265.335; 1255.000;  161.925;    0.000
265.402; 1232.000;  157.925;    0.000
265.469; 1214.000;  134.925;    0.000
265.536; 1269.000;  191.925;    0.000
265.603; 1192.000;  170.925;    0.000
265.670; 1287.000;  162.925;    0.000
265.737; 1259.000;  172.925;    0.000
265.804; 1310.000;  151.925;    0.000
265.871; 1352.000;  191.925;    0.000
265.938; 1225.000;  173.925;    0.000
266.005; 1287.000;  201.925;    0.000
266.072; 1211.000;  156.925;    0.000
266.139; 1248.000;  191.925;    0.000
266.206; 1397.000;  151.925;    0.000
266.273; 1496.000;  194.925;    0.000
266.340; 1401.000;  120.925;    0.000
266.407; 1531.000;  130.925;    0.000
266.474; 1599.000;  137.925;    0.000
266.541; 1586.000;  139.925;    0.000
266.608; 1571.000;  139.925;    0.000
266.675; 1550.000;  198.925;    0.000
266.742; 1449.000;  165.925;    0.000
266.808; 1363.000;  174.925;    0.000
266.875; 1438.000;  169.925;    0.000
266.942; 1369.000;  137.925;    0.000
267.009; 1408.000;  181.925;    0.000
267.076; 1382.000;  204.925;    0.000
267.143; 1475.000;  179.925;    0.000
267.210; 1480.000;  160.925;    0.000
267.277; 1480.000;  154.925;    0.000
267.344; 1473.000;  178.925;    0.000
267.410; 1348.000;  190.925;    0.000
267.477; 1387.000;  193.925;    0.000
267.544; 1389.000;  168.925;    0.000
267.611; 1591.000;  177.925;    0.000
267.678; 2048.000;  205.925;    0.000
267.745; 1853.000;  205.925;    0.000
267.811; 1503.000;  164.925;    0.000
267.878; 1532.000;  166.925;    0.000
267.945; 1441.000;  160.925;    0.000
268.012; 1445.000;  172.925;    0.000
268.079; 1430.000;  186.925;    0.000
268.145; 1451.000;  188.925;    0.000
268.212; 1497.000;  181.925;    0.000
268.279; 1394.000;  158.925;    0.000
268.346; 1334.000;  192.925;    0.000
268.412; 1554.000;  159.925;    0.000
268.479; 1541.000;  176.925;    0.000
268.546; 1318.000;  170.925;    0.000
268.613; 1556.000;  133.925;    0.000
268.679; 1498.000;  170.925;    0.000
268.746; 1492.000;  185.925;    0.000
268.813; 1448.000;  170.925;    0.000
268.879; 1434.000;  149.925;    0.000
268.946; 1453.000;  176.925;    0.000
269.013; 1510.000;  153.925;    0.000
269.079; 1477.000;  156.925;    0.000
269.146; 1437.000;  143.925;    0.000
269.213; 1510.000;  170.925;    0.000
269.280; 1586.000;  202.925;    0.000
269.346; 1494.000;  180.925;    0.000
269.413; 1414.000;  162.925;    0.000
269.479; 1336.000;  175.925;    0.000
269.546; 1300.000;  151.925;    0.000
269.613; 1360.000;  159.925;    0.000
269.679; 1410.000;  190.925;    0.000
269.746; 1510.000;  159.925;    0.000
269.813; 1635.000;  151.925;    0.000
269.879; 1461.000;  169.925;    0.000
269.946; 1357.000;  169.925;    0.000
270.012; 1458.000;  185.925;    0.000
270.079; 1392.000;  133.925;    0.000
270.145; 1341.000;  161.925;    0.000
270.212; 1348.000;  156.925;    0.000
270.279; 1554.000;  176.925;    0.000
270.345; 1450.000;  140.925;    0.000
270.412; 1507.000;  162.925;    0.000
270.478; 1404.000;  148.925;    0.000
270.545; 1417.000;  146.925;    0.000
270.611; 1514.000;  168.925;    0.000
270.678; 1362.000;  164.925;    0.000
270.744; 1305.000;  117.925;    0.000
270.811; 1429.000;  196.925;    0.000
270.877; 1494.000;  151.925;    0.000
270.944; 1400.000;  174.925;    0.000
271.010; 1344.000;  180.925;    0.000
271.077; 1480.000;  162.925;    0.000
271.143; 1632.000;  178.925;    0.000
271.210; 1452.000;  159.925;    0.000
271.276; 1393.000;  143.925;    0.000
271.342; 1461.000;  196.925;    0.000
271.409; 1637.000;  161.925;    0.000
271.475; 1499.000;  153.925;    0.000
271.542; 1447.000;  147.925;    0.000
271.608; 1350.000;  175.925;    0.000
271.675; 1360.000;  134.925;    0.000
271.741; 1508.000;  182.925;    0.000
271.807; 1521.000;  174.925;    0.000
271.874; 1641.000;  169.925;    0.000
271.940; 1516.000;  179.925;    0.000
272.007; 1425.000;  173.925;    0.000
272.073; 1467.000;  133.925;    0.000
272.139; 1484.000;  191.925;    0.000
272.206; 1362.000;  168.925;    0.000
272.272; 1473.000;  179.925;    0.000
272.338; 1518.000;  224.925;    0.000
272.405; 1383.000;  156.925;    0.000
272.471; 1375.000;  175.925;    0.000
272.537; 1364.000;  190.925;    0.000
272.604; 1454.000;  199.925;    0.000
272.670; 1642.000;  156.925;    0.000
272.736; 1747.000;  198.925;    0.000
272.802; 1499.000;  169.925;    0.000
272.869; 1399.000;  141.925;    0.000
272.935; 1336.000;  145.925;    0.000
273.001; 1400.000;  156.925;    0.000
273.068; 1397.000;  157.925;    0.000
273.134; 1357.000;  184.925;    0.000
273.200; 1449.000;  158.925;    0.000
273.266; 1445.000;  150.925;    0.000
273.333; 1459.000;  176.925;    0.000
273.399; 1334.000;  118.925;    0.000
273.465; 1434.000;  184.925;    0.000
273.531; 1376.000;  179.925;    0.000
273.597; 1506.000;  167.925;    0.000
273.664; 1733.000;  186.925;    0.000
273.730; 1616.000;  137.925;    0.000
273.796; 1568.000;  148.925;    0.000
273.862; 2139.000;  183.925;    0.000
273.928; 2820.000;  179.925;    0.000
273.995; 2244.000;  189.925;    0.000
274.061; 1599.000;  188.925;    0.000
274.127; 1571.000;  132.925;    0.000
274.193; 1561.000;  135.925;    0.000
274.259; 1975.000;  177.925;    0.000
274.325; 2059.000;  178.925;    0.000
274.391; 1757.000;  140.925;    0.000
274.457; 1617.000;  158.925;    0.000
274.524; 1884.000;  175.925;    0.000
274.590; 2535.000;  182.925;    0.000
274.656; 3111.000;  165.925;    0.000
274.722; 2262.000;  152.925;    0.000
274.788; 1924.000;  159.925;    0.000
274.854; 2873.000;  143.925;    0.000
274.920; 3405.000;  117.925;    0.000
274.986; 2421.000;  140.925;    0.000
275.052; 1822.000;  174.925;    0.000
275.118; 1769.000;  129.925;    0.000
275.184; 1734.000;  173.925;    0.000
275.250; 1936.000;  196.925;    0.000
275.316; 1948.000;  142.925;    0.000
275.382; 1730.000;  149.925;    0.000
275.448; 1954.000;  178.925;    0.000
275.514; 3174.000;  136.925;    0.000
275.580; 3129.000;  140.925;    0.000
275.646; 1927.000;  133.925;    0.000
275.712; 1638.000;  162.925;    0.000
275.778; 1586.000;  129.925;    0.000
275.844; 1566.000;  156.925;    0.000
275.910; 1664.000;  172.925;    0.000
275.976; 1781.000;  158.925;    0.000
276.042; 1620.000;  141.925;    0.000
276.108; 1716.000;  212.925;    0.000
276.174; 1868.000;  148.925;    0.000
276.240; 1837.000;  134.925;    0.000
276.306; 1808.000;  149.925;    0.000
276.372; 1685.000;  126.925;    0.000
276.437; 1711.000;  168.925;    0.000
276.503; 1789.000;  158.925;    0.000
276.569; 2002.000;  191.925;    0.000
276.635; 2121.000;  130.925;    0.000
276.701; 2312.000;  161.925;    0.000
276.767; 2111.000;  148.925;    0.000
276.833; 1874.000;  147.925;    0.000
276.899; 1916.000;  149.925;    0.000
276.964; 1856.000;  181.925;    0.000
277.030; 1893.000;  186.925;    0.000
277.096; 1875.000;  132.925;    0.000
277.162; 1850.000;  181.925;    0.000
277.228; 1821.000;  166.925;    0.000
277.293; 2067.000;  154.925;    0.000
277.359; 1956.000;  181.925;    0.000
277.425; 2085.000;  184.925;    0.000
277.491; 2248.000;  150.925;    0.000
277.557; 2538.000;  159.925;    0.000
277.622; 3747.000;  129.925;    0.000
277.688; 3715.000;  184.925;    0.000
277.754; 3706.000;  182.925;    0.000
277.820; 4179.000;  149.925;    0.000
277.885; 4764.000;  185.925;    0.000
277.951; 6723.000;  164.925;    0.000
278.017; 5541.000;  162.925;    0.000
278.083; 4344.000;  189.925;    0.000
278.148; 4295.000;  184.925;    0.000
278.214; 4143.000;  188.925;    0.000
278.280; 4577.000;  206.925;    0.000
278.345; 4222.000;  187.925;    0.000
278.411; 3469.000;  174.925;    0.000
278.477; 3497.000;  190.925;    0.000
278.542; 3777.000;  154.925;    0.000
278.608; 3876.000;  191.925;    0.000
278.674; 4366.000;  243.925;    0.000
278.739; 4626.000;  141.925;    0.000
278.805; 5496.000;  171.925;    0.000
278.871; 5894.000;  181.925;    0.000
278.936; 7989.000;  191.925;    0.000
279.002;13272.000;  201.925;    0.000
279.067;19580.000;  174.925;    0.000
279.133;17753.000;  165.925;    0.000
279.199;13426.000;  122.925;    0.000
279.264;13710.000;  159.925;    0.000
279.330;16381.000;  170.925;    0.000
279.395;23823.000;  173.925;    0.000
279.461;41788.000;  200.925;    0.000
279.527;55114.000;  199.925;    0.000
279.592;45642.000;  203.925;    0.000
279.658;29232.000;  209.925;    0.000
279.723;27679.000;  188.925;    0.000
279.789;33195.000;  180.925;    0.000
279.854;26044.000;  137.925;    0.000
279.920;18622.000;  223.925;    0.000
279.985;15965.000;  186.925;    0.000
280.051;16163.000;  198.925;    0.000
280.116;20237.000;  178.925;    0.000
280.182;36849.000;  176.925;    0.000
280.247;49106.000;  195.925;    0.000
280.313;37946.000;  165.925;    0.000
280.378;20309.000;  153.925;    0.000
280.444;13146.000;  181.925;    0.000
280.509; 9988.000;  188.925;    0.000
280.574; 8414.000;  149.925;    0.000
280.640; 7224.000;  164.925;    0.000
280.705; 6448.000;  166.925;    0.000
280.771; 5982.000;  188.925;    0.000
280.836; 5359.000;  188.925;    0.000
280.902; 4920.000;  168.925;    0.000
280.967; 4825.000;  202.925;    0.000
281.032; 4671.000;  197.925;    0.000
281.098; 4198.000;  138.925;    0.000
281.163; 4119.000;  160.925;    0.000
281.229; 3995.000;  212.925;    0.000
281.294; 3674.000;  227.925;    0.000
281.359; 3539.000;  200.925;    0.000
281.425; 3504.000;  189.925;    0.000
281.490; 3353.000;  176.925;    0.000
281.555; 3265.000;  182.925;    0.000
281.621; 3182.000;  169.925;    0.000
281.686; 3011.000;  182.925;    0.000
281.751; 3221.000;  208.925;    0.000
281.816; 2990.000;  166.925;    0.000
281.882; 2890.000;  181.925;    0.000
281.947; 2692.000;  178.925;    0.000
282.012; 2661.000;  167.925;    0.000
282.078; 2744.000;  170.925;    0.000
282.143; 2958.000;  157.925;    0.000
282.208; 2866.000;  158.925;    0.000
282.273; 2701.000;  187.925;    0.000
282.339; 2498.000;  185.925;    0.000
282.404; 2605.000;  201.925;    0.000
282.469; 2366.000;  202.925;    0.000
282.534; 2480.000;  185.925;    0.000
282.600; 2408.000;  125.925;    0.000
282.665; 2422.000;  162.925;    0.000
282.730; 2378.000;  174.925;    0.000
282.795; 2454.000;  179.925;    0.000
282.860; 2405.000;  190.925;    0.000
282.926; 2273.000;  200.925;    0.000
282.991; 2432.000;  161.925;    0.000
283.056; 2532.000;  175.925;    0.000
283.121; 2484.000;  181.925;    0.000
283.186; 2534.000;  221.925;    0.000
283.251; 2294.000;  168.925;    0.000
283.316; 2211.000;  156.925;    0.000
283.382; 2351.000;  197.925;    0.000
283.447; 2573.000;  210.925;    0.000
283.512; 3224.000;  164.925;    0.000
283.577; 3288.000;  212.925;    0.000
283.642; 2477.000;  186.925;    0.000
283.707; 2239.000;  182.925;    0.000
283.772; 2182.000;  127.925;    0.000
283.837; 2361.000;  160.925;    0.000
283.902; 2337.000;  162.925;    0.000
283.967; 2396.000;  151.925;    0.000
284.032; 2571.000;  175.925;    0.000
284.097; 2382.000;  235.925;    0.000
284.163; 2372.000;  136.925;    0.000
284.228; 2596.000;  209.925;    0.000
284.293; 3001.000;  163.925;    0.000
284.358; 2785.000;  169.925;    0.000
284.423; 2352.000;  145.925;    0.000
284.488; 2367.000;  134.925;    0.000
284.553; 2387.000;  158.925;    0.000
284.618; 2512.000;  163.925;    0.000
284.683; 2584.000;  168.925;    0.000
284.748; 2597.000;  170.925;    0.000
284.812; 2767.000;  151.925;    0.000
284.877; 3249.000;  169.925;    0.000
284.942; 3917.000;  179.925;    0.000
285.007; 4669.000;  202.925;    0.000
285.072; 6190.000;  171.925;    0.000
285.137;13353.000;  173.925;    0.000
285.202;19780.000;  196.925;    0.000
285.267;14546.000;  193.925;    0.000
285.332; 7360.000;  151.925;    0.000
285.397; 4820.000;  183.925;    0.000
285.462; 4248.000;  168.925;    0.000
285.527; 3645.000;  166.925;    0.000
285.591; 3522.000;  124.925;    0.000
285.656; 3025.000;  145.925;    0.000
285.721; 2941.000;  155.925;    0.000
285.786; 2807.000;  170.925;    0.000
285.851; 2826.000;  175.925;    0.000
285.916; 2712.000;  186.925;    0.000
285.981; 2500.000;  204.925;    0.000
286.045; 2414.000;  237.925;    0.000
286.110; 2505.000;  197.925;    0.000
286.175; 2492.000;  143.925;    0.000
286.240; 2641.000;  167.925;    0.000
286.305; 2323.000;  202.925;    0.000
286.369; 2234.000;  214.925;    0.000
286.434; 2428.000;  206.925;    0.000
286.499; 2645.000;  177.925;    0.000
286.564; 2530.000;  201.925;    0.000
286.628; 2491.000;  153.925;    0.000
286.693; 2566.000;  161.925;    0.000
286.758; 2363.000;  181.925;    0.000
286.823; 2282.000;  176.925;    0.000
286.887; 2272.000;  158.925;    0.000
286.952; 2183.000;  198.925;    0.000
287.017; 2260.000;  196.925;    0.000
287.082; 2163.000;  154.925;    0.000
287.146; 2010.000;  178.925;    0.000
287.211; 2151.000;  165.925;    0.000
287.276; 2161.000;  165.925;    0.000
287.340; 2295.000;  178.925;    0.000
287.405; 2137.000;  177.925;    0.000
287.470; 2110.000;  141.925;    0.000
287.534; 2379.000;  224.925;    0.000
287.599; 2378.000;  184.925;    0.000
287.663; 2285.000;  177.925;    0.000
287.728; 2148.000;  144.925;    0.000
287.793; 2212.000;  210.925;    0.000
287.857; 2123.000;  198.925;    0.000
287.922; 2120.000;  168.925;    0.000
287.987; 2050.000;  168.925;    0.000
288.051; 2153.000;  200.925;    0.000
288.116; 2341.000;  199.925;    0.000
288.180; 2371.000;  211.925;    0.000
288.245; 2075.000;  182.925;    0.000
288.309; 2196.000;  180.925;    0.000
288.374; 2154.000;  196.925;    0.000
288.439; 2108.000;  187.925;    0.000
288.503; 2069.000;  159.925;    0.000
288.568; 2075.000;  207.925;    0.000
288.632; 2025.000;  210.925;    0.000
288.697; 1876.000;  196.925;    0.000
288.761; 2179.000;  175.925;    0.000
288.826; 2168.000;  159.925;    0.000
288.890; 2165.000;  183.925;    0.000
288.955; 2266.000;  149.925;    0.000
289.019; 2077.000;  194.925;    0.000
289.084; 2105.000;  171.925;    0.000
289.148; 2161.000;  191.925;    0.000
289.212; 1980.000;  217.925;    0.000
289.277; 2036.000;  196.925;    0.000
289.341; 2030.000;  211.925;    0.000
289.406; 2140.000;  165.925;    0.000
289.470; 2120.000;  197.925;    0.000
289.535; 2111.000;  208.925;    0.000
289.599; 2239.000;  192.925;    0.000
289.663; 2120.000;  169.925;    0.000
289.728; 2199.000;  168.925;    0.000
289.792; 2167.000;  192.925;    0.000
289.857; 2161.000;  202.925;    0.000
289.921; 2111.000;  176.925;    0.000
289.985; 2043.000;  164.925;    0.000
290.050; 2039.000;  166.925;    0.000
290.114; 1927.000;  192.925;    0.000
290.178; 2014.000;  155.925;    0.000
290.243; 2075.000;  158.925;    0.000
290.307; 1987.000;  192.925;    0.000
290.371; 1951.000;  161.925;    0.000
290.436; 2007.000;  182.925;    0.000
290.500; 2150.000;  147.925;    0.000
290.564; 2001.000;  209.925;    0.000
290.629; 1891.000;  172.925;    0.000
290.693; 2087.000;  192.925;    0.000
290.757; 2073.000;  147.925;    0.000
290.821; 1930.000;  139.925;    0.000
290.886; 1918.000;  186.925;    0.000
290.950; 2059.000;  196.925;    0.000
291.014; 2253.000;  166.925;    0.000
291.078; 1994.000;  143.925;    0.000
291.143; 2022.000;  171.925;    0.000
291.207; 2146.000;  187.925;    0.000
291.271; 1939.000;  208.925;    0.000
291.335; 2074.000;  195.925;    0.000
291.399; 2022.000;  139.925;    0.000
291.464; 2220.000;  139.925;    0.000
291.528; 2414.000;  183.925;    0.000
291.592; 2311.000;  152.925;    0.000
291.656; 2310.000;  155.925;    0.000
291.720; 2058.000;  191.925;    0.000
291.784; 2175.000;  185.925;    0.000
291.849; 2106.000;  175.925;    0.000
291.913; 2131.000;  152.925;    0.000
291.977; 2104.000;  203.925;    0.000
292.041; 2230.000;  181.925;    0.000
292.105; 2247.000;  168.925;    0.000
292.169; 1990.000;  133.925;    0.000
292.233; 2231.000;  156.925;    0.000
292.297; 2195.000;  173.925;    0.000
292.361; 2224.000;  124.925;    0.000
292.425; 2217.000;  138.925;    0.000
292.490; 2166.000;  110.925;    0.000
292.554; 2331.000;  180.925;    0.000
292.618; 2573.000;  178.925;    0.000
292.682; 2715.000;  156.925;    0.000
292.746; 2778.000;  151.925;    0.000
292.810; 4018.000;  183.925;    0.000
292.874; 5305.000;  156.925;    0.000
292.938; 4898.000;  195.925;    0.000
293.002; 4143.000;  200.925;    0.000
293.066; 3628.000;  171.925;    0.000
293.130; 3294.000;  163.925;    0.000
293.194; 3178.000;  174.925;    0.000
293.258; 3050.000;  167.925;    0.000
293.322; 2967.000;  212.925;    0.000
293.386; 3133.000;  189.925;    0.000
293.450; 3110.000;  169.925;    0.000
293.514; 3770.000;  175.925;    0.000
293.577; 5024.000;  169.925;    0.000
293.641; 7551.000;  186.925;    0.000
293.705; 8106.000;  222.925;    0.000
293.769; 6136.000;  150.925;    0.000
293.833; 4984.000;  165.925;    0.000
293.897; 4211.000;  152.925;    0.000
293.961; 3881.000;  179.925;    0.000
294.025; 3382.000;  159.925;    0.000
294.089; 3351.000;  181.925;    0.000
294.152; 3135.000;  188.925;    0.000
294.216; 2841.000;  170.925;    0.000
294.280; 2840.000;  167.925;    0.000
294.344; 2710.000;  151.925;    0.000
294.408; 2715.000;  180.925;    0.000
294.472; 2503.000;  144.925;    0.000
294.536; 2442.000;  171.925;    0.000
294.599; 2423.000;  157.925;    0.000
294.663; 2344.000;  139.925;    0.000
294.727; 2515.000;  208.925;    0.000
294.791; 2577.000;  152.925;    0.000
294.855; 2378.000;  181.925;    0.000
294.918; 2387.000;  136.925;    0.000
294.982; 2295.000;  155.925;    0.000
295.046; 2323.000;  200.925;    0.000
295.110; 2222.000;  190.925;    0.000
295.173; 2146.000;  156.925;    0.000
295.237; 2229.000;  160.925;    0.000
295.301; 2123.000;  145.925;    0.000
295.364; 2291.000;  166.925;    0.000
295.428; 2200.000;  125.925;    0.000
295.492; 2098.000;  154.925;    0.000
295.556; 2088.000;  172.925;    0.000
295.619; 2153.000;  210.925;    0.000
295.683; 2017.000;  181.925;    0.000
295.747; 2055.000;  176.925;    0.000
295.810; 2084.000;  181.925;    0.000
295.874; 2105.000;  160.925;    0.000
295.938; 1962.000;  119.925;    0.000
296.001; 1902.000;  206.925;    0.000
296.065; 1925.000;  136.925;    0.000
296.128; 1919.000;  156.925;    0.000
296.192; 1972.000;  174.925;    0.000
296.256; 1940.000;  145.925;    0.000
296.319; 1802.000;  167.925;    0.000
296.383; 1996.000;  168.925;    0.000
296.447; 2031.000;  190.925;    0.000
296.510; 1939.000;  165.925;    0.000
296.574; 2071.000;  184.925;    0.000
296.637; 2192.000;  155.925;    0.000
296.701; 2063.000;  168.925;    0.000
296.764; 2035.000;  161.925;    0.000
296.828; 1927.000;  218.925;    0.000
296.891; 1927.000;  176.925;    0.000
296.955; 1957.000;  169.925;    0.000
297.018; 1951.000;  168.925;    0.000
297.082; 1933.000;  176.925;    0.000
297.145; 1961.000;  171.925;    0.000
297.209; 2015.000;  196.925;    0.000
297.272; 2066.000;  170.925;    0.000
297.336; 2011.000;  156.925;    0.000
297.399; 1816.000;  168.925;    0.000
297.463; 1794.000;  203.925;    0.000
297.526; 1903.000;  164.925;    0.000
297.590; 1812.000;  175.925;    0.000
297.653; 1887.000;  170.925;    0.000
297.717; 1827.000;  156.925;    0.000
297.780; 1826.000;  149.925;    0.000
297.843; 1969.000;  156.925;    0.000
297.907; 1991.000;  129.925;    0.000
297.970; 2001.000;  163.925;    0.000
298.034; 1881.000;  162.925;    0.000
298.097; 1842.000;  182.925;    0.000
298.160; 1842.000;  194.925;    0.000
298.224; 1905.000;  178.925;    0.000
298.287; 1918.000;  147.925;    0.000
298.350; 1944.000;  187.925;    0.000
298.414; 1994.000;  193.925;    0.000
298.477; 1996.000;  127.925;    0.000
298.540; 2114.000;  181.925;    0.000
298.604; 2050.000;  163.925;    0.000
298.667; 1921.000;  177.925;    0.000
298.730; 1856.000;  192.925;    0.000
298.794; 1753.000;  183.925;    0.000
298.857; 1958.000;  194.925;    0.000
298.920; 1882.000;  147.925;    0.000
298.984; 1842.000;  184.925;    0.000
299.047; 1755.000;  218.925;    0.000
299.110; 1778.000;  171.925;    0.000
299.173; 1696.000;  177.925;    0.000
299.237; 1844.000;  181.925;    0.000
299.300; 1762.000;  170.925;    0.000
299.363; 1953.000;  185.925;    0.000
299.426; 1874.000;  193.925;    0.000
299.489; 1803.000;  184.925;    0.000
299.553; 1753.000;  194.925;    0.000
299.616; 1866.000;  171.925;    0.000
299.679; 1782.000;  182.925;    0.000
299.742; 1712.000;  138.925;    0.000
299.805; 1661.000;  172.925;    0.000
299.868; 1768.000;  191.925;    0.000
299.932; 1856.000;  193.925;    0.000
299.995; 1758.000;  201.925;    0.000
300.058; 1799.000;  177.925;    0.000
300.121; 1844.000;  178.925;    0.000
300.184; 1669.000;  171.925;    0.000
300.247; 1689.000;  184.925;    0.000
300.310; 1728.000;  200.925;    0.000
300.374; 1777.000;  172.925;    0.000
300.437; 1699.000;  187.925;    0.000
300.500; 1742.000;  211.925;    0.000
300.563; 1592.000;  190.925;    0.000
300.626; 1729.000;  196.925;    0.000
300.689; 1686.000;  162.925;    0.000
300.752; 1663.000;  163.925;    0.000
300.815; 1748.000;  207.925;    0.000
300.878; 1731.000;  221.925;    0.000
300.941; 1674.000;  176.925;    0.000
301.004; 1686.000;  193.925;    0.000
301.067; 1731.000;  165.925;    0.000
301.130; 1591.000;  179.925;    0.000
301.193; 1545.000;  196.925;    0.000
301.256; 1620.000;  210.925;    0.000
301.319; 1694.000;  196.925;    0.000
301.382; 1593.000;  162.925;    0.000
301.445; 1717.000;  233.925;    0.000
301.508; 1706.000;  176.925;    0.000
301.571; 1669.000;  185.925;    0.000
301.634; 1700.000;  202.925;    0.000
301.697; 1638.000;  189.925;    0.000
301.760; 1822.000;  224.925;    0.000
301.823; 1780.000;  212.925;    0.000
301.885; 1668.000;  196.925;    0.000
301.948; 1615.000;  169.925;    0.000
302.011; 2112.000;  160.925;    0.000
302.074; 2302.000;  202.925;    0.000
302.137; 2049.000;  130.925;    0.000
302.200; 1731.000;  188.925;    0.000
302.263; 1495.000;  196.925;    0.000
302.326; 1599.000;  172.925;    0.000
302.388; 1676.000;  197.925;    0.000
302.451; 1634.000;  203.925;    0.000
302.514; 1611.000;  164.925;    0.000
302.577; 1749.000;  170.925;    0.000
302.640; 1673.000;  156.925;    0.000
302.703; 1775.000;  188.925;    0.000
302.765; 1706.000;  213.925;    0.000
302.828; 1635.000;  212.925;    0.000
302.891; 1630.000;  203.925;    0.000
302.954; 1750.000;  148.925;    0.000
303.016; 1695.000;  168.925;    0.000
303.079; 1702.000;  206.925;    0.000
303.142; 1741.000;  210.925;    0.000
303.205; 1586.000;  189.925;    0.000
303.267; 1592.000;  174.925;    0.000
303.330; 1647.000;  198.925;    0.000
303.393; 1614.000;  207.925;    0.000
303.456; 1612.000;  177.925;    0.000
303.518; 1576.000;  192.925;    0.000
303.581; 1501.000;  171.925;    0.000
303.644; 1491.000;  193.925;    0.000
303.706; 1720.000;  185.925;    0.000
303.769; 1637.000;  198.925;    0.000
303.832; 1671.000;  192.925;    0.000
303.894; 1706.000;  199.925;    0.000
303.957; 1695.000;  160.925;    0.000
304.020; 1677.000;  184.925;    0.000
304.082; 1826.000;  191.925;    0.000
304.145; 1689.000;  216.925;    0.000
304.207; 1768.000;  175.925;    0.000
304.270; 1719.000;  192.925;    0.000
304.333; 1630.000;  218.925;    0.000
304.395; 1538.000;  195.925;    0.000
304.458; 1658.000;  206.925;    0.000
304.520; 1649.000;  229.925;    0.000
304.583; 1631.000;  202.925;    0.000
304.646; 1688.000;  159.925;    0.000
304.708; 1700.000;  167.925;    0.000
304.771; 1702.000;  141.925;    0.000
304.833; 1678.000;  184.925;    0.000
304.896; 1625.000;  197.925;    0.000
304.958; 1693.000;  179.925;    0.000
305.021; 1701.000;  175.925;    0.000
305.083; 1586.000;  182.925;    0.000
305.146; 1662.000;  182.925;    0.000
305.208; 1654.000;  174.925;    0.000
305.271; 1552.000;  157.925;    0.000
305.333; 1680.000;  185.925;    0.000
305.396; 1620.000;  199.925;    0.000
305.458; 1690.000;  203.925;    0.000
305.520; 1628.000;  195.925;    0.000
305.583; 1535.000;  152.925;    0.000
305.645; 1755.000;  200.925;    0.000
305.708; 1589.000;  149.925;    0.000
305.770; 1732.000;  211.925;    0.000
305.833; 1695.000;  189.925;    0.000
305.895; 1713.000;  200.925;    0.000
305.957; 1663.000;  166.925;    0.000
306.020; 1568.000;  186.925;    0.000
306.082; 1579.000;  197.925;    0.000
306.144; 1711.000;  200.925;    0.000
306.207; 1668.000;  180.925;    0.000
306.269; 1579.000;  209.925;    0.000
306.331; 1757.000;  205.925;    0.000
306.394; 1673.000;  176.925;    0.000
306.456; 1605.000;  184.925;    0.000
306.518; 1641.000;  210.925;    0.000
306.581; 1529.000;  162.925;    0.000
306.643; 1548.000;  196.925;    0.000
306.705; 1588.000;  204.925;    0.000
306.768; 1656.000;  158.925;    0.000
306.830; 1672.000;  205.925;    0.000
306.892; 1534.000;  189.925;    0.000
306.954; 1629.000;  188.925;    0.000
307.017; 1591.000;  180.925;    0.000
307.079; 1583.000;  197.925;    0.000
307.141; 1633.000;  184.925;    0.000
307.203; 1638.000;  182.925;    0.000
307.266; 1606.000;  166.925;    0.000
307.328; 1693.000;  186.925;    0.000
307.390; 1677.000;  176.925;    0.000
307.452; 1644.000;  194.925;    0.000
307.514; 1662.000;  225.925;    0.000
307.577; 1726.000;  209.925;    0.000
307.639; 1746.000;  203.925;    0.000
307.701; 1716.000;  214.925;    0.000
307.763; 1751.000;  203.925;    0.000
307.825; 1728.000;  202.925;    0.000
307.887; 1778.000;  244.925;    0.000
307.949; 1734.000;  173.925;    0.000
308.012; 1671.000;  219.925;    0.000
308.074; 1691.000;  157.925;    0.000
308.136; 1759.000;  215.925;    0.000
308.198; 1706.000;  186.925;    0.000
308.260; 1640.000;  186.925;    0.000
308.322; 1719.000;  201.925;    0.000
308.384; 1749.000;  218.925;    0.000
308.446; 1719.000;  159.925;    0.000
308.508; 1818.000;  191.925;    0.000
308.570; 1771.000;  185.925;    0.000
308.632; 1715.000;  208.925;    0.000
308.694; 1838.000;  161.925;    0.000
308.756; 1805.000;  169.925;    0.000
308.818; 1828.000;  187.925;    0.000
308.880; 1761.000;  192.925;    0.000
308.942; 1797.000;  194.925;    0.000
309.004; 1900.000;  206.925;    0.000
309.066; 1800.000;  204.925;    0.000
309.128; 1947.000;  181.925;    0.000
309.190; 2060.000;  166.925;    0.000
309.252; 2104.000;  213.925;    0.000
309.314; 2071.000;  249.925;    0.000
309.376; 2077.000;  238.925;    0.000
309.438; 2023.000;  206.925;    0.000
309.500; 1931.000;  185.925;    0.000
309.562; 2079.000;  214.925;    0.000
309.624; 2037.000;  216.925;    0.000
309.686; 2050.000;  197.925;    0.000
309.747; 2033.000;  171.925;    0.000
309.809; 1877.000;  198.925;    0.000
309.871; 1915.000;  185.925;    0.000
309.933; 1828.000;  172.925;    0.000
309.995; 1958.000;  168.925;    0.000
310.057; 1942.000;  177.925;    0.000
310.119; 1844.000;  207.925;    0.000
310.180; 1805.000;  180.925;    0.000
310.242; 1897.000;  202.925;    0.000
310.304; 1914.000;  200.925;    0.000
310.366; 1838.000;  222.925;    0.000
310.428; 1763.000;  179.925;    0.000
310.489; 1840.000;  196.925;    0.000
310.551; 1806.000;  203.925;    0.000
310.613; 1754.000;  198.925;    0.000
310.675; 1786.000;  203.925;    0.000
310.737; 1787.000;  195.925;    0.000
310.798; 1845.000;  204.925;    0.000
310.860; 1858.000;  195.925;    0.000
310.922; 1920.000;  195.925;    0.000
310.983; 1744.000;  225.925;    0.000
311.045; 1835.000;  203.925;    0.000
311.107; 1816.000;  194.925;    0.000
311.169; 1758.000;  185.925;    0.000
311.230; 1743.000;  175.925;    0.000
311.292; 1743.000;  220.925;    0.000
311.354; 1721.000;  189.925;    0.000
311.415; 1763.000;  187.925;    0.000
311.477; 1698.000;  180.925;    0.000
311.539; 1673.000;  175.925;    0.000
311.600; 1757.000;  192.925;    0.000
311.662; 1844.000;  212.925;    0.000
311.724; 1829.000;  217.925;    0.000
311.785; 1900.000;  218.925;    0.000
311.847; 1968.000;  219.925;    0.000
311.908; 1890.000;  202.925;    0.000
311.970; 1911.000;  186.925;    0.000
312.032; 1956.000;  212.925;    0.000
312.093; 1915.000;  203.925;    0.000
312.155; 1865.000;  165.925;    0.000
312.216; 1842.000;  183.925;    0.000
312.278; 1769.000;  167.925;    0.000
312.339; 1703.000;  190.925;    0.000
312.401; 1915.000;  219.925;    0.000
312.462; 2042.000;  190.925;    0.000
312.524; 2072.000;  203.925;    0.000
312.585; 1858.000;  191.925;    0.000
312.647; 1733.000;  197.925;    0.000
312.708; 1737.000;  203.925;    0.000
312.770; 1822.000;  203.925;    0.000
312.831; 1823.000;  155.925;    0.000
312.893; 1770.000;  189.925;    0.000
312.954; 1840.000;  212.925;    0.000
313.016; 1844.000;  179.925;    0.000
313.077; 1878.000;  209.925;    0.000
313.139; 2211.000;  185.925;    0.000
313.200; 2358.000;  180.925;    0.000
313.261; 2021.000;  220.925;    0.000
313.323; 1889.000;  171.925;    0.000
313.384; 1710.000;  180.925;    0.000
313.446; 1803.000;  202.925;    0.000
313.507; 1888.000;  172.925;    0.000
313.568; 1832.000;  192.925;    0.000
313.630; 1832.000;  191.925;    0.000
313.691; 1784.000;  176.925;    0.000
313.752; 1751.000;  175.925;    0.000
313.814; 1733.000;  202.925;    0.000
313.875; 1893.000;  186.925;    0.000
313.936; 1755.000;  199.925;    0.000
313.998; 1801.000;  164.925;    0.000
314.059; 1783.000;  159.925;    0.000
314.120; 1726.000;  175.925;    0.000
314.182; 1680.000;  181.925;    0.000
314.243; 1729.000;  157.925;    0.000
314.304; 1728.000;  168.925;    0.000
314.365; 1825.000;  203.925;    0.000
314.427; 1818.000;  151.925;    0.000
314.488; 1717.000;  174.925;    0.000
314.549; 1780.000;  184.925;    0.000
314.610; 1801.000;  198.925;    0.000
314.672; 1816.000;  193.925;    0.000
314.733; 1870.000;  171.925;    0.000
314.794; 1836.000;  141.925;    0.000
314.855; 1875.000;  184.925;    0.000
314.917; 1820.000;  175.925;    0.000
314.978; 1849.000;  190.925;    0.000
315.039; 1794.000;  183.925;    0.000
315.100; 1809.000;  204.925;    0.000
315.161; 1807.000;  202.925;    0.000
315.222; 1867.000;  177.925;    0.000
315.283; 1790.000;  191.925;    0.000
315.345; 1786.000;  185.925;    0.000
315.406; 1840.000;  194.925;    0.000
315.467; 1787.000;  167.925;    0.000
315.528; 1923.000;  174.925;    0.000
315.589; 1660.000;  197.925;    0.000
315.650; 1764.000;  192.925;    0.000
315.711; 1895.000;  181.925;    0.000
315.772; 1837.000;  157.925;    0.000
315.833; 1975.000;  189.925;    0.000
315.894; 1995.000;  184.925;    0.000
315.955; 2161.000;  202.925;    0.000
316.016; 1927.000;  220.925;    0.000
316.078; 1860.000;  180.925;    0.000
316.139; 1935.000;  240.925;    0.000
316.200; 1869.000;  190.925;    0.000
316.261; 1840.000;  179.925;    0.000
316.322; 1767.000;  176.925;    0.000
316.383; 1751.000;  188.925;    0.000
316.444; 1883.000;  228.925;    0.000
316.504; 1812.000;  199.925;    0.000
316.565; 1851.000;  221.925;    0.000
316.626; 1829.000;  204.925;    0.000
316.687; 1747.000;  192.925;    0.000
316.748; 1721.000;  220.925;    0.000
316.809; 1683.000;  175.925;    0.000
316.870; 1767.000;  164.925;    0.000
316.931; 1782.000;  208.925;    0.000
316.992; 1877.000;  224.925;    0.000
317.053; 1710.000;  204.925;    0.000
317.114; 1747.000;  199.925;    0.000
317.175; 1805.000;  230.925;    0.000
317.235; 1714.000;  186.925;    0.000
317.296; 1782.000;  224.925;    0.000
317.357; 1698.000;  154.925;    0.000
317.418; 1757.000;  219.925;    0.000
317.479; 1772.000;  229.925;    0.000
317.540; 1864.000;  201.925;    0.000
317.601; 1822.000;  180.925;    0.000
317.661; 1702.000;  179.925;    0.000
317.722; 1856.000;  193.925;    0.000
317.783; 1833.000;  164.925;    0.000
317.844; 1953.000;  232.925;    0.000
317.904; 2162.000;  222.925;    0.000
317.965; 2328.000;  199.925;    0.000
318.026; 2301.000;  200.925;    0.000
318.087; 2176.000;  182.925;    0.000
318.148; 1992.000;  216.925;    0.000
318.208; 1902.000;  239.925;    0.000
318.269; 1973.000;  163.925;    0.000
318.330; 1888.000;  204.925;    0.000
318.390; 1811.000;  191.925;    0.000
318.451; 1755.000;  200.925;    0.000
318.512; 1802.000;  181.925;    0.000
318.572; 1874.000;  233.925;    0.000
318.633; 1819.000;  220.925;    0.000
318.694; 1821.000;  179.925;    0.000
318.754; 1725.000;  214.925;    0.000
318.815; 1752.000;  214.925;    0.000
318.876; 1732.000;  220.925;    0.000
318.936; 1829.000;  212.925;    0.000
318.997; 1664.000;  201.925;    0.000
319.058; 1730.000;  215.925;    0.000
319.118; 1705.000;  251.925;    0.000
319.179; 1685.000;  240.925;    0.000
319.239; 1768.000;  240.925;    0.000
319.300; 1947.000;  232.925;    0.000
319.361; 1726.000;  211.925;    0.000
319.421; 1708.000;  219.925;    0.000
319.482; 1702.000;  228.925;    0.000
319.542; 1849.000;  216.925;    0.000
319.603; 1835.000;  190.925;    0.000
319.663; 1810.000;  227.925;    0.000
319.724; 1675.000;  191.925;    0.000
319.784; 1820.000;  196.925;    0.000
319.845; 1616.000;  190.925;    0.000
319.905; 1731.000;  221.925;    0.000
319.966; 1766.000;  219.925;    0.000
320.026; 1761.000;  233.925;    0.000
320.087; 1669.000;  204.925;    0.000
320.147; 1705.000;  189.925;    0.000
320.208; 1643.000;  200.925;    0.000
320.268; 1774.000;  217.925;    0.000
320.329; 1714.000;  216.925;    0.000
320.389; 1676.000;  228.925;    0.000
320.449; 1742.000;  236.925;    0.000
320.510; 1755.000;  234.925;    0.000
320.570; 1752.000;  176.925;    0.000
320.631; 1720.000;  228.925;    0.000
320.691; 1697.000;  228.925;    0.000
320.751; 1626.000;  188.925;    0.000
320.812; 1699.000;  223.925;    0.000
320.872; 1869.000;  268.925;    0.000
320.932; 1757.000;  226.925;    0.000
320.993; 1718.000;  216.925;    0.000
321.053; 1668.000;  236.925;    0.000
321.113; 1769.000;  197.925;    0.000
321.174; 1740.000;  218.925;    0.000
321.234; 1734.000;  229.925;    0.000
321.294; 1712.000;  208.925;    0.000
321.355; 1739.000;  248.925;    0.000
321.415; 1744.000;  218.925;    0.000
321.475; 1669.000;  173.925;    0.000
321.535; 1672.000;  234.925;    0.000
321.596; 1649.000;  202.925;    0.000
321.656; 1761.000;  246.925;    0.000
321.716; 1833.000;  235.925;    0.000
321.776; 1674.000;  210.925;    0.000
321.837; 1787.000;  217.925;    0.000
321.897; 1742.000;  215.925;    0.000
321.957; 1808.000;  239.925;    0.000
322.017; 1672.000;  173.925;    0.000
322.077; 1660.000;  263.925;    0.000
322.138; 1781.000;  232.925;    0.000
322.198; 1662.000;  211.925;    0.000
322.258; 1661.000;  213.925;    0.000
322.318; 1603.000;  168.925;    0.000
322.378; 1691.000;  251.925;    0.000
322.438; 1806.000;  212.925;    0.000
322.499; 1684.000;  265.925;    0.000
322.559; 1776.000;  210.925;    0.000
322.619; 1715.000;  242.925;    0.000
322.679; 1689.000;  229.925;    0.000
322.739; 1712.000;  216.925;    0.000
322.799; 1711.000;  238.925;    0.000
322.859; 1745.000;  249.925;    0.000
322.919; 1695.000;  211.925;    0.000
322.979; 1750.000;  244.925;    0.000
323.039; 1663.000;  226.925;    0.000
323.099; 1625.000;  223.925;    0.000
323.159; 1672.000;  232.925;    0.000
323.219; 1597.000;  203.925;    0.000
323.279; 1624.000;  218.925;    0.000
323.339; 1697.000;  231.925;    0.000
323.399; 1728.000;  255.925;    0.000
323.459; 1683.000;  244.925;    0.000
323.519; 1636.000;  213.925;    0.000
323.579; 1703.000;  193.925;    0.000
323.639; 1744.000;  191.925;    0.000
323.699; 1651.000;  199.925;    0.000
323.759; 1693.000;  246.925;    0.000
323.819; 1733.000;  206.925;    0.000
323.879; 1797.000;  238.925;    0.000
323.939; 1647.000;  229.925;    0.000
323.999; 1731.000;  219.925;    0.000
324.059; 1618.000;  177.925;    0.000
324.119; 1638.000;  235.925;    0.000
324.178; 1582.000;  211.925;    0.000
324.238; 1733.000;  168.925;    0.000
324.298; 1619.000;  205.925;    0.000
324.358; 1632.000;  224.925;    0.000
324.418; 1584.000;  235.925;    0.000
324.478; 1612.000;  187.925;    0.000
324.538; 1704.000;  230.925;    0.000
324.597; 1667.000;  206.925;    0.000
324.657; 1675.000;  180.925;    0.000
324.717; 1711.000;  175.925;    0.000
324.777; 1665.000;  169.925;    0.000
324.837; 1703.000;  165.925;    0.000
324.896; 1705.000;  205.925;    0.000
324.956; 1657.000;  216.925;    0.000
325.016; 1709.000;  197.925;    0.000
325.076; 1628.000;  220.925;    0.000
325.135; 1639.000;  242.925;    0.000
325.195; 1656.000;  186.925;    0.000
325.255; 1600.000;  160.925;    0.000
325.315; 1684.000;  198.925;    0.000
325.374; 1657.000;  208.925;    0.000
325.434; 1651.000;  209.925;    0.000
325.494; 1783.000;  191.925;    0.000
325.553; 1733.000;  190.925;    0.000
325.613; 1739.000;  229.925;    0.000
325.673; 1632.000;  172.925;    0.000
325.732; 1571.000;  160.925;    0.000
325.792; 1673.000;  177.925;    0.000
325.852; 1694.000;  201.925;    0.000
325.911; 1689.000;  226.925;    0.000
325.971; 1601.000;  224.925;    0.000
326.031; 1645.000;  202.925;    0.000
326.090; 1668.000;  232.925;    0.000
326.150; 1798.000;  230.925;    0.000
326.209; 1764.000;  201.925;    0.000
326.269; 1734.000;  202.925;    0.000
326.328; 1588.000;  203.925;    0.000
326.388; 1631.000;  194.925;    0.000
326.448; 1732.000;  233.925;    0.000
326.507; 1727.000;  192.925;    0.000
326.567; 1610.000;  163.925;    0.000
326.626; 1653.000;  227.925;    0.000
326.686; 1523.000;  177.925;    0.000
326.745; 1669.000;  210.925;    0.000
326.805; 1637.000;  198.925;    0.000
326.864; 1666.000;  185.925;    0.000
326.924; 1622.000;  255.925;    0.000
326.983; 1649.000;  208.925;    0.000
327.043; 1712.000;  241.925;    0.000
327.102; 1616.000;  183.925;    0.000
327.161; 1664.000;  210.925;    0.000
327.221; 1588.000;  213.925;    0.000
327.280; 1662.000;  194.925;    0.000
327.340; 1641.000;  212.925;    0.000
327.399; 1719.000;  209.925;    0.000
327.459; 1661.000;  229.925;    0.000
327.518; 1627.000;  196.925;    0.000
327.577; 1532.000;  197.925;    0.000
327.637; 1612.000;  210.925;    0.000
327.696; 1621.000;  196.925;    0.000
327.755; 1600.000;  216.925;    0.000
327.815; 1593.000;  240.925;    0.000
327.874; 1619.000;  250.925;    0.000
327.933; 1563.000;  229.925;    0.000
327.993; 1578.000;  202.925;    0.000
328.052; 1581.000;  178.925;    0.000
328.111; 1682.000;  230.925;    0.000
328.171; 1631.000;  207.925;    0.000
328.230; 1605.000;  170.925;    0.000
328.289; 1710.000;  205.925;    0.000
328.349; 1644.000;  235.925;    0.000
328.408; 1708.000;  231.925;    0.000
328.467; 1555.000;  217.925;    0.000
328.526; 1654.000;  239.925;    0.000
328.586; 1588.000;  214.925;    0.000
328.645; 1739.000;  205.925;    0.000
328.704; 1729.000;  211.925;    0.000
328.763; 1565.000;  208.925;    0.000
328.822; 1660.000;  251.925;    0.000
328.882; 1617.000;  211.925;    0.000
328.941; 1699.000;  232.925;    0.000
329.000; 1640.000;  235.925;    0.000
329.059; 1634.000;  222.925;    0.000
329.118; 1611.000;  265.925;    0.000
329.177; 1576.000;  237.925;    0.000
329.237; 1613.000;  258.925;    0.000
329.296; 1729.000;  225.925;    0.000
329.355; 1628.000;  227.925;    0.000
329.414; 1675.000;  212.925;    0.000
329.473; 1655.000;  250.925;    0.000
329.532; 1642.000;  263.925;    0.000
329.591; 1738.000;  212.925;    0.000
329.650; 1773.000;  219.925;    0.000
329.709; 1663.000;  218.925;    0.000
329.768; 1699.000;  195.925;    0.000
329.827; 1696.000;  223.925;    0.000
329.886; 1786.000;  230.925;    0.000
329.945; 1882.000;  211.925;    0.000
330.004; 1973.000;  247.925;    0.000
330.063; 2011.000;  193.925;    0.000
330.122; 2561.000;  229.925;    0.000
330.181; 3322.000;  223.925;    0.000
330.240; 3532.000;  199.925;    0.000
330.299; 3058.000;  211.925;    0.000
330.358; 2377.000;  198.925;    0.000
330.417; 2090.000;  190.925;    0.000
330.476; 1830.000;  237.925;    0.000
330.535; 1741.000;  239.925;    0.000
330.594; 1864.000;  207.925;    0.000
330.653; 1678.000;  193.925;    0.000
330.712; 1688.000;  225.925;    0.000
330.771; 1624.000;  236.925;    0.000
330.830; 1544.000;  219.925;    0.000
330.889; 1651.000;  211.925;    0.000
330.948; 1624.000;  194.925;    0.000
331.006; 1547.000;  190.925;    0.000
331.065; 1579.000;  192.925;    0.000
331.124; 1603.000;  195.925;    0.000
331.183; 1595.000;  191.925;    0.000
331.242; 1627.000;  203.925;    0.000
331.301; 1539.000;  183.925;    0.000
331.359; 1591.000;  196.925;    0.000
331.418; 1645.000;  209.925;    0.000
331.477; 1669.000;  255.925;    0.000
331.536; 1665.000;  237.925;    0.000
331.595; 1461.000;  217.925;    0.000
331.653; 1529.000;  198.925;    0.000
331.712; 1512.000;  194.925;    0.000
331.771; 1534.000;  229.925;    0.000
331.830; 1518.000;  254.925;    0.000
331.888; 1436.000;  218.925;    0.000
331.947; 1526.000;  211.925;    0.000
332.006; 1539.000;  261.925;    0.000
332.065; 1442.000;  204.925;    0.000
332.123; 1608.000;  225.925;    0.000
332.182; 1581.000;  193.925;    0.000
332.241; 1498.000;  201.925;    0.000
332.299; 1549.000;  182.925;    0.000
332.358; 1654.000;  244.925;    0.000
332.417; 1609.000;  218.925;    0.000
332.475; 1494.000;  218.925;    0.000
332.534; 1578.000;  228.925;    0.000
332.592; 1518.000;  199.925;    0.000
332.651; 1590.000;  204.925;    0.000
332.710; 1600.000;  217.925;    0.000
332.768; 1664.000;  195.925;    0.000
332.827; 1608.000;  182.925;    0.000
332.885; 1538.000;  247.925;    0.000
332.944; 1538.000;  170.925;    0.000
333.003; 1587.000;  200.925;    0.000
333.061; 1633.000;  243.925;    0.000
333.120; 1689.000;  235.925;    0.000
333.178; 1686.000;  195.925;    0.000
333.237; 1590.000;  217.925;    0.000
333.295; 1735.000;  252.925;    0.000
333.354; 1604.000;  201.925;    0.000
333.412; 1616.000;  181.925;    0.000
333.471; 1728.000;  239.925;    0.000
333.529; 1686.000;  214.925;    0.000
333.588; 1723.000;  232.925;    0.000
333.646; 1713.000;  202.925;    0.000
333.705; 1737.000;  232.925;    0.000
333.763; 1749.000;  215.925;    0.000
333.822; 1642.000;  187.925;    0.000
333.880; 1649.000;  186.925;    0.000
333.938; 1766.000;  185.925;    0.000
333.997; 1700.000;  234.925;    0.000
334.055; 1712.000;  255.925;    0.000
334.114; 1860.000;  225.925;    0.000
334.172; 1532.000;  209.925;    0.000
334.230; 1676.000;  194.925;    0.000
334.289; 1689.000;  213.925;    0.000
334.347; 1561.000;  235.925;    0.000
334.405; 1657.000;  242.925;    0.000
334.464; 1607.000;  208.925;    0.000
334.522; 1657.000;  197.925;    0.000
334.580; 1576.000;  204.925;    0.000
334.639; 1544.000;  217.925;    0.000
334.697; 1608.000;  183.925;    0.000
334.755; 1641.000;  196.925;    0.000
334.814; 1556.000;  216.925;    0.000
334.872; 1629.000;  190.925;    0.000
334.930; 1623.000;  162.925;    0.000
334.988; 1653.000;  261.925;    0.000
335.047; 1544.000;  220.925;    0.000
335.105; 1529.000;  190.925;    0.000
335.163; 1638.000;  201.925;    0.000
335.221; 1589.000;  213.925;    0.000
335.280; 1512.000;  202.925;    0.000
335.338; 1663.000;  210.925;    0.000
335.396; 1604.000;  255.925;    0.000
335.454; 1622.000;  216.925;    0.000
335.512; 1534.000;  242.925;    0.000
335.570; 1583.000;  227.925;    0.000
335.629; 1639.000;  225.925;    0.000
335.687; 1591.000;  227.925;    0.000
335.745; 1612.000;  194.925;    0.000
335.803; 1678.000;  221.925;    0.000
335.861; 1683.000;  217.925;    0.000
335.919; 1641.000;  214.925;    0.000
335.977; 1635.000;  209.925;    0.000
336.035; 1679.000;  215.925;    0.000
336.094; 1566.000;  198.925;    0.000
336.152; 1651.000;  222.925;    0.000
336.210; 1604.000;  225.925;    0.000
336.268; 1551.000;  234.925;    0.000
336.326; 1643.000;  209.925;    0.000
336.384; 1604.000;  271.925;    0.000
336.442; 1585.000;  207.925;    0.000
336.500; 1579.000;  226.925;    0.000
336.558; 1635.000;  219.925;    0.000
336.616; 1695.000;  260.925;    0.000
336.674; 1511.000;  205.925;    0.000
336.732; 1484.000;  225.925;    0.000
336.790; 1687.000;  191.925;    0.000
336.848; 1677.000;  219.925;    0.000
336.906; 1591.000;  230.925;    0.000
336.964; 1643.000;  226.925;    0.000
337.022; 1641.000;  266.925;    0.000
337.080; 1703.000;  231.925;    0.000
337.138; 1674.000;  249.925;    0.000
337.195; 1543.000;  207.925;    0.000
337.253; 1575.000;  207.925;    0.000
337.311; 1622.000;  225.925;    0.000
337.369; 1541.000;  211.925;    0.000
337.427; 1490.000;  196.925;    0.000
337.485; 1617.000;  269.925;    0.000
337.543; 1563.000;  227.925;    0.000
337.601; 1586.000;  260.925;    0.000
337.658; 1566.000;  237.925;    0.000
337.716; 1492.000;  222.925;    0.000
337.774; 1478.000;  256.925;    0.000
337.832; 1677.000;  223.925;    0.000
337.890; 1464.000;  188.925;    0.000
337.947; 1598.000;  212.925;    0.000
338.005; 1621.000;  217.925;    0.000
338.063; 1510.000;  200.925;    0.000
338.121; 1572.000;  217.925;    0.000
338.178; 1521.000;  236.925;    0.000
338.236; 1582.000;  218.925;    0.000
338.294; 1574.000;  238.925;    0.000
338.352; 1554.000;  266.925;    0.000
338.409; 1511.000;  240.925;    0.000
338.467; 1536.000;  210.925;    0.000
338.525; 1546.000;  255.925;    0.000
338.583; 1570.000;  239.925;    0.000
338.640; 1528.000;  243.925;    0.000
338.698; 1519.000;  204.925;    0.000
338.756; 1529.000;  219.925;    0.000
338.813; 1568.000;  227.925;    0.000
338.871; 1566.000;  227.925;    0.000
338.928; 1505.000;  211.925;    0.000
338.986; 1501.000;  254.925;    0.000
339.044; 1522.000;  207.925;    0.000
339.101; 1489.000;  229.925;    0.000
339.159; 1494.000;  237.925;    0.000
339.216; 1570.000;  231.925;    0.000
339.274; 1514.000;  301.925;    0.000
339.332; 1488.000;  259.925;    0.000
339.389; 1516.000;  258.925;    0.000
339.447; 1526.000;  226.925;    0.000
339.504; 1510.000;  229.925;    0.000
339.562; 1432.000;  244.925;    0.000
339.619; 1585.000;  265.925;    0.000
339.677; 1675.000;  253.925;    0.000
339.734; 1488.000;  191.925;    0.000
339.792; 1526.000;  238.925;    0.000
339.849; 1591.000;  236.925;    0.000
339.907; 1502.000;  254.925;    0.000
339.964; 1479.000;  196.925;    0.000
340.022; 1489.000;  247.925;    0.000
340.079; 1582.000;  275.925;    0.000
340.137; 1451.000;  248.925;    0.000
340.194; 1558.000;  263.925;    0.000
340.252; 1539.000;  266.925;    0.000
340.309; 1594.000;  211.925;    0.000
340.366; 1502.000;  237.925;    0.000
340.424; 1569.000;  260.925;    0.000
340.481; 1574.000;  255.925;    0.000
340.538; 1481.000;  235.925;    0.000
340.596; 1492.000;  225.925;    0.000
340.653; 1588.000;  230.925;    0.000
340.711; 1554.000;  272.925;    0.000
340.768; 1720.000;  253.925;    0.000
340.825; 1530.000;  201.925;    0.000
340.883; 1661.000;  232.925;    0.000
340.940; 1611.000;  247.925;    0.000
340.997; 1514.000;  244.925;    0.000
341.054; 1449.000;  244.925;    0.000
341.112; 1534.000;  258.925;    0.000
341.169; 1528.000;  238.925;    0.000
341.226; 1499.000;  213.925;    0.000
341.284; 1488.000;  240.925;    0.000
341.341; 1498.000;  194.925;    0.000
341.398; 1406.000;  191.925;    0.000
341.455; 1485.000;  227.925;    0.000
341.512; 1479.000;  238.925;    0.000
341.570; 1475.000;  236.925;    0.000
341.627; 1470.000;  241.925;    0.000
341.684; 1436.000;  225.925;    0.000
341.741; 1490.000;  299.925;    0.000
341.798; 1525.000;  265.925;    0.000
341.856; 1439.000;  230.925;    0.000
341.913; 1556.000;  234.925;    0.000
341.970; 1549.000;  260.925;    0.000
342.027; 1522.000;  255.925;    0.000
342.084; 1496.000;  260.925;    0.000
342.141; 1585.000;  263.925;    0.000
342.198; 1685.000;  245.925;    0.000
342.255; 1554.000;  210.925;    0.000
342.313; 1558.000;  251.925;    0.000
342.370; 1575.000;  234.925;    0.000
342.427; 1636.000;  249.925;    0.000
342.484; 1536.000;  254.925;    0.000
342.541; 1620.000;  229.925;    0.000
342.598; 1528.000;  255.925;    0.000
342.655; 1567.000;  225.925;    0.000
342.712; 1555.000;  224.925;    0.000
342.769; 1459.000;  215.925;    0.000
342.826; 1531.000;  240.925;    0.000
342.883; 1565.000;  233.925;    0.000
342.940; 1421.000;  212.925;    0.000
342.997; 1559.000;  236.925;    0.000
343.054; 1477.000;  255.925;    0.000
343.111; 1485.000;  228.925;    0.000
343.168; 1620.000;  230.925;    0.000
343.225; 1578.000;  258.925;    0.000
343.282; 1531.000;  202.925;    0.000
343.339; 1554.000;  253.925;    0.000
343.395; 1614.000;  232.925;    0.000
343.452; 1657.000;  253.925;    0.000
343.509; 1584.000;  213.925;    0.000
343.566; 1629.000;  259.925;    0.000
343.623; 1576.000;  244.925;    0.000
343.680; 1644.000;  232.925;    0.000
343.737; 1644.000;  222.925;    0.000
343.794; 1621.000;  204.925;    0.000
343.850; 1642.000;  249.925;    0.000
343.907; 1633.000;  212.925;    0.000
343.964; 1745.000;  226.925;    0.000
344.021; 1873.000;  251.925;    0.000
344.078; 1986.000;  246.925;    0.000
344.134; 1740.000;  218.925;    0.000
344.191; 1756.000;  244.925;    0.000
344.248; 1646.000;  211.925;    0.000
344.305; 1658.000;  221.925;    0.000
344.361; 1726.000;  247.925;    0.000
344.418; 1661.000;  265.925;    0.000
344.475; 1617.000;  254.925;    0.000
344.532; 1720.000;  233.925;    0.000
344.588; 1596.000;  236.925;    0.000
344.645; 1686.000;  249.925;    0.000
344.702; 1632.000;  220.925;    0.000
344.758; 1616.000;  255.925;    0.000
344.815; 1553.000;  236.925;    0.000
344.872; 1567.000;  218.925;    0.000
344.928; 1762.000;  230.925;    0.000
344.985; 1623.000;  222.925;    0.000
345.042; 1651.000;  199.925;    0.000
345.098; 1632.000;  226.925;    0.000
345.155; 1551.000;  245.925;    0.000
345.212; 1590.000;  225.925;    0.000
345.268; 1633.000;  237.925;    0.000
345.325; 1681.000;  213.925;    0.000
345.381; 1655.000;  267.925;    0.000
345.438; 1695.000;  240.925;    0.000
345.495; 1630.000;  254.925;    0.000
345.551; 1620.000;  248.925;    0.000
345.608; 1580.000;  196.925;    0.000
345.664; 1569.000;  245.925;    0.000
345.721; 1613.000;  252.925;    0.000
345.777; 1564.000;  245.925;    0.000
345.834; 1515.000;  210.925;    0.000
345.890; 1629.000;  244.925;    0.000
345.947; 1606.000;  238.925;    0.000
346.003; 1638.000;  224.925;    0.000
346.060; 1545.000;  206.925;    0.000
346.116; 1561.000;  237.925;    0.000
346.173; 1636.000;  242.925;    0.000
346.229; 1600.000;  269.925;    0.000
346.285; 1578.000;  262.925;    0.000
346.342; 1652.000;  263.925;    0.000
346.398; 1626.000;  224.925;    0.000
346.455; 1619.000;  237.925;    0.000
346.511; 1727.000;  216.925;    0.000
346.567; 1668.000;  211.925;    0.000
346.624; 1603.000;  225.925;    0.000
346.680; 1552.000;  242.925;    0.000
346.737; 1645.000;  244.925;    0.000
346.793; 1661.000;  260.925;    0.000
346.849; 1677.000;  251.925;    0.000
346.906; 1593.000;  260.925;    0.000
346.962; 1651.000;  267.925;    0.000
347.018; 1694.000;  246.925;    0.000
347.074; 1628.000;  272.925;    0.000
347.131; 1614.000;  211.925;    0.000
347.187; 1600.000;  240.925;    0.000
347.243; 1771.000;  233.925;    0.000
347.300; 1626.000;  225.925;    0.000
347.356; 1657.000;  236.925;    0.000
347.412; 1644.000;  237.925;    0.000
347.468; 1739.000;  284.925;    0.000
347.524; 1753.000;  252.925;    0.000
347.581; 1730.000;  278.925;    0.000
347.637; 1724.000;  262.925;    0.000
347.693; 1675.000;  268.925;    0.000
347.749; 1525.000;  260.925;    0.000
347.805; 1524.000;  224.925;    0.000
347.862; 1646.000;  243.925;    0.000
347.918; 1653.000;  257.925;    0.000
347.974; 1671.000;  248.925;    0.000
348.030; 1652.000;  242.925;    0.000
348.086; 1679.000;  234.925;    0.000
348.142; 1658.000;  239.925;    0.000
348.198; 1720.000;  260.925;    0.000
348.254; 1657.000;  262.925;    0.000
348.311; 1659.000;  263.925;    0.000
348.367; 1667.000;  235.925;    0.000
348.423; 1684.000;  205.925;    0.000
348.479; 1685.000;  234.925;    0.000
348.535; 1722.000;  257.925;    0.000
348.591; 1679.000;  267.925;    0.000
348.647; 1637.000;  243.925;    0.000
348.703; 1667.000;  278.925;    0.000
348.759; 1654.000;  259.925;    0.000
348.815; 1676.000;  288.925;    0.000
348.871; 1649.000;  269.925;    0.000
348.927; 1680.000;  239.925;    0.000
348.983; 1737.000;  289.925;    0.000
349.039; 1658.000;  221.925;    0.000
349.095; 1663.000;  252.925;    0.000
349.151; 1606.000;  226.925;    0.000
349.207; 1653.000;  263.925;    0.000
349.263; 1840.000;  194.925;    0.000
349.319; 1600.000;  212.925;    0.000
349.374; 1723.000;  236.925;    0.000
349.430; 1658.000;  229.925;    0.000
349.486; 1712.000;  247.925;    0.000
349.542; 1659.000;  263.925;    0.000
349.598; 1685.000;  248.925;    0.000
349.654; 1707.000;  252.925;    0.000
349.710; 1768.000;  230.925;    0.000
349.766; 1727.000;  201.925;    0.000
349.821; 1677.000;  229.925;    0.000
349.877; 1694.000;  282.925;    0.000
349.933; 1743.000;  240.925;    0.000
349.989; 1735.000;  251.925;    0.000
350.045; 1667.000;  240.925;    0.000
350.100; 1624.000;  256.925;    0.000
350.156; 1720.000;  243.925;    0.000
350.212; 1603.000;  250.925;    0.000
350.268; 1589.000;  251.925;    0.000
350.323; 1697.000;  208.925;    0.000
350.379; 1693.000;  244.925;    0.000
350.435; 1669.000;  237.925;    0.000
350.491; 1577.000;  201.925;    0.000
350.546; 1724.000;  225.925;    0.000
350.602; 1700.000;  260.925;    0.000
350.658; 1776.000;  224.925;    0.000
350.713; 1634.000;  264.925;    0.000
350.769; 1638.000;  196.925;    0.000
350.825; 1697.000;  202.925;    0.000
350.880; 1677.000;  232.925;    0.000
350.936; 1713.000;  242.925;    0.000
350.992; 1664.000;  238.925;    0.000
351.047; 1672.000;  242.925;    0.000
351.103; 1624.000;  199.925;    0.000
351.158; 1706.000;  242.925;    0.000
351.214; 1672.000;  225.925;    0.000
351.270; 1607.000;  197.925;    0.000
351.325; 1649.000;  231.925;    0.000
351.381; 1697.000;  215.925;    0.000
351.436; 1674.000;  233.925;    0.000
351.492; 1631.000;  216.925;    0.000
351.547; 1755.000;  244.925;    0.000
351.603; 1596.000;  249.925;    0.000
351.658; 1610.000;  249.925;    0.000
351.714; 1718.000;  222.925;    0.000
351.769; 1783.000;  222.925;    0.000
351.825; 1751.000;  226.925;    0.000
351.880; 1647.000;  238.925;    0.000
351.936; 1664.000;  230.925;    0.000
351.991; 1760.000;  243.925;    0.000
352.047; 1611.000;  201.925;    0.000
352.102; 1689.000;  243.925;    0.000
352.158; 1733.000;  193.925;    0.000
352.213; 1687.000;  219.925;    0.000
352.268; 1619.000;  205.925;    0.000
352.324; 1579.000;  246.925;    0.000
352.379; 1724.000;  247.925;    0.000
352.434; 1798.000;  252.925;    0.000
352.490; 1737.000;  205.925;    0.000
352.545; 1677.000;  262.925;    0.000
352.601; 1875.000;  229.925;    0.000
352.656; 1743.000;  207.925;    0.000
352.711; 1784.000;  228.925;    0.000
352.767; 1632.000;  216.925;    0.000
352.822; 1724.000;  219.925;    0.000
352.877; 1735.000;  234.925;    0.000
352.932; 1715.000;  249.925;    0.000
352.988; 1641.000;  196.925;    0.000
353.043; 1695.000;  228.925;    0.000
353.098; 1759.000;  231.925;    0.000
353.153; 1681.000;  235.925;    0.000
353.209; 1785.000;  250.925;    0.000
353.264; 1810.000;  212.925;    0.000
353.319; 1699.000;  234.925;    0.000
353.374; 1703.000;  245.925;    0.000
353.430; 1766.000;  261.925;    0.000
353.485; 1732.000;  249.925;    0.000
353.540; 1760.000;  260.925;    0.000
353.595; 1761.000;  219.925;    0.000
353.650; 1739.000;  242.925;    0.000
353.705; 1744.000;  244.925;    0.000
353.761; 1639.000;  242.925;    0.000
353.816; 1759.000;  214.925;    0.000
353.871; 1744.000;  237.925;    0.000
353.926; 1855.000;  233.925;    0.000
353.981; 1681.000;  250.925;    0.000
354.036; 1745.000;  239.925;    0.000
354.091; 1765.000;  289.925;    0.000
354.146; 1781.000;  282.925;    0.000
354.201; 1787.000;  244.925;    0.000
354.256; 1670.000;  257.925;    0.000
354.311; 1806.000;  305.925;    0.000
354.367; 1722.000;  220.925;    0.000
354.422; 1792.000;  261.925;    0.000
354.477; 1735.000;  212.925;    0.000
354.532; 1788.000;  254.925;    0.000
354.587; 1640.000;  252.925;    0.000
354.642; 1694.000;  210.925;    0.000
354.697; 1793.000;  232.925;    0.000
354.751; 1709.000;  254.925;    0.000
354.806; 1809.000;  233.925;    0.000
354.861; 1829.000;  244.925;    0.000
354.916; 1774.000;  235.925;    0.000
354.971; 1680.000;  258.925;    0.000
355.026; 1790.000;  251.925;    0.000
355.081; 1802.000;  254.925;    0.000
355.136; 1794.000;  212.925;    0.000
355.191; 1728.000;  211.925;    0.000
355.246; 1727.000;  237.925;    0.000
355.301; 1824.000;  255.925;    0.000
355.355; 1854.000;  231.925;    0.000
355.410; 1780.000;  224.925;    0.000
355.465; 1741.000;  235.925;    0.000
355.520; 1709.000;  244.925;    0.000
355.575; 1803.000;  267.925;    0.000
355.630; 1912.000;  255.925;    0.000
355.684; 1623.000;  254.925;    0.000
355.739; 1692.000;  217.925;    0.000
355.794; 1774.000;  206.925;    0.000
355.849; 1715.000;  221.925;    0.000
355.904; 1747.000;  257.925;    0.000
355.958; 1767.000;  221.925;    0.000
356.013; 1729.000;  192.925;    0.000
356.068; 1766.000;  267.925;    0.000
356.123; 1869.000;  218.925;    0.000
356.177; 1751.000;  236.925;    0.000
356.232; 1781.000;  236.925;    0.000
356.287; 1786.000;  246.925;    0.000
356.341; 1828.000;  241.925;    0.000
356.396; 1668.000;  219.925;    0.000
356.451; 1931.000;  244.925;    0.000
356.505; 1944.000;  248.925;    0.000
356.560; 2060.000;  267.925;    0.000
356.615; 1765.000;  258.925;    0.000
356.669; 1875.000;  291.925;    0.000
356.724; 1865.000;  272.925;    0.000
356.778; 1721.000;  244.925;    0.000
356.833; 1703.000;  223.925;    0.000
356.888; 1792.000;  245.925;    0.000
356.942; 2117.000;  221.925;    0.000
356.997; 2324.000;  254.925;    0.000
357.051; 2098.000;  244.925;    0.000
357.106; 1937.000;  227.925;    0.000
357.160; 1791.000;  176.925;    0.000
357.215; 1784.000;  234.925;    0.000
357.269; 1791.000;  233.925;    0.000
357.324; 1740.000;  232.925;    0.000
357.378; 1760.000;  211.925;    0.000
357.433; 1713.000;  252.925;    0.000
357.487; 1845.000;  227.925;    0.000
357.542; 1721.000;  246.925;    0.000
357.596; 1823.000;  260.925;    0.000
357.651; 1799.000;  301.925;    0.000
357.705; 1734.000;  230.925;    0.000
357.760; 1934.000;  211.925;    0.000
357.814; 2476.000;  265.925;    0.000
357.868; 2605.000;  220.925;    0.000
357.923; 2143.000;  220.925;    0.000
357.977; 1826.000;  245.925;    0.000
358.032; 2046.000;  247.925;    0.000
358.086; 2511.000;  242.925;    0.000
358.140; 2650.000;  270.925;    0.000
358.195; 2117.000;  242.925;    0.000
358.249; 1836.000;  238.925;    0.000
358.303; 1802.000;  285.925;    0.000
358.358; 1713.000;  265.925;    0.000
358.412; 1976.000;  265.925;    0.000
358.466; 1984.000;  257.925;    0.000
358.521; 1953.000;  251.925;    0.000
358.575; 1914.000;  254.925;    0.000
358.629; 1812.000;  278.925;    0.000
358.683; 1859.000;  288.925;    0.000
358.738; 1931.000;  302.925;    0.000
358.792; 1764.000;  239.925;    0.000
358.846; 1756.000;  293.925;    0.000
358.900; 1805.000;  271.925;    0.000
358.954; 1707.000;  300.925;    0.000
359.009; 1701.000;  279.925;    0.000
359.063; 1705.000;  249.925;    0.000
359.117; 1811.000;  264.925;    0.000
359.171; 1872.000;  279.925;    0.000
359.225; 1877.000;  276.925;    0.000
359.280; 2254.000;  237.925;    0.000
359.334; 2558.000;  280.925;    0.000
359.388; 2261.000;  282.925;    0.000
359.442; 1861.000;  243.925;    0.000
359.496; 1650.000;  204.925;    0.000
359.550; 1758.000;  308.925;    0.000
359.604; 1942.000;  264.925;    0.000
359.658; 1804.000;  247.925;    0.000
359.712; 1862.000;  273.925;    0.000
359.766; 1700.000;  212.925;    0.000
359.820; 1754.000;  228.925;    0.000
359.875; 1772.000;  248.925;    0.000
359.929; 1803.000;  271.925;    0.000
359.983; 1690.000;  274.925;    0.000
360.037; 1797.000;  262.925;    0.000
360.091; 1836.000;  302.925;    0.000
360.145; 1765.000;  244.925;    0.000
360.199; 1731.000;  253.925;    0.000
360.253; 1778.000;  285.925;    0.000
360.306; 1854.000;  287.925;    0.000
360.360; 1823.000;  267.925;    0.000
360.414; 1894.000;  250.925;    0.000
360.468; 2307.000;  270.925;    0.000
360.522; 2372.000;  276.925;    0.000
360.576; 2286.000;  269.925;    0.000
360.630; 1941.000;  281.925;    0.000
360.684; 1930.000;  291.925;    0.000
360.738; 1969.000;  325.925;    0.000
360.792; 1841.000;  320.925;    0.000
360.846; 2144.000;  276.925;    0.000
360.899; 2042.000;  314.925;    0.000
360.953; 2032.000;  275.925;    0.000
361.007; 1856.000;  292.925;    0.000
361.061; 1736.000;  278.925;    0.000
361.115; 1797.000;  264.925;    0.000
361.168; 1822.000;  317.925;    0.000
361.222; 1783.000;  277.925;    0.000
361.276; 1837.000;  274.925;    0.000
361.330; 1761.000;  269.925;    0.000
361.384; 1772.000;  280.925;    0.000
361.437; 1816.000;  304.925;    0.000
361.491; 1737.000;  256.925;    0.000
361.545; 1782.000;  293.925;    0.000
361.599; 1810.000;  284.925;    0.000
361.652; 1823.000;  274.925;    0.000
361.706; 1753.000;  284.925;    0.000
361.760; 1830.000;  260.925;    0.000
361.813; 2004.000;  272.925;    0.000
361.867; 2136.000;  300.925;    0.000
361.921; 1949.000;  275.925;    0.000
361.974; 1830.000;  258.925;    0.000
362.028; 1716.000;  248.925;    0.000
362.082; 1777.000;  252.925;    0.000
362.135; 1735.000;  240.925;    0.000
362.189; 1754.000;  259.925;    0.000
362.242; 1908.000;  267.925;    0.000
362.296; 1843.000;  280.925;    0.000
362.350; 1776.000;  282.925;    0.000
362.403; 1801.000;  288.925;    0.000
362.457; 1726.000;  253.925;    0.000
362.510; 1741.000;  323.925;    0.000
362.564; 1753.000;  286.925;    0.000
362.617; 1767.000;  317.925;    0.000
362.671; 1818.000;  286.925;    0.000
362.724; 1744.000;  274.925;    0.000
362.778; 1772.000;  295.925;    0.000
362.831; 1772.000;  289.925;    0.000
362.885; 1825.000;  318.925;    0.000
362.938; 1802.000;  271.925;    0.000
362.992;  325.000;  285.925;    0.000
363.045;  267.000;  291.925;    0.000
363.099;  293.000;  276.925;    0.000
363.152;  316.000;  309.925;    0.000
363.205;  282.000;  263.925;    0.000
363.259;  250.000;  288.925;    0.000
363.312;  327.000;  333.925;    0.000
363.366;  292.000;  328.925;    0.000
363.419;  307.000;  328.925;    0.000
363.472;  298.000;  295.925;    0.000
363.526;  312.000;  334.925;    0.000
363.579;  303.000;  312.925;    0.000
363.632;  287.000;  274.925;    0.000
363.686;  291.000;  282.925;    0.000
363.739;  266.000;  289.925;    0.000
363.792;  295.000;  287.925;    0.000

