
Integration time [ms]:   0.300
Averaging Nr. [scans]: 1
Smoothing Nr. [pixels]: 0
Data measured with spectrometer [name]: NIR
Wave   ;Sample   ;Dark     ;Reference
[nm]   ;[counts] ;[counts] ;[counts] 

691.496;   52.400;  102.875;    0.000
691.696;   85.400;  181.875;    0.000
691.896;   52.400;  138.875;    0.000
692.096;   92.400;  182.875;    0.000
692.296;   27.400;  145.875;    0.000
692.496;   87.400;  154.875;    0.000
692.695;   44.400;  108.875;    0.000
692.895;  107.400;  176.875;    0.000
693.095;   27.400;  138.875;    0.000
693.295;   71.400;  192.875;    0.000
693.495;   65.400;  170.875;    0.000
693.695;   57.400;  147.875;    0.000
693.894;   85.400;  191.875;    0.000
694.094;   61.400;  148.875;    0.000
694.294;   55.400;  147.875;    0.000
694.494;  308.400;  140.875;    0.000
694.693; 2122.400;  137.875;    0.000
694.893; 2326.400;  141.875;    0.000
695.093; 2448.400;  105.875;    0.000
695.293; 2393.400;  115.875;    0.000
695.492; 2509.400;   81.875;    0.000
695.692; 2426.400;  162.875;    0.000
695.891; 2584.400;  162.875;    0.000
696.091; 2513.400;  166.875;    0.000
696.291; 2494.400;  143.875;    0.000
696.490; 2566.400;  170.875;    0.000
696.690; 2460.400;  142.875;    0.000
696.889; 2501.400;  186.875;    0.000
697.089; 2498.400;  120.875;    0.000
697.288; 2418.400;  215.875;    0.000
697.488; 2670.400;  178.875;    0.000
697.687; 2401.400;  170.875;    0.000
697.887; 2484.400;  140.875;    0.000
698.086; 2568.400;  131.875;    0.000
698.286; 2408.400;  117.875;    0.000
698.485; 2606.400;  136.875;    0.000
698.684; 2500.400;  126.875;    0.000
698.884; 2591.400;  161.875;    0.000
699.083; 2537.400;   95.875;    0.000
699.282; 2643.400;  120.875;    0.000
699.482; 2662.400;  131.875;    0.000
699.681; 2381.400;  168.875;    0.000
699.880; 2565.400;  154.875;    0.000
700.080; 2592.400;  149.875;    0.000
700.279; 2483.400;   99.875;    0.000
700.478; 2550.400;  157.875;    0.000
700.677; 2518.400;  111.875;    0.000
700.877; 2532.400;  126.875;    0.000
701.076; 2583.400;  142.875;    0.000
701.275; 2477.400;  107.875;    0.000
701.474; 2606.400;   72.875;    0.000
701.673; 2676.400;   87.875;    0.000
701.872; 2505.400;  170.875;    0.000
702.071; 2553.400;  136.875;    0.000
702.271; 2700.400;  121.875;    0.000
702.470; 2624.400;  139.875;    0.000
702.669; 2547.400;  121.875;    0.000
702.868; 2728.400;  146.875;    0.000
703.067; 2590.400;  159.875;    0.000
703.266; 2797.400;  122.875;    0.000
703.465; 2753.400;  121.875;    0.000
703.664; 2709.400;  144.875;    0.000
703.863; 2587.400;  140.875;    0.000
704.062; 2614.400;  109.875;    0.000
704.260; 2612.400;  164.875;    0.000
704.459; 2664.400;  124.875;    0.000
704.658; 2640.400;  109.875;    0.000
704.857; 2593.400;  149.875;    0.000
705.056; 2536.400;  112.875;    0.000
705.255; 2501.400;   95.875;    0.000
705.454; 2639.400;  105.875;    0.000
705.652; 2573.400;  134.875;    0.000
705.851; 2748.400;   92.875;    0.000
706.050; 2929.400;  127.875;    0.000
706.249; 2650.400;  111.875;    0.000
706.447; 2621.400;   98.875;    0.000
706.646; 2594.400;  108.875;    0.000
706.845; 2903.400;   95.875;    0.000
707.043; 2820.400;   95.875;    0.000
707.242; 2706.400;   97.875;    0.000
707.441; 2668.400;  142.875;    0.000
707.639; 2604.400;  121.875;    0.000
707.838; 2667.400;  141.875;    0.000
708.037; 2689.400;  125.875;    0.000
708.235; 2732.400;  100.875;    0.000
708.434; 2645.400;  106.875;    0.000
708.632; 2675.400;   86.875;    0.000
708.831; 2845.400;  138.875;    0.000
709.029; 2668.400;   86.875;    0.000
709.228; 2767.400;  103.875;    0.000
709.426; 2666.400;  146.875;    0.000
709.625; 2755.400;  136.875;    0.000
709.823; 2680.400;  114.875;    0.000
710.022; 2655.400;  144.875;    0.000
710.220; 2731.400;  109.875;    0.000
710.418; 2896.400;  116.875;    0.000
710.617; 2637.400;   67.875;    0.000
710.815; 2771.400;  104.875;    0.000
711.013; 2869.400;  109.875;    0.000
711.212; 2791.400;  106.875;    0.000
711.410; 2855.400;   95.875;    0.000
711.608; 2754.400;  155.875;    0.000
711.807; 2909.400;  103.875;    0.000
712.005; 2810.400;  104.875;    0.000
712.203; 2767.400;   94.875;    0.000
712.401; 2803.400;  125.875;    0.000
712.599; 2750.400;  127.875;    0.000
712.798; 3000.400;  141.875;    0.000
712.996; 2696.400;   85.875;    0.000
713.194; 2959.400;   96.875;    0.000
713.392; 2815.400;   54.875;    0.000
713.590; 2882.400;  123.875;    0.000
713.788; 2797.400;  130.875;    0.000
713.986; 2873.400;  104.875;    0.000
714.184; 2941.400;   91.875;    0.000
714.382; 3039.400;  120.875;    0.000
714.580; 2870.400;   71.875;    0.000
714.778; 3050.400;   92.875;    0.000
714.976; 2952.400;  129.875;    0.000
715.174; 2954.400;   99.875;    0.000
715.372; 3179.400;  119.875;    0.000
715.570; 3484.400;   95.875;    0.000
715.768; 3802.400;  113.875;    0.000
715.966; 3937.400;   64.875;    0.000
716.164; 3704.400;  135.875;    0.000
716.362; 3711.400;  125.875;    0.000
716.560; 3503.400;  135.875;    0.000
716.758; 3188.400;   84.875;    0.000
716.955; 3250.400;  109.875;    0.000
717.153; 3249.400;   73.875;    0.000
717.351; 3121.400;  110.875;    0.000
717.549; 3131.400;  149.875;    0.000
717.746; 3241.400;  121.875;    0.000
717.944; 3076.400;  128.875;    0.000
718.142; 3116.400;  124.875;    0.000
718.340; 2976.400;   96.875;    0.000
718.537; 3177.400;  138.875;    0.000
718.735; 3196.400;  144.875;    0.000
718.933; 3065.400;   97.875;    0.000
719.130; 3217.400;  109.875;    0.000
719.328; 3085.400;  123.875;    0.000
719.525; 3090.400;  118.875;    0.000
719.723; 3051.400;  117.875;    0.000
719.920; 2974.400;   72.875;    0.000
720.118; 3162.400;   92.875;    0.000
720.316; 3196.400;  141.875;    0.000
720.513; 3114.400;   98.875;    0.000
720.711; 3019.400;  146.875;    0.000
720.908; 3076.400;  113.875;    0.000
721.105; 3046.400;  157.875;    0.000
721.303; 3079.400;  106.875;    0.000
721.500; 2980.400;   88.875;    0.000
721.698; 3019.400;   88.875;    0.000
721.895; 3075.400;   94.875;    0.000
722.092; 2934.400;   82.875;    0.000
722.290; 3115.400;  136.875;    0.000
722.487; 3081.400;   67.875;    0.000
722.684; 3363.400;  115.875;    0.000
722.882; 3231.400;  104.875;    0.000
723.079; 3046.400;  122.875;    0.000
723.276; 3115.400;   91.875;    0.000
723.473; 3202.400;   89.875;    0.000
723.671; 3171.400;   97.875;    0.000
723.868; 3101.400;  117.875;    0.000
724.065; 3240.400;  102.875;    0.000
724.262; 3141.400;  137.875;    0.000
724.459; 3202.400;   48.875;    0.000
724.656; 2993.400;  122.875;    0.000
724.854; 3294.400;   96.875;    0.000
725.051; 3159.400;  120.875;    0.000
725.248; 3174.400;  146.875;    0.000
725.445; 3010.400;  117.875;    0.000
725.642; 3142.400;  106.875;    0.000
725.839; 3286.400;  143.875;    0.000
726.036; 3079.400;   79.875;    0.000
726.233; 3202.400;   90.875;    0.000
726.430; 3220.400;  124.875;    0.000
726.627; 3242.400;   98.875;    0.000
726.824; 3176.400;   91.875;    0.000
727.021; 3155.400;  131.875;    0.000
727.218; 2962.400;  110.875;    0.000
727.414; 3345.400;   83.875;    0.000
727.611; 3154.400;   86.875;    0.000
727.808; 3115.400;  131.875;    0.000
728.005; 3235.400;  105.875;    0.000
728.202; 3204.400;  128.875;    0.000
728.399; 3192.400;  113.875;    0.000
728.595; 3144.400;  102.875;    0.000
728.792; 2981.400;   91.875;    0.000
728.989; 3239.400;  122.875;    0.000
729.186; 3293.400;  103.875;    0.000
729.382; 3207.400;  106.875;    0.000
729.579; 3197.400;  114.875;    0.000
729.776; 3302.400;  115.875;    0.000
729.972; 3171.400;  108.875;    0.000
730.169; 3282.400;  111.875;    0.000
730.366; 3139.400;  100.875;    0.000
730.562; 3182.400;   86.875;    0.000
730.759; 3236.400;   93.875;    0.000
730.955; 3191.400;  127.875;    0.000
731.152; 3236.400;   99.875;    0.000
731.348; 3245.400;   97.875;    0.000
731.545; 3238.400;   98.875;    0.000
731.741; 3455.400;  130.875;    0.000
731.938; 3299.400;  115.875;    0.000
732.134; 3271.400;  107.875;    0.000
732.331; 3136.400;   80.875;    0.000
732.527; 3328.400;  108.875;    0.000
732.724; 3193.400;  104.875;    0.000
732.920; 3265.400;  109.875;    0.000
733.116; 3199.400;  117.875;    0.000
733.313; 3281.400;   81.875;    0.000
733.509; 3363.400;   87.875;    0.000
733.705; 3068.400;  143.875;    0.000
733.902; 3308.400;   74.875;    0.000
734.098; 3285.400;   90.875;    0.000
734.294; 3150.400;  104.875;    0.000
734.490; 3265.400;  139.875;    0.000
734.687; 3211.400;  113.875;    0.000
734.883; 3163.400;   72.875;    0.000
735.079; 3376.400;  100.875;    0.000
735.275; 3254.400;  113.875;    0.000
735.471; 3064.400;   55.875;    0.000
735.667; 3235.400;  106.875;    0.000
735.863; 3347.400;  131.875;    0.000
736.060; 3373.400;  127.875;    0.000
736.256; 3464.400;   76.875;    0.000
736.452; 3207.400;  127.875;    0.000
736.648; 3377.400;  136.875;    0.000
736.844; 3361.400;  113.875;    0.000
737.040; 3464.400;  125.875;    0.000
737.236; 3447.400;   99.875;    0.000
737.432; 3457.400;   75.875;    0.000
737.628; 3358.400;  155.875;    0.000
737.824; 3576.400;  116.875;    0.000
738.019; 3281.400;   92.875;    0.000
738.215; 3367.400;  113.875;    0.000
738.411; 3468.400;  135.875;    0.000
738.607; 3384.400;   53.875;    0.000
738.803; 3435.400;   79.875;    0.000
738.999; 3460.400;  117.875;    0.000
739.195; 3467.400;  106.875;    0.000
739.390; 3459.400;  125.875;    0.000
739.586; 3315.400;  102.875;    0.000
739.782; 3397.400;  125.875;    0.000
739.978; 3553.400;  124.875;    0.000
740.173; 3583.400;   96.875;    0.000
740.369; 3647.400;  118.875;    0.000
740.565; 3529.400;  128.875;    0.000
740.760; 3610.400;  118.875;    0.000
740.956; 3662.400;  109.875;    0.000
741.152; 3611.400;  151.875;    0.000
741.347; 3781.400;  112.875;    0.000
741.543; 3804.400;  113.875;    0.000
741.738; 3898.400;  128.875;    0.000
741.934; 3900.400;  144.875;    0.000
742.129; 4281.400;  105.875;    0.000
742.325; 5030.400;  137.875;    0.000
742.520; 5723.400;  128.875;    0.000
742.716; 5014.400;  121.875;    0.000
742.911; 4891.400;   75.875;    0.000
743.107; 4706.400;  100.875;    0.000
743.302; 4462.400;   72.875;    0.000
743.498; 4533.400;  137.875;    0.000
743.693; 4534.400;  124.875;    0.000
743.888; 4973.400;  121.875;    0.000
744.084; 5768.400;   93.875;    0.000
744.279; 7828.400;   75.875;    0.000
744.474; 7970.400;  136.875;    0.000
744.670; 6604.400;  109.875;    0.000
744.865; 5610.400;  142.875;    0.000
745.060; 5211.400;   84.875;    0.000
745.255; 5111.400;  149.875;    0.000
745.451; 5076.400;  101.875;    0.000
745.646; 4825.400;  132.875;    0.000
745.841; 4732.400;  126.875;    0.000
746.036; 4787.400;  125.875;    0.000
746.231; 4895.400;  150.875;    0.000
746.426; 5287.400;  118.875;    0.000
746.622; 6538.400;  135.875;    0.000
746.817; 9061.400;  122.875;    0.000
747.012;10629.400;  134.875;    0.000
747.207; 9199.400;  124.875;    0.000
747.402; 7347.400;  122.875;    0.000
747.597; 6522.400;   95.875;    0.000
747.792; 6308.400;  168.875;    0.000
747.987; 5930.400;  110.875;    0.000
748.182; 5621.400;  119.875;    0.000
748.377; 5555.400;   70.875;    0.000
748.572; 5076.400;  113.875;    0.000
748.767; 4681.400;  123.875;    0.000
748.961; 4758.400;  110.875;    0.000
749.156; 4884.400;  135.875;    0.000
749.351; 4507.400;   98.875;    0.000
749.546; 4549.400;  126.875;    0.000
749.741; 4048.400;  129.875;    0.000
749.936; 4316.400;   86.875;    0.000
750.130; 4209.400;   97.875;    0.000
750.325; 4345.400;  110.875;    0.000
750.520; 4036.400;  120.875;    0.000
750.715; 4413.400;  122.875;    0.000
750.909; 4199.400;  120.875;    0.000
751.104; 4156.400;  118.875;    0.000
751.299; 4072.400;  122.875;    0.000
751.493; 4043.400;  129.875;    0.000
751.688; 4216.400;  138.875;    0.000
751.882; 3841.400;   87.875;    0.000
752.077; 4105.400;  142.875;    0.000
752.272; 3971.400;  110.875;    0.000
752.466; 3957.400;  154.875;    0.000
752.661; 3965.400;   96.875;    0.000
752.855; 3880.400;   93.875;    0.000
753.050; 3922.400;  122.875;    0.000
753.244; 3803.400;  110.875;    0.000
753.439; 3790.400;  116.875;    0.000
753.633; 3904.400;  131.875;    0.000
753.828; 3881.400;  130.875;    0.000
754.022; 3658.400;   96.875;    0.000
754.216; 3613.400;  114.875;    0.000
754.411; 3814.400;  145.875;    0.000
754.605; 3683.400;   65.875;    0.000
754.799; 3566.400;  116.875;    0.000
754.994; 3690.400;  117.875;    0.000
755.188; 3972.400;  124.875;    0.000
755.382; 3806.400;   80.875;    0.000
755.576; 3815.400;   90.875;    0.000
755.771; 3634.400;  115.875;    0.000
755.965; 3714.400;  106.875;    0.000
756.159; 3599.400;   87.875;    0.000
756.353; 3760.400;  125.875;    0.000
756.547; 3677.400;  146.875;    0.000
756.742; 3610.400;  111.875;    0.000
756.936; 3738.400;  108.875;    0.000
757.130; 3549.400;  101.875;    0.000
757.324; 3737.400;  114.875;    0.000
757.518; 3616.400;  136.875;    0.000
757.712; 3776.400;  123.875;    0.000
757.906; 3796.400;  115.875;    0.000
758.100; 3920.400;  186.875;    0.000
758.294; 3850.400;  118.875;    0.000
758.488; 3679.400;  167.875;    0.000
758.682; 3501.400;  137.875;    0.000
758.876; 3651.400;  135.875;    0.000
759.070; 3541.400;  132.875;    0.000
759.264; 3766.400;  118.875;    0.000
759.458; 3621.400;  111.875;    0.000
759.651; 3586.400;  142.875;    0.000
759.845; 3515.400;  105.875;    0.000
760.039; 3712.400;   73.875;    0.000
760.233; 3790.400;  156.875;    0.000
760.427; 3658.400;  119.875;    0.000
760.620; 3544.400;  136.875;    0.000
760.814; 3625.400;  126.875;    0.000
761.008; 3595.400;  126.875;    0.000
761.202; 3756.400;  123.875;    0.000
761.395; 3806.400;  141.875;    0.000
761.589; 3677.400;  107.875;    0.000
761.783; 3572.400;  122.875;    0.000
761.976; 3687.400;  120.875;    0.000
762.170; 3763.400;  147.875;    0.000
762.363; 3714.400;  144.875;    0.000
762.557; 3808.400;  119.875;    0.000
762.750; 3721.400;  118.875;    0.000
762.944; 3663.400;  145.875;    0.000
763.138; 3783.400;  123.875;    0.000
763.331; 3720.400;  129.875;    0.000
763.524; 3809.400;  109.875;    0.000
763.718; 3928.400;  150.875;    0.000
763.911; 3865.400;  140.875;    0.000
764.105; 3823.400;   97.875;    0.000
764.298; 3575.400;  128.875;    0.000
764.492; 3986.400;  132.875;    0.000
764.685; 3823.400;   92.875;    0.000
764.878; 3574.400;  111.875;    0.000
765.072; 3761.400;  116.875;    0.000
765.265; 3735.400;  135.875;    0.000
765.458; 3678.400;   69.875;    0.000
765.651; 3765.400;  145.875;    0.000
765.845; 3748.400;   95.875;    0.000
766.038; 3846.400;  147.875;    0.000
766.231; 4367.400;  119.875;    0.000
766.424; 7040.400;  126.875;    0.000
766.617; 8368.400;   92.875;    0.000
766.811; 4605.400;  109.875;    0.000
767.004; 3796.400;  107.875;    0.000
767.197; 3927.400;  171.875;    0.000
767.390; 3829.400;  114.875;    0.000
767.583; 3715.400;  109.875;    0.000
767.776; 4112.400;  130.875;    0.000
767.969; 3833.400;  103.875;    0.000
768.162; 3779.400;  139.875;    0.000
768.355; 3872.400;  142.875;    0.000
768.548; 4081.400;  140.875;    0.000
768.741; 3981.400;   82.875;    0.000
768.934; 4006.400;  107.875;    0.000
769.127; 4119.400;  121.875;    0.000
769.320; 3877.400;  106.875;    0.000
769.513; 4226.400;  145.875;    0.000
769.706; 4474.400;  120.875;    0.000
769.898; 7086.400;  135.875;    0.000
770.091; 5941.400;  146.875;    0.000
770.284; 4262.400;  108.875;    0.000
770.477; 4052.400;  148.875;    0.000
770.670; 4046.400;  163.875;    0.000
770.862; 4284.400;   97.875;    0.000
771.055; 4016.400;  116.875;    0.000
771.248; 4126.400;  143.875;    0.000
771.441; 3945.400;  125.875;    0.000
771.633; 4174.400;  125.875;    0.000
771.826; 4517.400;  132.875;    0.000
772.018; 4209.400;  123.875;    0.000
772.211; 4398.400;  143.875;    0.000
772.404; 4430.400;  144.875;    0.000
772.596; 4258.400;  130.875;    0.000
772.789; 4526.400;  109.875;    0.000
772.981; 4584.400;  151.875;    0.000
773.174; 4516.400;  119.875;    0.000
773.366; 4616.400;  179.875;    0.000
773.559; 4722.400;  106.875;    0.000
773.751; 5010.400;  120.875;    0.000
773.944; 4815.400;  159.875;    0.000
774.136; 4961.400;  131.875;    0.000
774.329; 5053.400;  141.875;    0.000
774.521; 4894.400;  114.875;    0.000
774.713; 5564.400;  169.875;    0.000
774.906; 5481.400;  151.875;    0.000
775.098; 5596.400;   99.875;    0.000
775.290; 5926.400;  166.875;    0.000
775.483; 6134.400;  146.875;    0.000
775.675; 6611.400;  106.875;    0.000
775.867; 6976.400;   91.875;    0.000
776.059; 7273.400;  137.875;    0.000
776.251; 8778.400;  124.875;    0.000
776.444; 9590.400;  168.875;    0.000
776.636;11225.400;  138.875;    0.000
776.828;14429.400;  155.875;    0.000
777.020;22010.400;  160.875;    0.000
777.212;36572.398;  153.875;    0.000
777.404;42868.398;  135.875;    0.000
777.596;38828.398;  144.875;    0.000
777.788;26316.400;  127.875;    0.000
777.980;17844.400;  141.875;    0.000
778.172;14245.400;  138.875;    0.000
778.364;11777.400;  143.875;    0.000
778.556;10229.400;  123.875;    0.000
778.748; 9475.400;  103.875;    0.000
778.940; 8283.400;  176.875;    0.000
779.132; 7750.400;  144.875;    0.000
779.324; 7016.400;   75.875;    0.000
779.516; 6732.400;  117.875;    0.000
779.708; 6021.400;  151.875;    0.000
779.900; 6265.400;  127.875;    0.000
780.091; 5620.400;  155.875;    0.000
780.283; 5469.400;  157.875;    0.000
780.475; 5235.400;  140.875;    0.000
780.667; 5448.400;  141.875;    0.000
780.859; 4986.400;  113.875;    0.000
781.050; 4797.400;  153.875;    0.000
781.242; 4810.400;  118.875;    0.000
781.434; 4587.400;  121.875;    0.000
781.625; 4807.400;  146.875;    0.000
781.817; 4512.400;  154.875;    0.000
782.008; 4474.400;  144.875;    0.000
782.200; 4390.400;  152.875;    0.000
782.392; 4339.400;  160.875;    0.000
782.583; 4211.400;  122.875;    0.000
782.775; 4251.400;  144.875;    0.000
782.966; 4196.400;  143.875;    0.000
783.158; 4016.400;  125.875;    0.000
783.349; 4113.400;  173.875;    0.000
783.541; 3849.400;  166.875;    0.000
783.732; 4157.400;  163.875;    0.000
783.924; 4009.400;  157.875;    0.000
784.115; 4031.400;  158.875;    0.000
784.306; 4054.400;  160.875;    0.000
784.498; 4362.400;  132.875;    0.000
784.689; 3904.400;  181.875;    0.000
784.880; 3930.400;  156.875;    0.000
785.072; 3977.400;  134.875;    0.000
785.263; 3832.400;  155.875;    0.000
785.454; 3880.400;  141.875;    0.000
785.645; 3911.400;  114.875;    0.000
785.837; 3892.400;  137.875;    0.000
786.028; 3720.400;  158.875;    0.000
786.219; 3835.400;  135.875;    0.000
786.410; 3819.400;  152.875;    0.000
786.601; 3781.400;  132.875;    0.000
786.792; 3839.400;  152.875;    0.000
786.984; 3783.400;  162.875;    0.000
787.175; 3865.400;   97.875;    0.000
787.366; 3869.400;  129.875;    0.000
787.557; 3696.400;  135.875;    0.000
787.748; 3731.400;  127.875;    0.000
787.939; 3671.400;  152.875;    0.000
788.130; 3842.400;  182.875;    0.000
788.321; 3968.400;  130.875;    0.000
788.512; 4061.400;  161.875;    0.000
788.703; 3869.400;  127.875;    0.000
788.894; 4017.400;  121.875;    0.000
789.084; 3902.400;  134.875;    0.000
789.275; 3873.400;  108.875;    0.000
789.466; 3734.400;  152.875;    0.000
789.657; 3804.400;  115.875;    0.000
789.848; 3912.400;  150.875;    0.000
790.039; 3966.400;  132.875;    0.000
790.229; 3926.400;  169.875;    0.000
790.420; 4150.400;  159.875;    0.000
790.611; 3709.400;  123.875;    0.000
790.801; 3983.400;  144.875;    0.000
790.992; 3950.400;  177.875;    0.000
791.183; 3706.400;  128.875;    0.000
791.373; 3726.400;  123.875;    0.000
791.564; 3624.400;  131.875;    0.000
791.755; 3777.400;  103.875;    0.000
791.945; 3944.400;  104.875;    0.000
792.136; 3820.400;  115.875;    0.000
792.326; 3912.400;   99.875;    0.000
792.517; 3861.400;  139.875;    0.000
792.707; 3788.400;  155.875;    0.000
792.898; 3809.400;  139.875;    0.000
793.088; 4087.400;  153.875;    0.000
793.279; 3873.400;  137.875;    0.000
793.469; 4182.400;  109.875;    0.000
793.660; 4017.400;  119.875;    0.000
793.850; 4128.400;  119.875;    0.000
794.040; 4391.400;  132.875;    0.000
794.231; 4714.400;  122.875;    0.000
794.421; 5036.400;  124.875;    0.000
794.611; 5860.400;  151.875;    0.000
794.802; 7253.400;  121.875;    0.000
794.992; 7919.400;  139.875;    0.000
795.182; 7830.400;  132.875;    0.000
795.372; 6765.400;  149.875;    0.000
795.563; 6043.400;  153.875;    0.000
795.753; 5636.400;  120.875;    0.000
795.943; 5125.400;  121.875;    0.000
796.133; 4764.400;   97.875;    0.000
796.323; 4706.400;  122.875;    0.000
796.513; 4235.400;  142.875;    0.000
796.703; 4303.400;  125.875;    0.000
796.893; 4210.400;  126.875;    0.000
797.083; 4011.400;  150.875;    0.000
797.273; 4108.400;  108.875;    0.000
797.463; 4059.400;  156.875;    0.000
797.653; 3893.400;   80.875;    0.000
797.843; 3848.400;   88.875;    0.000
798.033; 3703.400;   96.875;    0.000
798.223; 3663.400;  159.875;    0.000
798.413; 3861.400;  155.875;    0.000
798.603; 3762.400;  125.875;    0.000
798.793; 3481.400;  141.875;    0.000
798.983; 3549.400;  113.875;    0.000
799.172; 3849.400;   85.875;    0.000
799.362; 3428.400;  141.875;    0.000
799.552; 3482.400;  122.875;    0.000
799.742; 3494.400;  124.875;    0.000
799.932; 3412.400;  102.875;    0.000
800.121; 3478.400;  146.875;    0.000
800.311; 3365.400;  122.875;    0.000
800.501; 3240.400;  120.875;    0.000
800.690; 3436.400;  141.875;    0.000
800.880; 3493.400;  146.875;    0.000
801.070; 3326.400;  122.875;    0.000
801.259; 3306.400;  138.875;    0.000
801.449; 3473.400;  115.875;    0.000
801.638; 3531.400;  132.875;    0.000
801.828; 3348.400;   92.875;    0.000
802.017; 3466.400;  150.875;    0.000
802.207; 3522.400;  134.875;    0.000
802.396; 3440.400;  133.875;    0.000
802.586; 3519.400;  117.875;    0.000
802.775; 3331.400;  155.875;    0.000
802.965; 3560.400;  132.875;    0.000
803.154; 3310.400;  176.875;    0.000
803.343; 3281.400;  106.875;    0.000
803.533; 3419.400;  154.875;    0.000
803.722; 3237.400;   97.875;    0.000
803.911; 3401.400;  107.875;    0.000
804.101; 3342.400;  145.875;    0.000
804.290; 3446.400;  130.875;    0.000
804.479; 3245.400;  152.875;    0.000
804.668; 3422.400;  160.875;    0.000
804.857; 3180.400;  161.875;    0.000
805.047; 3122.400;  126.875;    0.000
805.236; 3552.400;  136.875;    0.000
805.425; 3456.400;  153.875;    0.000
805.614; 3298.400;  139.875;    0.000
805.803; 3419.400;  144.875;    0.000
805.992; 3428.400;  160.875;    0.000
806.181; 3449.400;  139.875;    0.000
806.370; 3435.400;  104.875;    0.000
806.559; 3342.400;  103.875;    0.000
806.748; 3303.400;  145.875;    0.000
806.937; 3411.400;  151.875;    0.000
807.126; 3602.400;  119.875;    0.000
807.315; 3383.400;  139.875;    0.000
807.504; 3372.400;  143.875;    0.000
807.693; 3453.400;  164.875;    0.000
807.882; 3453.400;  135.875;    0.000
808.071; 3458.400;  131.875;    0.000
808.260; 3419.400;  113.875;    0.000
808.448; 3569.400;  161.875;    0.000
808.637; 3518.400;  125.875;    0.000
808.826; 3490.400;  155.875;    0.000
809.015; 3468.400;  113.875;    0.000
809.203; 3785.400;  152.875;    0.000
809.392; 3672.400;   90.875;    0.000
809.581; 3622.400;  186.875;    0.000
809.770; 3590.400;   99.875;    0.000
809.958; 3697.400;  146.875;    0.000
810.147; 3406.400;  115.875;    0.000
810.335; 3661.400;  122.875;    0.000
810.524; 3722.400;  150.875;    0.000
810.713; 3912.400;  121.875;    0.000
810.901; 3804.400;  156.875;    0.000
811.090; 4026.400;  161.875;    0.000
811.278; 3850.400;  138.875;    0.000
811.467; 4302.400;  184.875;    0.000
811.655; 4241.400;  150.875;    0.000
811.844; 4085.400;  137.875;    0.000
812.032; 4200.400;  142.875;    0.000
812.220; 4104.400;  134.875;    0.000
812.409; 4236.400;  143.875;    0.000
812.597; 4190.400;  164.875;    0.000
812.785; 4310.400;  188.875;    0.000
812.974; 4367.400;  156.875;    0.000
813.162; 4339.400;  166.875;    0.000
813.350; 4405.400;  115.875;    0.000
813.539; 4468.400;  167.875;    0.000
813.727; 4448.400;  165.875;    0.000
813.915; 4521.400;  137.875;    0.000
814.103; 4463.400;  166.875;    0.000
814.291; 4722.400;  151.875;    0.000
814.479; 4625.400;  147.875;    0.000
814.668; 4697.400;  166.875;    0.000
814.856; 4760.400;  160.875;    0.000
815.044; 4811.400;  172.875;    0.000
815.232; 4978.400;  193.875;    0.000
815.420; 5220.400;  173.875;    0.000
815.608; 5420.400;  134.875;    0.000
815.796; 5421.400;  105.875;    0.000
815.984; 5533.400;  125.875;    0.000
816.172; 5764.400;  160.875;    0.000
816.360; 6195.400;  162.875;    0.000
816.548; 6319.400;  160.875;    0.000
816.736; 6736.400;  132.875;    0.000
816.924; 7340.400;  184.875;    0.000
817.111; 7829.400;  145.875;    0.000
817.299; 8355.400;  132.875;    0.000
817.487; 9185.400;  193.875;    0.000
817.675;10605.400;  153.875;    0.000
817.863;13081.400;  153.875;    0.000
818.050;18670.400;  172.875;    0.000
818.238;36517.398;  131.875;    0.000
818.426;57004.398;  160.875;    0.000
818.613;41334.398;  136.875;    0.000
818.801;30956.400;  162.875;    0.000
818.989;28616.400;  153.875;    0.000
819.176;30188.400;  181.875;    0.000
819.364;45653.398;  165.875;    0.000
819.552;65234.398;  111.875;    0.000
819.739;54629.398;  192.875;    0.000
819.927;37337.398;  146.875;    0.000
820.114;29439.400;  154.875;    0.000
820.302;24270.400;  144.875;    0.000
820.489;20604.400;  133.875;    0.000
820.677;18168.400;  135.875;    0.000
820.864;17090.400;  130.875;    0.000
821.052;15937.400;   88.875;    0.000
821.239;15464.400;  143.875;    0.000
821.426;15345.400;  186.875;    0.000
821.614;17867.400;  171.875;    0.000
821.801;18894.400;   90.875;    0.000
821.988;16084.400;  143.875;    0.000
822.176;14909.400;   95.875;    0.000
822.363;15138.400;  148.875;    0.000
822.550;13883.400;  139.875;    0.000
822.737;12118.400;  122.875;    0.000
822.924;10755.400;  171.875;    0.000
823.112;10314.400;  147.875;    0.000
823.299; 9528.400;  111.875;    0.000
823.486; 8963.400;  161.875;    0.000
823.673; 8656.400;  124.875;    0.000
823.860; 8175.400;  151.875;    0.000
824.047; 7906.400;  145.875;    0.000
824.234; 9719.400;  139.875;    0.000
824.421; 9945.400;  110.875;    0.000
824.608; 8571.400;  145.875;    0.000
824.795; 7357.400;  115.875;    0.000
824.982; 6894.400;  148.875;    0.000
825.169; 6355.400;  135.875;    0.000
825.356; 6030.400;  122.875;    0.000
825.543; 5773.400;  142.875;    0.000
825.730; 5700.400;   89.875;    0.000
825.917; 5428.400;  127.875;    0.000
826.104; 5067.400;  187.875;    0.000
826.290; 5076.400;  138.875;    0.000
826.477; 4810.400;  140.875;    0.000
826.664; 4633.400;  106.875;    0.000
826.851; 4457.400;  155.875;    0.000
827.038; 4635.400;  125.875;    0.000
827.224; 4491.400;  126.875;    0.000
827.411; 4356.400;  163.875;    0.000
827.598; 4170.400;  140.875;    0.000
827.784; 4304.400;  117.875;    0.000
827.971; 4053.400;  114.875;    0.000
828.157; 3995.400;  146.875;    0.000
828.344; 3957.400;  161.875;    0.000
828.531; 3908.400;  155.875;    0.000
828.717; 3875.400;  130.875;    0.000
828.904; 3612.400;  138.875;    0.000
829.090; 3625.400;  176.875;    0.000
829.277; 3874.400;  152.875;    0.000
829.463; 3613.400;  139.875;    0.000
829.650; 3589.400;  168.875;    0.000
829.836; 3497.400;  176.875;    0.000
830.022; 3520.400;  159.875;    0.000
830.209; 3556.400;  135.875;    0.000
830.395; 3486.400;  177.875;    0.000
830.581; 3532.400;  125.875;    0.000
830.768; 3188.400;  155.875;    0.000
830.954; 3199.400;  187.875;    0.000
831.140; 3315.400;  135.875;    0.000
831.327; 3236.400;  158.875;    0.000
831.513; 3167.400;  126.875;    0.000
831.699; 3187.400;  167.875;    0.000
831.885; 3117.400;  165.875;    0.000
832.071; 3271.400;  167.875;    0.000
832.257; 3051.400;  144.875;    0.000
832.444; 3063.400;  158.875;    0.000
832.630; 3095.400;  167.875;    0.000
832.816; 3066.400;  150.875;    0.000
833.002; 3015.400;  157.875;    0.000
833.188; 3007.400;  169.875;    0.000
833.374; 2887.400;  144.875;    0.000
833.560; 2995.400;  179.875;    0.000
833.746; 2914.400;  134.875;    0.000
833.932; 2977.400;  150.875;    0.000
834.118; 2843.400;   98.875;    0.000
834.303; 2779.400;  121.875;    0.000
834.489; 2869.400;  179.875;    0.000
834.675; 2822.400;  136.875;    0.000
834.861; 2742.400;  130.875;    0.000
835.047; 2935.400;  132.875;    0.000
835.233; 2629.400;  104.875;    0.000
835.418; 3002.400;  143.875;    0.000
835.604; 2698.400;  127.875;    0.000
835.790; 2778.400;  138.875;    0.000
835.976; 2595.400;  137.875;    0.000
836.161; 2882.400;  155.875;    0.000
836.347; 2802.400;  101.875;    0.000
836.533; 2640.400;  121.875;    0.000
836.718; 2698.400;  150.875;    0.000
836.904; 2751.400;  168.875;    0.000
837.089; 2710.400;  169.875;    0.000
837.275; 2630.400;  172.875;    0.000
837.460; 2655.400;  140.875;    0.000
837.646; 2674.400;  144.875;    0.000
837.831; 2619.400;  137.875;    0.000
838.017; 2720.400;  176.875;    0.000
838.202; 2618.400;  107.875;    0.000
838.388; 2723.400;  181.875;    0.000
838.573; 2662.400;  151.875;    0.000
838.759; 2567.400;  160.875;    0.000
838.944; 2759.400;  121.875;    0.000
839.129; 2564.400;  145.875;    0.000
839.315; 2585.400;  166.875;    0.000
839.500; 2686.400;  143.875;    0.000
839.685; 2595.400;   93.875;    0.000
839.870; 2725.400;  160.875;    0.000
840.056; 2679.400;  132.875;    0.000
840.241; 2714.400;  154.875;    0.000
840.426; 2614.400;  161.875;    0.000
840.611; 2681.400;  186.875;    0.000
840.796; 2746.400;  135.875;    0.000
840.981; 2679.400;  147.875;    0.000
841.166; 2872.400;  138.875;    0.000
841.352; 2790.400;  156.875;    0.000
841.537; 2754.400;  170.875;    0.000
841.722; 2834.400;  143.875;    0.000
841.907; 2811.400;  143.875;    0.000
842.092; 2733.400;  166.875;    0.000
842.277; 2962.400;  113.875;    0.000
842.461; 3006.400;  126.875;    0.000
842.646; 3192.400;  145.875;    0.000
842.831; 3159.400;  193.875;    0.000
843.016; 3198.400;  162.875;    0.000
843.201; 3204.400;  144.875;    0.000
843.386; 3420.400;  160.875;    0.000
843.571; 3547.400;  136.875;    0.000
843.755; 3805.400;  134.875;    0.000
843.940; 4234.400;  136.875;    0.000
844.125; 4743.400;  169.875;    0.000
844.310; 5875.400;  189.875;    0.000
844.494; 8217.400;  167.875;    0.000
844.679;13192.400;  184.875;    0.000
844.864;13290.400;  147.875;    0.000
845.048; 9215.400;  140.875;    0.000
845.233; 7367.400;  178.875;    0.000
845.418; 6030.400;  145.875;    0.000
845.602; 5295.400;  147.875;    0.000
845.787; 4692.400;  147.875;    0.000
845.971; 4419.400;  165.875;    0.000
846.156; 3885.400;  106.875;    0.000
846.340; 3554.400;  168.875;    0.000
846.525; 3507.400;  155.875;    0.000
846.709; 3343.400;  157.875;    0.000
846.893; 3331.400;  166.875;    0.000
847.078; 3022.400;  138.875;    0.000
847.262; 2978.400;  171.875;    0.000
847.447; 2957.400;  135.875;    0.000
847.631; 3011.400;  136.875;    0.000
847.815; 2815.400;  136.875;    0.000
848.000; 2760.400;  126.875;    0.000
848.184; 2822.400;  131.875;    0.000
848.368; 2544.400;  153.875;    0.000
848.552; 2537.400;  137.875;    0.000
848.736; 2621.400;  151.875;    0.000
848.921; 2599.400;  156.875;    0.000
849.105; 2364.400;  153.875;    0.000
849.289; 2437.400;  180.875;    0.000
849.473; 2370.400;  156.875;    0.000
849.657; 2518.400;  157.875;    0.000
849.841; 2565.400;  147.875;    0.000
850.025; 2467.400;  194.875;    0.000
850.209; 2292.400;  147.875;    0.000
850.393; 2340.400;  141.875;    0.000
850.577; 2322.400;  156.875;    0.000
850.761; 2224.400;  157.875;    0.000
850.945; 2315.400;  128.875;    0.000
851.129; 2259.400;  151.875;    0.000
851.313; 2351.400;  180.875;    0.000
851.497; 2264.400;  123.875;    0.000
851.680; 2219.400;  188.875;    0.000
851.864; 2227.400;  177.875;    0.000
852.048; 2339.400;  163.875;    0.000
852.232; 2411.400;  149.875;    0.000
852.416; 2285.400;  187.875;    0.000
852.599; 2135.400;  169.875;    0.000
852.783; 2245.400;  154.875;    0.000
852.967; 2241.400;  191.875;    0.000
853.150; 2255.400;  170.875;    0.000
853.334; 2250.400;  173.875;    0.000
853.518; 2307.400;  186.875;    0.000
853.701; 2224.400;  142.875;    0.000
853.885; 2290.400;  153.875;    0.000
854.068; 2311.400;  132.875;    0.000
854.252; 2900.400;  184.875;    0.000
854.435; 2607.400;  152.875;    0.000
854.619; 2359.400;  152.875;    0.000
854.802; 2226.400;  164.875;    0.000
854.986; 2217.400;  151.875;    0.000
855.169; 2255.400;  153.875;    0.000
855.353; 2225.400;  183.875;    0.000
855.536; 2221.400;  113.875;    0.000
855.719; 2314.400;  181.875;    0.000
855.903; 2362.400;  159.875;    0.000
856.086; 2225.400;  142.875;    0.000
856.269; 2198.400;  171.875;    0.000
856.452; 2280.400;  132.875;    0.000
856.636; 2578.400;  140.875;    0.000
856.819; 2704.400;  165.875;    0.000
857.002; 2886.400;  170.875;    0.000
857.185; 2766.400;  173.875;    0.000
857.368; 2657.400;  129.875;    0.000
857.552; 2544.400;  151.875;    0.000
857.735; 2581.400;  146.875;    0.000
857.918; 2478.400;  114.875;    0.000
858.101; 2470.400;  152.875;    0.000
858.284; 2478.400;  164.875;    0.000
858.467; 2447.400;  147.875;    0.000
858.650; 2438.400;  146.875;    0.000
858.833; 2636.400;  118.875;    0.000
859.016; 2668.400;  161.875;    0.000
859.199; 2774.400;  135.875;    0.000
859.382; 3033.400;  157.875;    0.000
859.564; 3578.400;  124.875;    0.000
859.747; 3479.400;  154.875;    0.000
859.930; 3109.400;  138.875;    0.000
860.113; 3046.400;  153.875;    0.000
860.296; 3094.400;  180.875;    0.000
860.478; 2680.400;  145.875;    0.000
860.661; 2757.400;  160.875;    0.000
860.844; 2748.400;   96.875;    0.000
861.027; 2608.400;  128.875;    0.000
861.209; 2534.400;  127.875;    0.000
861.392; 2539.400;  126.875;    0.000
861.575; 2616.400;  155.875;    0.000
861.757; 2709.400;  141.875;    0.000
861.940; 2761.400;  181.875;    0.000
862.122; 2888.400;  145.875;    0.000
862.305; 2957.400;  124.875;    0.000
862.487; 3047.400;  151.875;    0.000
862.670; 3026.400;  132.875;    0.000
862.852; 4088.400;  112.875;    0.000
863.035; 5537.400;  116.875;    0.000
863.217; 5374.400;  131.875;    0.000
863.400; 4491.400;  145.875;    0.000
863.582; 3900.400;  147.875;    0.000
863.764; 3731.400;  163.875;    0.000
863.947; 3674.400;  129.875;    0.000
864.129; 3414.400;  159.875;    0.000
864.311; 3187.400;  144.875;    0.000
864.493; 3259.400;  141.875;    0.000
864.676; 3129.400;  159.875;    0.000
864.858; 3072.400;  146.875;    0.000
865.040; 3178.400;  163.875;    0.000
865.222; 3133.400;  133.875;    0.000
865.404; 3305.400;  148.875;    0.000
865.587; 3402.400;  177.875;    0.000
865.769; 3617.400;  172.875;    0.000
865.951; 3592.400;  145.875;    0.000
866.133; 3458.400;  168.875;    0.000
866.315; 3702.400;  147.875;    0.000
866.497; 3460.400;  164.875;    0.000
866.679; 3444.400;  143.875;    0.000
866.861; 3675.400;  170.875;    0.000
867.043; 3792.400;  185.875;    0.000
867.225; 4046.400;  149.875;    0.000
867.407; 4493.400;  143.875;    0.000
867.589; 5063.400;  169.875;    0.000
867.770; 6199.400;  166.875;    0.000
867.952; 9267.400;  158.875;    0.000
868.134;13804.400;  170.875;    0.000
868.316;13714.400;  157.875;    0.000
868.498;13043.400;  186.875;    0.000
868.679;10657.400;  158.875;    0.000
868.861; 8677.400;  180.875;    0.000
869.043; 6687.400;  164.875;    0.000
869.224; 5834.400;  156.875;    0.000
869.406; 5059.400;  176.875;    0.000
869.588; 4914.400;  152.875;    0.000
869.769; 4438.400;  131.875;    0.000
869.951; 4343.400;  203.875;    0.000
870.132; 4278.400;  143.875;    0.000
870.314; 5221.400;  129.875;    0.000
870.495; 5522.400;  175.875;    0.000
870.677; 4864.400;  165.875;    0.000
870.858; 4543.400;  151.875;    0.000
871.040; 4922.400;  155.875;    0.000
871.221; 5836.400;  144.875;    0.000
871.403; 5832.400;  131.875;    0.000
871.584; 4797.400;  174.875;    0.000
871.765; 4771.400;  169.875;    0.000
871.947; 5372.400;  187.875;    0.000
872.128; 5057.400;  181.875;    0.000
872.309; 4187.400;  129.875;    0.000
872.491; 3586.400;  142.875;    0.000
872.672; 3343.400;  158.875;    0.000
872.853; 3397.400;  179.875;    0.000
873.034; 3146.400;  164.875;    0.000
873.215; 3005.400;  168.875;    0.000
873.396; 2752.400;  114.875;    0.000
873.578; 2583.400;  126.875;    0.000
873.759; 2494.400;  177.875;    0.000
873.940; 2478.400;  169.875;    0.000
874.121; 2386.400;  133.875;    0.000
874.302; 2405.400;  164.875;    0.000
874.483; 2267.400;  162.875;    0.000
874.664; 2292.400;  140.875;    0.000
874.845; 2420.400;  124.875;    0.000
875.026; 2378.400;  146.875;    0.000
875.207; 2314.400;  147.875;    0.000
875.388; 2121.400;  174.875;    0.000
875.568; 2221.400;  179.875;    0.000
875.749; 2065.400;  155.875;    0.000
875.930; 2210.400;  166.875;    0.000
876.111; 2070.400;  153.875;    0.000
876.292; 1938.400;  146.875;    0.000
876.472; 1996.400;  167.875;    0.000
876.653; 2024.400;  145.875;    0.000
876.834; 1912.400;  172.875;    0.000
877.015; 1978.400;  184.875;    0.000
877.195; 1948.400;  160.875;    0.000
877.376; 1903.400;  163.875;    0.000
877.556; 1915.400;  164.875;    0.000
877.737; 1917.400;  179.875;    0.000
877.918; 1828.400;  137.875;    0.000
878.098; 1771.400;  117.875;    0.000
878.279; 1889.400;  135.875;    0.000
878.459; 1835.400;  149.875;    0.000
878.640; 1840.400;  171.875;    0.000
878.820; 1755.400;  142.875;    0.000
879.000; 1935.400;  166.875;    0.000
879.181; 1876.400;  177.875;    0.000
879.361; 1775.400;  176.875;    0.000
879.542; 1769.400;  159.875;    0.000
879.722; 1857.400;  122.875;    0.000
879.902; 1793.400;  166.875;    0.000
880.083; 1809.400;  164.875;    0.000
880.263; 1785.400;  139.875;    0.000
880.443; 1956.400;  179.875;    0.000
880.623; 2192.400;  154.875;    0.000
880.803; 2420.400;  160.875;    0.000
880.984; 2204.400;  181.875;    0.000
881.164; 2090.400;  167.875;    0.000
881.344; 2037.400;  141.875;    0.000
881.524; 1955.400;  190.875;    0.000
881.704; 2071.400;  165.875;    0.000
881.884; 2101.400;  144.875;    0.000
882.064; 2310.400;  135.875;    0.000
882.244; 2370.400;  186.875;    0.000
882.424; 2189.400;  150.875;    0.000
882.604; 2013.400;  168.875;    0.000
882.784; 2004.400;  155.875;    0.000
882.964; 1846.400;  137.875;    0.000
883.144; 1810.400;  136.875;    0.000
883.324; 1842.400;  200.875;    0.000
883.504; 1864.400;  203.875;    0.000
883.683; 1799.400;  149.875;    0.000
883.863; 1752.400;  160.875;    0.000
884.043; 1734.400;  161.875;    0.000
884.223; 1798.400;  147.875;    0.000
884.402; 1679.400;  175.875;    0.000
884.582; 1683.400;  188.875;    0.000
884.762; 1659.400;  173.875;    0.000
884.941; 1722.400;  164.875;    0.000
885.121; 1752.400;  147.875;    0.000
885.301; 1667.400;  135.875;    0.000
885.480; 1705.400;  145.875;    0.000
885.660; 1695.400;  144.875;    0.000
885.839; 1738.400;  155.875;    0.000
886.019; 1775.400;  207.875;    0.000
886.198; 1651.400;  165.875;    0.000
886.378; 1622.400;  120.875;    0.000
886.557; 1677.400;  133.875;    0.000
886.737; 1544.400;  119.875;    0.000
886.916; 1697.400;  129.875;    0.000
887.095; 1561.400;  158.875;    0.000
887.275; 1668.400;  169.875;    0.000
887.454; 1628.400;  184.875;    0.000
887.633; 1623.400;  143.875;    0.000
887.813; 1528.400;  154.875;    0.000
887.992; 1560.400;  188.875;    0.000
888.171; 1655.400;  176.875;    0.000
888.350; 1545.400;  161.875;    0.000
888.530; 1511.400;  163.875;    0.000
888.709; 1571.400;  136.875;    0.000
888.888; 1571.400;  177.875;    0.000
889.067; 1593.400;  169.875;    0.000
889.246; 1698.400;  188.875;    0.000
889.425; 1597.400;  187.875;    0.000
889.604; 1657.400;  169.875;    0.000
889.783; 1647.400;  182.875;    0.000
889.962; 1508.400;  112.875;    0.000
890.141; 1514.400;  231.875;    0.000
890.320; 1554.400;  161.875;    0.000
890.499; 1660.400;  164.875;    0.000
890.678; 1493.400;  176.875;    0.000
890.857; 1525.400;  163.875;    0.000
891.036; 1574.400;  161.875;    0.000
891.214; 1522.400;  156.875;    0.000
891.393; 1547.400;  167.875;    0.000
891.572; 1572.400;  163.875;    0.000
891.751; 1506.400;  205.875;    0.000
891.930; 1566.400;  162.875;    0.000
892.108; 1558.400;  153.875;    0.000
892.287; 1587.400;  153.875;    0.000
892.466; 1529.400;  201.875;    0.000
892.644; 1570.400;  158.875;    0.000
892.823; 1468.400;  122.875;    0.000
893.001; 1492.400;  148.875;    0.000
893.180; 1579.400;  142.875;    0.000
893.359; 1560.400;  192.875;    0.000
893.537; 1610.400;  166.875;    0.000
893.716; 1563.400;  144.875;    0.000
893.894; 1567.400;  145.875;    0.000
894.073; 1481.400;  180.875;    0.000
894.251; 1567.400;  165.875;    0.000
894.429; 1470.400;  182.875;    0.000
894.608; 1569.400;  181.875;    0.000
894.786; 1573.400;  180.875;    0.000
894.964; 1484.400;  207.875;    0.000
895.143; 1521.400;  190.875;    0.000
895.321; 1584.400;  206.875;    0.000
895.499; 1480.400;  164.875;    0.000
895.677; 1562.400;  199.875;    0.000
895.856; 1527.400;  203.875;    0.000
896.034; 1612.400;  200.875;    0.000
896.212; 1647.400;  198.875;    0.000
896.390; 1569.400;  161.875;    0.000
896.568; 1570.400;  205.875;    0.000
896.746; 1557.400;  185.875;    0.000
896.924; 1635.400;  179.875;    0.000
897.102; 1603.400;  190.875;    0.000
897.280; 1582.400;  160.875;    0.000
897.458; 1640.400;  196.875;    0.000
897.636; 1582.400;  168.875;    0.000
897.814; 1593.400;  159.875;    0.000
897.992; 1637.400;  216.875;    0.000
898.170; 1598.400;  195.875;    0.000
898.348; 1595.400;  185.875;    0.000
898.526; 1610.400;  199.875;    0.000
898.704; 1644.400;  215.875;    0.000
898.882; 1592.400;  195.875;    0.000
899.059; 1622.400;  197.875;    0.000
899.237; 1555.400;  168.875;    0.000
899.415; 1758.400;  221.875;    0.000
899.593; 1697.400;  171.875;    0.000
899.770; 1613.400;  191.875;    0.000
899.948; 1626.400;  206.875;    0.000
900.125; 1583.400;  175.875;    0.000
900.303; 1640.400;  176.875;    0.000
900.481; 1640.400;  199.875;    0.000
900.658; 1676.400;  217.875;    0.000
900.836; 1564.400;  192.875;    0.000
901.013; 1699.400;  221.875;    0.000
901.191; 1749.400;  203.875;    0.000
901.368; 1749.400;  189.875;    0.000
901.546; 1835.400;  212.875;    0.000
901.723; 1725.400;  189.875;    0.000
901.901; 1827.400;  198.875;    0.000
902.078; 1830.400;  193.875;    0.000
902.255; 1908.400;  176.875;    0.000
902.433; 1977.400;  201.875;    0.000
902.610; 1832.400;  170.875;    0.000
902.787; 1945.400;  164.875;    0.000
902.964; 1942.400;  216.875;    0.000
903.142; 2005.400;  153.875;    0.000
903.319; 2236.400;  204.875;    0.000
903.496; 2149.400;  188.875;    0.000
903.673; 2172.400;  209.875;    0.000
903.850; 2222.400;  173.875;    0.000
904.027; 2316.400;  186.875;    0.000
904.204; 2351.400;  241.875;    0.000
904.381; 2668.400;  187.875;    0.000
904.558; 3281.400;  196.875;    0.000
904.735; 3846.400;  206.875;    0.000
904.912; 3533.400;  228.875;    0.000
905.089; 3735.400;  172.875;    0.000
905.266; 3403.400;  175.875;    0.000
905.443; 3098.400;  239.875;    0.000
905.620; 2698.400;  176.875;    0.000
905.797; 2540.400;  205.875;    0.000
905.974; 2479.400;  187.875;    0.000
906.151; 2447.400;  135.875;    0.000
906.327; 2644.400;  209.875;    0.000
906.504; 2512.400;  145.875;    0.000
906.681; 2519.400;  178.875;    0.000
906.858; 2329.400;  179.875;    0.000
907.034; 2183.400;  221.875;    0.000
907.211; 2079.400;  166.875;    0.000
907.388; 2141.400;  206.875;    0.000
907.564; 2087.400;  150.875;    0.000
907.741; 2012.400;  187.875;    0.000
907.917; 2091.400;  180.875;    0.000
908.094; 2005.400;  206.875;    0.000
908.271; 1892.400;  184.875;    0.000
908.447; 2035.400;  212.875;    0.000
908.623; 1835.400;  193.875;    0.000
908.800; 1935.400;  185.875;    0.000
908.976; 1920.400;  202.875;    0.000
909.153; 1803.400;  175.875;    0.000
909.329; 1881.400;  193.875;    0.000
909.505; 1863.400;  154.875;    0.000
909.682; 2053.400;  188.875;    0.000
909.858; 1799.400;  162.875;    0.000
910.034; 1803.400;  181.875;    0.000
910.211; 1694.400;  142.875;    0.000
910.387; 1809.400;  200.875;    0.000
910.563; 1786.400;  163.875;    0.000
910.739; 1727.400;  156.875;    0.000
910.915; 1689.400;  202.875;    0.000
911.091; 1738.400;  186.875;    0.000
911.268; 1774.400;  167.875;    0.000
911.444; 1670.400;  193.875;    0.000
911.620; 1669.400;  175.875;    0.000
911.796; 1752.400;  168.875;    0.000
911.972; 1680.400;  154.875;    0.000
912.148; 1650.400;  201.875;    0.000
912.324; 1766.400;  146.875;    0.000
912.500; 1736.400;  185.875;    0.000
912.676; 1653.400;  183.875;    0.000
912.851; 1685.400;  204.875;    0.000
913.027; 1610.400;  196.875;    0.000
913.203; 1708.400;  174.875;    0.000
913.379; 1609.400;  210.875;    0.000
913.555; 1664.400;  197.875;    0.000
913.730; 1688.400;  209.875;    0.000
913.906; 1506.400;  169.875;    0.000
914.082; 1561.400;  236.875;    0.000
914.258; 1744.400;  216.875;    0.000
914.433; 1639.400;  212.875;    0.000
914.609; 1743.400;  180.875;    0.000
914.784; 1614.400;  176.875;    0.000
914.960; 1558.400;  227.875;    0.000
915.136; 1599.400;  149.875;    0.000
915.311; 1669.400;  165.875;    0.000
915.487; 1613.400;  167.875;    0.000
915.662; 1692.400;  225.875;    0.000
915.838; 1720.400;  165.875;    0.000
916.013; 1765.400;  188.875;    0.000
916.189; 1632.400;  200.875;    0.000
916.364; 1666.400;  201.875;    0.000
916.539; 1749.400;  240.875;    0.000
916.715; 1765.400;  180.875;    0.000
916.890; 1736.400;  191.875;    0.000
917.065; 1643.400;  211.875;    0.000
917.240; 1606.400;  212.875;    0.000
917.416; 1700.400;  207.875;    0.000
917.591; 1634.400;  189.875;    0.000
917.766; 1581.400;  205.875;    0.000
917.941; 1667.400;  191.875;    0.000
918.116; 1762.400;  195.875;    0.000
918.292; 1651.400;  183.875;    0.000
918.467; 1820.400;  206.875;    0.000
918.642; 1668.400;  190.875;    0.000
918.817; 1695.400;  193.875;    0.000
918.992; 1602.400;  171.875;    0.000
919.167; 1681.400;  191.875;    0.000
919.342; 1753.400;  202.875;    0.000
919.517; 1753.400;  182.875;    0.000
919.692; 1683.400;  190.875;    0.000
919.867; 1654.400;  221.875;    0.000
920.041; 1730.400;  195.875;    0.000
920.216; 1764.400;  226.875;    0.000
920.391; 1874.400;  230.875;    0.000
920.566; 1915.400;  210.875;    0.000
920.741; 1972.400;  204.875;    0.000
920.915; 2008.400;  213.875;    0.000
921.090; 2253.400;  194.875;    0.000
921.265; 2778.400;  234.875;    0.000
921.439; 3535.400;  228.875;    0.000
921.614; 3061.400;  199.875;    0.000
921.789; 2569.400;  194.875;    0.000
921.963; 2270.400;  236.875;    0.000
922.138; 2144.400;  192.875;    0.000
922.312; 2129.400;  203.875;    0.000
922.487; 2152.400;  207.875;    0.000
922.661; 2418.400;  216.875;    0.000
922.836; 2708.400;  199.875;    0.000
923.010; 2931.400;  179.875;    0.000
923.185; 2692.400;  241.875;    0.000
923.359; 2281.400;  199.875;    0.000
923.534; 2352.400;  227.875;    0.000
923.708; 2529.400;  213.875;    0.000
923.882; 2789.400;  203.875;    0.000
924.057; 2541.400;  194.875;    0.000
924.231; 2426.400;  185.875;    0.000
924.405; 2131.400;  223.875;    0.000
924.579; 2186.400;  196.875;    0.000
924.753; 2148.400;  209.875;    0.000
924.928; 2072.400;  202.875;    0.000
925.102; 2196.400;  184.875;    0.000
925.276; 2017.400;  191.875;    0.000
925.450; 2198.400;  199.875;    0.000
925.624; 2313.400;  190.875;    0.000
925.798; 2343.400;  214.875;    0.000
925.972; 2571.400;  193.875;    0.000
926.146; 2774.400;  191.875;    0.000
926.320; 3152.400;  177.875;    0.000
926.494; 3640.400;  190.875;    0.000
926.668; 3771.400;  182.875;    0.000
926.842; 3929.400;  182.875;    0.000
927.016; 3836.400;  235.875;    0.000
927.190; 3843.400;  234.875;    0.000
927.363; 3629.400;  214.875;    0.000
927.537; 3215.400;  198.875;    0.000
927.711; 3234.400;  154.875;    0.000
927.885; 3011.400;  167.875;    0.000
928.058; 2929.400;  210.875;    0.000
928.232; 2780.400;  206.875;    0.000
928.406; 2761.400;  176.875;    0.000
928.579; 2680.400;  182.875;    0.000
928.753; 2709.400;  179.875;    0.000
928.927; 2496.400;  186.875;    0.000
929.100; 2375.400;  188.875;    0.000
929.274; 2324.400;  167.875;    0.000
929.447; 2307.400;  152.875;    0.000
929.621; 2156.400;  195.875;    0.000
929.794; 2283.400;  200.875;    0.000
929.968; 2093.400;  203.875;    0.000
930.141; 2193.400;  237.875;    0.000
930.315; 2141.400;  165.875;    0.000
930.488; 2055.400;  175.875;    0.000
930.661; 1979.400;  173.875;    0.000
930.835; 2034.400;  171.875;    0.000
931.008; 2022.400;  210.875;    0.000
931.181; 1962.400;  206.875;    0.000
931.354; 1885.400;  195.875;    0.000
931.528; 1931.400;  178.875;    0.000
931.701; 1820.400;  179.875;    0.000
931.874; 1784.400;  150.875;    0.000
932.047; 1796.400;  154.875;    0.000
932.220; 1804.400;  185.875;    0.000
932.393; 1783.400;  166.875;    0.000
932.566; 1695.400;  171.875;    0.000
932.739; 1755.400;  196.875;    0.000
932.912; 1769.400;  212.875;    0.000
933.085; 1711.400;  234.875;    0.000
933.258; 1813.400;  212.875;    0.000
933.431; 1557.400;  181.875;    0.000
933.604; 1649.400;  201.875;    0.000
933.777; 1716.400;  201.875;    0.000
933.950; 1683.400;  176.875;    0.000
934.123; 1560.400;  175.875;    0.000
934.296; 1640.400;  174.875;    0.000
934.468; 1600.400;  186.875;    0.000
934.641; 1633.400;  192.875;    0.000
934.814; 1607.400;  187.875;    0.000
934.987; 1695.400;  165.875;    0.000
935.159; 1705.400;  162.875;    0.000
935.332; 1691.400;  210.875;    0.000
935.505; 1604.400;  191.875;    0.000
935.677; 1611.400;  159.875;    0.000
935.850; 1581.400;  170.875;    0.000
936.022; 1606.400;  172.875;    0.000
936.195; 1585.400;  202.875;    0.000
936.367; 1613.400;  179.875;    0.000
936.540; 1693.400;  207.875;    0.000
936.712; 1688.400;  200.875;    0.000
936.885; 1622.400;  219.875;    0.000
937.057; 1716.400;  150.875;    0.000
937.229; 1802.400;  187.875;    0.000
937.402; 1720.400;  169.875;    0.000
937.574; 1795.400;  127.875;    0.000
937.746; 1812.400;  171.875;    0.000
937.919; 1931.400;  176.875;    0.000
938.091; 1974.400;  193.875;    0.000
938.263; 2205.400;  200.875;    0.000
938.435; 2383.400;  181.875;    0.000
938.608; 2829.400;  191.875;    0.000
938.780; 3489.400;  173.875;    0.000
938.952; 3742.400;  184.875;    0.000
939.124; 3614.400;  171.875;    0.000
939.296; 4361.400;  156.875;    0.000
939.468; 4672.400;  147.875;    0.000
939.640; 3868.400;  186.875;    0.000
939.812; 3468.400;  217.875;    0.000
939.984; 2800.400;  155.875;    0.000
940.156; 2638.400;  191.875;    0.000
940.328; 2549.400;  201.875;    0.000
940.500; 2319.400;  176.875;    0.000
940.672; 2305.400;  190.875;    0.000
940.843; 2183.400;  143.875;    0.000
941.015; 2184.400;  189.875;    0.000
941.187; 2008.400;  172.875;    0.000
941.359; 1977.400;  175.875;    0.000
941.531; 1988.400;  154.875;    0.000
941.702; 1805.400;  183.875;    0.000
941.874; 1667.400;  140.875;    0.000
942.046; 1711.400;  177.875;    0.000
942.217; 1738.400;  147.875;    0.000
942.389; 1777.400;  196.875;    0.000
942.560; 1722.400;  163.875;    0.000
942.732; 1743.400;  187.875;    0.000
942.904; 1593.400;  226.875;    0.000
943.075; 1542.400;  159.875;    0.000
943.247; 1516.400;  209.875;    0.000
943.418; 1516.400;  167.875;    0.000
943.589; 1579.400;  195.875;    0.000
943.761; 1618.400;  190.875;    0.000
943.932; 1640.400;  187.875;    0.000
944.104; 1487.400;  194.875;    0.000
944.275; 1501.400;  177.875;    0.000
944.446; 1545.400;  155.875;    0.000
944.617; 1440.400;  176.875;    0.000
944.789; 1385.400;  171.875;    0.000
944.960; 1455.400;  172.875;    0.000
945.131; 1428.400;  158.875;    0.000
945.302; 1482.400;  201.875;    0.000
945.473; 1375.400;  141.875;    0.000
945.645; 1384.400;  197.875;    0.000
945.816; 1517.400;  165.875;    0.000
945.987; 1573.400;  190.875;    0.000
946.158; 1604.400;  158.875;    0.000
946.329; 1539.400;  160.875;    0.000
946.500; 1475.400;  190.875;    0.000
946.671; 1450.400;  152.875;    0.000
946.842; 1442.400;  182.875;    0.000
947.013; 1365.400;  160.875;    0.000
947.183; 1391.400;  203.875;    0.000
947.354; 1419.400;  174.875;    0.000
947.525; 1324.400;  173.875;    0.000
947.696; 1394.400;  170.875;    0.000
947.867; 1398.400;  187.875;    0.000
948.037; 1321.400;  165.875;    0.000
948.208; 1371.400;  154.875;    0.000
948.379; 1581.400;  176.875;    0.000
948.550; 1334.400;  176.875;    0.000
948.720; 1404.400;  169.875;    0.000
948.891; 1414.400;  216.875;    0.000
949.061; 1313.400;  200.875;    0.000
949.232; 1362.400;  163.875;    0.000
949.403; 1310.400;  157.875;    0.000
949.573; 1305.400;  158.875;    0.000
949.744; 1384.400;  213.875;    0.000
949.914; 1354.400;  177.875;    0.000
950.085; 1356.400;  195.875;    0.000
950.255; 1456.400;  166.875;    0.000
950.425; 1340.400;  196.875;    0.000
950.596; 1319.400;  176.875;    0.000
950.766; 1384.400;  228.875;    0.000
950.936; 1283.400;  185.875;    0.000
951.107; 1263.400;  178.875;    0.000
951.277; 1299.400;  227.875;    0.000
951.447; 1239.400;  219.875;    0.000
951.617; 1323.400;  219.875;    0.000
951.788; 1259.400;  198.875;    0.000
951.958; 1263.400;  202.875;    0.000
952.128; 1193.400;  197.875;    0.000
952.298; 1325.400;  211.875;    0.000
952.468; 1317.400;  233.875;    0.000
952.638; 1237.400;  222.875;    0.000
952.808; 1277.400;  210.875;    0.000
952.978; 1248.400;  216.875;    0.000
953.148; 1302.400;  203.875;    0.000
953.318; 1166.400;  212.875;    0.000
953.488; 1172.400;  156.875;    0.000
953.658; 1222.400;  226.875;    0.000
953.828; 1187.400;  223.875;    0.000
953.998; 1262.400;  209.875;    0.000
954.167; 1256.400;  203.875;    0.000
954.337; 1253.400;  209.875;    0.000
954.507; 1214.400;  252.875;    0.000
954.677; 1149.400;  207.875;    0.000
954.846; 1262.400;  240.875;    0.000
955.016; 1141.400;  197.875;    0.000
955.186; 1122.400;  208.875;    0.000
955.355; 1162.400;  243.875;    0.000
955.525; 1142.400;  211.875;    0.000
955.695; 1110.400;  187.875;    0.000
955.864; 1200.400;  204.875;    0.000
956.034; 1132.400;  199.875;    0.000
956.203; 1244.400;  257.875;    0.000
956.373; 1050.400;  193.875;    0.000
956.542; 1126.400;  187.875;    0.000
956.711; 1107.400;  259.875;    0.000
956.881; 1157.400;  227.875;    0.000
957.050; 1129.400;  260.875;    0.000
957.220; 1134.400;  246.875;    0.000
957.389; 1142.400;  211.875;    0.000
957.558; 1079.400;  197.875;    0.000
957.727; 1168.400;  227.875;    0.000
957.897; 1100.400;  219.875;    0.000
958.066; 1068.400;  180.875;    0.000
958.235; 1062.400;  179.875;    0.000
958.404; 1111.400;  194.875;    0.000
958.573; 1037.400;  235.875;    0.000
958.743; 1085.400;  191.875;    0.000
958.912; 1081.400;  181.875;    0.000
959.081; 1098.400;  193.875;    0.000
959.250; 1037.400;  180.875;    0.000
959.419; 1138.400;  205.875;    0.000
959.588; 1044.400;  241.875;    0.000
959.757; 1044.400;  202.875;    0.000
959.926; 1064.400;  212.875;    0.000
960.094; 1004.400;  199.875;    0.000
960.263; 1080.400;  226.875;    0.000
960.432; 1057.400;  188.875;    0.000
960.601;  993.400;  200.875;    0.000
960.770;  981.400;  197.875;    0.000
960.939;  979.400;  195.875;    0.000
961.107; 1037.400;  198.875;    0.000
961.276; 1076.400;  151.875;    0.000
961.445; 1108.400;  227.875;    0.000
961.613; 1104.400;  186.875;    0.000
961.782; 1125.400;  187.875;    0.000
961.951; 1004.400;  194.875;    0.000
962.119; 1049.400;  227.875;    0.000
962.288; 1059.400;  181.875;    0.000
962.456; 1089.400;  206.875;    0.000
962.625; 1056.400;  181.875;    0.000
962.793; 1065.400;  216.875;    0.000
962.962; 1074.400;  237.875;    0.000
963.130; 1009.400;  194.875;    0.000
963.298; 1052.400;  190.875;    0.000
963.467; 1047.400;  204.875;    0.000
963.635;  964.400;  159.875;    0.000
963.803;  970.400;  208.875;    0.000
963.972; 1058.400;  206.875;    0.000
964.140; 1007.400;  178.875;    0.000
964.308;  915.400;  185.875;    0.000
964.477;  999.400;  189.875;    0.000
964.645; 1060.400;  201.875;    0.000
964.813; 1098.400;  200.875;    0.000
964.981; 1027.400;  160.875;    0.000
965.149; 1089.400;  230.875;    0.000
965.317; 1075.400;  214.875;    0.000
965.485; 1019.400;  190.875;    0.000
965.653; 1034.400;  239.875;    0.000
965.821; 1091.400;  211.875;    0.000
965.989; 1024.400;  216.875;    0.000
966.157;  991.400;  198.875;    0.000
966.325; 1087.400;  200.875;    0.000
966.493; 1092.400;  187.875;    0.000
966.661; 1069.400;  181.875;    0.000
966.829;  971.400;  181.875;    0.000
966.996; 1031.400;  220.875;    0.000
967.164; 1063.400;  179.875;    0.000
967.332; 1115.400;  203.875;    0.000
967.500; 1044.400;  200.875;    0.000
967.667; 1111.400;  196.875;    0.000
967.835; 1097.400;  199.875;    0.000
968.003; 1083.400;  191.875;    0.000
968.170; 1051.400;  141.875;    0.000
968.338; 1085.400;  185.875;    0.000
968.505; 1103.400;  199.875;    0.000
968.673; 1098.400;  191.875;    0.000
968.841;  979.400;  165.875;    0.000
969.008; 1059.400;  192.875;    0.000
969.175;  978.400;  172.875;    0.000
969.343; 1021.400;  191.875;    0.000
969.510;  998.400;  199.875;    0.000
969.678; 1037.400;  156.875;    0.000
969.845; 1035.400;  191.875;    0.000
970.012; 1002.400;  205.875;    0.000
970.180; 1090.400;  201.875;    0.000
970.347; 1040.400;  229.875;    0.000
970.514;  970.400;  207.875;    0.000
970.681;  973.400;  169.875;    0.000
970.849;  980.400;  196.875;    0.000
971.016;  942.400;  212.875;    0.000
971.183;  953.400;  178.875;    0.000
971.350; 1002.400;  193.875;    0.000
971.517;  960.400;  190.875;    0.000
971.684; 1025.400;  261.875;    0.000
971.851; 1006.400;  203.875;    0.000
972.018;  954.400;  184.875;    0.000
972.185;  958.400;  226.875;    0.000
972.352;  991.400;  180.875;    0.000
972.519;  952.400;  226.875;    0.000
972.686;  958.400;  233.875;    0.000
972.853;  966.400;  173.875;    0.000
973.020;  932.400;  208.875;    0.000
973.186;  971.400;  173.875;    0.000
973.353;  941.400;  218.875;    0.000
973.520;  940.400;  218.875;    0.000
973.687;  926.400;  176.875;    0.000
973.853;  981.400;  203.875;    0.000
974.020;  981.400;  196.875;    0.000
974.187;  986.400;  188.875;    0.000
974.353; 1033.400;  230.875;    0.000
974.520; 1018.400;  195.875;    0.000
974.687;  958.400;  209.875;    0.000
974.853;  998.400;  189.875;    0.000
975.020;  968.400;  179.875;    0.000
975.186;  948.400;  204.875;    0.000
975.353;  946.400;  201.875;    0.000
975.519;  930.400;  200.875;    0.000
975.685;  880.400;  176.875;    0.000
975.852; 1005.400;  197.875;    0.000
976.018; 1031.400;  201.875;    0.000
976.184;  932.400;  176.875;    0.000
976.351;  986.400;  221.875;    0.000
976.517;  975.400;  203.875;    0.000
976.683; 1026.400;  236.875;    0.000
976.849;  983.400;  190.875;    0.000
977.016;  921.400;  173.875;    0.000
977.182;  990.400;  200.875;    0.000
977.348;  879.400;  179.875;    0.000
977.514;  898.400;  159.875;    0.000
977.680;  951.400;  200.875;    0.000
977.846;  958.400;  206.875;    0.000
978.012;  974.400;  219.875;    0.000
978.178;  921.400;  229.875;    0.000
978.344;  914.400;  195.875;    0.000
978.510; 1037.400;  209.875;    0.000
978.676;  916.400;  190.875;    0.000
978.842;  928.400;  195.875;    0.000
979.008;  962.400;  186.875;    0.000
979.174;  972.400;  185.875;    0.000
979.340;  942.400;  198.875;    0.000
979.505;  889.400;  214.875;    0.000
979.671; 1011.400;  159.875;    0.000
979.837;  950.400;  202.875;    0.000
980.003;  917.400;  190.875;    0.000
980.168;  994.400;  216.875;    0.000
980.334;  944.400;  194.875;    0.000
980.499;  975.400;  229.875;    0.000
980.665;  944.400;  240.875;    0.000
980.831;  994.400;  202.875;    0.000
980.996;  958.400;  179.875;    0.000
981.162;  977.400;  212.875;    0.000
981.327;  955.400;  202.875;    0.000
981.493;  983.400;  219.875;    0.000
981.658; 1054.400;  218.875;    0.000
981.823;  992.400;  207.875;    0.000
981.989;  986.400;  207.875;    0.000
982.154; 1001.400;  224.875;    0.000
982.319;  999.400;  217.875;    0.000
982.485; 1028.400;  266.875;    0.000
982.650; 1037.400;  245.875;    0.000
982.815; 1022.400;  229.875;    0.000
982.980; 1044.400;  203.875;    0.000
983.146;  997.400;  242.875;    0.000
983.311;  973.400;  144.875;    0.000
983.476;  954.400;  222.875;    0.000
983.641;  902.400;  206.875;    0.000
983.806;  943.400;  217.875;    0.000
983.971; 1048.400;  254.875;    0.000
984.136;  976.400;  217.875;    0.000
984.301;  932.400;  202.875;    0.000
984.466;  904.400;  206.875;    0.000
984.631;  971.400;  224.875;    0.000
984.796;  919.400;  218.875;    0.000
984.961;  983.400;  202.875;    0.000
985.126;  955.400;  238.875;    0.000
985.291;  929.400;  220.875;    0.000
985.455;  885.400;  223.875;    0.000
985.620;  943.400;  218.875;    0.000
985.785;  945.400;  228.875;    0.000
985.950;  957.400;  212.875;    0.000
986.114; 1020.400;  215.875;    0.000
986.279; 1022.400;  243.875;    0.000
986.444; 1019.400;  222.875;    0.000
986.608; 1006.400;  243.875;    0.000
986.773; 1030.400;  213.875;    0.000
986.937; 1085.400;  267.875;    0.000
987.102; 1072.400;  235.875;    0.000
987.266; 1017.400;  210.875;    0.000
987.431; 1028.400;  239.875;    0.000
987.595; 1040.400;  230.875;    0.000
987.760;  964.400;  229.875;    0.000
987.924;  949.400;  217.875;    0.000
988.088; 1010.400;  210.875;    0.000
988.253;  993.400;  215.875;    0.000
988.417;  937.400;  186.875;    0.000
988.581;  969.400;  214.875;    0.000
988.746;  990.400;  212.875;    0.000
988.910;  928.400;  192.875;    0.000
989.074;  972.400;  195.875;    0.000
989.238;  930.400;  226.875;    0.000
989.402;  934.400;  214.875;    0.000
989.566;  942.400;  201.875;    0.000
989.731;  985.400;  199.875;    0.000
989.895;  925.400;  205.875;    0.000
990.059;  936.400;  204.875;    0.000
990.223;  924.400;  182.875;    0.000
990.387;  894.400;  220.875;    0.000
990.551;  868.400;  199.875;    0.000
990.714;  972.400;  202.875;    0.000
990.878;  981.400;  201.875;    0.000
991.042;  875.400;  202.875;    0.000
991.206;  910.400;  215.875;    0.000
991.370;  971.400;  217.875;    0.000
991.534;  875.400;  152.875;    0.000
991.697;  896.400;  194.875;    0.000
991.861;  935.400;  208.875;    0.000
992.025;  866.400;  209.875;    0.000
992.188;  833.400;  182.875;    0.000
992.352;  877.400;  181.875;    0.000
992.516;  807.400;  192.875;    0.000
992.679;  895.400;  183.875;    0.000
992.843;  850.400;  156.875;    0.000
993.006;  892.400;  192.875;    0.000
993.170;  884.400;  172.875;    0.000
993.333;  889.400;  195.875;    0.000
993.497;  873.400;  185.875;    0.000
993.660;  888.400;  155.875;    0.000
993.824;  891.400;  199.875;    0.000
993.987;  877.400;  211.875;    0.000
994.150;  838.400;  173.875;    0.000
994.314;  934.400;  202.875;    0.000
994.477;  841.400;  171.875;    0.000
994.640;  901.400;  191.875;    0.000
994.803;  880.400;  203.875;    0.000
994.967;  888.400;  198.875;    0.000
995.130;  862.400;  192.875;    0.000
995.293;  844.400;  211.875;    0.000
995.456;  914.400;  207.875;    0.000
995.619;  879.400;  207.875;    0.000
995.782;  859.400;  186.875;    0.000
995.945;  824.400;  203.875;    0.000
996.108;  791.400;  195.875;    0.000
996.271;  828.400;  195.875;    0.000
996.434;  853.400;  179.875;    0.000
996.597;  809.400;  170.875;    0.000
996.760;  849.400;  161.875;    0.000
996.923;  857.400;  177.875;    0.000
997.086;  803.400;  199.875;    0.000
997.248;  914.400;  225.875;    0.000
997.411;  780.400;  194.875;    0.000
997.574;  842.400;  204.875;    0.000
997.737;  872.400;  236.875;    0.000
997.899;  859.400;  191.875;    0.000
998.062;  910.400;  178.875;    0.000
998.225;  805.400;  176.875;    0.000
998.387;  828.400;  203.875;    0.000
998.550;  847.400;  155.875;    0.000
998.712;  845.400;  169.875;    0.000
998.875;  874.400;  234.875;    0.000
999.037;  808.400;  211.875;    0.000
999.200;  891.400;  185.875;    0.000
999.362;  877.400;  199.875;    0.000
999.525;  820.400;  234.875;    0.000
999.687;  882.400;  194.875;    0.000
999.849;  857.400;  223.875;    0.000
1000.012;  827.400;  222.875;    0.000
1000.174;  880.400;  187.875;    0.000
1000.336;  867.400;  204.875;    0.000
1000.499;  802.400;  240.875;    0.000
1000.661;  920.400;  215.875;    0.000
1000.823;  889.400;  206.875;    0.000
1000.985;  839.400;  197.875;    0.000
1001.147;  903.400;  221.875;    0.000
1001.309;  868.400;  207.875;    0.000
1001.471;  925.400;  227.875;    0.000
1001.633;  878.400;  208.875;    0.000
1001.796;  911.400;  158.875;    0.000
1001.958;  865.400;  210.875;    0.000
1002.119;  859.400;  223.875;    0.000
1002.281;  870.400;  211.875;    0.000
1002.443;  920.400;  227.875;    0.000
1002.605;  929.400;  186.875;    0.000
1002.767;  916.400;  242.875;    0.000
1002.929; 1033.400;  219.875;    0.000
1003.091;  966.400;  191.875;    0.000
1003.252; 1031.400;  233.875;    0.000
1003.414; 1034.400;  214.875;    0.000
1003.576; 1049.400;  186.875;    0.000
1003.738; 1028.400;  175.875;    0.000
1003.899; 1136.400;  237.875;    0.000
1004.061; 1147.400;  220.875;    0.000
1004.222; 1214.400;  186.875;    0.000
1004.384; 1260.400;  216.875;    0.000
1004.546; 1251.400;  203.875;    0.000
1004.707; 1169.400;  216.875;    0.000
1004.869; 1227.400;  219.875;    0.000
1005.030; 1260.400;  188.875;    0.000
1005.191; 1243.400;  223.875;    0.000
1005.353; 1313.400;  227.875;    0.000
1005.514; 1142.400;  235.875;    0.000
1005.675; 1231.400;  201.875;    0.000
1005.837; 1247.400;  199.875;    0.000
1005.998; 1199.400;  219.875;    0.000
1006.159; 1152.400;  235.875;    0.000
1006.321; 1140.400;  199.875;    0.000
1006.482; 1131.400;  222.875;    0.000
1006.643; 1117.400;  195.875;    0.000
1006.804; 1217.400;  205.875;    0.000
1006.965; 1201.400;  199.875;    0.000
1007.126; 1149.400;  231.875;    0.000
1007.287; 1177.400;  208.875;    0.000
1007.448; 1228.400;  205.875;    0.000
1007.609; 1256.400;  256.875;    0.000
1007.770; 1188.400;  231.875;    0.000
1007.931; 1318.400;  223.875;    0.000
1008.092; 1186.400;  217.875;    0.000
1008.253; 1173.400;  236.875;    0.000
1008.414; 1245.400;  197.875;    0.000
1008.575; 1281.400;  233.875;    0.000
1008.736; 1144.400;  193.875;    0.000
1008.896; 1200.400;  238.875;    0.000
1009.057; 1276.400;  245.875;    0.000
1009.218; 1218.400;  240.875;    0.000
1009.379; 1292.400;  210.875;    0.000
1009.539; 1311.400;  234.875;    0.000
1009.700; 1253.400;  228.875;    0.000
1009.860; 1329.400;  238.875;    0.000
1010.021; 1270.400;  199.875;    0.000
1010.182; 1331.400;  214.875;    0.000
1010.342; 1375.400;  216.875;    0.000
1010.503; 1496.400;  207.875;    0.000
1010.663; 1466.400;  258.875;    0.000
1010.823; 1554.400;  243.875;    0.000
1010.984; 1719.400;  268.875;    0.000
1011.144; 1603.400;  217.875;    0.000
1011.305; 1787.400;  237.875;    0.000
1011.465; 1864.400;  216.875;    0.000
1011.625; 1988.400;  195.875;    0.000
1011.785; 1947.400;  201.875;    0.000
1011.946; 1965.400;  200.875;    0.000
1012.106; 1977.400;  206.875;    0.000
1012.266; 1831.400;  227.875;    0.000
1012.426; 1827.400;  221.875;    0.000
1012.586; 1755.400;  198.875;    0.000
1012.746; 1720.400;  215.875;    0.000
1012.906; 1770.400;  226.875;    0.000
1013.066; 1693.400;  221.875;    0.000
1013.226; 1521.400;  202.875;    0.000
1013.386; 1751.400;  210.875;    0.000
1013.546; 1599.400;  243.875;    0.000
1013.706; 1660.400;  200.875;    0.000
1013.866; 1468.400;  232.875;    0.000
1014.026; 1544.400;  206.875;    0.000
1014.186; 1455.400;  222.875;    0.000
1014.346; 1639.400;  233.875;    0.000
1014.505; 1545.400;  241.875;    0.000
1014.665; 1623.400;  225.875;    0.000
1014.825; 1459.400;  196.875;    0.000
1014.985; 1609.400;  234.875;    0.000
1015.144; 1609.400;  232.875;    0.000
1015.304; 1550.400;  214.875;    0.000
1015.464; 1547.400;  210.875;    0.000
1015.623; 1527.400;  219.875;    0.000
1015.783; 1638.400;  216.875;    0.000
1015.942; 1608.400;  267.875;    0.000
1016.102; 1648.400;  234.875;    0.000
1016.261; 1621.400;  230.875;    0.000
1016.420; 1643.400;  225.875;    0.000
1016.580; 1800.400;  205.875;    0.000
1016.739; 1771.400;  199.875;    0.000
1016.899; 1775.400;  218.875;    0.000
1017.058; 1900.400;  204.875;    0.000
1017.217; 1955.400;  196.875;    0.000
1017.376; 1877.400;  204.875;    0.000
1017.536; 1813.400;  195.875;    0.000
1017.695; 1805.400;  216.875;    0.000
1017.854; 1761.400;  235.875;    0.000
1018.013; 1739.400;  189.875;    0.000
1018.172; 1610.400;  217.875;    0.000
1018.331; 1722.400;  215.875;    0.000
1018.490; 1690.400;  233.875;    0.000
1018.649; 1540.400;  211.875;    0.000
1018.808; 1659.400;  196.875;    0.000
1018.967; 1772.400;  222.875;    0.000
1019.126; 1764.400;  221.875;    0.000
1019.285; 1830.400;  212.875;    0.000
1019.444; 1793.400;  231.875;    0.000
1019.603; 1601.400;  227.875;    0.000
1019.762; 1693.400;  192.875;    0.000
1019.921; 1753.400;  240.875;    0.000
1020.079; 1674.400;  209.875;    0.000
1020.238; 1740.400;  211.875;    0.000
1020.397; 1766.400;  253.875;    0.000
1020.555; 1730.400;  179.875;    0.000
1020.714; 1822.400;  225.875;    0.000
1020.873; 1920.400;  232.875;    0.000
1021.031; 1763.400;  245.875;    0.000
1021.190; 1808.400;  230.875;    0.000
1021.348; 1746.400;  221.875;    0.000
1021.507; 1856.400;  212.875;    0.000
1021.665; 1797.400;  211.875;    0.000
1021.824; 1801.400;  206.875;    0.000
1021.982; 1631.400;  218.875;    0.000
1022.141; 1732.400;  232.875;    0.000
1022.299; 1939.400;  193.875;    0.000
1022.457; 1884.400;  217.875;    0.000
1022.616; 1702.400;  248.875;    0.000
1022.774; 1755.400;  222.875;    0.000
1022.932; 1771.400;  211.875;    0.000
1023.090; 1875.400;  288.875;    0.000
1023.249; 1905.400;  214.875;    0.000
1023.407; 1790.400;  233.875;    0.000
1023.565; 1709.400;  208.875;    0.000
1023.723; 1887.400;  217.875;    0.000
1023.881; 1905.400;  235.875;    0.000
1024.039; 1910.400;  228.875;    0.000
1024.197; 1836.400;  216.875;    0.000
1024.355; 1704.400;  251.875;    0.000
1024.513; 1811.400;  232.875;    0.000
1024.671; 1992.400;  217.875;    0.000
1024.829; 1944.400;  255.875;    0.000
1024.987; 1757.400;  203.875;    0.000
1025.145; 1859.400;  239.875;    0.000
1025.302; 1817.400;  209.875;    0.000
1025.460; 2001.400;  224.875;    0.000
1025.618; 2003.400;  193.875;    0.000
1025.776; 1856.400;  209.875;    0.000
1025.933; 1813.400;  229.875;    0.000
1026.091; 1928.400;  218.875;    0.000
1026.249; 2038.400;  269.875;    0.000
1026.406; 2041.400;  264.875;    0.000
1026.564; 1807.400;  230.875;    0.000
1026.721; 1788.400;  198.875;    0.000
1026.879; 1859.400;  216.875;    0.000
1027.036; 2028.400;  226.875;    0.000
1027.194; 2240.400;  245.875;    0.000
1027.351; 1913.400;  236.875;    0.000
1027.509; 1849.400;  262.875;    0.000
1027.666; 1769.400;  227.875;    0.000
1027.823; 1963.400;  214.875;    0.000
1027.981; 2307.400;  258.875;    0.000
1028.138; 2142.400;  239.875;    0.000
1028.295; 2030.400;  226.875;    0.000
1028.452; 1744.400;  225.875;    0.000
1028.609; 1849.400;  276.875;    0.000
1028.767; 2115.400;  228.875;    0.000
1028.924; 2258.400;  213.875;    0.000
1029.081; 2226.400;  232.875;    0.000
1029.238; 1835.400;  250.875;    0.000
1029.395; 1706.400;  255.875;    0.000
1029.552; 1933.400;  217.875;    0.000
1029.709; 2236.400;  210.875;    0.000
1029.866; 2410.400;  243.875;    0.000
1030.023; 2109.400;  202.875;    0.000
1030.180; 1900.400;  233.875;    0.000
1030.337; 1872.400;  234.875;    0.000
1030.494; 1933.400;  222.875;    0.000
1030.650; 2170.400;  241.875;    0.000
1030.807; 2260.400;  206.875;    0.000
1030.964; 2215.400;  206.875;    0.000
1031.121; 1975.400;  228.875;    0.000
1031.277; 1912.400;  228.875;    0.000
1031.434; 1976.400;  234.875;    0.000
1031.591; 2237.400;  250.875;    0.000
1031.747; 2371.400;  246.875;    0.000
1031.904; 2301.400;  201.875;    0.000
1032.060; 2081.400;  237.875;    0.000
1032.217; 1967.400;  232.875;    0.000
1032.373; 1980.400;  210.875;    0.000
1032.530; 2189.400;  246.875;    0.000
1032.686; 2466.400;  196.875;    0.000
1032.843; 2362.400;  212.875;    0.000
1032.999; 2313.400;  243.875;    0.000
1033.155; 2281.400;  234.875;    0.000
1033.312; 2110.400;  246.875;    0.000
1033.468; 2370.400;  233.875;    0.000
1033.624; 2854.400;  237.875;    0.000
1033.780; 3044.400;  263.875;    0.000
1033.937; 3086.400;  214.875;    0.000
1034.093; 2856.400;  230.875;    0.000
1034.249; 3074.400;  206.875;    0.000
1034.405; 2736.400;  238.875;    0.000
1034.561; 2915.400;  231.875;    0.000
1034.717; 3194.400;  228.875;    0.000
1034.873; 3229.400;  262.875;    0.000
1035.029; 3292.400;  252.875;    0.000
1035.185; 3113.400;  232.875;    0.000
1035.341; 2915.400;  245.875;    0.000
1035.497; 3122.400;  253.875;    0.000
1035.653; 2982.400;  252.875;    0.000
1035.809; 3571.400;  245.875;    0.000
1035.964; 3790.400;  229.875;    0.000
1036.120; 3731.400;  226.875;    0.000
1036.276; 3624.400;  236.875;    0.000
1036.432; 3498.400;  203.875;    0.000
1036.587; 3269.400;  228.875;    0.000
1036.743; 3578.400;  240.875;    0.000
1036.899; 3577.400;  220.875;    0.000
1037.054; 3505.400;  153.875;    0.000
1037.210; 3824.400;  219.875;    0.000
1037.365; 3990.400;  229.875;    0.000
1037.521; 3960.400;  257.875;    0.000
1037.676; 4032.400;  211.875;    0.000
1037.832; 3476.400;  234.875;    0.000
1037.987; 3597.400;  235.875;    0.000
1038.143; 3454.400;  176.875;    0.000
1038.298; 3867.400;  262.875;    0.000
1038.453; 4001.400;  209.875;    0.000
1038.609; 4261.400;  230.875;    0.000
1038.764; 4112.400;  253.875;    0.000
1038.919; 4160.400;  195.875;    0.000
1039.074; 4349.400;  234.875;    0.000
1039.229; 3858.400;  234.875;    0.000
1039.385; 3750.400;  266.875;    0.000
1039.540; 4131.400;  252.875;    0.000
1039.695; 4317.400;  231.875;    0.000
1039.850; 4554.400;  208.875;    0.000
1040.005; 4416.400;  232.875;    0.000
1040.160; 4940.400;  214.875;    0.000
1040.315; 4741.400;  221.875;    0.000
1040.470; 4666.400;  207.875;    0.000
1040.625; 3928.400;  249.875;    0.000
1040.780; 3997.400;  251.875;    0.000
1040.935; 4359.400;  254.875;    0.000
1041.089; 4498.400;  210.875;    0.000
1041.244; 4940.400;  225.875;    0.000
1041.399; 5019.400;  208.875;    0.000
1041.554; 5056.400;  249.875;    0.000
1041.708; 5565.400;  254.875;    0.000
1041.863; 5294.400;  248.875;    0.000
1042.018; 5509.400;  280.875;    0.000
1042.172; 5645.400;  233.875;    0.000
1042.327; 5011.400;  256.875;    0.000
1042.481; 5022.400;  210.875;    0.000
1042.636; 5524.400;  229.875;    0.000
1042.791; 5836.400;  215.875;    0.000
1042.945; 5984.400;  256.875;    0.000
1043.099; 6117.400;  251.875;    0.000
1043.254; 6146.400;  204.875;    0.000
1043.408; 6741.400;  278.875;    0.000
1043.563; 6723.400;  211.875;    0.000
1043.717; 6353.400;  259.875;    0.000
1043.871; 6156.400;  233.875;    0.000
1044.025; 6158.400;  221.875;    0.000
1044.180; 5778.400;  208.875;    0.000
1044.334; 6291.400;  255.875;    0.000
1044.488; 6192.400;  269.875;    0.000
1044.642; 6659.400;  228.875;    0.000
1044.796; 7566.400;  232.875;    0.000
1044.950; 8060.400;  249.875;    0.000
1045.104; 7375.400;  205.875;    0.000
1045.258; 8051.400;  206.875;    0.000
1045.412; 7995.400;  251.875;    0.000
1045.566; 6994.400;  249.875;    0.000
1045.720; 7363.400;  206.875;    0.000
1045.874; 6925.400;  232.875;    0.000
1046.028; 6739.400;  266.875;    0.000
1046.182; 6453.400;  217.875;    0.000
1046.336; 7024.400;  216.875;    0.000
1046.489; 7559.400;  236.875;    0.000
1046.643; 7840.400;  253.875;    0.000
1046.797; 7795.400;  244.875;    0.000
1046.951; 8304.400;  234.875;    0.000
1047.104; 8593.400;  281.875;    0.000
1047.258; 8527.400;  253.875;    0.000
1047.411; 8543.400;  228.875;    0.000
1047.565; 8409.400;  273.875;    0.000
1047.719; 7965.400;  232.875;    0.000
1047.872; 7732.400;  230.875;    0.000
1048.026; 7831.400;  282.875;    0.000
1048.179; 7955.400;  225.875;    0.000
1048.332; 7634.400;  234.875;    0.000
1048.486; 7098.400;  223.875;    0.000
1048.639; 8071.400;  248.875;    0.000
1048.792; 8397.400;  244.875;    0.000
1048.946; 8911.400;  210.875;    0.000
1049.099;10182.400;  242.875;    0.000
1049.252; 9620.400;  269.875;    0.000
1049.406; 9311.400;  285.875;    0.000
1049.559; 9644.400;  277.875;    0.000
1049.712; 9815.400;  254.875;    0.000
1049.865; 9946.400;  252.875;    0.000
1050.018; 9927.400;  270.875;    0.000
1050.171; 9077.400;  230.875;    0.000
1050.324; 9249.400;  268.875;    0.000
1050.477; 8875.400;  262.875;    0.000
1050.630; 8178.400;  243.875;    0.000
1050.783; 9105.400;  216.875;    0.000
1050.936; 9474.400;  250.875;    0.000
1051.089; 9084.400;  247.875;    0.000
1051.242; 9977.400;  300.875;    0.000
1051.394;10012.400;  233.875;    0.000
1051.547;10096.400;  263.875;    0.000
1051.700;10360.400;  238.875;    0.000
1051.853;10731.400;  299.875;    0.000
1052.005;11770.400;  275.875;    0.000
1052.158;11437.400;  304.875;    0.000
1052.311;12651.400;  251.875;    0.000
1052.463;11483.400;  276.875;    0.000
1052.616;11147.400;  271.875;    0.000
1052.768;10938.400;  285.875;    0.000
1052.921;10748.400;  261.875;    0.000
1053.073;11233.400;  333.875;    0.000
1053.226;10923.400;  271.875;    0.000
1053.378;11325.400;  309.875;    0.000
1053.531;11308.400;  266.875;    0.000
1053.683;11401.400;  278.875;    0.000
1053.835;10646.400;  274.875;    0.000
1053.988; 8369.400;  287.875;    0.000
1054.140; 2578.400;  350.875;    0.000
1054.292;  851.400;  338.875;    0.000
1054.444;  740.400;  270.875;    0.000
1054.596;  670.400;  294.875;    0.000
1054.749;  616.400;  285.875;    0.000
1054.901;  574.400;  254.875;    0.000
1055.053;  591.400;  320.875;    0.000
1055.205;  549.400;  284.875;    0.000
1055.357;  552.400;  298.875;    0.000
1055.509;  531.400;  304.875;    0.000
1055.661;  586.400;  350.875;    0.000
1055.813;  511.400;  289.875;    0.000
1055.965;  508.400;  277.875;    0.000
1056.116;  515.400;  288.875;    0.000
1056.268;  505.400;  311.875;    0.000
1056.420;  512.400;  308.875;    0.000

