
Integration time [ms]:   0.300
Averaging Nr. [scans]: 1
Smoothing Nr. [pixels]: 0
Data measured with spectrometer [name]: NIR
Wave   ;Sample   ;Dark     ;Reference
[nm]   ;[counts] ;[counts] ;[counts] 

691.496;   40.250;  102.875;    0.000
691.696;   21.250;  181.875;    0.000
691.896;  -14.750;  138.875;    0.000
692.096;   41.250;  182.875;    0.000
692.296;  -53.750;  145.875;    0.000
692.496;   47.250;  154.875;    0.000
692.695;   12.250;  108.875;    0.000
692.895;   64.250;  176.875;    0.000
693.095;   -9.750;  138.875;    0.000
693.295;   34.250;  192.875;    0.000
693.495;   27.250;  170.875;    0.000
693.695;   -6.750;  147.875;    0.000
693.894;    5.250;  191.875;    0.000
694.094;   -7.750;  148.875;    0.000
694.294;   32.250;  147.875;    0.000
694.494;  243.250;  140.875;    0.000
694.693; 2188.250;  137.875;    0.000
694.893; 2510.250;  141.875;    0.000
695.093; 2599.250;  105.875;    0.000
695.293; 2567.250;  115.875;    0.000
695.492; 2655.250;   81.875;    0.000
695.692; 2531.250;  162.875;    0.000
695.891; 2678.250;  162.875;    0.000
696.091; 2639.250;  166.875;    0.000
696.291; 2633.250;  143.875;    0.000
696.490; 2627.250;  170.875;    0.000
696.690; 2593.250;  142.875;    0.000
696.889; 2548.250;  186.875;    0.000
697.089; 2595.250;  120.875;    0.000
697.288; 2656.250;  215.875;    0.000
697.488; 2707.250;  178.875;    0.000
697.687; 2608.250;  170.875;    0.000
697.887; 2681.250;  140.875;    0.000
698.086; 2673.250;  131.875;    0.000
698.286; 2609.250;  117.875;    0.000
698.485; 2689.250;  136.875;    0.000
698.684; 2643.250;  126.875;    0.000
698.884; 2684.250;  161.875;    0.000
699.083; 2730.250;   95.875;    0.000
699.282; 2772.250;  120.875;    0.000
699.482; 2866.250;  131.875;    0.000
699.681; 2653.250;  168.875;    0.000
699.880; 2651.250;  154.875;    0.000
700.080; 2718.250;  149.875;    0.000
700.279; 2643.250;   99.875;    0.000
700.478; 2698.250;  157.875;    0.000
700.677; 2656.250;  111.875;    0.000
700.877; 2711.250;  126.875;    0.000
701.076; 2776.250;  142.875;    0.000
701.275; 2747.250;  107.875;    0.000
701.474; 2678.250;   72.875;    0.000
701.673; 2731.250;   87.875;    0.000
701.872; 2693.250;  170.875;    0.000
702.071; 2777.250;  136.875;    0.000
702.271; 2875.250;  121.875;    0.000
702.470; 2784.250;  139.875;    0.000
702.669; 2755.250;  121.875;    0.000
702.868; 2886.250;  146.875;    0.000
703.067; 2752.250;  159.875;    0.000
703.266; 2907.250;  122.875;    0.000
703.465; 2921.250;  121.875;    0.000
703.664; 2893.250;  144.875;    0.000
703.863; 2712.250;  140.875;    0.000
704.062; 2793.250;  109.875;    0.000
704.260; 2753.250;  164.875;    0.000
704.459; 2838.250;  124.875;    0.000
704.658; 2848.250;  109.875;    0.000
704.857; 2807.250;  149.875;    0.000
705.056; 2668.250;  112.875;    0.000
705.255; 2706.250;   95.875;    0.000
705.454; 2852.250;  105.875;    0.000
705.652; 2817.250;  134.875;    0.000
705.851; 2803.250;   92.875;    0.000
706.050; 3025.250;  127.875;    0.000
706.249; 2796.250;  111.875;    0.000
706.447; 2941.250;   98.875;    0.000
706.646; 2722.250;  108.875;    0.000
706.845; 3007.250;   95.875;    0.000
707.043; 2876.250;   95.875;    0.000
707.242; 2839.250;   97.875;    0.000
707.441; 3022.250;  142.875;    0.000
707.639; 2922.250;  121.875;    0.000
707.838; 2885.250;  141.875;    0.000
708.037; 2959.250;  125.875;    0.000
708.235; 2941.250;  100.875;    0.000
708.434; 2866.250;  106.875;    0.000
708.632; 2834.250;   86.875;    0.000
708.831; 3036.250;  138.875;    0.000
709.029; 2935.250;   86.875;    0.000
709.228; 3000.250;  103.875;    0.000
709.426; 3048.250;  146.875;    0.000
709.625; 2888.250;  136.875;    0.000
709.823; 2833.250;  114.875;    0.000
710.022; 2943.250;  144.875;    0.000
710.220; 2871.250;  109.875;    0.000
710.418; 3051.250;  116.875;    0.000
710.617; 2863.250;   67.875;    0.000
710.815; 3020.250;  104.875;    0.000
711.013; 2985.250;  109.875;    0.000
711.212; 2885.250;  106.875;    0.000
711.410; 3023.250;   95.875;    0.000
711.608; 3011.250;  155.875;    0.000
711.807; 3167.250;  103.875;    0.000
712.005; 2984.250;  104.875;    0.000
712.203; 2988.250;   94.875;    0.000
712.401; 2931.250;  125.875;    0.000
712.599; 3053.250;  127.875;    0.000
712.798; 3109.250;  141.875;    0.000
712.996; 2951.250;   85.875;    0.000
713.194; 3167.250;   96.875;    0.000
713.392; 3051.250;   54.875;    0.000
713.590; 3136.250;  123.875;    0.000
713.788; 3058.250;  130.875;    0.000
713.986; 3025.250;  104.875;    0.000
714.184; 3103.250;   91.875;    0.000
714.382; 3305.250;  120.875;    0.000
714.580; 3073.250;   71.875;    0.000
714.778; 3272.250;   92.875;    0.000
714.976; 3282.250;  129.875;    0.000
715.174; 3285.250;   99.875;    0.000
715.372; 3456.250;  119.875;    0.000
715.570; 3648.250;   95.875;    0.000
715.768; 3905.250;  113.875;    0.000
715.966; 4068.250;   64.875;    0.000
716.164; 4024.250;  135.875;    0.000
716.362; 3857.250;  125.875;    0.000
716.560; 3733.250;  135.875;    0.000
716.758; 3542.250;   84.875;    0.000
716.955; 3467.250;  109.875;    0.000
717.153; 3535.250;   73.875;    0.000
717.351; 3454.250;  110.875;    0.000
717.549; 3352.250;  149.875;    0.000
717.746; 3400.250;  121.875;    0.000
717.944; 3401.250;  128.875;    0.000
718.142; 3439.250;  124.875;    0.000
718.340; 3420.250;   96.875;    0.000
718.537; 3385.250;  138.875;    0.000
718.735; 3545.250;  144.875;    0.000
718.933; 3382.250;   97.875;    0.000
719.130; 3361.250;  109.875;    0.000
719.328; 3413.250;  123.875;    0.000
719.525; 3362.250;  118.875;    0.000
719.723; 3354.250;  117.875;    0.000
719.920; 3296.250;   72.875;    0.000
720.118; 3370.250;   92.875;    0.000
720.316; 3498.250;  141.875;    0.000
720.513; 3374.250;   98.875;    0.000
720.711; 3350.250;  146.875;    0.000
720.908; 3259.250;  113.875;    0.000
721.105; 3304.250;  157.875;    0.000
721.303; 3380.250;  106.875;    0.000
721.500; 3196.250;   88.875;    0.000
721.698; 3278.250;   88.875;    0.000
721.895; 3405.250;   94.875;    0.000
722.092; 3337.250;   82.875;    0.000
722.290; 3329.250;  136.875;    0.000
722.487; 3277.250;   67.875;    0.000
722.684; 3490.250;  115.875;    0.000
722.882; 3454.250;  104.875;    0.000
723.079; 3300.250;  122.875;    0.000
723.276; 3376.250;   91.875;    0.000
723.473; 3290.250;   89.875;    0.000
723.671; 3522.250;   97.875;    0.000
723.868; 3378.250;  117.875;    0.000
724.065; 3513.250;  102.875;    0.000
724.262; 3387.250;  137.875;    0.000
724.459; 3394.250;   48.875;    0.000
724.656; 3254.250;  122.875;    0.000
724.854; 3468.250;   96.875;    0.000
725.051; 3566.250;  120.875;    0.000
725.248; 3467.250;  146.875;    0.000
725.445; 3284.250;  117.875;    0.000
725.642; 3340.250;  106.875;    0.000
725.839; 3489.250;  143.875;    0.000
726.036; 3316.250;   79.875;    0.000
726.233; 3423.250;   90.875;    0.000
726.430; 3567.250;  124.875;    0.000
726.627; 3441.250;   98.875;    0.000
726.824; 3542.250;   91.875;    0.000
727.021; 3421.250;  131.875;    0.000
727.218; 3341.250;  110.875;    0.000
727.414; 3647.250;   83.875;    0.000
727.611; 3472.250;   86.875;    0.000
727.808; 3434.250;  131.875;    0.000
728.005; 3460.250;  105.875;    0.000
728.202; 3440.250;  128.875;    0.000
728.399; 3477.250;  113.875;    0.000
728.595; 3475.250;  102.875;    0.000
728.792; 3526.250;   91.875;    0.000
728.989; 3421.250;  122.875;    0.000
729.186; 3505.250;  103.875;    0.000
729.382; 3538.250;  106.875;    0.000
729.579; 3623.250;  114.875;    0.000
729.776; 3578.250;  115.875;    0.000
729.972; 3432.250;  108.875;    0.000
730.169; 3572.250;  111.875;    0.000
730.366; 3402.250;  100.875;    0.000
730.562; 3401.250;   86.875;    0.000
730.759; 3560.250;   93.875;    0.000
730.955; 3507.250;  127.875;    0.000
731.152; 3559.250;   99.875;    0.000
731.348; 3560.250;   97.875;    0.000
731.545; 3466.250;   98.875;    0.000
731.741; 3663.250;  130.875;    0.000
731.938; 3583.250;  115.875;    0.000
732.134; 3613.250;  107.875;    0.000
732.331; 3505.250;   80.875;    0.000
732.527; 3558.250;  108.875;    0.000
732.724; 3529.250;  104.875;    0.000
732.920; 3621.250;  109.875;    0.000
733.116; 3608.250;  117.875;    0.000
733.313; 3610.250;   81.875;    0.000
733.509; 3600.250;   87.875;    0.000
733.705; 3494.250;  143.875;    0.000
733.902; 3508.250;   74.875;    0.000
734.098; 3557.250;   90.875;    0.000
734.294; 3564.250;  104.875;    0.000
734.490; 3605.250;  139.875;    0.000
734.687; 3630.250;  113.875;    0.000
734.883; 3563.250;   72.875;    0.000
735.079; 3606.250;  100.875;    0.000
735.275; 3539.250;  113.875;    0.000
735.471; 3500.250;   55.875;    0.000
735.667; 3702.250;  106.875;    0.000
735.863; 3691.250;  131.875;    0.000
736.060; 3790.250;  127.875;    0.000
736.256; 3729.250;   76.875;    0.000
736.452; 3585.250;  127.875;    0.000
736.648; 3732.250;  136.875;    0.000
736.844; 3611.250;  113.875;    0.000
737.040; 3814.250;  125.875;    0.000
737.236; 3682.250;   99.875;    0.000
737.432; 3732.250;   75.875;    0.000
737.628; 3809.250;  155.875;    0.000
737.824; 3879.250;  116.875;    0.000
738.019; 3720.250;   92.875;    0.000
738.215; 3776.250;  113.875;    0.000
738.411; 3795.250;  135.875;    0.000
738.607; 3816.250;   53.875;    0.000
738.803; 3879.250;   79.875;    0.000
738.999; 3733.250;  117.875;    0.000
739.195; 3877.250;  106.875;    0.000
739.390; 3749.250;  125.875;    0.000
739.586; 3835.250;  102.875;    0.000
739.782; 3877.250;  125.875;    0.000
739.978; 3886.250;  124.875;    0.000
740.173; 3978.250;   96.875;    0.000
740.369; 3964.250;  118.875;    0.000
740.565; 3945.250;  128.875;    0.000
740.760; 3912.250;  118.875;    0.000
740.956; 4040.250;  109.875;    0.000
741.152; 3964.250;  151.875;    0.000
741.347; 4025.250;  112.875;    0.000
741.543; 4156.250;  113.875;    0.000
741.738; 4225.250;  128.875;    0.000
741.934; 4281.250;  144.875;    0.000
742.129; 4675.250;  105.875;    0.000
742.325; 5214.250;  137.875;    0.000
742.520; 5783.250;  128.875;    0.000
742.716; 5334.250;  121.875;    0.000
742.911; 5222.250;   75.875;    0.000
743.107; 5093.250;  100.875;    0.000
743.302; 4968.250;   72.875;    0.000
743.498; 5103.250;  137.875;    0.000
743.693; 4868.250;  124.875;    0.000
743.888; 5300.250;  121.875;    0.000
744.084; 6058.250;   93.875;    0.000
744.279; 7581.250;   75.875;    0.000
744.474; 7947.250;  136.875;    0.000
744.670; 6959.250;  109.875;    0.000
744.865; 6041.250;  142.875;    0.000
745.060; 5756.250;   84.875;    0.000
745.255; 5550.250;  149.875;    0.000
745.451; 5503.250;  101.875;    0.000
745.646; 5243.250;  132.875;    0.000
745.841; 5174.250;  126.875;    0.000
746.036; 5191.250;  125.875;    0.000
746.231; 5434.250;  150.875;    0.000
746.426; 5697.250;  118.875;    0.000
746.622; 6765.250;  135.875;    0.000
746.817; 8732.250;  122.875;    0.000
747.012;10571.250;  134.875;    0.000
747.207; 9386.250;  124.875;    0.000
747.402; 7888.250;  122.875;    0.000
747.597; 7116.250;   95.875;    0.000
747.792; 6763.250;  168.875;    0.000
747.987; 6591.250;  110.875;    0.000
748.182; 6170.250;  119.875;    0.000
748.377; 6003.250;   70.875;    0.000
748.572; 5671.250;  113.875;    0.000
748.767; 5421.250;  123.875;    0.000
748.961; 5219.250;  110.875;    0.000
749.156; 5286.250;  135.875;    0.000
749.351; 5037.250;   98.875;    0.000
749.546; 5123.250;  126.875;    0.000
749.741; 4704.250;  129.875;    0.000
749.936; 4901.250;   86.875;    0.000
750.130; 4750.250;   97.875;    0.000
750.325; 4898.250;  110.875;    0.000
750.520; 4755.250;  120.875;    0.000
750.715; 4873.250;  122.875;    0.000
750.909; 4668.250;  120.875;    0.000
751.104; 4596.250;  118.875;    0.000
751.299; 4504.250;  122.875;    0.000
751.493; 4525.250;  129.875;    0.000
751.688; 4534.250;  138.875;    0.000
751.882; 4337.250;   87.875;    0.000
752.077; 4351.250;  142.875;    0.000
752.272; 4493.250;  110.875;    0.000
752.466; 4388.250;  154.875;    0.000
752.661; 4402.250;   96.875;    0.000
752.855; 4346.250;   93.875;    0.000
753.050; 4485.250;  122.875;    0.000
753.244; 4314.250;  110.875;    0.000
753.439; 4203.250;  116.875;    0.000
753.633; 4454.250;  131.875;    0.000
753.828; 4266.250;  130.875;    0.000
754.022; 4216.250;   96.875;    0.000
754.216; 4002.250;  114.875;    0.000
754.411; 4227.250;  145.875;    0.000
754.605; 4052.250;   65.875;    0.000
754.799; 4032.250;  116.875;    0.000
754.994; 4165.250;  117.875;    0.000
755.188; 4296.250;  124.875;    0.000
755.382; 4297.250;   80.875;    0.000
755.576; 4355.250;   90.875;    0.000
755.771; 4163.250;  115.875;    0.000
755.965; 4228.250;  106.875;    0.000
756.159; 4103.250;   87.875;    0.000
756.353; 4260.250;  125.875;    0.000
756.547; 4133.250;  146.875;    0.000
756.742; 4151.250;  111.875;    0.000
756.936; 4107.250;  108.875;    0.000
757.130; 4093.250;  101.875;    0.000
757.324; 4207.250;  114.875;    0.000
757.518; 4150.250;  136.875;    0.000
757.712; 4219.250;  123.875;    0.000
757.906; 4149.250;  115.875;    0.000
758.100; 4218.250;  186.875;    0.000
758.294; 4129.250;  118.875;    0.000
758.488; 4246.250;  167.875;    0.000
758.682; 4063.250;  137.875;    0.000
758.876; 4070.250;  135.875;    0.000
759.070; 4096.250;  132.875;    0.000
759.264; 4212.250;  118.875;    0.000
759.458; 4034.250;  111.875;    0.000
759.651; 3999.250;  142.875;    0.000
759.845; 3936.250;  105.875;    0.000
760.039; 4085.250;   73.875;    0.000
760.233; 4147.250;  156.875;    0.000
760.427; 4018.250;  119.875;    0.000
760.620; 4045.250;  136.875;    0.000
760.814; 3991.250;  126.875;    0.000
761.008; 4034.250;  126.875;    0.000
761.202; 4165.250;  123.875;    0.000
761.395; 4194.250;  141.875;    0.000
761.589; 4106.250;  107.875;    0.000
761.783; 3967.250;  122.875;    0.000
761.976; 4112.250;  120.875;    0.000
762.170; 4092.250;  147.875;    0.000
762.363; 4170.250;  144.875;    0.000
762.557; 4188.250;  119.875;    0.000
762.750; 4169.250;  118.875;    0.000
762.944; 4063.250;  145.875;    0.000
763.138; 4205.250;  123.875;    0.000
763.331; 4132.250;  129.875;    0.000
763.524; 4209.250;  109.875;    0.000
763.718; 4270.250;  150.875;    0.000
763.911; 4377.250;  140.875;    0.000
764.105; 4238.250;   97.875;    0.000
764.298; 4041.250;  128.875;    0.000
764.492; 4298.250;  132.875;    0.000
764.685; 4152.250;   92.875;    0.000
764.878; 4186.250;  111.875;    0.000
765.072; 4206.250;  116.875;    0.000
765.265; 4082.250;  135.875;    0.000
765.458; 4154.250;   69.875;    0.000
765.651; 4127.250;  145.875;    0.000
765.845; 4262.250;   95.875;    0.000
766.038; 4276.250;  147.875;    0.000
766.231; 4788.250;  119.875;    0.000
766.424; 7044.250;  126.875;    0.000
766.617; 8099.250;   92.875;    0.000
766.811; 4870.250;  109.875;    0.000
767.004; 4311.250;  107.875;    0.000
767.197; 4427.250;  171.875;    0.000
767.390; 4219.250;  114.875;    0.000
767.583; 4303.250;  109.875;    0.000
767.776; 4456.250;  130.875;    0.000
767.969; 4273.250;  103.875;    0.000
768.162; 4251.250;  139.875;    0.000
768.355; 4361.250;  142.875;    0.000
768.548; 4529.250;  140.875;    0.000
768.741; 4405.250;   82.875;    0.000
768.934; 4344.250;  107.875;    0.000
769.127; 4501.250;  121.875;    0.000
769.320; 4342.250;  106.875;    0.000
769.513; 4652.250;  145.875;    0.000
769.706; 4950.250;  120.875;    0.000
769.898; 7027.250;  135.875;    0.000
770.091; 6122.250;  146.875;    0.000
770.284; 4572.250;  108.875;    0.000
770.477; 4497.250;  148.875;    0.000
770.670; 4612.250;  163.875;    0.000
770.862; 4661.250;   97.875;    0.000
771.055; 4572.250;  116.875;    0.000
771.248; 4637.250;  143.875;    0.000
771.441; 4518.250;  125.875;    0.000
771.633; 4587.250;  125.875;    0.000
771.826; 4786.250;  132.875;    0.000
772.018; 4797.250;  123.875;    0.000
772.211; 4860.250;  143.875;    0.000
772.404; 5010.250;  144.875;    0.000
772.596; 4839.250;  130.875;    0.000
772.789; 5002.250;  109.875;    0.000
772.981; 5140.250;  151.875;    0.000
773.174; 5095.250;  119.875;    0.000
773.366; 5250.250;  179.875;    0.000
773.559; 5201.250;  106.875;    0.000
773.751; 5478.250;  120.875;    0.000
773.944; 5441.250;  159.875;    0.000
774.136; 5663.250;  131.875;    0.000
774.329; 5620.250;  141.875;    0.000
774.521; 5672.250;  114.875;    0.000
774.713; 6188.250;  169.875;    0.000
774.906; 6128.250;  151.875;    0.000
775.098; 6355.250;   99.875;    0.000
775.290; 6747.250;  166.875;    0.000
775.483; 6963.250;  146.875;    0.000
775.675; 7373.250;  106.875;    0.000
775.867; 8009.250;   91.875;    0.000
776.059; 8533.250;  137.875;    0.000
776.251; 9801.250;  124.875;    0.000
776.444;10961.250;  168.875;    0.000
776.636;12698.250;  138.875;    0.000
776.828;16168.250;  155.875;    0.000
777.020;23456.250;  160.875;    0.000
777.212;36320.250;  153.875;    0.000
777.404;42794.250;  135.875;    0.000
777.596;39818.250;  144.875;    0.000
777.788;28871.250;  127.875;    0.000
777.980;20643.250;  141.875;    0.000
778.172;16609.250;  138.875;    0.000
778.364;13560.250;  143.875;    0.000
778.556;11996.250;  123.875;    0.000
778.748;10743.250;  103.875;    0.000
778.940; 9793.250;  176.875;    0.000
779.132; 8802.250;  144.875;    0.000
779.324; 8137.250;   75.875;    0.000
779.516; 7685.250;  117.875;    0.000
779.708; 7173.250;  151.875;    0.000
779.900; 7052.250;  127.875;    0.000
780.091; 6548.250;  155.875;    0.000
780.283; 6408.250;  157.875;    0.000
780.475; 6090.250;  140.875;    0.000
780.667; 6142.250;  141.875;    0.000
780.859; 5733.250;  113.875;    0.000
781.050; 5547.250;  153.875;    0.000
781.242; 5615.250;  118.875;    0.000
781.434; 5256.250;  121.875;    0.000
781.625; 5420.250;  146.875;    0.000
781.817; 5180.250;  154.875;    0.000
782.008; 5113.250;  144.875;    0.000
782.200; 5039.250;  152.875;    0.000
782.392; 4885.250;  160.875;    0.000
782.583; 4989.250;  122.875;    0.000
782.775; 4857.250;  144.875;    0.000
782.966; 4804.250;  143.875;    0.000
783.158; 4571.250;  125.875;    0.000
783.349; 4720.250;  173.875;    0.000
783.541; 4532.250;  166.875;    0.000
783.732; 4622.250;  163.875;    0.000
783.924; 4569.250;  157.875;    0.000
784.115; 4515.250;  158.875;    0.000
784.306; 4543.250;  160.875;    0.000
784.498; 4631.250;  132.875;    0.000
784.689; 4432.250;  181.875;    0.000
784.880; 4460.250;  156.875;    0.000
785.072; 4471.250;  134.875;    0.000
785.263; 4359.250;  155.875;    0.000
785.454; 4379.250;  141.875;    0.000
785.645; 4291.250;  114.875;    0.000
785.837; 4349.250;  137.875;    0.000
786.028; 4253.250;  158.875;    0.000
786.219; 4243.250;  135.875;    0.000
786.410; 4301.250;  152.875;    0.000
786.601; 4323.250;  132.875;    0.000
786.792; 4262.250;  152.875;    0.000
786.984; 4212.250;  162.875;    0.000
787.175; 4379.250;   97.875;    0.000
787.366; 4132.250;  129.875;    0.000
787.557; 4175.250;  135.875;    0.000
787.748; 4110.250;  127.875;    0.000
787.939; 4299.250;  152.875;    0.000
788.130; 4251.250;  182.875;    0.000
788.321; 4285.250;  130.875;    0.000
788.512; 4327.250;  161.875;    0.000
788.703; 4264.250;  127.875;    0.000
788.894; 4425.250;  121.875;    0.000
789.084; 4221.250;  134.875;    0.000
789.275; 4362.250;  108.875;    0.000
789.466; 4233.250;  152.875;    0.000
789.657; 4293.250;  115.875;    0.000
789.848; 4318.250;  150.875;    0.000
790.039; 4332.250;  132.875;    0.000
790.229; 4292.250;  169.875;    0.000
790.420; 4346.250;  159.875;    0.000
790.611; 4210.250;  123.875;    0.000
790.801; 4284.250;  144.875;    0.000
790.992; 4271.250;  177.875;    0.000
791.183; 4255.250;  128.875;    0.000
791.373; 4238.250;  123.875;    0.000
791.564; 4128.250;  131.875;    0.000
791.755; 4385.250;  103.875;    0.000
791.945; 4379.250;  104.875;    0.000
792.136; 4269.250;  115.875;    0.000
792.326; 4422.250;   99.875;    0.000
792.517; 4237.250;  139.875;    0.000
792.707; 4270.250;  155.875;    0.000
792.898; 4285.250;  139.875;    0.000
793.088; 4458.250;  153.875;    0.000
793.279; 4428.250;  137.875;    0.000
793.469; 4580.250;  109.875;    0.000
793.660; 4454.250;  119.875;    0.000
793.850; 4750.250;  119.875;    0.000
794.040; 4962.250;  132.875;    0.000
794.231; 5083.250;  122.875;    0.000
794.421; 5679.250;  124.875;    0.000
794.611; 6330.250;  151.875;    0.000
794.802; 7440.250;  121.875;    0.000
794.992; 8114.250;  139.875;    0.000
795.182; 8235.250;  132.875;    0.000
795.372; 7535.250;  149.875;    0.000
795.563; 6792.250;  153.875;    0.000
795.753; 6137.250;  120.875;    0.000
795.943; 5756.250;  121.875;    0.000
796.133; 5291.250;   97.875;    0.000
796.323; 5215.250;  122.875;    0.000
796.513; 4913.250;  142.875;    0.000
796.703; 4968.250;  125.875;    0.000
796.893; 4625.250;  126.875;    0.000
797.083; 4617.250;  150.875;    0.000
797.273; 4645.250;  108.875;    0.000
797.463; 4468.250;  156.875;    0.000
797.653; 4391.250;   80.875;    0.000
797.843; 4298.250;   88.875;    0.000
798.033; 4284.250;   96.875;    0.000
798.223; 4268.250;  159.875;    0.000
798.413; 4291.250;  155.875;    0.000
798.603; 4123.250;  125.875;    0.000
798.793; 3990.250;  141.875;    0.000
798.983; 3921.250;  113.875;    0.000
799.172; 4031.250;   85.875;    0.000
799.362; 3927.250;  141.875;    0.000
799.552; 3957.250;  122.875;    0.000
799.742; 3972.250;  124.875;    0.000
799.932; 3780.250;  102.875;    0.000
800.121; 3921.250;  146.875;    0.000
800.311; 3813.250;  122.875;    0.000
800.501; 3816.250;  120.875;    0.000
800.690; 3943.250;  141.875;    0.000
800.880; 3885.250;  146.875;    0.000
801.070; 3804.250;  122.875;    0.000
801.259; 3758.250;  138.875;    0.000
801.449; 3779.250;  115.875;    0.000
801.638; 3979.250;  132.875;    0.000
801.828; 3756.250;   92.875;    0.000
802.017; 3813.250;  150.875;    0.000
802.207; 3894.250;  134.875;    0.000
802.396; 3873.250;  133.875;    0.000
802.586; 3855.250;  117.875;    0.000
802.775; 3785.250;  155.875;    0.000
802.965; 3840.250;  132.875;    0.000
803.154; 3664.250;  176.875;    0.000
803.343; 3706.250;  106.875;    0.000
803.533; 3891.250;  154.875;    0.000
803.722; 3778.250;   97.875;    0.000
803.911; 3825.250;  107.875;    0.000
804.101; 3861.250;  145.875;    0.000
804.290; 3758.250;  130.875;    0.000
804.479; 3775.250;  152.875;    0.000
804.668; 3806.250;  160.875;    0.000
804.857; 3688.250;  161.875;    0.000
805.047; 3614.250;  126.875;    0.000
805.236; 3930.250;  136.875;    0.000
805.425; 3879.250;  153.875;    0.000
805.614; 3756.250;  139.875;    0.000
805.803; 3761.250;  144.875;    0.000
805.992; 3880.250;  160.875;    0.000
806.181; 3848.250;  139.875;    0.000
806.370; 3815.250;  104.875;    0.000
806.559; 3727.250;  103.875;    0.000
806.748; 3748.250;  145.875;    0.000
806.937; 3825.250;  151.875;    0.000
807.126; 4007.250;  119.875;    0.000
807.315; 4049.250;  139.875;    0.000
807.504; 3809.250;  143.875;    0.000
807.693; 3901.250;  164.875;    0.000
807.882; 3912.250;  135.875;    0.000
808.071; 3977.250;  131.875;    0.000
808.260; 3908.250;  113.875;    0.000
808.448; 4014.250;  161.875;    0.000
808.637; 4084.250;  125.875;    0.000
808.826; 3921.250;  155.875;    0.000
809.015; 4112.250;  113.875;    0.000
809.203; 4107.250;  152.875;    0.000
809.392; 4082.250;   90.875;    0.000
809.581; 4137.250;  186.875;    0.000
809.770; 4172.250;   99.875;    0.000
809.958; 4141.250;  146.875;    0.000
810.147; 4117.250;  115.875;    0.000
810.335; 4158.250;  122.875;    0.000
810.524; 4272.250;  150.875;    0.000
810.713; 4421.250;  121.875;    0.000
810.901; 4362.250;  156.875;    0.000
811.090; 4524.250;  161.875;    0.000
811.278; 4462.250;  138.875;    0.000
811.467; 4591.250;  184.875;    0.000
811.655; 4790.250;  150.875;    0.000
811.844; 4784.250;  137.875;    0.000
812.032; 4899.250;  142.875;    0.000
812.220; 4666.250;  134.875;    0.000
812.409; 4887.250;  143.875;    0.000
812.597; 4860.250;  164.875;    0.000
812.785; 4951.250;  188.875;    0.000
812.974; 4875.250;  156.875;    0.000
813.162; 4984.250;  166.875;    0.000
813.350; 5105.250;  115.875;    0.000
813.539; 5145.250;  167.875;    0.000
813.727; 5139.250;  165.875;    0.000
813.915; 5153.250;  137.875;    0.000
814.103; 5133.250;  166.875;    0.000
814.291; 5446.250;  151.875;    0.000
814.479; 5420.250;  147.875;    0.000
814.668; 5487.250;  166.875;    0.000
814.856; 5650.250;  160.875;    0.000
815.044; 5810.250;  172.875;    0.000
815.232; 5890.250;  193.875;    0.000
815.420; 6261.250;  173.875;    0.000
815.608; 6439.250;  134.875;    0.000
815.796; 6400.250;  105.875;    0.000
815.984; 6576.250;  125.875;    0.000
816.172; 7070.250;  160.875;    0.000
816.360; 7490.250;  162.875;    0.000
816.548; 7525.250;  160.875;    0.000
816.736; 8085.250;  132.875;    0.000
816.924; 8739.250;  184.875;    0.000
817.111; 9222.250;  145.875;    0.000
817.299; 9950.250;  132.875;    0.000
817.487;11052.250;  193.875;    0.000
817.675;12712.250;  153.875;    0.000
817.863;15225.250;  153.875;    0.000
818.050;20722.250;  172.875;    0.000
818.238;35630.250;  131.875;    0.000
818.426;51787.250;  160.875;    0.000
818.613;41483.250;  136.875;    0.000
818.801;32856.250;  162.875;    0.000
818.989;30918.250;  153.875;    0.000
819.176;32820.250;  181.875;    0.000
819.364;44319.250;  165.875;    0.000
819.552;61537.250;  111.875;    0.000
819.739;51503.250;  192.875;    0.000
819.927;38968.250;  146.875;    0.000
820.114;31583.250;  154.875;    0.000
820.302;26863.250;  144.875;    0.000
820.489;23584.250;  133.875;    0.000
820.677;21191.250;  135.875;    0.000
820.864;19293.250;  130.875;    0.000
821.052;18663.250;   88.875;    0.000
821.239;18085.250;  143.875;    0.000
821.426;17645.250;  186.875;    0.000
821.614;19017.250;  171.875;    0.000
821.801;20288.250;   90.875;    0.000
821.988;17933.250;  143.875;    0.000
822.176;16672.250;   95.875;    0.000
822.363;16812.250;  148.875;    0.000
822.550;15392.250;  139.875;    0.000
822.737;13807.250;  122.875;    0.000
822.924;12684.250;  171.875;    0.000
823.112;12095.250;  147.875;    0.000
823.299;11261.250;  111.875;    0.000
823.486;10589.250;  161.875;    0.000
823.673;10053.250;  124.875;    0.000
823.860; 9677.250;  151.875;    0.000
824.047; 9541.250;  145.875;    0.000
824.234;10592.250;  139.875;    0.000
824.421;10818.250;  110.875;    0.000
824.608; 9642.250;  145.875;    0.000
824.795; 8614.250;  115.875;    0.000
824.982; 8144.250;  148.875;    0.000
825.169; 7601.250;  135.875;    0.000
825.356; 7160.250;  122.875;    0.000
825.543; 6866.250;  142.875;    0.000
825.730; 6700.250;   89.875;    0.000
825.917; 6355.250;  127.875;    0.000
826.104; 6126.250;  187.875;    0.000
826.290; 6219.250;  138.875;    0.000
826.477; 5878.250;  140.875;    0.000
826.664; 5627.250;  106.875;    0.000
826.851; 5577.250;  155.875;    0.000
827.038; 5614.250;  125.875;    0.000
827.224; 5261.250;  126.875;    0.000
827.411; 5220.250;  163.875;    0.000
827.598; 5167.250;  140.875;    0.000
827.784; 4956.250;  117.875;    0.000
827.971; 4794.250;  114.875;    0.000
828.157; 4782.250;  146.875;    0.000
828.344; 4739.250;  161.875;    0.000
828.531; 4557.250;  155.875;    0.000
828.717; 4529.250;  130.875;    0.000
828.904; 4396.250;  138.875;    0.000
829.090; 4436.250;  176.875;    0.000
829.277; 4433.250;  152.875;    0.000
829.463; 4268.250;  139.875;    0.000
829.650; 4360.250;  168.875;    0.000
829.836; 4083.250;  176.875;    0.000
830.022; 4113.250;  159.875;    0.000
830.209; 4122.250;  135.875;    0.000
830.395; 4117.250;  177.875;    0.000
830.581; 4059.250;  125.875;    0.000
830.768; 3787.250;  155.875;    0.000
830.954; 3836.250;  187.875;    0.000
831.140; 3882.250;  135.875;    0.000
831.327; 3856.250;  158.875;    0.000
831.513; 3787.250;  126.875;    0.000
831.699; 3727.250;  167.875;    0.000
831.885; 3519.250;  165.875;    0.000
832.071; 3720.250;  167.875;    0.000
832.257; 3535.250;  144.875;    0.000
832.444; 3525.250;  158.875;    0.000
832.630; 3581.250;  167.875;    0.000
832.816; 3449.250;  150.875;    0.000
833.002; 3449.250;  157.875;    0.000
833.188; 3383.250;  169.875;    0.000
833.374; 3454.250;  144.875;    0.000
833.560; 3466.250;  179.875;    0.000
833.746; 3318.250;  134.875;    0.000
833.932; 3304.250;  150.875;    0.000
834.118; 3147.250;   98.875;    0.000
834.303; 3184.250;  121.875;    0.000
834.489; 3188.250;  179.875;    0.000
834.675; 3252.250;  136.875;    0.000
834.861; 3195.250;  130.875;    0.000
835.047; 3271.250;  132.875;    0.000
835.233; 3071.250;  104.875;    0.000
835.418; 3309.250;  143.875;    0.000
835.604; 3133.250;  127.875;    0.000
835.790; 3179.250;  138.875;    0.000
835.976; 3065.250;  137.875;    0.000
836.161; 3193.250;  155.875;    0.000
836.347; 3054.250;  101.875;    0.000
836.533; 2992.250;  121.875;    0.000
836.718; 3091.250;  150.875;    0.000
836.904; 3144.250;  168.875;    0.000
837.089; 3214.250;  169.875;    0.000
837.275; 2996.250;  172.875;    0.000
837.460; 3029.250;  140.875;    0.000
837.646; 3001.250;  144.875;    0.000
837.831; 3007.250;  137.875;    0.000
838.017; 2964.250;  176.875;    0.000
838.202; 2995.250;  107.875;    0.000
838.388; 3084.250;  181.875;    0.000
838.573; 3010.250;  151.875;    0.000
838.759; 2925.250;  160.875;    0.000
838.944; 3025.250;  121.875;    0.000
839.129; 2945.250;  145.875;    0.000
839.315; 2981.250;  166.875;    0.000
839.500; 2992.250;  143.875;    0.000
839.685; 2956.250;   93.875;    0.000
839.870; 3014.250;  160.875;    0.000
840.056; 2906.250;  132.875;    0.000
840.241; 2982.250;  154.875;    0.000
840.426; 3035.250;  161.875;    0.000
840.611; 3023.250;  186.875;    0.000
840.796; 3028.250;  135.875;    0.000
840.981; 3016.250;  147.875;    0.000
841.166; 3124.250;  138.875;    0.000
841.352; 2961.250;  156.875;    0.000
841.537; 3119.250;  170.875;    0.000
841.722; 3081.250;  143.875;    0.000
841.907; 3229.250;  143.875;    0.000
842.092; 3179.250;  166.875;    0.000
842.277; 3288.250;  113.875;    0.000
842.461; 3269.250;  126.875;    0.000
842.646; 3400.250;  145.875;    0.000
842.831; 3384.250;  193.875;    0.000
843.016; 3403.250;  162.875;    0.000
843.201; 3513.250;  144.875;    0.000
843.386; 3694.250;  160.875;    0.000
843.571; 3875.250;  136.875;    0.000
843.755; 4159.250;  134.875;    0.000
843.940; 4601.250;  136.875;    0.000
844.125; 5040.250;  169.875;    0.000
844.310; 6072.250;  189.875;    0.000
844.494; 8071.250;  167.875;    0.000
844.679;11675.250;  184.875;    0.000
844.864;12472.250;  147.875;    0.000
845.048; 9361.250;  140.875;    0.000
845.233; 7705.250;  178.875;    0.000
845.418; 6431.250;  145.875;    0.000
845.602; 5721.250;  147.875;    0.000
845.787; 4955.250;  147.875;    0.000
845.971; 4834.250;  165.875;    0.000
846.156; 4282.250;  106.875;    0.000
846.340; 4019.250;  168.875;    0.000
846.525; 3774.250;  155.875;    0.000
846.709; 3629.250;  157.875;    0.000
846.893; 3570.250;  166.875;    0.000
847.078; 3372.250;  138.875;    0.000
847.262; 3403.250;  171.875;    0.000
847.447; 3272.250;  135.875;    0.000
847.631; 3170.250;  136.875;    0.000
847.815; 3060.250;  136.875;    0.000
848.000; 2993.250;  126.875;    0.000
848.184; 3149.250;  131.875;    0.000
848.368; 2813.250;  153.875;    0.000
848.552; 2840.250;  137.875;    0.000
848.736; 2833.250;  151.875;    0.000
848.921; 2866.250;  156.875;    0.000
849.105; 2620.250;  153.875;    0.000
849.289; 2700.250;  180.875;    0.000
849.473; 2693.250;  156.875;    0.000
849.657; 2714.250;  157.875;    0.000
849.841; 2744.250;  147.875;    0.000
850.025; 2615.250;  194.875;    0.000
850.209; 2605.250;  147.875;    0.000
850.393; 2614.250;  141.875;    0.000
850.577; 2586.250;  156.875;    0.000
850.761; 2505.250;  157.875;    0.000
850.945; 2575.250;  128.875;    0.000
851.129; 2508.250;  151.875;    0.000
851.313; 2528.250;  180.875;    0.000
851.497; 2520.250;  123.875;    0.000
851.680; 2520.250;  188.875;    0.000
851.864; 2397.250;  177.875;    0.000
852.048; 2543.250;  163.875;    0.000
852.232; 2553.250;  149.875;    0.000
852.416; 2491.250;  187.875;    0.000
852.599; 2415.250;  169.875;    0.000
852.783; 2346.250;  154.875;    0.000
852.967; 2485.250;  191.875;    0.000
853.150; 2426.250;  170.875;    0.000
853.334; 2367.250;  173.875;    0.000
853.518; 2453.250;  186.875;    0.000
853.701; 2440.250;  142.875;    0.000
853.885; 2366.250;  153.875;    0.000
854.068; 2372.250;  132.875;    0.000
854.252; 2473.250;  184.875;    0.000
854.435; 2560.250;  152.875;    0.000
854.619; 2423.250;  152.875;    0.000
854.802; 2342.250;  164.875;    0.000
854.986; 2467.250;  151.875;    0.000
855.169; 2352.250;  153.875;    0.000
855.353; 2439.250;  183.875;    0.000
855.536; 2393.250;  113.875;    0.000
855.719; 2490.250;  181.875;    0.000
855.903; 2443.250;  159.875;    0.000
856.086; 2429.250;  142.875;    0.000
856.269; 2427.250;  171.875;    0.000
856.452; 2456.250;  132.875;    0.000
856.636; 2622.250;  140.875;    0.000
856.819; 2821.250;  165.875;    0.000
857.002; 2912.250;  170.875;    0.000
857.185; 2843.250;  173.875;    0.000
857.368; 2763.250;  129.875;    0.000
857.552; 2598.250;  151.875;    0.000
857.735; 2724.250;  146.875;    0.000
857.918; 2659.250;  114.875;    0.000
858.101; 2615.250;  152.875;    0.000
858.284; 2563.250;  164.875;    0.000
858.467; 2664.250;  147.875;    0.000
858.650; 2837.250;  146.875;    0.000
858.833; 2773.250;  118.875;    0.000
859.016; 2857.250;  161.875;    0.000
859.199; 2937.250;  135.875;    0.000
859.382; 3223.250;  157.875;    0.000
859.564; 3564.250;  124.875;    0.000
859.747; 3360.250;  154.875;    0.000
859.930; 3298.250;  138.875;    0.000
860.113; 3106.250;  153.875;    0.000
860.296; 3219.250;  180.875;    0.000
860.478; 2937.250;  145.875;    0.000
860.661; 2981.250;  160.875;    0.000
860.844; 2820.250;   96.875;    0.000
861.027; 2878.250;  128.875;    0.000
861.209; 2783.250;  127.875;    0.000
861.392; 2800.250;  126.875;    0.000
861.575; 2840.250;  155.875;    0.000
861.757; 2905.250;  141.875;    0.000
861.940; 2934.250;  181.875;    0.000
862.122; 3019.250;  145.875;    0.000
862.305; 3113.250;  124.875;    0.000
862.487; 3221.250;  151.875;    0.000
862.670; 3240.250;  132.875;    0.000
862.852; 4104.250;  112.875;    0.000
863.035; 5195.250;  116.875;    0.000
863.217; 5066.250;  131.875;    0.000
863.400; 4528.250;  145.875;    0.000
863.582; 4027.250;  147.875;    0.000
863.764; 3955.250;  163.875;    0.000
863.947; 3783.250;  129.875;    0.000
864.129; 3580.250;  159.875;    0.000
864.311; 3397.250;  144.875;    0.000
864.493; 3421.250;  141.875;    0.000
864.676; 3253.250;  159.875;    0.000
864.858; 3225.250;  146.875;    0.000
865.040; 3301.250;  163.875;    0.000
865.222; 3296.250;  133.875;    0.000
865.404; 3294.250;  148.875;    0.000
865.587; 3556.250;  177.875;    0.000
865.769; 3760.250;  172.875;    0.000
865.951; 3684.250;  145.875;    0.000
866.133; 3589.250;  168.875;    0.000
866.315; 3610.250;  147.875;    0.000
866.497; 3577.250;  164.875;    0.000
866.679; 3657.250;  143.875;    0.000
866.861; 3771.250;  170.875;    0.000
867.043; 3916.250;  185.875;    0.000
867.225; 4300.250;  149.875;    0.000
867.407; 4590.250;  143.875;    0.000
867.589; 5242.250;  169.875;    0.000
867.770; 6331.250;  166.875;    0.000
867.952; 8885.250;  158.875;    0.000
868.134;12581.250;  170.875;    0.000
868.316;12952.250;  157.875;    0.000
868.498;12252.250;  186.875;    0.000
868.679;10491.250;  158.875;    0.000
868.861; 8822.250;  180.875;    0.000
869.043; 7002.250;  164.875;    0.000
869.224; 6115.250;  156.875;    0.000
869.406; 5433.250;  176.875;    0.000
869.588; 5187.250;  152.875;    0.000
869.769; 4642.250;  131.875;    0.000
869.951; 4596.250;  203.875;    0.000
870.132; 4583.250;  143.875;    0.000
870.314; 5332.250;  129.875;    0.000
870.495; 5547.250;  175.875;    0.000
870.677; 5038.250;  165.875;    0.000
870.858; 4759.250;  151.875;    0.000
871.040; 4887.250;  155.875;    0.000
871.221; 5739.250;  144.875;    0.000
871.403; 5711.250;  131.875;    0.000
871.584; 5000.250;  174.875;    0.000
871.765; 4949.250;  169.875;    0.000
871.947; 5249.250;  187.875;    0.000
872.128; 5017.250;  181.875;    0.000
872.309; 4281.250;  129.875;    0.000
872.491; 3791.250;  142.875;    0.000
872.672; 3512.250;  158.875;    0.000
872.853; 3480.250;  179.875;    0.000
873.034; 3416.250;  164.875;    0.000
873.215; 3250.250;  168.875;    0.000
873.396; 3105.250;  114.875;    0.000
873.578; 2863.250;  126.875;    0.000
873.759; 2759.250;  177.875;    0.000
873.940; 2775.250;  169.875;    0.000
874.121; 2554.250;  133.875;    0.000
874.302; 2636.250;  164.875;    0.000
874.483; 2533.250;  162.875;    0.000
874.664; 2551.250;  140.875;    0.000
874.845; 2629.250;  124.875;    0.000
875.026; 2514.250;  146.875;    0.000
875.207; 2363.250;  147.875;    0.000
875.388; 2326.250;  174.875;    0.000
875.568; 2385.250;  179.875;    0.000
875.749; 2268.250;  155.875;    0.000
875.930; 2316.250;  166.875;    0.000
876.111; 2371.250;  153.875;    0.000
876.292; 2186.250;  146.875;    0.000
876.472; 2232.250;  167.875;    0.000
876.653; 2231.250;  145.875;    0.000
876.834; 2107.250;  172.875;    0.000
877.015; 2173.250;  184.875;    0.000
877.195; 2164.250;  160.875;    0.000
877.376; 2135.250;  163.875;    0.000
877.556; 2145.250;  164.875;    0.000
877.737; 2119.250;  179.875;    0.000
877.918; 2124.250;  137.875;    0.000
878.098; 1959.250;  117.875;    0.000
878.279; 2041.250;  135.875;    0.000
878.459; 2004.250;  149.875;    0.000
878.640; 2051.250;  171.875;    0.000
878.820; 2011.250;  142.875;    0.000
879.000; 2061.250;  166.875;    0.000
879.181; 1950.250;  177.875;    0.000
879.361; 1969.250;  176.875;    0.000
879.542; 1921.250;  159.875;    0.000
879.722; 2037.250;  122.875;    0.000
879.902; 2008.250;  166.875;    0.000
880.083; 1920.250;  164.875;    0.000
880.263; 2024.250;  139.875;    0.000
880.443; 2182.250;  179.875;    0.000
880.623; 2282.250;  154.875;    0.000
880.803; 2599.250;  160.875;    0.000
880.984; 2355.250;  181.875;    0.000
881.164; 2273.250;  167.875;    0.000
881.344; 2098.250;  141.875;    0.000
881.524; 2194.250;  190.875;    0.000
881.704; 2125.250;  165.875;    0.000
881.884; 2269.250;  144.875;    0.000
882.064; 2396.250;  135.875;    0.000
882.244; 2572.250;  186.875;    0.000
882.424; 2342.250;  150.875;    0.000
882.604; 2210.250;  168.875;    0.000
882.784; 2072.250;  155.875;    0.000
882.964; 2067.250;  137.875;    0.000
883.144; 1983.250;  136.875;    0.000
883.324; 2036.250;  200.875;    0.000
883.504; 2038.250;  203.875;    0.000
883.683; 1921.250;  149.875;    0.000
883.863; 1955.250;  160.875;    0.000
884.043; 1919.250;  161.875;    0.000
884.223; 2035.250;  147.875;    0.000
884.402; 1832.250;  175.875;    0.000
884.582; 1864.250;  188.875;    0.000
884.762; 1889.250;  173.875;    0.000
884.941; 1867.250;  164.875;    0.000
885.121; 1933.250;  147.875;    0.000
885.301; 1791.250;  135.875;    0.000
885.480; 1831.250;  145.875;    0.000
885.660; 1950.250;  144.875;    0.000
885.839; 1925.250;  155.875;    0.000
886.019; 1804.250;  207.875;    0.000
886.198; 1827.250;  165.875;    0.000
886.378; 1833.250;  120.875;    0.000
886.557; 1828.250;  133.875;    0.000
886.737; 1750.250;  119.875;    0.000
886.916; 1859.250;  129.875;    0.000
887.095; 1783.250;  158.875;    0.000
887.275; 1806.250;  169.875;    0.000
887.454; 1799.250;  184.875;    0.000
887.633; 1780.250;  143.875;    0.000
887.813; 1685.250;  154.875;    0.000
887.992; 1763.250;  188.875;    0.000
888.171; 1704.250;  176.875;    0.000
888.350; 1741.250;  161.875;    0.000
888.530; 1725.250;  163.875;    0.000
888.709; 1736.250;  136.875;    0.000
888.888; 1713.250;  177.875;    0.000
889.067; 1715.250;  169.875;    0.000
889.246; 1852.250;  188.875;    0.000
889.425; 1770.250;  187.875;    0.000
889.604; 1769.250;  169.875;    0.000
889.783; 1700.250;  182.875;    0.000
889.962; 1725.250;  112.875;    0.000
890.141; 1691.250;  231.875;    0.000
890.320; 1722.250;  161.875;    0.000
890.499; 1698.250;  164.875;    0.000
890.678; 1691.250;  176.875;    0.000
890.857; 1684.250;  163.875;    0.000
891.036; 1801.250;  161.875;    0.000
891.214; 1730.250;  156.875;    0.000
891.393; 1698.250;  167.875;    0.000
891.572; 1717.250;  163.875;    0.000
891.751; 1677.250;  205.875;    0.000
891.930; 1730.250;  162.875;    0.000
892.108; 1686.250;  153.875;    0.000
892.287; 1786.250;  153.875;    0.000
892.466; 1676.250;  201.875;    0.000
892.644; 1754.250;  158.875;    0.000
892.823; 1746.250;  122.875;    0.000
893.001; 1648.250;  148.875;    0.000
893.180; 1650.250;  142.875;    0.000
893.359; 1717.250;  192.875;    0.000
893.537; 1724.250;  166.875;    0.000
893.716; 1686.250;  144.875;    0.000
893.894; 1781.250;  145.875;    0.000
894.073; 1692.250;  180.875;    0.000
894.251; 1728.250;  165.875;    0.000
894.429; 1649.250;  182.875;    0.000
894.608; 1698.250;  181.875;    0.000
894.786; 1736.250;  180.875;    0.000
894.964; 1641.250;  207.875;    0.000
895.143; 1711.250;  190.875;    0.000
895.321; 1660.250;  206.875;    0.000
895.499; 1762.250;  164.875;    0.000
895.677; 1745.250;  199.875;    0.000
895.856; 1834.250;  203.875;    0.000
896.034; 1785.250;  200.875;    0.000
896.212; 1733.250;  198.875;    0.000
896.390; 1784.250;  161.875;    0.000
896.568; 1710.250;  205.875;    0.000
896.746; 1690.250;  185.875;    0.000
896.924; 1786.250;  179.875;    0.000
897.102; 1766.250;  190.875;    0.000
897.280; 1729.250;  160.875;    0.000
897.458; 1722.250;  196.875;    0.000
897.636; 1666.250;  168.875;    0.000
897.814; 1746.250;  159.875;    0.000
897.992; 1782.250;  216.875;    0.000
898.170; 1720.250;  195.875;    0.000
898.348; 1790.250;  185.875;    0.000
898.526; 1824.250;  199.875;    0.000
898.704; 1802.250;  215.875;    0.000
898.882; 1706.250;  195.875;    0.000
899.059; 1831.250;  197.875;    0.000
899.237; 1786.250;  168.875;    0.000
899.415; 1825.250;  221.875;    0.000
899.593; 1796.250;  171.875;    0.000
899.770; 1828.250;  191.875;    0.000
899.948; 1789.250;  206.875;    0.000
900.125; 1758.250;  175.875;    0.000
900.303; 1768.250;  176.875;    0.000
900.481; 1773.250;  199.875;    0.000
900.658; 1845.250;  217.875;    0.000
900.836; 1812.250;  192.875;    0.000
901.013; 1850.250;  221.875;    0.000
901.191; 1897.250;  203.875;    0.000
901.368; 1830.250;  189.875;    0.000
901.546; 1950.250;  212.875;    0.000
901.723; 1969.250;  189.875;    0.000
901.901; 2038.250;  198.875;    0.000
902.078; 2084.250;  193.875;    0.000
902.255; 2090.250;  176.875;    0.000
902.433; 2084.250;  201.875;    0.000
902.610; 1992.250;  170.875;    0.000
902.787; 2022.250;  164.875;    0.000
902.964; 2145.250;  216.875;    0.000
903.142; 2170.250;  153.875;    0.000
903.319; 2261.250;  204.875;    0.000
903.496; 2221.250;  188.875;    0.000
903.673; 2324.250;  209.875;    0.000
903.850; 2338.250;  173.875;    0.000
904.027; 2412.250;  186.875;    0.000
904.204; 2486.250;  241.875;    0.000
904.381; 2674.250;  187.875;    0.000
904.558; 3213.250;  196.875;    0.000
904.735; 3746.250;  206.875;    0.000
904.912; 3581.250;  228.875;    0.000
905.089; 3666.250;  172.875;    0.000
905.266; 3452.250;  175.875;    0.000
905.443; 3098.250;  239.875;    0.000
905.620; 2846.250;  176.875;    0.000
905.797; 2670.250;  205.875;    0.000
905.974; 2636.250;  187.875;    0.000
906.151; 2577.250;  135.875;    0.000
906.327; 2620.250;  209.875;    0.000
906.504; 2594.250;  145.875;    0.000
906.681; 2510.250;  178.875;    0.000
906.858; 2487.250;  179.875;    0.000
907.034; 2256.250;  221.875;    0.000
907.211; 2249.250;  166.875;    0.000
907.388; 2262.250;  206.875;    0.000
907.564; 2228.250;  150.875;    0.000
907.741; 2237.250;  187.875;    0.000
907.917; 2271.250;  180.875;    0.000
908.094; 2088.250;  206.875;    0.000
908.271; 2062.250;  184.875;    0.000
908.447; 2183.250;  212.875;    0.000
908.623; 1954.250;  193.875;    0.000
908.800; 2081.250;  185.875;    0.000
908.976; 2029.250;  202.875;    0.000
909.153; 1996.250;  175.875;    0.000
909.329; 1965.250;  193.875;    0.000
909.505; 1898.250;  154.875;    0.000
909.682; 2040.250;  188.875;    0.000
909.858; 1932.250;  162.875;    0.000
910.034; 1929.250;  181.875;    0.000
910.211; 1892.250;  142.875;    0.000
910.387; 1904.250;  200.875;    0.000
910.563; 1965.250;  163.875;    0.000
910.739; 1845.250;  156.875;    0.000
910.915; 1828.250;  202.875;    0.000
911.091; 1925.250;  186.875;    0.000
911.268; 1971.250;  167.875;    0.000
911.444; 1810.250;  193.875;    0.000
911.620; 1802.250;  175.875;    0.000
911.796; 1935.250;  168.875;    0.000
911.972; 1762.250;  154.875;    0.000
912.148; 1797.250;  201.875;    0.000
912.324; 1906.250;  146.875;    0.000
912.500; 1928.250;  185.875;    0.000
912.676; 1885.250;  183.875;    0.000
912.851; 1824.250;  204.875;    0.000
913.027; 1792.250;  196.875;    0.000
913.203; 1846.250;  174.875;    0.000
913.379; 1781.250;  210.875;    0.000
913.555; 1882.250;  197.875;    0.000
913.730; 1927.250;  209.875;    0.000
913.906; 1781.250;  169.875;    0.000
914.082; 1826.250;  236.875;    0.000
914.258; 1922.250;  216.875;    0.000
914.433; 1786.250;  212.875;    0.000
914.609; 1819.250;  180.875;    0.000
914.784; 1862.250;  176.875;    0.000
914.960; 1770.250;  227.875;    0.000
915.136; 1708.250;  149.875;    0.000
915.311; 1816.250;  165.875;    0.000
915.487; 1745.250;  167.875;    0.000
915.662; 1778.250;  225.875;    0.000
915.838; 1858.250;  165.875;    0.000
916.013; 1913.250;  188.875;    0.000
916.189; 1787.250;  200.875;    0.000
916.364; 1836.250;  201.875;    0.000
916.539; 1854.250;  240.875;    0.000
916.715; 1884.250;  180.875;    0.000
916.890; 1906.250;  191.875;    0.000
917.065; 1853.250;  211.875;    0.000
917.240; 1771.250;  212.875;    0.000
917.416; 1896.250;  207.875;    0.000
917.591; 1895.250;  189.875;    0.000
917.766; 1874.250;  205.875;    0.000
917.941; 1858.250;  191.875;    0.000
918.116; 1843.250;  195.875;    0.000
918.292; 1773.250;  183.875;    0.000
918.467; 1863.250;  206.875;    0.000
918.642; 1890.250;  190.875;    0.000
918.817; 1790.250;  193.875;    0.000
918.992; 1833.250;  171.875;    0.000
919.167; 1824.250;  191.875;    0.000
919.342; 1853.250;  202.875;    0.000
919.517; 1928.250;  182.875;    0.000
919.692; 1952.250;  190.875;    0.000
919.867; 1930.250;  221.875;    0.000
920.041; 1987.250;  195.875;    0.000
920.216; 1892.250;  226.875;    0.000
920.391; 2025.250;  230.875;    0.000
920.566; 2005.250;  210.875;    0.000
920.741; 2124.250;  204.875;    0.000
920.915; 2173.250;  213.875;    0.000
921.090; 2377.250;  194.875;    0.000
921.265; 2988.250;  234.875;    0.000
921.439; 3652.250;  228.875;    0.000
921.614; 3235.250;  199.875;    0.000
921.789; 2744.250;  194.875;    0.000
921.963; 2542.250;  236.875;    0.000
922.138; 2453.250;  192.875;    0.000
922.312; 2395.250;  203.875;    0.000
922.487; 2415.250;  207.875;    0.000
922.661; 2649.250;  216.875;    0.000
922.836; 2800.250;  199.875;    0.000
923.010; 3180.250;  179.875;    0.000
923.185; 2889.250;  241.875;    0.000
923.359; 2655.250;  199.875;    0.000
923.534; 2622.250;  227.875;    0.000
923.708; 2673.250;  213.875;    0.000
923.882; 2945.250;  203.875;    0.000
924.057; 2758.250;  194.875;    0.000
924.231; 2677.250;  185.875;    0.000
924.405; 2500.250;  223.875;    0.000
924.579; 2430.250;  196.875;    0.000
924.753; 2414.250;  209.875;    0.000
924.928; 2230.250;  202.875;    0.000
925.102; 2366.250;  184.875;    0.000
925.276; 2327.250;  191.875;    0.000
925.450; 2292.250;  199.875;    0.000
925.624; 2390.250;  190.875;    0.000
925.798; 2536.250;  214.875;    0.000
925.972; 2656.250;  193.875;    0.000
926.146; 2737.250;  191.875;    0.000
926.320; 3063.250;  177.875;    0.000
926.494; 3314.250;  190.875;    0.000
926.668; 3561.250;  182.875;    0.000
926.842; 3609.250;  182.875;    0.000
927.016; 3486.250;  235.875;    0.000
927.190; 3597.250;  234.875;    0.000
927.363; 3536.250;  214.875;    0.000
927.537; 3258.250;  198.875;    0.000
927.711; 3200.250;  154.875;    0.000
927.885; 3150.250;  167.875;    0.000
928.058; 3038.250;  210.875;    0.000
928.232; 2915.250;  206.875;    0.000
928.406; 2910.250;  176.875;    0.000
928.579; 2689.250;  182.875;    0.000
928.753; 2808.250;  179.875;    0.000
928.927; 2698.250;  186.875;    0.000
929.100; 2627.250;  188.875;    0.000
929.274; 2548.250;  167.875;    0.000
929.447; 2478.250;  152.875;    0.000
929.621; 2313.250;  195.875;    0.000
929.794; 2462.250;  200.875;    0.000
929.968; 2277.250;  203.875;    0.000
930.141; 2317.250;  237.875;    0.000
930.315; 2240.250;  165.875;    0.000
930.488; 2310.250;  175.875;    0.000
930.661; 2152.250;  173.875;    0.000
930.835; 2162.250;  171.875;    0.000
931.008; 2142.250;  210.875;    0.000
931.181; 2059.250;  206.875;    0.000
931.354; 2174.250;  195.875;    0.000
931.528; 2119.250;  178.875;    0.000
931.701; 2092.250;  179.875;    0.000
931.874; 2038.250;  150.875;    0.000
932.047; 2005.250;  154.875;    0.000
932.220; 2022.250;  185.875;    0.000
932.393; 1937.250;  166.875;    0.000
932.566; 1949.250;  171.875;    0.000
932.739; 1990.250;  196.875;    0.000
932.912; 1944.250;  212.875;    0.000
933.085; 1886.250;  234.875;    0.000
933.258; 1970.250;  212.875;    0.000
933.431; 1796.250;  181.875;    0.000
933.604; 1896.250;  201.875;    0.000
933.777; 1933.250;  201.875;    0.000
933.950; 1838.250;  176.875;    0.000
934.123; 1816.250;  175.875;    0.000
934.296; 1829.250;  174.875;    0.000
934.468; 1855.250;  186.875;    0.000
934.641; 1816.250;  192.875;    0.000
934.814; 1890.250;  187.875;    0.000
934.987; 1841.250;  165.875;    0.000
935.159; 1874.250;  162.875;    0.000
935.332; 1863.250;  210.875;    0.000
935.505; 1821.250;  191.875;    0.000
935.677; 1822.250;  159.875;    0.000
935.850; 1780.250;  170.875;    0.000
936.022; 1796.250;  172.875;    0.000
936.195; 1829.250;  202.875;    0.000
936.367; 1850.250;  179.875;    0.000
936.540; 1862.250;  207.875;    0.000
936.712; 1883.250;  200.875;    0.000
936.885; 1893.250;  219.875;    0.000
937.057; 1846.250;  150.875;    0.000
937.229; 1918.250;  187.875;    0.000
937.402; 1932.250;  169.875;    0.000
937.574; 1929.250;  127.875;    0.000
937.746; 1992.250;  171.875;    0.000
937.919; 2070.250;  176.875;    0.000
938.091; 2222.250;  193.875;    0.000
938.263; 2351.250;  200.875;    0.000
938.435; 2562.250;  181.875;    0.000
938.608; 2965.250;  191.875;    0.000
938.780; 3336.250;  173.875;    0.000
938.952; 3584.250;  184.875;    0.000
939.124; 3563.250;  171.875;    0.000
939.296; 4126.250;  156.875;    0.000
939.468; 4390.250;  147.875;    0.000
939.640; 3801.250;  186.875;    0.000
939.812; 3519.250;  217.875;    0.000
939.984; 2865.250;  155.875;    0.000
940.156; 2812.250;  191.875;    0.000
940.328; 2684.250;  201.875;    0.000
940.500; 2516.250;  176.875;    0.000
940.672; 2401.250;  190.875;    0.000
940.843; 2314.250;  143.875;    0.000
941.015; 2319.250;  189.875;    0.000
941.187; 2099.250;  172.875;    0.000
941.359; 2221.250;  175.875;    0.000
941.531; 2312.250;  154.875;    0.000
941.702; 2048.250;  183.875;    0.000
941.874; 2049.250;  140.875;    0.000
942.046; 1953.250;  177.875;    0.000
942.217; 1958.250;  147.875;    0.000
942.389; 2089.250;  196.875;    0.000
942.560; 1881.250;  163.875;    0.000
942.732; 1916.250;  187.875;    0.000
942.904; 1864.250;  226.875;    0.000
943.075; 1796.250;  159.875;    0.000
943.247; 1692.250;  209.875;    0.000
943.418; 1700.250;  167.875;    0.000
943.589; 1787.250;  195.875;    0.000
943.761; 1789.250;  190.875;    0.000
943.932; 1811.250;  187.875;    0.000
944.104; 1737.250;  194.875;    0.000
944.275; 1695.250;  177.875;    0.000
944.446; 1719.250;  155.875;    0.000
944.617; 1704.250;  176.875;    0.000
944.789; 1641.250;  171.875;    0.000
944.960; 1720.250;  172.875;    0.000
945.131; 1649.250;  158.875;    0.000
945.302; 1685.250;  201.875;    0.000
945.473; 1629.250;  141.875;    0.000
945.645; 1622.250;  197.875;    0.000
945.816; 1683.250;  165.875;    0.000
945.987; 1764.250;  190.875;    0.000
946.158; 1738.250;  158.875;    0.000
946.329; 1746.250;  160.875;    0.000
946.500; 1676.250;  190.875;    0.000
946.671; 1687.250;  152.875;    0.000
946.842; 1639.250;  182.875;    0.000
947.013; 1562.250;  160.875;    0.000
947.183; 1694.250;  203.875;    0.000
947.354; 1597.250;  174.875;    0.000
947.525; 1531.250;  173.875;    0.000
947.696; 1565.250;  170.875;    0.000
947.867; 1644.250;  187.875;    0.000
948.037; 1576.250;  165.875;    0.000
948.208; 1598.250;  154.875;    0.000
948.379; 1627.250;  176.875;    0.000
948.550; 1552.250;  176.875;    0.000
948.720; 1573.250;  169.875;    0.000
948.891; 1595.250;  216.875;    0.000
949.061; 1586.250;  200.875;    0.000
949.232; 1519.250;  163.875;    0.000
949.403; 1501.250;  157.875;    0.000
949.573; 1528.250;  158.875;    0.000
949.744; 1551.250;  213.875;    0.000
949.914; 1458.250;  177.875;    0.000
950.085; 1463.250;  195.875;    0.000
950.255; 1506.250;  166.875;    0.000
950.425; 1483.250;  196.875;    0.000
950.596; 1575.250;  176.875;    0.000
950.766; 1592.250;  228.875;    0.000
950.936; 1535.250;  185.875;    0.000
951.107; 1548.250;  178.875;    0.000
951.277; 1507.250;  227.875;    0.000
951.447; 1477.250;  219.875;    0.000
951.617; 1447.250;  219.875;    0.000
951.788; 1481.250;  198.875;    0.000
951.958; 1481.250;  202.875;    0.000
952.128; 1449.250;  197.875;    0.000
952.298; 1502.250;  211.875;    0.000
952.468; 1565.250;  233.875;    0.000
952.638; 1454.250;  222.875;    0.000
952.808; 1420.250;  210.875;    0.000
952.978; 1512.250;  216.875;    0.000
953.148; 1388.250;  203.875;    0.000
953.318; 1404.250;  212.875;    0.000
953.488; 1462.250;  156.875;    0.000
953.658; 1449.250;  226.875;    0.000
953.828; 1409.250;  223.875;    0.000
953.998; 1419.250;  209.875;    0.000
954.167; 1407.250;  203.875;    0.000
954.337; 1454.250;  209.875;    0.000
954.507; 1416.250;  252.875;    0.000
954.677; 1454.250;  207.875;    0.000
954.846; 1441.250;  240.875;    0.000
955.016; 1317.250;  197.875;    0.000
955.186; 1380.250;  208.875;    0.000
955.355; 1369.250;  243.875;    0.000
955.525; 1412.250;  211.875;    0.000
955.695; 1362.250;  187.875;    0.000
955.864; 1396.250;  204.875;    0.000
956.034; 1373.250;  199.875;    0.000
956.203; 1394.250;  257.875;    0.000
956.373; 1269.250;  193.875;    0.000
956.542; 1388.250;  187.875;    0.000
956.711; 1387.250;  259.875;    0.000
956.881; 1308.250;  227.875;    0.000
957.050; 1358.250;  260.875;    0.000
957.220; 1312.250;  246.875;    0.000
957.389; 1291.250;  211.875;    0.000
957.558; 1279.250;  197.875;    0.000
957.727; 1395.250;  227.875;    0.000
957.897; 1332.250;  219.875;    0.000
958.066; 1309.250;  180.875;    0.000
958.235; 1209.250;  179.875;    0.000
958.404; 1315.250;  194.875;    0.000
958.573; 1253.250;  235.875;    0.000
958.743; 1295.250;  191.875;    0.000
958.912; 1344.250;  181.875;    0.000
959.081; 1346.250;  193.875;    0.000
959.250; 1255.250;  180.875;    0.000
959.419; 1312.250;  205.875;    0.000
959.588; 1331.250;  241.875;    0.000
959.757; 1251.250;  202.875;    0.000
959.926; 1330.250;  212.875;    0.000
960.094; 1239.250;  199.875;    0.000
960.263; 1331.250;  226.875;    0.000
960.432; 1271.250;  188.875;    0.000
960.601; 1175.250;  200.875;    0.000
960.770; 1232.250;  197.875;    0.000
960.939; 1245.250;  195.875;    0.000
961.107; 1209.250;  198.875;    0.000
961.276; 1239.250;  151.875;    0.000
961.445; 1217.250;  227.875;    0.000
961.613; 1269.250;  186.875;    0.000
961.782; 1276.250;  187.875;    0.000
961.951; 1184.250;  194.875;    0.000
962.119; 1233.250;  227.875;    0.000
962.288; 1250.250;  181.875;    0.000
962.456; 1308.250;  206.875;    0.000
962.625; 1309.250;  181.875;    0.000
962.793; 1261.250;  216.875;    0.000
962.962; 1210.250;  237.875;    0.000
963.130; 1238.250;  194.875;    0.000
963.298; 1203.250;  190.875;    0.000
963.467; 1310.250;  204.875;    0.000
963.635; 1200.250;  159.875;    0.000
963.803; 1214.250;  208.875;    0.000
963.972; 1290.250;  206.875;    0.000
964.140; 1199.250;  178.875;    0.000
964.308; 1230.250;  185.875;    0.000
964.477; 1217.250;  189.875;    0.000
964.645; 1260.250;  201.875;    0.000
964.813; 1196.250;  200.875;    0.000
964.981; 1221.250;  160.875;    0.000
965.149; 1278.250;  230.875;    0.000
965.317; 1282.250;  214.875;    0.000
965.485; 1265.250;  190.875;    0.000
965.653; 1239.250;  239.875;    0.000
965.821; 1226.250;  211.875;    0.000
965.989; 1184.250;  216.875;    0.000
966.157; 1210.250;  198.875;    0.000
966.325; 1314.250;  200.875;    0.000
966.493; 1225.250;  187.875;    0.000
966.661; 1196.250;  181.875;    0.000
966.829; 1245.250;  181.875;    0.000
966.996; 1296.250;  220.875;    0.000
967.164; 1222.250;  179.875;    0.000
967.332; 1284.250;  203.875;    0.000
967.500; 1243.250;  200.875;    0.000
967.667; 1310.250;  196.875;    0.000
967.835; 1297.250;  199.875;    0.000
968.003; 1250.250;  191.875;    0.000
968.170; 1309.250;  141.875;    0.000
968.338; 1277.250;  185.875;    0.000
968.505; 1328.250;  199.875;    0.000
968.673; 1318.250;  191.875;    0.000
968.841; 1208.250;  165.875;    0.000
969.008; 1344.250;  192.875;    0.000
969.175; 1282.250;  172.875;    0.000
969.343; 1251.250;  191.875;    0.000
969.510; 1274.250;  199.875;    0.000
969.678; 1251.250;  156.875;    0.000
969.845; 1291.250;  191.875;    0.000
970.012; 1242.250;  205.875;    0.000
970.180; 1279.250;  201.875;    0.000
970.347; 1204.250;  229.875;    0.000
970.514; 1209.250;  207.875;    0.000
970.681; 1195.250;  169.875;    0.000
970.849; 1228.250;  196.875;    0.000
971.016; 1151.250;  212.875;    0.000
971.183; 1185.250;  178.875;    0.000
971.350; 1278.250;  193.875;    0.000
971.517; 1187.250;  190.875;    0.000
971.684; 1275.250;  261.875;    0.000
971.851; 1257.250;  203.875;    0.000
972.018; 1178.250;  184.875;    0.000
972.185; 1256.250;  226.875;    0.000
972.352; 1177.250;  180.875;    0.000
972.519; 1251.250;  226.875;    0.000
972.686; 1178.250;  233.875;    0.000
972.853; 1178.250;  173.875;    0.000
973.020; 1173.250;  208.875;    0.000
973.186; 1204.250;  173.875;    0.000
973.353; 1175.250;  218.875;    0.000
973.520; 1190.250;  218.875;    0.000
973.687; 1190.250;  176.875;    0.000
973.853; 1310.250;  203.875;    0.000
974.020; 1245.250;  196.875;    0.000
974.187; 1225.250;  188.875;    0.000
974.353; 1262.250;  230.875;    0.000
974.520; 1274.250;  195.875;    0.000
974.687; 1192.250;  209.875;    0.000
974.853; 1216.250;  189.875;    0.000
975.020; 1216.250;  179.875;    0.000
975.186; 1174.250;  204.875;    0.000
975.353; 1248.250;  201.875;    0.000
975.519; 1189.250;  200.875;    0.000
975.685; 1179.250;  176.875;    0.000
975.852; 1153.250;  197.875;    0.000
976.018; 1194.250;  201.875;    0.000
976.184; 1231.250;  176.875;    0.000
976.351; 1196.250;  221.875;    0.000
976.517; 1173.250;  203.875;    0.000
976.683; 1192.250;  236.875;    0.000
976.849; 1220.250;  190.875;    0.000
977.016; 1195.250;  173.875;    0.000
977.182; 1221.250;  200.875;    0.000
977.348; 1192.250;  179.875;    0.000
977.514; 1139.250;  159.875;    0.000
977.680; 1145.250;  200.875;    0.000
977.846; 1149.250;  206.875;    0.000
978.012; 1222.250;  219.875;    0.000
978.178; 1161.250;  229.875;    0.000
978.344; 1175.250;  195.875;    0.000
978.510; 1204.250;  209.875;    0.000
978.676; 1112.250;  190.875;    0.000
978.842; 1164.250;  195.875;    0.000
979.008; 1146.250;  186.875;    0.000
979.174; 1135.250;  185.875;    0.000
979.340; 1191.250;  198.875;    0.000
979.505; 1155.250;  214.875;    0.000
979.671; 1181.250;  159.875;    0.000
979.837; 1150.250;  202.875;    0.000
980.003; 1163.250;  190.875;    0.000
980.168; 1209.250;  216.875;    0.000
980.334; 1193.250;  194.875;    0.000
980.499; 1182.250;  229.875;    0.000
980.665; 1208.250;  240.875;    0.000
980.831; 1167.250;  202.875;    0.000
980.996; 1134.250;  179.875;    0.000
981.162; 1246.250;  212.875;    0.000
981.327; 1150.250;  202.875;    0.000
981.493; 1183.250;  219.875;    0.000
981.658; 1179.250;  218.875;    0.000
981.823; 1190.250;  207.875;    0.000
981.989; 1204.250;  207.875;    0.000
982.154; 1216.250;  224.875;    0.000
982.319; 1123.250;  217.875;    0.000
982.485; 1229.250;  266.875;    0.000
982.650; 1232.250;  245.875;    0.000
982.815; 1225.250;  229.875;    0.000
982.980; 1189.250;  203.875;    0.000
983.146; 1183.250;  242.875;    0.000
983.311; 1168.250;  144.875;    0.000
983.476; 1115.250;  222.875;    0.000
983.641; 1138.250;  206.875;    0.000
983.806; 1118.250;  217.875;    0.000
983.971; 1189.250;  254.875;    0.000
984.136; 1231.250;  217.875;    0.000
984.301; 1119.250;  202.875;    0.000
984.466; 1148.250;  206.875;    0.000
984.631; 1166.250;  224.875;    0.000
984.796; 1196.250;  218.875;    0.000
984.961; 1171.250;  202.875;    0.000
985.126; 1163.250;  238.875;    0.000
985.291; 1163.250;  220.875;    0.000
985.455; 1150.250;  223.875;    0.000
985.620; 1213.250;  218.875;    0.000
985.785; 1193.250;  228.875;    0.000
985.950; 1107.250;  212.875;    0.000
986.114; 1207.250;  215.875;    0.000
986.279; 1238.250;  243.875;    0.000
986.444; 1188.250;  222.875;    0.000
986.608; 1214.250;  243.875;    0.000
986.773; 1265.250;  213.875;    0.000
986.937; 1291.250;  267.875;    0.000
987.102; 1292.250;  235.875;    0.000
987.266; 1203.250;  210.875;    0.000
987.431; 1268.250;  239.875;    0.000
987.595; 1224.250;  230.875;    0.000
987.760; 1207.250;  229.875;    0.000
987.924; 1231.250;  217.875;    0.000
988.088; 1191.250;  210.875;    0.000
988.253; 1283.250;  215.875;    0.000
988.417; 1201.250;  186.875;    0.000
988.581; 1157.250;  214.875;    0.000
988.746; 1199.250;  212.875;    0.000
988.910; 1209.250;  192.875;    0.000
989.074; 1183.250;  195.875;    0.000
989.238; 1168.250;  226.875;    0.000
989.402; 1200.250;  214.875;    0.000
989.566; 1139.250;  201.875;    0.000
989.731; 1168.250;  199.875;    0.000
989.895; 1153.250;  205.875;    0.000
990.059; 1173.250;  204.875;    0.000
990.223; 1159.250;  182.875;    0.000
990.387; 1177.250;  220.875;    0.000
990.551; 1113.250;  199.875;    0.000
990.714; 1180.250;  202.875;    0.000
990.878; 1192.250;  201.875;    0.000
991.042; 1153.250;  202.875;    0.000
991.206; 1154.250;  215.875;    0.000
991.370; 1190.250;  217.875;    0.000
991.534; 1089.250;  152.875;    0.000
991.697; 1205.250;  194.875;    0.000
991.861; 1150.250;  208.875;    0.000
992.025; 1088.250;  209.875;    0.000
992.188; 1084.250;  182.875;    0.000
992.352; 1086.250;  181.875;    0.000
992.516; 1094.250;  192.875;    0.000
992.679; 1108.250;  183.875;    0.000
992.843; 1105.250;  156.875;    0.000
993.006; 1195.250;  192.875;    0.000
993.170; 1130.250;  172.875;    0.000
993.333; 1122.250;  195.875;    0.000
993.497; 1127.250;  185.875;    0.000
993.660; 1100.250;  155.875;    0.000
993.824; 1137.250;  199.875;    0.000
993.987; 1130.250;  211.875;    0.000
994.150; 1078.250;  173.875;    0.000
994.314; 1141.250;  202.875;    0.000
994.477; 1087.250;  171.875;    0.000
994.640; 1158.250;  191.875;    0.000
994.803; 1116.250;  203.875;    0.000
994.967; 1148.250;  198.875;    0.000
995.130; 1094.250;  192.875;    0.000
995.293; 1065.250;  211.875;    0.000
995.456; 1158.250;  207.875;    0.000
995.619; 1151.250;  207.875;    0.000
995.782; 1099.250;  186.875;    0.000
995.945; 1106.250;  203.875;    0.000
996.108; 1068.250;  195.875;    0.000
996.271; 1106.250;  195.875;    0.000
996.434; 1081.250;  179.875;    0.000
996.597; 1119.250;  170.875;    0.000
996.760; 1084.250;  161.875;    0.000
996.923; 1081.250;  177.875;    0.000
997.086; 1118.250;  199.875;    0.000
997.248; 1216.250;  225.875;    0.000
997.411; 1089.250;  194.875;    0.000
997.574; 1071.250;  204.875;    0.000
997.737; 1080.250;  236.875;    0.000
997.899; 1054.250;  191.875;    0.000
998.062; 1131.250;  178.875;    0.000
998.225; 1074.250;  176.875;    0.000
998.387; 1123.250;  203.875;    0.000
998.550; 1133.250;  155.875;    0.000
998.712; 1026.250;  169.875;    0.000
998.875; 1119.250;  234.875;    0.000
999.037; 1048.250;  211.875;    0.000
999.200; 1099.250;  185.875;    0.000
999.362; 1136.250;  199.875;    0.000
999.525; 1114.250;  234.875;    0.000
999.687; 1089.250;  194.875;    0.000
999.849; 1083.250;  223.875;    0.000
1000.012; 1073.250;  222.875;    0.000
1000.174; 1093.250;  187.875;    0.000
1000.336; 1124.250;  204.875;    0.000
1000.499; 1106.250;  240.875;    0.000
1000.661; 1115.250;  215.875;    0.000
1000.823; 1142.250;  206.875;    0.000
1000.985; 1098.250;  197.875;    0.000
1001.147; 1119.250;  221.875;    0.000
1001.309; 1122.250;  207.875;    0.000
1001.471; 1089.250;  227.875;    0.000
1001.633; 1202.250;  208.875;    0.000
1001.796; 1184.250;  158.875;    0.000
1001.958; 1143.250;  210.875;    0.000
1002.119; 1148.250;  223.875;    0.000
1002.281; 1230.250;  211.875;    0.000
1002.443; 1150.250;  227.875;    0.000
1002.605; 1243.250;  186.875;    0.000
1002.767; 1303.250;  242.875;    0.000
1002.929; 1313.250;  219.875;    0.000
1003.091; 1336.250;  191.875;    0.000
1003.252; 1440.250;  233.875;    0.000
1003.414; 1433.250;  214.875;    0.000
1003.576; 1385.250;  186.875;    0.000
1003.738; 1558.250;  175.875;    0.000
1003.899; 1733.250;  237.875;    0.000
1004.061; 1841.250;  220.875;    0.000
1004.222; 1940.250;  186.875;    0.000
1004.384; 1960.250;  216.875;    0.000
1004.546; 1974.250;  203.875;    0.000
1004.707; 1958.250;  216.875;    0.000
1004.869; 1942.250;  219.875;    0.000
1005.030; 2001.250;  188.875;    0.000
1005.191; 1939.250;  223.875;    0.000
1005.353; 1960.250;  227.875;    0.000
1005.514; 1808.250;  235.875;    0.000
1005.675; 1720.250;  201.875;    0.000
1005.837; 1724.250;  199.875;    0.000
1005.998; 1719.250;  219.875;    0.000
1006.159; 1633.250;  235.875;    0.000
1006.321; 1691.250;  199.875;    0.000
1006.482; 1749.250;  222.875;    0.000
1006.643; 1757.250;  195.875;    0.000
1006.804; 1781.250;  205.875;    0.000
1006.965; 1770.250;  199.875;    0.000
1007.126; 1739.250;  231.875;    0.000
1007.287; 1700.250;  208.875;    0.000
1007.448; 1786.250;  205.875;    0.000
1007.609; 1838.250;  256.875;    0.000
1007.770; 1772.250;  231.875;    0.000
1007.931; 1795.250;  223.875;    0.000
1008.092; 1809.250;  217.875;    0.000
1008.253; 1828.250;  236.875;    0.000
1008.414; 1776.250;  197.875;    0.000
1008.575; 1865.250;  233.875;    0.000
1008.736; 1715.250;  193.875;    0.000
1008.896; 1812.250;  238.875;    0.000
1009.057; 1839.250;  245.875;    0.000
1009.218; 1869.250;  240.875;    0.000
1009.379; 1946.250;  210.875;    0.000
1009.539; 1969.250;  234.875;    0.000
1009.700; 1923.250;  228.875;    0.000
1009.860; 1981.250;  238.875;    0.000
1010.021; 1828.250;  199.875;    0.000
1010.182; 1966.250;  214.875;    0.000
1010.342; 2004.250;  216.875;    0.000
1010.503; 2121.250;  207.875;    0.000
1010.663; 2176.250;  258.875;    0.000
1010.823; 2023.250;  243.875;    0.000
1010.984; 2346.250;  268.875;    0.000
1011.144; 2207.250;  217.875;    0.000
1011.305; 2426.250;  237.875;    0.000
1011.465; 2423.250;  216.875;    0.000
1011.625; 2545.250;  195.875;    0.000
1011.785; 2470.250;  201.875;    0.000
1011.946; 2513.250;  200.875;    0.000
1012.106; 2634.250;  206.875;    0.000
1012.266; 2389.250;  227.875;    0.000
1012.426; 2490.250;  221.875;    0.000
1012.586; 2412.250;  198.875;    0.000
1012.746; 2396.250;  215.875;    0.000
1012.906; 2532.250;  226.875;    0.000
1013.066; 2392.250;  221.875;    0.000
1013.226; 2292.250;  202.875;    0.000
1013.386; 2477.250;  210.875;    0.000
1013.546; 2347.250;  243.875;    0.000
1013.706; 2263.250;  200.875;    0.000
1013.866; 2263.250;  232.875;    0.000
1014.026; 2347.250;  206.875;    0.000
1014.186; 2276.250;  222.875;    0.000
1014.346; 2337.250;  233.875;    0.000
1014.505; 2289.250;  241.875;    0.000
1014.665; 2289.250;  225.875;    0.000
1014.825; 2259.250;  196.875;    0.000
1014.985; 2355.250;  234.875;    0.000
1015.144; 2412.250;  232.875;    0.000
1015.304; 2482.250;  214.875;    0.000
1015.464; 2396.250;  210.875;    0.000
1015.623; 2225.250;  219.875;    0.000
1015.783; 2481.250;  216.875;    0.000
1015.942; 2565.250;  267.875;    0.000
1016.102; 2704.250;  234.875;    0.000
1016.261; 2627.250;  230.875;    0.000
1016.420; 2656.250;  225.875;    0.000
1016.580; 2978.250;  205.875;    0.000
1016.739; 3002.250;  199.875;    0.000
1016.899; 3111.250;  218.875;    0.000
1017.058; 3121.250;  204.875;    0.000
1017.217; 3369.250;  196.875;    0.000
1017.376; 3348.250;  204.875;    0.000
1017.536; 3150.250;  195.875;    0.000
1017.695; 3165.250;  216.875;    0.000
1017.854; 3028.250;  235.875;    0.000
1018.013; 2948.250;  189.875;    0.000
1018.172; 2771.250;  217.875;    0.000
1018.331; 2740.250;  215.875;    0.000
1018.490; 2724.250;  233.875;    0.000
1018.649; 2607.250;  211.875;    0.000
1018.808; 2951.250;  196.875;    0.000
1018.967; 3121.250;  222.875;    0.000
1019.126; 3075.250;  221.875;    0.000
1019.285; 3069.250;  212.875;    0.000
1019.444; 3195.250;  231.875;    0.000
1019.603; 3007.250;  227.875;    0.000
1019.762; 2848.250;  192.875;    0.000
1019.921; 2775.250;  240.875;    0.000
1020.079; 2872.250;  209.875;    0.000
1020.238; 3003.250;  211.875;    0.000
1020.397; 3233.250;  253.875;    0.000
1020.555; 3049.250;  179.875;    0.000
1020.714; 3117.250;  225.875;    0.000
1020.873; 3389.250;  232.875;    0.000
1021.031; 3249.250;  245.875;    0.000
1021.190; 3178.250;  230.875;    0.000
1021.348; 2994.250;  221.875;    0.000
1021.507; 3168.250;  212.875;    0.000
1021.665; 3464.250;  211.875;    0.000
1021.824; 3430.250;  206.875;    0.000
1021.982; 2882.250;  218.875;    0.000
1022.141; 3006.250;  232.875;    0.000
1022.299; 3429.250;  193.875;    0.000
1022.457; 3423.250;  217.875;    0.000
1022.616; 3278.250;  248.875;    0.000
1022.774; 2952.250;  222.875;    0.000
1022.932; 3180.250;  211.875;    0.000
1023.090; 3390.250;  288.875;    0.000
1023.249; 3543.250;  214.875;    0.000
1023.407; 3290.250;  233.875;    0.000
1023.565; 2981.250;  208.875;    0.000
1023.723; 3265.250;  217.875;    0.000
1023.881; 3476.250;  235.875;    0.000
1024.039; 3627.250;  228.875;    0.000
1024.197; 3260.250;  216.875;    0.000
1024.355; 3138.250;  251.875;    0.000
1024.513; 3250.250;  232.875;    0.000
1024.671; 3733.250;  217.875;    0.000
1024.829; 3641.250;  255.875;    0.000
1024.987; 3147.250;  203.875;    0.000
1025.145; 3156.250;  239.875;    0.000
1025.302; 3346.250;  209.875;    0.000
1025.460; 3624.250;  224.875;    0.000
1025.618; 3788.250;  193.875;    0.000
1025.776; 3345.250;  209.875;    0.000
1025.933; 3287.250;  229.875;    0.000
1026.091; 3450.250;  218.875;    0.000
1026.249; 3695.250;  269.875;    0.000
1026.406; 3833.250;  264.875;    0.000
1026.564; 3594.250;  230.875;    0.000
1026.721; 3309.250;  198.875;    0.000
1026.879; 3244.250;  216.875;    0.000
1027.036; 3737.250;  226.875;    0.000
1027.194; 3972.250;  245.875;    0.000
1027.351; 3700.250;  236.875;    0.000
1027.509; 3428.250;  262.875;    0.000
1027.666; 3263.250;  227.875;    0.000
1027.823; 3628.250;  214.875;    0.000
1027.981; 3991.250;  258.875;    0.000
1028.138; 3987.250;  239.875;    0.000
1028.295; 3757.250;  226.875;    0.000
1028.452; 3359.250;  225.875;    0.000
1028.609; 3443.250;  276.875;    0.000
1028.767; 4013.250;  228.875;    0.000
1028.924; 4245.250;  213.875;    0.000
1029.081; 3906.250;  232.875;    0.000
1029.238; 3633.250;  250.875;    0.000
1029.395; 3421.250;  255.875;    0.000
1029.552; 3584.250;  217.875;    0.000
1029.709; 4144.250;  210.875;    0.000
1029.866; 4356.250;  243.875;    0.000
1030.023; 3998.250;  202.875;    0.000
1030.180; 3492.250;  233.875;    0.000
1030.337; 3515.250;  234.875;    0.000
1030.494; 3877.250;  222.875;    0.000
1030.650; 4127.250;  241.875;    0.000
1030.807; 4318.250;  206.875;    0.000
1030.964; 4107.250;  206.875;    0.000
1031.121; 3661.250;  228.875;    0.000
1031.277; 3610.250;  228.875;    0.000
1031.434; 3925.250;  234.875;    0.000
1031.591; 4142.250;  250.875;    0.000
1031.747; 4407.250;  246.875;    0.000
1031.904; 4218.250;  201.875;    0.000
1032.060; 3942.250;  237.875;    0.000
1032.217; 3690.250;  232.875;    0.000
1032.373; 4040.250;  210.875;    0.000
1032.530; 4179.250;  246.875;    0.000
1032.686; 4682.250;  196.875;    0.000
1032.843; 4486.250;  212.875;    0.000
1032.999; 4320.250;  243.875;    0.000
1033.155; 4439.250;  234.875;    0.000
1033.312; 4219.250;  246.875;    0.000
1033.468; 4760.250;  233.875;    0.000
1033.624; 5362.250;  237.875;    0.000
1033.780; 5869.250;  263.875;    0.000
1033.937; 5941.250;  214.875;    0.000
1034.093; 5693.250;  230.875;    0.000
1034.249; 5955.250;  206.875;    0.000
1034.405; 5560.250;  238.875;    0.000
1034.561; 6028.250;  231.875;    0.000
1034.717; 6098.250;  228.875;    0.000
1034.873; 6120.250;  262.875;    0.000
1035.029; 6381.250;  252.875;    0.000
1035.185; 5767.250;  232.875;    0.000
1035.341; 5669.250;  245.875;    0.000
1035.497; 6010.250;  253.875;    0.000
1035.653; 6147.250;  252.875;    0.000
1035.809; 6888.250;  245.875;    0.000
1035.964; 7211.250;  229.875;    0.000
1036.120; 6654.250;  226.875;    0.000
1036.276; 7172.250;  236.875;    0.000
1036.432; 6781.250;  203.875;    0.000
1036.587; 6643.250;  228.875;    0.000
1036.743; 6967.250;  240.875;    0.000
1036.899; 7182.250;  220.875;    0.000
1037.054; 7203.250;  153.875;    0.000
1037.210; 7796.250;  219.875;    0.000
1037.365; 7843.250;  229.875;    0.000
1037.521; 7765.250;  257.875;    0.000
1037.676; 7812.250;  211.875;    0.000
1037.832; 7011.250;  234.875;    0.000
1037.987; 7375.250;  235.875;    0.000
1038.143; 6971.250;  176.875;    0.000
1038.298; 7874.250;  262.875;    0.000
1038.453; 7871.250;  209.875;    0.000
1038.609; 8539.250;  230.875;    0.000
1038.764; 8311.250;  253.875;    0.000
1038.919; 8381.250;  195.875;    0.000
1039.074; 8586.250;  234.875;    0.000
1039.229; 7947.250;  234.875;    0.000
1039.385; 7923.250;  266.875;    0.000
1039.540; 8111.250;  252.875;    0.000
1039.695; 8626.250;  231.875;    0.000
1039.850; 8852.250;  208.875;    0.000
1040.005; 9383.250;  232.875;    0.000
1040.160;10173.250;  214.875;    0.000
1040.315; 9809.250;  221.875;    0.000
1040.470;10174.250;  207.875;    0.000
1040.625; 9017.250;  249.875;    0.000
1040.780; 8971.250;  251.875;    0.000
1040.935; 9148.250;  254.875;    0.000
1041.089; 8754.250;  210.875;    0.000
1041.244;10078.250;  225.875;    0.000
1041.399;10308.250;  208.875;    0.000
1041.554;10941.250;  249.875;    0.000
1041.708;12131.250;  254.875;    0.000
1041.863;11122.250;  248.875;    0.000
1042.018;11622.250;  280.875;    0.000
1042.172;12131.250;  233.875;    0.000
1042.327;10128.250;  256.875;    0.000
1042.481;10831.250;  210.875;    0.000
1042.636;11590.250;  229.875;    0.000
1042.791;11468.250;  215.875;    0.000
1042.945;12483.250;  256.875;    0.000
1043.099;13363.250;  251.875;    0.000
1043.254;13337.250;  204.875;    0.000
1043.408;15170.250;  278.875;    0.000
1043.563;14777.250;  211.875;    0.000
1043.717;14519.250;  259.875;    0.000
1043.871;14155.250;  233.875;    0.000
1044.025;13722.250;  221.875;    0.000
1044.180;13044.250;  208.875;    0.000
1044.334;13264.250;  255.875;    0.000
1044.488;12969.250;  269.875;    0.000
1044.642;14155.250;  228.875;    0.000
1044.796;16334.250;  232.875;    0.000
1044.950;16433.250;  249.875;    0.000
1045.104;16475.250;  205.875;    0.000
1045.258;18692.250;  206.875;    0.000
1045.412;17933.250;  251.875;    0.000
1045.566;15914.250;  249.875;    0.000
1045.720;16380.250;  206.875;    0.000
1045.874;15943.250;  232.875;    0.000
1046.028;14319.250;  266.875;    0.000
1046.182;14070.250;  217.875;    0.000
1046.336;15178.250;  216.875;    0.000
1046.489;15995.250;  236.875;    0.000
1046.643;16539.250;  253.875;    0.000
1046.797;18255.250;  244.875;    0.000
1046.951;19276.250;  234.875;    0.000
1047.104;18604.250;  281.875;    0.000
1047.258;19599.250;  253.875;    0.000
1047.411;20589.250;  228.875;    0.000
1047.565;19869.250;  273.875;    0.000
1047.719;18165.250;  232.875;    0.000
1047.872;17637.250;  230.875;    0.000
1048.026;17797.250;  282.875;    0.000
1048.179;18084.250;  225.875;    0.000
1048.332;16962.250;  234.875;    0.000
1048.486;16274.250;  223.875;    0.000
1048.639;17760.250;  248.875;    0.000
1048.792;18890.250;  244.875;    0.000
1048.946;20031.250;  210.875;    0.000
1049.099;23118.250;  242.875;    0.000
1049.252;22860.250;  269.875;    0.000
1049.406;21287.250;  285.875;    0.000
1049.559;20856.250;  277.875;    0.000
1049.712;21687.250;  254.875;    0.000
1049.865;24238.250;  252.875;    0.000
1050.018;24963.250;  270.875;    0.000
1050.171;21751.250;  230.875;    0.000
1050.324;20465.250;  268.875;    0.000
1050.477;19105.250;  262.875;    0.000
1050.630;19238.250;  243.875;    0.000
1050.783;21519.250;  216.875;    0.000
1050.936;20847.250;  250.875;    0.000
1051.089;20940.250;  247.875;    0.000
1051.242;22602.250;  300.875;    0.000
1051.394;24238.250;  233.875;    0.000
1051.547;24079.250;  263.875;    0.000
1051.700;24021.250;  238.875;    0.000
1051.853;23481.250;  299.875;    0.000
1052.005;25594.250;  275.875;    0.000
1052.158;28242.250;  304.875;    0.000
1052.311;31847.250;  251.875;    0.000
1052.463;30008.250;  276.875;    0.000
1052.616;26732.250;  271.875;    0.000
1052.768;24706.250;  285.875;    0.000
1052.921;24348.250;  261.875;    0.000
1053.073;26161.250;  333.875;    0.000
1053.226;25783.250;  271.875;    0.000
1053.378;28257.250;  309.875;    0.000
1053.531;28578.250;  266.875;    0.000
1053.683;28401.250;  278.875;    0.000
1053.835;25996.250;  274.875;    0.000
1053.988;20043.250;  287.875;    0.000
1054.140; 4852.250;  350.875;    0.000
1054.292; 1272.250;  338.875;    0.000
1054.444;  996.250;  270.875;    0.000
1054.596;  975.250;  294.875;    0.000
1054.749;  819.250;  285.875;    0.000
1054.901;  801.250;  254.875;    0.000
1055.053;  769.250;  320.875;    0.000
1055.205;  773.250;  284.875;    0.000
1055.357;  747.250;  298.875;    0.000
1055.509;  741.250;  304.875;    0.000
1055.661;  684.250;  350.875;    0.000
1055.813;  708.250;  289.875;    0.000
1055.965;  680.250;  277.875;    0.000
1056.116;  711.250;  288.875;    0.000
1056.268;  694.250;  311.875;    0.000
1056.420;  683.250;  308.875;    0.000

