
Integration time [ms]:   0.300
Averaging Nr. [scans]: 1
Smoothing Nr. [pixels]: 0
Data measured with spectrometer [name]: NIR
Wave   ;Sample   ;Dark     ;Reference
[nm]   ;[counts] ;[counts] ;[counts] 

691.496;   11.825;  155.525;    0.000
691.696;   47.825;  186.525;    0.000
691.896;   -2.175;  113.525;    0.000
692.096;    6.825;  169.525;    0.000
692.296;  -22.175;  119.525;    0.000
692.496;   36.825;  182.525;    0.000
692.695;  -27.175;  119.525;    0.000
692.895;   41.825;  183.525;    0.000
693.095;   -9.175;  119.525;    0.000
693.295;   13.825;  156.525;    0.000
693.495;   27.825;  145.525;    0.000
693.695;  -44.175;  144.525;    0.000
693.894;   11.825;  174.525;    0.000
694.094;   20.825;  148.525;    0.000
694.294;   -2.175;  114.525;    0.000
694.494;  412.825;  137.525;    0.000
694.693; 3762.825;  112.525;    0.000
694.893; 4172.825;   85.525;    0.000
695.093; 4035.825;  152.525;    0.000
695.293; 4163.825;  159.525;    0.000
695.492; 4115.825;  131.525;    0.000
695.692; 4236.825;  134.525;    0.000
695.891; 4263.825;  161.525;    0.000
696.091; 4176.825;  180.525;    0.000
696.291; 4248.825;  120.525;    0.000
696.490; 4420.825;  146.525;    0.000
696.690; 4367.825;  145.525;    0.000
696.889; 4344.825;  171.525;    0.000
697.089; 4391.825;   98.525;    0.000
697.288; 4293.825;  172.525;    0.000
697.488; 4439.825;  137.525;    0.000
697.687; 4384.825;  171.525;    0.000
697.887; 4327.825;  142.525;    0.000
698.086; 4304.825;  159.525;    0.000
698.286; 4399.825;  122.525;    0.000
698.485; 4410.825;  121.525;    0.000
698.684; 4323.825;   94.525;    0.000
698.884; 4466.825;  131.525;    0.000
699.083; 4359.825;  112.525;    0.000
699.282; 4356.825;  119.525;    0.000
699.482; 4470.825;  117.525;    0.000
699.681; 4416.825;  115.525;    0.000
699.880; 4446.825;  166.525;    0.000
700.080; 4602.825;  194.525;    0.000
700.279; 4465.825;   98.525;    0.000
700.478; 4430.825;  159.525;    0.000
700.677; 4521.825;  134.525;    0.000
700.877; 4694.825;  171.525;    0.000
701.076; 4562.825;  141.525;    0.000
701.275; 4381.825;  119.525;    0.000
701.474; 4590.825;  132.525;    0.000
701.673; 4507.825;  141.525;    0.000
701.872; 4562.825;  158.525;    0.000
702.071; 4558.825;  129.525;    0.000
702.271; 4663.825;  122.525;    0.000
702.470; 4590.825;  158.525;    0.000
702.669; 4566.825;  145.525;    0.000
702.868; 4528.825;  135.525;    0.000
703.067; 4686.825;  169.525;    0.000
703.266; 4624.825;  125.525;    0.000
703.465; 4640.825;  153.525;    0.000
703.664; 4674.825;  113.525;    0.000
703.863; 4697.825;  170.525;    0.000
704.062; 4622.825;  115.525;    0.000
704.260; 4619.825;  133.525;    0.000
704.459; 4593.825;  123.525;    0.000
704.658; 4540.825;  105.525;    0.000
704.857; 4701.825;  125.525;    0.000
705.056; 4602.825;  108.525;    0.000
705.255; 4654.825;  117.525;    0.000
705.454; 4573.825;  126.525;    0.000
705.652; 4709.825;  137.525;    0.000
705.851; 4649.825;   95.525;    0.000
706.050; 4672.825;  120.525;    0.000
706.249; 4650.825;   81.525;    0.000
706.447; 4625.825;  105.525;    0.000
706.646; 4713.825;  107.525;    0.000
706.845; 4769.825;  104.525;    0.000
707.043; 4781.825;  136.525;    0.000
707.242; 4730.825;   89.525;    0.000
707.441; 4833.825;  147.525;    0.000
707.639; 4691.825;  156.525;    0.000
707.838; 4761.825;  114.525;    0.000
708.037; 4665.825;  100.525;    0.000
708.235; 4680.825;  103.525;    0.000
708.434; 4819.825;  102.525;    0.000
708.632; 4752.825;  100.525;    0.000
708.831; 4833.825;  121.525;    0.000
709.029; 4795.825;  102.525;    0.000
709.228; 4775.825;   88.525;    0.000
709.426; 4922.825;  135.525;    0.000
709.625; 4791.825;  128.525;    0.000
709.823; 4901.825;  123.525;    0.000
710.022; 5026.825;  137.525;    0.000
710.220; 4998.825;  134.525;    0.000
710.418; 4948.825;  122.525;    0.000
710.617; 4918.825;   64.525;    0.000
710.815; 4957.825;   94.525;    0.000
711.013; 4932.825;  127.525;    0.000
711.212; 4938.825;  105.525;    0.000
711.410; 4933.825;  117.525;    0.000
711.608; 4998.825;  114.525;    0.000
711.807; 4921.825;  119.525;    0.000
712.005; 5007.825;   92.525;    0.000
712.203; 5074.825;   95.525;    0.000
712.401; 5093.825;  107.525;    0.000
712.599; 5058.825;  127.525;    0.000
712.798; 5111.825;  120.525;    0.000
712.996; 5052.825;   76.525;    0.000
713.194; 5012.825;  118.525;    0.000
713.392; 5117.825;   60.525;    0.000
713.590; 5310.825;   92.525;    0.000
713.788; 5198.825;  110.525;    0.000
713.986; 5205.825;  130.525;    0.000
714.184; 5151.825;   71.525;    0.000
714.382; 5205.825;   86.525;    0.000
714.580; 5268.825;   74.525;    0.000
714.778; 5392.825;  133.525;    0.000
714.976; 5289.825;   81.525;    0.000
715.174; 5526.825;  100.525;    0.000
715.372; 5705.825;  141.525;    0.000
715.570; 5965.825;   73.525;    0.000
715.768; 6269.825;  119.525;    0.000
715.966; 6267.825;   81.525;    0.000
716.164; 6442.825;  130.525;    0.000
716.362; 6051.825;  125.525;    0.000
716.560; 5941.825;  109.525;    0.000
716.758; 5721.825;   96.525;    0.000
716.955; 5928.825;   83.525;    0.000
717.153; 5732.825;   87.525;    0.000
717.351; 5796.825;  123.525;    0.000
717.549; 5619.825;  121.525;    0.000
717.746; 5687.825;  128.525;    0.000
717.944; 5643.825;  132.525;    0.000
718.142; 5631.825;  120.525;    0.000
718.340; 5569.825;   94.525;    0.000
718.537; 5644.825;   95.525;    0.000
718.735; 5766.825;  152.525;    0.000
718.933; 5544.825;  124.525;    0.000
719.130; 5746.825;  114.525;    0.000
719.328; 5685.825;   63.525;    0.000
719.525; 5711.825;  146.525;    0.000
719.723; 5484.825;   96.525;    0.000
719.920; 5565.825;  120.525;    0.000
720.118; 5558.825;   59.525;    0.000
720.316; 5599.825;  116.525;    0.000
720.513; 5526.825;  127.525;    0.000
720.711; 5559.825;  110.525;    0.000
720.908; 5599.825;   92.525;    0.000
721.105; 5622.825;  138.525;    0.000
721.303; 5522.825;   90.525;    0.000
721.500; 5720.825;  126.525;    0.000
721.698; 5692.825;  103.525;    0.000
721.895; 5722.825;  206.525;    0.000
722.092; 5514.825;   63.525;    0.000
722.290; 5614.825;  123.525;    0.000
722.487; 5565.825;  137.525;    0.000
722.684; 5611.825;  126.525;    0.000
722.882; 5734.825;  119.525;    0.000
723.079; 5564.825;  132.525;    0.000
723.276; 5528.825;   98.525;    0.000
723.473; 5671.825;   97.525;    0.000
723.671; 5618.825;   43.525;    0.000
723.868; 5718.825;  142.525;    0.000
724.065; 5795.825;  102.525;    0.000
724.262; 5693.825;  119.525;    0.000
724.459; 5628.825;   73.525;    0.000
724.656; 5770.825;  128.525;    0.000
724.854; 5646.825;  135.525;    0.000
725.051; 5696.825;   81.525;    0.000
725.248; 5725.825;   88.525;    0.000
725.445; 5881.825;  129.525;    0.000
725.642; 5736.825;   76.525;    0.000
725.839; 5798.825;  134.525;    0.000
726.036; 5711.825;  101.525;    0.000
726.233; 5833.825;   68.525;    0.000
726.430; 5827.825;  121.525;    0.000
726.627; 5887.825;  136.525;    0.000
726.824; 5734.825;   87.525;    0.000
727.021; 5768.825;  141.525;    0.000
727.218; 5829.825;   92.525;    0.000
727.414; 5800.825;  121.525;    0.000
727.611; 5850.825;  100.525;    0.000
727.808; 5900.825;  130.525;    0.000
728.005; 5791.825;   83.525;    0.000
728.202; 5927.825;  120.525;    0.000
728.399; 5837.825;   75.525;    0.000
728.595; 5702.825;  148.525;    0.000
728.792; 5919.825;   79.525;    0.000
728.989; 5792.825;   86.525;    0.000
729.186; 5870.825;   80.525;    0.000
729.382; 5901.825;   72.525;    0.000
729.579; 5946.825;  112.525;    0.000
729.776; 5942.825;  106.525;    0.000
729.972; 5937.825;   77.525;    0.000
730.169; 6006.825;  118.525;    0.000
730.366; 5803.825;   92.525;    0.000
730.562; 5948.825;  104.525;    0.000
730.759; 6008.825;   95.525;    0.000
730.955; 5917.825;   85.525;    0.000
731.152; 5902.825;   79.525;    0.000
731.348; 5926.825;   72.525;    0.000
731.545; 5907.825;   56.525;    0.000
731.741; 5991.825;  106.525;    0.000
731.938; 5963.825;  113.525;    0.000
732.134; 5884.825;  106.525;    0.000
732.331; 5794.825;   82.525;    0.000
732.527; 6032.825;   80.525;    0.000
732.724; 6044.825;   97.525;    0.000
732.920; 5932.825;  127.525;    0.000
733.116; 6029.825;  115.525;    0.000
733.313; 5900.825;  153.525;    0.000
733.509; 5977.825;   76.525;    0.000
733.705; 6027.825;  159.525;    0.000
733.902; 6055.825;   82.525;    0.000
734.098; 5997.825;   70.525;    0.000
734.294; 6225.825;  105.525;    0.000
734.490; 6009.825;  110.525;    0.000
734.687; 6056.825;  102.525;    0.000
734.883; 6164.825;   77.525;    0.000
735.079; 6011.825;   93.525;    0.000
735.275; 6107.825;  109.525;    0.000
735.471; 6027.825;   99.525;    0.000
735.667; 6051.825;  107.525;    0.000
735.863; 5979.825;   89.525;    0.000
736.060; 6176.825;  105.525;    0.000
736.256; 6272.825;  113.525;    0.000
736.452; 6174.825;   90.525;    0.000
736.648; 6136.825;   88.525;    0.000
736.844; 6214.825;  129.525;    0.000
737.040; 6421.825;  139.525;    0.000
737.236; 6199.825;  129.525;    0.000
737.432; 6284.825;   67.525;    0.000
737.628; 6217.825;  104.525;    0.000
737.824; 6244.825;  111.525;    0.000
738.019; 6291.825;  116.525;    0.000
738.215; 6330.825;  135.525;    0.000
738.411; 6177.825;  118.525;    0.000
738.607; 6215.825;   58.525;    0.000
738.803; 6211.825;   32.525;    0.000
738.999; 6564.825;  120.525;    0.000
739.195; 6456.825;   76.525;    0.000
739.390; 6579.825;  119.525;    0.000
739.586; 6498.825;   83.525;    0.000
739.782; 6454.825;  134.525;    0.000
739.978; 6525.825;  122.525;    0.000
740.173; 6609.825;   96.525;    0.000
740.369; 6502.825;   86.525;    0.000
740.565; 6614.825;  122.525;    0.000
740.760; 6612.825;   99.525;    0.000
740.956; 6649.825;  137.525;    0.000
741.152; 6623.825;  108.525;    0.000
741.347; 6810.825;   65.525;    0.000
741.543; 6798.825;   73.525;    0.000
741.738; 6943.825;  142.525;    0.000
741.934; 7249.825;  131.525;    0.000
742.129; 7402.825;   66.525;    0.000
742.325; 8294.825;  143.525;    0.000
742.520; 8918.825;  119.525;    0.000
742.716; 8624.825;  109.525;    0.000
742.911; 8189.825;   62.525;    0.000
743.107; 7916.825;  119.525;    0.000
743.302; 8016.825;   78.525;    0.000
743.498; 8046.825;  130.525;    0.000
743.693; 7981.825;   75.525;    0.000
743.888; 8487.825;  135.525;    0.000
744.084; 9403.825;  106.525;    0.000
744.279;11327.825;  101.525;    0.000
744.474;11554.825;   91.525;    0.000
744.670;10513.825;  144.525;    0.000
744.865; 9622.825;  128.525;    0.000
745.060; 8980.825;   63.525;    0.000
745.255; 9034.825;  155.525;    0.000
745.451; 8700.825;  110.525;    0.000
745.646; 8595.825;  150.525;    0.000
745.841; 8546.825;  128.525;    0.000
746.036; 8629.825;  110.525;    0.000
746.231; 8790.825;  126.525;    0.000
746.426; 9153.825;   83.525;    0.000
746.622;10480.825;  157.525;    0.000
746.817;13282.825;  112.525;    0.000
747.012;14723.825;  115.525;    0.000
747.207;13362.825;  161.525;    0.000
747.402;11947.825;   88.525;    0.000
747.597;11069.825;  103.525;    0.000
747.792;10510.825;  152.525;    0.000
747.987;10292.825;   80.525;    0.000
748.182; 9806.825;   89.525;    0.000
748.377; 9356.825;  104.525;    0.000
748.572; 9163.825;  138.525;    0.000
748.767; 8720.825;  100.525;    0.000
748.961; 8667.825;  106.525;    0.000
749.156; 8412.825;  113.525;    0.000
749.351; 8355.825;  116.525;    0.000
749.546; 8062.825;  107.525;    0.000
749.741; 8063.825;  102.525;    0.000
749.936; 7982.825;  105.525;    0.000
750.130; 7829.825;  111.525;    0.000
750.325; 7856.825;   72.525;    0.000
750.520; 7804.825;   96.525;    0.000
750.715; 7674.825;  135.525;    0.000
750.909; 7660.825;  107.525;    0.000
751.104; 7705.825;  106.525;    0.000
751.299; 7663.825;  144.525;    0.000
751.493; 7539.825;  116.525;    0.000
751.688; 7476.825;   96.525;    0.000
751.882; 7447.825;   92.525;    0.000
752.077; 7505.825;  109.525;    0.000
752.272; 7462.825;   96.525;    0.000
752.466; 7354.825;  110.525;    0.000
752.661; 7259.825;  120.525;    0.000
752.855; 7266.825;   70.525;    0.000
753.050; 7175.825;  129.525;    0.000
753.244; 7290.825;  126.525;    0.000
753.439; 7070.825;  115.525;    0.000
753.633; 7198.825;  120.525;    0.000
753.828; 7180.825;  129.525;    0.000
754.022; 7010.825;  139.525;    0.000
754.216; 7024.825;  121.525;    0.000
754.411; 7050.825;  108.525;    0.000
754.605; 6970.825;   94.525;    0.000
754.799; 7007.825;  125.525;    0.000
754.994; 7042.825;  160.525;    0.000
755.188; 7041.825;  151.525;    0.000
755.382; 6896.825;  102.525;    0.000
755.576; 6936.825;  103.525;    0.000
755.771; 6978.825;   99.525;    0.000
755.965; 6932.825;  158.525;    0.000
756.159; 6849.825;   96.525;    0.000
756.353; 6867.825;  157.525;    0.000
756.547; 6939.825;  132.525;    0.000
756.742; 6856.825;  106.525;    0.000
756.936; 6871.825;  113.525;    0.000
757.130; 6873.825;  114.525;    0.000
757.324; 6740.825;  111.525;    0.000
757.518; 6976.825;  142.525;    0.000
757.712; 6913.825;  137.525;    0.000
757.906; 6964.825;   93.525;    0.000
758.100; 7031.825;  119.525;    0.000
758.294; 7037.825;  132.525;    0.000
758.488; 7003.825;  153.525;    0.000
758.682; 6791.825;  101.525;    0.000
758.876; 6861.825;  129.525;    0.000
759.070; 6846.825;  168.525;    0.000
759.264; 6877.825;   96.525;    0.000
759.458; 6822.825;  117.525;    0.000
759.651; 6854.825;  135.525;    0.000
759.845; 6831.825;  127.525;    0.000
760.039; 6802.825;  120.525;    0.000
760.233; 6813.825;  124.525;    0.000
760.427; 6856.825;  115.525;    0.000
760.620; 6764.825;  130.525;    0.000
760.814; 6878.825;  102.525;    0.000
761.008; 6904.825;  174.525;    0.000
761.202; 6793.825;  132.525;    0.000
761.395; 6759.825;  126.525;    0.000
761.589; 6857.825;  133.525;    0.000
761.783; 6806.825;  147.525;    0.000
761.976; 6837.825;  147.525;    0.000
762.170; 6905.825;  174.525;    0.000
762.363; 7038.825;   97.525;    0.000
762.557; 6889.825;  141.525;    0.000
762.750; 6862.825;  112.525;    0.000
762.944; 6953.825;  110.525;    0.000
763.138; 6829.825;  125.525;    0.000
763.331; 6792.825;  101.525;    0.000
763.524; 7011.825;  101.525;    0.000
763.718; 6970.825;  156.525;    0.000
763.911; 7069.825;  143.525;    0.000
764.105; 7135.825;  139.525;    0.000
764.298; 6837.825;   89.525;    0.000
764.492; 6906.825;  111.525;    0.000
764.685; 6970.825;  136.525;    0.000
764.878; 7087.825;  146.525;    0.000
765.072; 7070.825;  110.525;    0.000
765.265; 7053.825;  141.525;    0.000
765.458; 7080.825;   82.525;    0.000
765.651; 7052.825;  144.525;    0.000
765.845; 6988.825;   79.525;    0.000
766.038; 7158.825;  123.525;    0.000
766.231; 8155.825;  125.525;    0.000
766.424;12509.825;  131.525;    0.000
766.617;12925.825;   62.525;    0.000
766.811; 7861.825;  142.525;    0.000
767.004; 7274.825;  134.525;    0.000
767.197; 7310.825;  147.525;    0.000
767.390; 7273.825;  100.525;    0.000
767.583; 7147.825;  121.525;    0.000
767.776; 7147.825;   91.525;    0.000
767.969; 7102.825;  113.525;    0.000
768.162; 7312.825;  170.525;    0.000
768.355; 7101.825;  134.525;    0.000
768.548; 7170.825;  177.525;    0.000
768.741; 7374.825;   96.525;    0.000
768.934; 7420.825;  143.525;    0.000
769.127; 7411.825;  147.525;    0.000
769.320; 7409.825;   93.525;    0.000
769.513; 7642.825;  137.525;    0.000
769.706; 8462.825;   96.525;    0.000
769.898;12207.825;  118.525;    0.000
770.091; 9712.825;  138.525;    0.000
770.284; 7775.825;  133.525;    0.000
770.477; 7762.825;  137.525;    0.000
770.670; 7516.825;  124.525;    0.000
770.862; 7738.825;  125.525;    0.000
771.055; 7639.825;  135.525;    0.000
771.248; 7618.825;  109.525;    0.000
771.441; 7718.825;  141.525;    0.000
771.633; 7605.825;  142.525;    0.000
771.826; 7900.825;  123.525;    0.000
772.018; 7844.825;  136.525;    0.000
772.211; 7862.825;  145.525;    0.000
772.404; 8034.825;  127.525;    0.000
772.596; 8111.825;  193.525;    0.000
772.789; 8145.825;   64.525;    0.000
772.981; 8187.825;  142.525;    0.000
773.174; 8312.825;  105.525;    0.000
773.366; 8364.825;  166.525;    0.000
773.559; 8502.825;  125.525;    0.000
773.751; 8707.825;  126.525;    0.000
773.944; 8636.825;  147.525;    0.000
774.136; 9015.825;  155.525;    0.000
774.329; 9091.825;  127.525;    0.000
774.521; 9416.825;  133.525;    0.000
774.713; 9652.825;  139.525;    0.000
774.906; 9841.825;  170.525;    0.000
775.098;10248.825;  144.525;    0.000
775.290;10424.825;  162.525;    0.000
775.483;11207.825;  137.525;    0.000
775.675;11933.825;  148.525;    0.000
775.867;12611.825;   81.525;    0.000
776.059;13647.825;  134.525;    0.000
776.251;15031.825;  137.525;    0.000
776.444;16882.824;  155.525;    0.000
776.636;19351.824;  148.525;    0.000
776.828;23718.824;  129.525;    0.000
777.020;33094.824;  133.525;    0.000
777.212;47588.824;  137.525;    0.000
777.404;53022.824;  124.525;    0.000
777.596;49584.824;  142.525;    0.000
777.788;37684.824;  155.525;    0.000
777.980;29246.824;  119.525;    0.000
778.172;23865.824;  129.525;    0.000
778.364;20524.824;  122.525;    0.000
778.556;18269.824;  129.525;    0.000
778.748;16489.824;  178.525;    0.000
778.940;15170.825;  128.525;    0.000
779.132;14131.825;  145.525;    0.000
779.324;13077.825;   89.525;    0.000
779.516;12137.825;  161.525;    0.000
779.708;11543.825;  183.525;    0.000
779.900;11048.825;  124.525;    0.000
780.091;10642.825;  143.525;    0.000
780.283;10293.825;  135.525;    0.000
780.475;10031.825;  129.525;    0.000
780.667; 9852.825;  178.525;    0.000
780.859; 9317.825;  146.525;    0.000
781.050; 9236.825;  156.525;    0.000
781.242; 8977.825;  138.525;    0.000
781.434; 8690.825;  117.525;    0.000
781.625; 8469.825;  161.525;    0.000
781.817; 8383.825;  127.525;    0.000
782.008; 8181.825;  138.525;    0.000
782.200; 8253.825;  139.525;    0.000
782.392; 8112.825;  179.525;    0.000
782.583; 8081.825;  137.525;    0.000
782.775; 7914.825;  162.525;    0.000
782.966; 7657.825;  159.525;    0.000
783.158; 7763.825;  118.525;    0.000
783.349; 7611.825;  160.525;    0.000
783.541; 7585.825;  139.525;    0.000
783.732; 7606.825;  145.525;    0.000
783.924; 7453.825;  146.525;    0.000
784.115; 7412.825;  125.525;    0.000
784.306; 7370.825;  118.525;    0.000
784.498; 7163.825;  144.525;    0.000
784.689; 7342.825;  145.525;    0.000
784.880; 7371.825;  137.525;    0.000
785.072; 7033.825;  157.525;    0.000
785.263; 7246.825;  149.525;    0.000
785.454; 7060.825;  128.525;    0.000
785.645; 7102.825;  131.525;    0.000
785.837; 7108.825;  137.525;    0.000
786.028; 7071.825;  161.525;    0.000
786.219; 7078.825;  155.525;    0.000
786.410; 7021.825;  146.525;    0.000
786.601; 7042.825;  120.525;    0.000
786.792; 7013.825;  179.525;    0.000
786.984; 7050.825;  113.525;    0.000
787.175; 6928.825;  156.525;    0.000
787.366; 6935.825;  131.525;    0.000
787.557; 6928.825;  138.525;    0.000
787.748; 6937.825;  112.525;    0.000
787.939; 7080.825;  115.525;    0.000
788.130; 7139.825;  150.525;    0.000
788.321; 7068.825;  122.525;    0.000
788.512; 7057.825;  147.525;    0.000
788.703; 7027.825;  126.525;    0.000
788.894; 7035.825;   80.525;    0.000
789.084; 6992.825;  127.525;    0.000
789.275; 7111.825;  141.525;    0.000
789.466; 7153.825;  108.525;    0.000
789.657; 7082.825;  137.525;    0.000
789.848; 7254.825;  126.525;    0.000
790.039; 7183.825;  144.525;    0.000
790.229; 7246.825;  105.525;    0.000
790.420; 7161.825;   96.525;    0.000
790.611; 7000.825;  171.525;    0.000
790.801; 7124.825;   89.525;    0.000
790.992; 7134.825;  140.525;    0.000
791.183; 7098.825;  143.525;    0.000
791.373; 7059.825;  128.525;    0.000
791.564; 7147.825;   96.525;    0.000
791.755; 7287.825;  111.525;    0.000
791.945; 7060.825;  112.525;    0.000
792.136; 7066.825;  124.525;    0.000
792.326; 7206.825;   88.525;    0.000
792.517; 7228.825;  130.525;    0.000
792.707; 7216.825;  144.525;    0.000
792.898; 7161.825;  120.525;    0.000
793.088; 7162.825;  106.525;    0.000
793.279; 7288.825;  104.525;    0.000
793.469; 7305.825;  103.525;    0.000
793.660; 7467.825;  120.525;    0.000
793.850; 7859.825;  106.525;    0.000
794.040; 7876.825;  135.525;    0.000
794.231; 8215.825;   80.525;    0.000
794.421; 8585.825;  120.525;    0.000
794.611; 9658.825;  154.525;    0.000
794.802;11334.825;  103.525;    0.000
794.992;11687.825;  120.525;    0.000
795.182;12002.825;  156.525;    0.000
795.372;11143.825;  104.525;    0.000
795.563;10434.825;  153.525;    0.000
795.753; 9460.825;  112.525;    0.000
795.943; 8868.825;  128.525;    0.000
796.133; 8494.825;  128.525;    0.000
796.323; 8344.825;  152.525;    0.000
796.513; 8028.825;  123.525;    0.000
796.703; 7809.825;  134.525;    0.000
796.893; 7563.825;  120.525;    0.000
797.083; 7558.825;  136.525;    0.000
797.273; 7371.825;  128.525;    0.000
797.463; 7253.825;  140.525;    0.000
797.653; 7077.825;   75.525;    0.000
797.843; 7024.825;  114.525;    0.000
798.033; 7046.825;   90.525;    0.000
798.223; 6824.825;  136.525;    0.000
798.413; 6873.825;  164.525;    0.000
798.603; 6751.825;  150.525;    0.000
798.793; 6703.825;  137.525;    0.000
798.983; 6624.825;  119.525;    0.000
799.172; 6539.825;  136.525;    0.000
799.362; 6597.825;  138.525;    0.000
799.552; 6580.825;  123.525;    0.000
799.742; 6476.825;  117.525;    0.000
799.932; 6447.825;  108.525;    0.000
800.121; 6402.825;  152.525;    0.000
800.311; 6465.825;  117.525;    0.000
800.501; 6341.825;  100.525;    0.000
800.690; 6297.825;  139.525;    0.000
800.880; 6374.825;  138.525;    0.000
801.070; 6306.825;  120.525;    0.000
801.259; 6387.825;  143.525;    0.000
801.449; 6279.825;  110.525;    0.000
801.638; 6419.825;  140.525;    0.000
801.828; 6238.825;  103.525;    0.000
802.017; 6298.825;   78.525;    0.000
802.207; 6298.825;  126.525;    0.000
802.396; 6116.825;  151.525;    0.000
802.586; 6248.825;  106.525;    0.000
802.775; 6272.825;  152.525;    0.000
802.965; 6038.825;  117.525;    0.000
803.154; 6160.825;  171.525;    0.000
803.343; 6189.825;  126.525;    0.000
803.533; 6119.825;  135.525;    0.000
803.722; 6117.825;  144.525;    0.000
803.911; 6170.825;  109.525;    0.000
804.101; 6067.825;  146.525;    0.000
804.290; 6019.825;  115.525;    0.000
804.479; 6092.825;  128.525;    0.000
804.668; 6031.825;  156.525;    0.000
804.857; 6214.825;  151.525;    0.000
805.047; 6102.825;  131.525;    0.000
805.236; 6082.825;  144.525;    0.000
805.425; 6091.825;  160.525;    0.000
805.614; 6124.825;  112.525;    0.000
805.803; 6160.825;  120.525;    0.000
805.992; 6144.825;  148.525;    0.000
806.181; 6092.825;  108.525;    0.000
806.370; 6136.825;  142.525;    0.000
806.559; 6219.825;  116.525;    0.000
806.748; 6055.825;  108.525;    0.000
806.937; 6171.825;  110.525;    0.000
807.126; 6119.825;  126.525;    0.000
807.315; 6149.825;  121.525;    0.000
807.504; 6240.825;  102.525;    0.000
807.693; 6176.825;  134.525;    0.000
807.882; 6116.825;  135.525;    0.000
808.071; 6246.825;  135.525;    0.000
808.260; 6265.825;   93.525;    0.000
808.448; 6323.825;  151.525;    0.000
808.637; 6331.825;  105.525;    0.000
808.826; 6349.825;  178.525;    0.000
809.015; 6340.825;  152.525;    0.000
809.203; 6427.825;  147.525;    0.000
809.392; 6384.825;  144.525;    0.000
809.581; 6504.825;  167.525;    0.000
809.770; 6399.825;  151.525;    0.000
809.958; 6515.825;  128.525;    0.000
810.147; 6514.825;  152.525;    0.000
810.335; 6525.825;  160.525;    0.000
810.524; 6585.825;  130.525;    0.000
810.713; 6806.825;  128.525;    0.000
810.901; 6766.825;  140.525;    0.000
811.090; 6714.825;  152.525;    0.000
811.278; 6757.825;  126.525;    0.000
811.467; 7195.825;  161.525;    0.000
811.655; 7142.825;  184.525;    0.000
811.844; 7162.825;  148.525;    0.000
812.032; 7140.825;  138.525;    0.000
812.220; 7227.825;  157.525;    0.000
812.409; 7192.825;  143.525;    0.000
812.597; 7322.825;  124.525;    0.000
812.785; 7368.825;  170.525;    0.000
812.974; 7401.825;  135.525;    0.000
813.162; 7570.825;  135.525;    0.000
813.350; 7509.825;  182.525;    0.000
813.539; 7548.825;  126.525;    0.000
813.727; 7657.825;  127.525;    0.000
813.915; 7733.825;  140.525;    0.000
814.103; 7882.825;  176.525;    0.000
814.291; 7907.825;  115.525;    0.000
814.479; 8131.825;  119.525;    0.000
814.668; 8247.825;  134.525;    0.000
814.856; 8245.825;  120.525;    0.000
815.044; 8566.825;  164.525;    0.000
815.232; 8810.825;  146.525;    0.000
815.420; 8838.825;  154.525;    0.000
815.608; 8920.825;  137.525;    0.000
815.796; 9229.825;  108.525;    0.000
815.984; 9330.825;  134.525;    0.000
816.172; 9826.825;  123.525;    0.000
816.360;10348.825;  181.525;    0.000
816.548;10479.825;  139.525;    0.000
816.736;11043.825;  138.525;    0.000
816.924;11838.825;  151.525;    0.000
817.111;12224.825;  156.525;    0.000
817.299;13293.825;  147.525;    0.000
817.487;14528.825;  188.525;    0.000
817.675;16600.824;  129.525;    0.000
817.863;19506.824;  128.525;    0.000
818.050;26853.824;  110.525;    0.000
818.238;44903.824;  166.525;    0.000
818.426;59487.824;  136.525;    0.000
818.613;46379.824;  143.525;    0.000
818.801;38068.824;  150.525;    0.000
818.989;36151.824;  179.525;    0.000
819.176;39140.824;  123.525;    0.000
819.364;53832.824;  148.525;    0.000
819.552;65169.824;   86.525;    0.000
819.739;55483.824;  169.525;    0.000
819.927;42874.824;  130.525;    0.000
820.114;35557.824;  144.525;    0.000
820.302;30555.824;  166.525;    0.000
820.489;27388.824;  145.525;    0.000
820.677;25184.824;  101.525;    0.000
820.864;23536.824;  149.525;    0.000
821.052;22891.824;  130.525;    0.000
821.239;22474.824;  147.525;    0.000
821.426;22775.824;  121.525;    0.000
821.614;24963.824;  187.525;    0.000
821.801;25753.824;  105.525;    0.000
821.988;23326.824;  167.525;    0.000
822.176;22240.824;  130.525;    0.000
822.363;22006.824;  143.525;    0.000
822.550;20464.824;  108.525;    0.000
822.737;18751.824;  109.525;    0.000
822.924;17478.824;  156.525;    0.000
823.112;16597.824;  123.525;    0.000
823.299;15626.825;  128.525;    0.000
823.486;14945.825;  138.525;    0.000
823.673;14152.825;  125.525;    0.000
823.860;13742.825;  138.525;    0.000
824.047;13583.825;  122.525;    0.000
824.234;14854.825;  134.525;    0.000
824.421;14645.825;   95.525;    0.000
824.608;13475.825;  151.525;    0.000
824.795;12308.825;  117.525;    0.000
824.982;11558.825;  143.525;    0.000
825.169;11166.825;   83.525;    0.000
825.356;10687.825;  126.525;    0.000
825.543;10038.825;   92.525;    0.000
825.730; 9885.825;  113.525;    0.000
825.917; 9534.825;  142.525;    0.000
826.104; 9236.825;  182.525;    0.000
826.290; 8962.825;  137.525;    0.000
826.477; 8686.825;  126.525;    0.000
826.664; 8643.825;  135.525;    0.000
826.851; 8314.825;  139.525;    0.000
827.038; 8157.825;  135.525;    0.000
827.224; 8108.825;  143.525;    0.000
827.411; 7816.825;  153.525;    0.000
827.598; 7726.825;  122.525;    0.000
827.784; 7588.825;  138.525;    0.000
827.971; 7481.825;  134.525;    0.000
828.157; 7251.825;  152.525;    0.000
828.344; 6991.825;  135.525;    0.000
828.531; 7086.825;  137.525;    0.000
828.717; 6997.825;  117.525;    0.000
828.904; 6863.825;  127.525;    0.000
829.090; 6846.825;  172.525;    0.000
829.277; 6600.825;  144.525;    0.000
829.463; 6622.825;  159.525;    0.000
829.650; 6533.825;  187.525;    0.000
829.836; 6330.825;  138.525;    0.000
830.022; 6384.825;  196.525;    0.000
830.209; 6331.825;  118.525;    0.000
830.395; 6214.825;  148.525;    0.000
830.581; 6145.825;  108.525;    0.000
830.768; 6014.825;  137.525;    0.000
830.954; 6141.825;  162.525;    0.000
831.140; 5910.825;  117.525;    0.000
831.327; 5986.825;  176.525;    0.000
831.513; 5779.825;  162.525;    0.000
831.699; 5782.825;  157.525;    0.000
831.885; 5709.825;  153.525;    0.000
832.071; 5764.825;  123.525;    0.000
832.257; 5520.825;  142.525;    0.000
832.444; 5658.825;  165.525;    0.000
832.630; 5570.825;  159.525;    0.000
832.816; 5403.825;  145.525;    0.000
833.002; 5521.825;  120.525;    0.000
833.188; 5253.825;  145.525;    0.000
833.374; 5276.825;  137.525;    0.000
833.560; 5188.825;  152.525;    0.000
833.746; 5182.825;  139.525;    0.000
833.932; 5215.825;  170.525;    0.000
834.118; 5171.825;  111.525;    0.000
834.303; 5135.825;  141.525;    0.000
834.489; 5169.825;  146.525;    0.000
834.675; 5144.825;  156.525;    0.000
834.861; 5148.825;   87.525;    0.000
835.047; 5102.825;  134.525;    0.000
835.233; 5066.825;   89.525;    0.000
835.418; 5053.825;  145.525;    0.000
835.604; 4995.825;  136.525;    0.000
835.790; 5009.825;  132.525;    0.000
835.976; 5026.825;  161.525;    0.000
836.161; 4890.825;  157.525;    0.000
836.347; 4871.825;  147.525;    0.000
836.533; 4778.825;  116.525;    0.000
836.718; 4915.825;  168.525;    0.000
836.904; 4850.825;  199.525;    0.000
837.089; 4882.825;  165.525;    0.000
837.275; 4738.825;  166.525;    0.000
837.460; 4846.825;  144.525;    0.000
837.646; 4776.825;  164.525;    0.000
837.831; 4718.825;  122.525;    0.000
838.017; 4766.825;  163.525;    0.000
838.202; 4714.825;  139.525;    0.000
838.388; 4876.825;  174.525;    0.000
838.573; 4727.825;  140.525;    0.000
838.759; 4738.825;  167.525;    0.000
838.944; 4634.825;  142.525;    0.000
839.129; 4634.825;  164.525;    0.000
839.315; 4775.825;  129.525;    0.000
839.500; 4708.825;  150.525;    0.000
839.685; 4552.825;  118.525;    0.000
839.870; 4802.825;  177.525;    0.000
840.056; 4814.825;  144.525;    0.000
840.241; 4700.825;  121.525;    0.000
840.426; 4699.825;  131.525;    0.000
840.611; 4693.825;  177.525;    0.000
840.796; 4768.825;  173.525;    0.000
840.981; 4692.825;  156.525;    0.000
841.166; 4829.825;  145.525;    0.000
841.352; 4884.825;  150.525;    0.000
841.537; 4757.825;  143.525;    0.000
841.722; 4927.825;  165.525;    0.000
841.907; 4961.825;  184.525;    0.000
842.092; 4905.825;  171.525;    0.000
842.277; 5063.825;  155.525;    0.000
842.461; 5071.825;  152.525;    0.000
842.646; 5132.825;  107.525;    0.000
842.831; 5281.825;  160.525;    0.000
843.016; 5443.825;  160.525;    0.000
843.201; 5544.825;  164.525;    0.000
843.386; 5744.825;  134.525;    0.000
843.571; 5975.825;  132.525;    0.000
843.755; 6223.825;  158.525;    0.000
843.940; 6736.825;  152.525;    0.000
844.125; 7579.825;  154.525;    0.000
844.310; 8745.825;  147.525;    0.000
844.494;11320.825;  158.525;    0.000
844.679;15322.825;  173.525;    0.000
844.864;14961.825;  152.525;    0.000
845.048;12422.825;  139.525;    0.000
845.233;10469.825;  200.525;    0.000
845.418; 9189.825;  139.525;    0.000
845.602; 8144.825;  147.525;    0.000
845.787; 7491.825;  148.525;    0.000
845.971; 6960.825;  170.525;    0.000
846.156; 6337.825;  136.525;    0.000
846.340; 6257.825;  146.525;    0.000
846.525; 5911.825;  188.525;    0.000
846.709; 5784.825;  128.525;    0.000
846.893; 5523.825;  151.525;    0.000
847.078; 5309.825;  164.525;    0.000
847.262; 5133.825;  155.525;    0.000
847.447; 4896.825;  114.525;    0.000
847.631; 4913.825;  148.525;    0.000
847.815; 4870.825;  114.525;    0.000
848.000; 4805.825;  134.525;    0.000
848.184; 4589.825;  154.525;    0.000
848.368; 4511.825;  145.525;    0.000
848.552; 4529.825;  122.525;    0.000
848.736; 4408.825;  139.525;    0.000
848.921; 4477.825;  143.525;    0.000
849.105; 4303.825;  145.525;    0.000
849.289; 4254.825;  173.525;    0.000
849.473; 4189.825;  147.525;    0.000
849.657; 4203.825;  144.525;    0.000
849.841; 4155.825;  168.525;    0.000
850.025; 4168.825;  205.525;    0.000
850.209; 4076.825;  171.525;    0.000
850.393; 4019.825;  130.525;    0.000
850.577; 3974.825;  146.525;    0.000
850.761; 4080.825;  188.525;    0.000
850.945; 4059.825;  137.525;    0.000
851.129; 4059.825;  192.525;    0.000
851.313; 3980.825;  199.525;    0.000
851.497; 3950.825;  165.525;    0.000
851.680; 3981.825;  196.525;    0.000
851.864; 3878.825;  169.525;    0.000
852.048; 3972.825;  156.525;    0.000
852.232; 3885.825;  150.525;    0.000
852.416; 4048.825;  219.525;    0.000
852.599; 3941.825;  168.525;    0.000
852.783; 3984.825;  165.525;    0.000
852.967; 3927.825;  166.525;    0.000
853.150; 3935.825;  191.525;    0.000
853.334; 3839.825;  158.525;    0.000
853.518; 3905.825;  168.525;    0.000
853.701; 3801.825;  125.525;    0.000
853.885; 3856.825;  165.525;    0.000
854.068; 3736.825;  142.525;    0.000
854.252; 3818.825;  167.525;    0.000
854.435; 3813.825;  146.525;    0.000
854.619; 3807.825;  163.525;    0.000
854.802; 3813.825;  167.525;    0.000
854.986; 3681.825;  163.525;    0.000
855.169; 3808.825;  146.525;    0.000
855.353; 3901.825;  183.525;    0.000
855.536; 3896.825;  140.525;    0.000
855.719; 3771.825;  168.525;    0.000
855.903; 3879.825;  170.525;    0.000
856.086; 3903.825;  145.525;    0.000
856.269; 3933.825;  126.525;    0.000
856.452; 3911.825;  142.525;    0.000
856.636; 4040.825;  140.525;    0.000
856.819; 4312.825;  127.525;    0.000
857.002; 4286.825;  165.525;    0.000
857.185; 4127.825;  111.525;    0.000
857.368; 4102.825;  143.525;    0.000
857.552; 4035.825;  174.525;    0.000
857.735; 3975.825;  194.525;    0.000
857.918; 4102.825;  171.525;    0.000
858.101; 4032.825;  142.525;    0.000
858.284; 3982.825;  118.525;    0.000
858.467; 4168.825;  163.525;    0.000
858.650; 4266.825;  149.525;    0.000
858.833; 4226.825;  120.525;    0.000
859.016; 4225.825;  169.525;    0.000
859.199; 4410.825;  121.525;    0.000
859.382; 4829.825;  184.525;    0.000
859.564; 5236.825;  139.525;    0.000
859.747; 5030.825;  126.525;    0.000
859.930; 4903.825;  109.525;    0.000
860.113; 4690.825;  137.525;    0.000
860.296; 4599.825;  182.525;    0.000
860.478; 4481.825;  136.525;    0.000
860.661; 4410.825;  157.525;    0.000
860.844; 4416.825;  129.525;    0.000
861.027; 4320.825;  163.525;    0.000
861.209; 4286.825;  151.525;    0.000
861.392; 4295.825;  124.525;    0.000
861.575; 4368.825;  163.525;    0.000
861.757; 4457.825;  205.525;    0.000
861.940; 4545.825;  180.525;    0.000
862.122; 4494.825;  148.525;    0.000
862.305; 4564.825;  128.525;    0.000
862.487; 4723.825;  172.525;    0.000
862.670; 5099.825;  123.525;    0.000
862.852; 5841.825;  126.525;    0.000
863.035; 7132.825;  174.525;    0.000
863.217; 7001.825;  160.525;    0.000
863.400; 6474.825;  164.525;    0.000
863.582; 6032.825;  118.525;    0.000
863.764; 5697.825;  143.525;    0.000
863.947; 5451.825;  137.525;    0.000
864.129; 5279.825;  166.525;    0.000
864.311; 5076.825;  128.525;    0.000
864.493; 5131.825;  153.525;    0.000
864.676; 4929.825;  156.525;    0.000
864.858; 4926.825;  159.525;    0.000
865.040; 4920.825;  163.525;    0.000
865.222; 4881.825;  138.525;    0.000
865.404; 5066.825;  157.525;    0.000
865.587; 5333.825;  184.525;    0.000
865.769; 5478.825;  178.525;    0.000
865.951; 5395.825;  104.525;    0.000
866.133; 5391.825;  147.525;    0.000
866.315; 5372.825;  141.525;    0.000
866.497; 5471.825;  132.525;    0.000
866.679; 5592.825;  139.525;    0.000
866.861; 5764.825;  118.525;    0.000
867.043; 5914.825;  154.525;    0.000
867.225; 6347.825;  147.525;    0.000
867.407; 6870.825;  158.525;    0.000
867.589; 7897.825;  172.525;    0.000
867.770; 9361.825;  159.525;    0.000
867.952;12916.825;  149.525;    0.000
868.134;16818.824;  156.525;    0.000
868.316;16608.824;  171.525;    0.000
868.498;15997.825;  200.525;    0.000
868.679;14107.825;  174.525;    0.000
868.861;11879.825;  175.525;    0.000
869.043;10154.825;  174.525;    0.000
869.224; 8689.825;  122.525;    0.000
869.406; 7941.825;  166.525;    0.000
869.588; 7480.825;  143.525;    0.000
869.769; 7106.825;  152.525;    0.000
869.951; 6912.825;  165.525;    0.000
870.132; 7071.825;  115.525;    0.000
870.314; 7779.825;  139.525;    0.000
870.495; 7861.825;  168.525;    0.000
870.677; 7330.825;  188.525;    0.000
870.858; 7013.825;  123.525;    0.000
871.040; 7296.825;  170.525;    0.000
871.221; 8042.825;  148.525;    0.000
871.403; 7755.825;  140.525;    0.000
871.584; 6950.825;  174.525;    0.000
871.765; 7119.825;  168.525;    0.000
871.947; 7563.825;  191.525;    0.000
872.128; 6970.825;  132.525;    0.000
872.309; 6048.825;  140.525;    0.000
872.491; 5620.825;  157.525;    0.000
872.672; 5444.825;  130.525;    0.000
872.853; 5110.825;  148.525;    0.000
873.034; 5058.825;  138.525;    0.000
873.215; 4755.825;  152.525;    0.000
873.396; 4571.825;  149.525;    0.000
873.578; 4399.825;  173.525;    0.000
873.759; 4242.825;  158.525;    0.000
873.940; 4136.825;  147.525;    0.000
874.121; 4034.825;  136.525;    0.000
874.302; 3940.825;  151.525;    0.000
874.483; 3952.825;  137.525;    0.000
874.664; 3920.825;  163.525;    0.000
874.845; 3971.825;  124.525;    0.000
875.026; 3808.825;  134.525;    0.000
875.207; 3813.825;  164.525;    0.000
875.388; 3731.825;  163.525;    0.000
875.568; 3591.825;  176.525;    0.000
875.749; 3604.825;  108.525;    0.000
875.930; 3473.825;  191.525;    0.000
876.111; 3509.825;  170.525;    0.000
876.292; 3514.825;  180.525;    0.000
876.472; 3474.825;  150.525;    0.000
876.653; 3315.825;  162.525;    0.000
876.834; 3347.825;  176.525;    0.000
877.015; 3423.825;  203.525;    0.000
877.195; 3338.825;  178.525;    0.000
877.376; 3324.825;  141.525;    0.000
877.556; 3252.825;  135.525;    0.000
877.737; 3300.825;  174.525;    0.000
877.918; 3162.825;  150.525;    0.000
878.098; 3252.825;  133.525;    0.000
878.279; 3235.825;  129.525;    0.000
878.459; 3085.825;  162.525;    0.000
878.640; 3203.825;  187.525;    0.000
878.820; 3066.825;  151.525;    0.000
879.000; 3157.825;  159.525;    0.000
879.181; 3052.825;  171.525;    0.000
879.361; 3233.825;  167.525;    0.000
879.542; 3106.825;  126.525;    0.000
879.722; 3140.825;  152.525;    0.000
879.902; 3231.825;  144.525;    0.000
880.083; 3155.825;  154.525;    0.000
880.263; 3259.825;  148.525;    0.000
880.443; 3298.825;  185.525;    0.000
880.623; 3883.825;  172.525;    0.000
880.803; 4368.825;  152.525;    0.000
880.984; 3876.825;  165.525;    0.000
881.164; 3476.825;  164.525;    0.000
881.344; 3394.825;  141.525;    0.000
881.524; 3462.825;  160.525;    0.000
881.704; 3403.825;  164.525;    0.000
881.884; 3575.825;  159.525;    0.000
882.064; 3689.825;  158.525;    0.000
882.244; 3774.825;  147.525;    0.000
882.424; 3590.825;  160.525;    0.000
882.604; 3394.825;  150.525;    0.000
882.784; 3284.825;  138.525;    0.000
882.964; 3225.825;  157.525;    0.000
883.144; 3086.825;  128.525;    0.000
883.324; 3142.825;  220.525;    0.000
883.504; 3054.825;  177.525;    0.000
883.683; 2985.825;  159.525;    0.000
883.863; 3003.825;  143.525;    0.000
884.043; 2960.825;  156.525;    0.000
884.223; 2914.825;  152.525;    0.000
884.402; 2920.825;  169.525;    0.000
884.582; 2897.825;  162.525;    0.000
884.762; 2906.825;  172.525;    0.000
884.941; 2879.825;  220.525;    0.000
885.121; 2994.825;  128.525;    0.000
885.301; 3011.825;  141.525;    0.000
885.480; 2847.825;  141.525;    0.000
885.660; 2838.825;  132.525;    0.000
885.839; 2908.825;  146.525;    0.000
886.019; 2930.825;  170.525;    0.000
886.198; 2792.825;  143.525;    0.000
886.378; 2748.825;  159.525;    0.000
886.557; 2718.825;  148.525;    0.000
886.737; 2799.825;  125.525;    0.000
886.916; 2810.825;  177.525;    0.000
887.095; 2745.825;  186.525;    0.000
887.275; 2799.825;  134.525;    0.000
887.454; 2750.825;  148.525;    0.000
887.633; 2770.825;  171.525;    0.000
887.813; 2792.825;  187.525;    0.000
887.992; 2735.825;  157.525;    0.000
888.171; 2674.825;  143.525;    0.000
888.350; 2770.825;  182.525;    0.000
888.530; 2680.825;  142.525;    0.000
888.709; 2721.825;  160.525;    0.000
888.888; 2646.825;  197.525;    0.000
889.067; 2682.825;  126.525;    0.000
889.246; 2800.825;  197.525;    0.000
889.425; 2717.825;  161.525;    0.000
889.604; 2713.825;  180.525;    0.000
889.783; 2742.825;  135.525;    0.000
889.962; 2712.825;  107.525;    0.000
890.141; 2639.825;  167.525;    0.000
890.320; 2677.825;  149.525;    0.000
890.499; 2701.825;  194.525;    0.000
890.678; 2658.825;  138.525;    0.000
890.857; 2635.825;  146.525;    0.000
891.036; 2674.825;  178.525;    0.000
891.214; 2653.825;  151.525;    0.000
891.393; 2629.825;  137.525;    0.000
891.572; 2754.825;  177.525;    0.000
891.751; 2578.825;  149.525;    0.000
891.930; 2620.825;  189.525;    0.000
892.108; 2641.825;  136.525;    0.000
892.287; 2603.825;  129.525;    0.000
892.466; 2666.825;  163.525;    0.000
892.644; 2718.825;  147.525;    0.000
892.823; 2637.825;  127.525;    0.000
893.001; 2667.825;  192.525;    0.000
893.180; 2732.825;  157.525;    0.000
893.359; 2690.825;  176.525;    0.000
893.537; 2642.825;  146.525;    0.000
893.716; 2611.825;  154.525;    0.000
893.894; 2532.825;  166.525;    0.000
894.073; 2655.825;  163.525;    0.000
894.251; 2670.825;  166.525;    0.000
894.429; 2612.825;  149.525;    0.000
894.608; 2696.825;  141.525;    0.000
894.786; 2683.825;  139.525;    0.000
894.964; 2730.825;  180.525;    0.000
895.143; 2598.825;  193.525;    0.000
895.321; 2683.825;  163.525;    0.000
895.499; 2653.825;  163.525;    0.000
895.677; 2674.825;  194.525;    0.000
895.856; 2660.825;  176.525;    0.000
896.034; 2674.825;  173.525;    0.000
896.212; 2708.825;  180.525;    0.000
896.390; 2683.825;  146.525;    0.000
896.568; 2578.825;  167.525;    0.000
896.746; 2691.825;  158.525;    0.000
896.924; 2700.825;  163.525;    0.000
897.102; 2807.825;  170.525;    0.000
897.280; 2602.825;  159.525;    0.000
897.458; 2592.825;  182.525;    0.000
897.636; 2586.825;  151.525;    0.000
897.814; 2707.825;  130.525;    0.000
897.992; 2736.825;  213.525;    0.000
898.170; 2708.825;  164.525;    0.000
898.348; 2741.825;  159.525;    0.000
898.526; 2846.825;  182.525;    0.000
898.704; 2660.825;  209.525;    0.000
898.882; 2723.825;  145.525;    0.000
899.059; 2607.825;  172.525;    0.000
899.237; 2721.825;  172.525;    0.000
899.415; 2854.825;  211.525;    0.000
899.593; 2693.825;  151.525;    0.000
899.770; 2770.825;  147.525;    0.000
899.948; 2782.825;  218.525;    0.000
900.125; 2739.825;  166.525;    0.000
900.303; 2730.825;  146.525;    0.000
900.481; 2809.825;  174.525;    0.000
900.658; 2794.825;  198.525;    0.000
900.836; 2866.825;  125.525;    0.000
901.013; 2764.825;  197.525;    0.000
901.191; 2904.825;  181.525;    0.000
901.368; 2973.825;  185.525;    0.000
901.546; 2960.825;  197.525;    0.000
901.723; 2960.825;  205.525;    0.000
901.901; 3021.825;  187.525;    0.000
902.078; 3079.825;  163.525;    0.000
902.255; 3111.825;  141.525;    0.000
902.433; 3083.825;  183.525;    0.000
902.610; 3221.825;  181.525;    0.000
902.787; 3027.825;  174.525;    0.000
902.964; 3260.825;  174.525;    0.000
903.142; 3340.825;  141.525;    0.000
903.319; 3396.825;  214.525;    0.000
903.496; 3479.825;  187.525;    0.000
903.673; 3386.825;  183.525;    0.000
903.850; 3437.825;  125.525;    0.000
904.027; 3599.825;  197.525;    0.000
904.204; 3809.825;  197.525;    0.000
904.381; 4062.825;  196.525;    0.000
904.558; 4400.825;  176.525;    0.000
904.735; 5205.825;  179.525;    0.000
904.912; 5224.825;  203.525;    0.000
905.089; 5099.825;  159.525;    0.000
905.266; 4882.825;  176.525;    0.000
905.443; 4541.825;  184.525;    0.000
905.620; 4305.825;  168.525;    0.000
905.797; 4037.825;  214.525;    0.000
905.974; 3866.825;  154.525;    0.000
906.151; 3866.825;  132.525;    0.000
906.327; 3855.825;  192.525;    0.000
906.504; 3823.825;  186.525;    0.000
906.681; 3625.825;  171.525;    0.000
906.858; 3542.825;  181.525;    0.000
907.034; 3660.825;  164.525;    0.000
907.211; 3390.825;  184.525;    0.000
907.388; 3366.825;  177.525;    0.000
907.564; 3247.825;  150.525;    0.000
907.741; 3168.825;  195.525;    0.000
907.917; 3153.825;  190.525;    0.000
908.094; 3222.825;  214.525;    0.000
908.271; 3150.825;  173.525;    0.000
908.447; 3202.825;  229.525;    0.000
908.623; 3017.825;  162.525;    0.000
908.800; 3031.825;  195.525;    0.000
908.976; 3022.825;  171.525;    0.000
909.153; 3006.825;  167.525;    0.000
909.329; 2968.825;  227.525;    0.000
909.505; 2975.825;  167.525;    0.000
909.682; 2910.825;  174.525;    0.000
909.858; 2958.825;  158.525;    0.000
910.034; 2826.825;  188.525;    0.000
910.211; 2923.825;  158.525;    0.000
910.387; 2864.825;  208.525;    0.000
910.563; 2866.825;  203.525;    0.000
910.739; 2852.825;  201.525;    0.000
910.915; 2878.825;  170.525;    0.000
911.091; 2858.825;  171.525;    0.000
911.268; 2865.825;  220.525;    0.000
911.444; 2806.825;  202.525;    0.000
911.620; 2751.825;  175.525;    0.000
911.796; 2770.825;  175.525;    0.000
911.972; 2792.825;  164.525;    0.000
912.148; 2823.825;  174.525;    0.000
912.324; 2734.825;  155.525;    0.000
912.500; 2810.825;  156.525;    0.000
912.676; 2816.825;  138.525;    0.000
912.851; 2745.825;  158.525;    0.000
913.027; 2850.825;  161.525;    0.000
913.203; 2766.825;  168.525;    0.000
913.379; 2776.825;  172.525;    0.000
913.555; 2761.825;  193.525;    0.000
913.730; 2719.825;  149.525;    0.000
913.906; 2808.825;  159.525;    0.000
914.082; 2820.825;  184.525;    0.000
914.258; 2803.825;  194.525;    0.000
914.433; 2781.825;  175.525;    0.000
914.609; 2810.825;  175.525;    0.000
914.784; 2779.825;  170.525;    0.000
914.960; 2761.825;  212.525;    0.000
915.136; 2716.825;  157.525;    0.000
915.311; 2789.825;  204.525;    0.000
915.487; 2776.825;  180.525;    0.000
915.662; 2782.825;  203.525;    0.000
915.838; 2859.825;  194.525;    0.000
916.013; 2761.825;  217.525;    0.000
916.189; 2817.825;  196.525;    0.000
916.364; 2815.825;  236.525;    0.000
916.539; 2802.825;  192.525;    0.000
916.715; 2766.825;  181.525;    0.000
916.890; 2849.825;  185.525;    0.000
917.065; 2771.825;  166.525;    0.000
917.240; 2756.825;  182.525;    0.000
917.416; 2794.825;  188.525;    0.000
917.591; 2800.825;  185.525;    0.000
917.766; 2797.825;  187.525;    0.000
917.941; 2832.825;  181.525;    0.000
918.116; 2789.825;  207.525;    0.000
918.292; 2808.825;  140.525;    0.000
918.467; 2803.825;  187.525;    0.000
918.642; 2849.825;  208.525;    0.000
918.817; 2841.825;  203.525;    0.000
918.992; 2819.825;  162.525;    0.000
919.167; 2823.825;  206.525;    0.000
919.342; 2884.825;  188.525;    0.000
919.517; 2951.825;  190.525;    0.000
919.692; 2939.825;  174.525;    0.000
919.867; 2980.825;  181.525;    0.000
920.041; 2846.825;  179.525;    0.000
920.216; 3093.825;  186.525;    0.000
920.391; 3050.825;  209.525;    0.000
920.566; 3126.825;  205.525;    0.000
920.741; 3119.825;  205.525;    0.000
920.915; 3368.825;  206.525;    0.000
921.090; 3631.825;  219.525;    0.000
921.265; 4314.825;  185.525;    0.000
921.439; 4810.825;  171.525;    0.000
921.614; 4288.825;  197.525;    0.000
921.789; 3943.825;  189.525;    0.000
921.963; 3664.825;  210.525;    0.000
922.138; 3652.825;  171.525;    0.000
922.312; 3582.825;  194.525;    0.000
922.487; 3569.825;  231.525;    0.000
922.661; 3696.825;  179.525;    0.000
922.836; 4077.825;  213.525;    0.000
923.010; 4231.825;  182.525;    0.000
923.185; 3992.825;  239.525;    0.000
923.359; 3669.825;  200.525;    0.000
923.534; 3685.825;  232.525;    0.000
923.708; 3821.825;  221.525;    0.000
923.882; 4084.825;  193.525;    0.000
924.057; 3951.825;  204.525;    0.000
924.231; 3635.825;  172.525;    0.000
924.405; 3665.825;  202.525;    0.000
924.579; 3443.825;  207.525;    0.000
924.753; 3407.825;  167.525;    0.000
924.928; 3376.825;  202.525;    0.000
925.102; 3480.825;  200.525;    0.000
925.276; 3403.825;  185.525;    0.000
925.450; 3470.825;  170.525;    0.000
925.624; 3452.825;  176.525;    0.000
925.798; 3591.825;  221.525;    0.000
925.972; 3849.825;  162.525;    0.000
926.146; 3948.825;  207.525;    0.000
926.320; 4192.825;  185.525;    0.000
926.494; 4461.825;  192.525;    0.000
926.668; 4730.825;  179.525;    0.000
926.842; 4875.825;  181.525;    0.000
927.016; 4877.825;  224.525;    0.000
927.190; 4709.825;  193.525;    0.000
927.363; 4643.825;  194.525;    0.000
927.537; 4596.825;  210.525;    0.000
927.711; 4380.825;  153.525;    0.000
927.885; 4267.825;  184.525;    0.000
928.058; 4267.825;  197.525;    0.000
928.232; 4228.825;  219.525;    0.000
928.406; 3977.825;  175.525;    0.000
928.579; 3961.825;  179.525;    0.000
928.753; 3864.825;  208.525;    0.000
928.927; 3738.825;  163.525;    0.000
929.100; 3665.825;  138.525;    0.000
929.274; 3639.825;  160.525;    0.000
929.447; 3549.825;  152.525;    0.000
929.621; 3601.825;  168.525;    0.000
929.794; 3482.825;  152.525;    0.000
929.968; 3457.825;  163.525;    0.000
930.141; 3402.825;  164.525;    0.000
930.315; 3373.825;  170.525;    0.000
930.488; 3251.825;  216.525;    0.000
930.661; 3226.825;  184.525;    0.000
930.835; 3249.825;  156.525;    0.000
931.008; 3210.825;  206.525;    0.000
931.181; 3181.825;  163.525;    0.000
931.354; 3160.825;  198.525;    0.000
931.528; 3092.825;  156.525;    0.000
931.701; 3037.825;  170.525;    0.000
931.874; 3002.825;  167.525;    0.000
932.047; 2985.825;  146.525;    0.000
932.220; 2999.825;  159.525;    0.000
932.393; 2951.825;  186.525;    0.000
932.566; 2921.825;  147.525;    0.000
932.739; 2862.825;  192.525;    0.000
932.912; 2897.825;  197.525;    0.000
933.085; 2906.825;  176.525;    0.000
933.258; 2834.825;  171.525;    0.000
933.431; 2845.825;  150.525;    0.000
933.604; 2900.825;  176.525;    0.000
933.777; 2825.825;  215.525;    0.000
933.950; 2734.825;  164.525;    0.000
934.123; 2762.825;  174.525;    0.000
934.296; 2771.825;  203.525;    0.000
934.468; 2745.825;  208.525;    0.000
934.641; 2733.825;  182.525;    0.000
934.814; 2712.825;  170.525;    0.000
934.987; 2702.825;  183.525;    0.000
935.159; 2740.825;  154.525;    0.000
935.332; 2795.825;  178.525;    0.000
935.505; 2721.825;  213.525;    0.000
935.677; 2767.825;  173.525;    0.000
935.850; 2672.825;  190.525;    0.000
936.022; 2651.825;  205.525;    0.000
936.195; 2848.825;  201.525;    0.000
936.367; 2745.825;  189.525;    0.000
936.540; 2856.825;  179.525;    0.000
936.712; 2811.825;  195.525;    0.000
936.885; 2738.825;  207.525;    0.000
937.057; 2785.825;  163.525;    0.000
937.229; 2749.825;  175.525;    0.000
937.402; 2927.825;  168.525;    0.000
937.574; 2926.825;  136.525;    0.000
937.746; 2970.825;  166.525;    0.000
937.919; 3043.825;  178.525;    0.000
938.091; 3207.825;  192.525;    0.000
938.263; 3306.825;  164.525;    0.000
938.435; 3630.825;  204.525;    0.000
938.608; 4138.825;  153.525;    0.000
938.780; 4758.825;  159.525;    0.000
938.952; 4984.825;  160.525;    0.000
939.124; 4922.825;  156.525;    0.000
939.296; 5638.825;  110.525;    0.000
939.468; 5890.825;  135.525;    0.000
939.640; 5270.825;  144.525;    0.000
939.812; 4639.825;  232.525;    0.000
939.984; 4334.825;  128.525;    0.000
940.156; 4108.825;  195.525;    0.000
940.328; 3754.825;  226.525;    0.000
940.500; 3690.825;  146.525;    0.000
940.672; 3402.825;  190.525;    0.000
940.843; 3344.825;  156.525;    0.000
941.015; 3187.825;  200.525;    0.000
941.187; 3168.825;  159.525;    0.000
941.359; 3186.825;  183.525;    0.000
941.531; 3086.825;  137.525;    0.000
941.702; 2993.825;  186.525;    0.000
941.874; 2916.825;  164.525;    0.000
942.046; 2997.825;  202.525;    0.000
942.217; 2876.825;  146.525;    0.000
942.389; 2940.825;  165.525;    0.000
942.560; 2857.825;  191.525;    0.000
942.732; 2723.825;  240.525;    0.000
942.904; 2793.825;  173.525;    0.000
943.075; 2625.825;  157.525;    0.000
943.247; 2591.825;  155.525;    0.000
943.418; 2661.825;  164.525;    0.000
943.589; 2556.825;  150.525;    0.000
943.761; 2613.825;  143.525;    0.000
943.932; 2603.825;  151.525;    0.000
944.104; 2632.825;  194.525;    0.000
944.275; 2593.825;  154.525;    0.000
944.446; 2479.825;  169.525;    0.000
944.617; 2387.825;  138.525;    0.000
944.789; 2432.825;  158.525;    0.000
944.960; 2391.825;  197.525;    0.000
945.131; 2415.825;  139.525;    0.000
945.302; 2436.825;  169.525;    0.000
945.473; 2436.825;  149.525;    0.000
945.645; 2443.825;  171.525;    0.000
945.816; 2542.825;  167.525;    0.000
945.987; 2548.825;  156.525;    0.000
946.158; 2657.825;  185.525;    0.000
946.329; 2609.825;  201.525;    0.000
946.500; 2506.825;  182.525;    0.000
946.671; 2460.825;  156.525;    0.000
946.842; 2425.825;  190.525;    0.000
947.013; 2433.825;  159.525;    0.000
947.183; 2361.825;  209.525;    0.000
947.354; 2404.825;  171.525;    0.000
947.525; 2355.825;  180.525;    0.000
947.696; 2319.825;  163.525;    0.000
947.867; 2377.825;  168.525;    0.000
948.037; 2277.825;  153.525;    0.000
948.208; 2297.825;  178.525;    0.000
948.379; 2442.825;  192.525;    0.000
948.550; 2276.825;  180.525;    0.000
948.720; 2361.825;  196.525;    0.000
948.891; 2277.825;  173.525;    0.000
949.061; 2265.825;  207.525;    0.000
949.232; 2294.825;  176.525;    0.000
949.403; 2277.825;  152.525;    0.000
949.573; 2251.825;  186.525;    0.000
949.744; 2277.825;  181.525;    0.000
949.914; 2263.825;  174.525;    0.000
950.085; 2330.825;  146.525;    0.000
950.255; 2235.825;  162.525;    0.000
950.425; 2160.825;  189.525;    0.000
950.596; 2173.825;  175.525;    0.000
950.766; 2206.825;  209.525;    0.000
950.936; 2212.825;  201.525;    0.000
951.107; 2196.825;  141.525;    0.000
951.277; 2219.825;  211.525;    0.000
951.447; 2163.825;  218.525;    0.000
951.617; 2212.825;  191.525;    0.000
951.788; 2147.825;  193.525;    0.000
951.958; 2235.825;  217.525;    0.000
952.128; 2114.825;  192.525;    0.000
952.298; 2184.825;  237.525;    0.000
952.468; 2185.825;  194.525;    0.000
952.638; 2146.825;  201.525;    0.000
952.808; 2160.825;  203.525;    0.000
952.978; 2146.825;  216.525;    0.000
953.148; 2197.825;  209.525;    0.000
953.318; 2131.825;  213.525;    0.000
953.488; 2078.825;  161.525;    0.000
953.658; 2035.825;  222.525;    0.000
953.828; 2032.825;  196.525;    0.000
953.998; 2099.825;  227.525;    0.000
954.167; 2126.825;  163.525;    0.000
954.337; 2026.825;  201.525;    0.000
954.507; 2080.825;  227.525;    0.000
954.677; 2057.825;  204.525;    0.000
954.846; 2100.825;  210.525;    0.000
955.016; 1984.825;  198.525;    0.000
955.186; 2058.825;  203.525;    0.000
955.355; 2053.825;  198.525;    0.000
955.525; 2013.825;  198.525;    0.000
955.695; 2009.825;  187.525;    0.000
955.864; 2007.825;  243.525;    0.000
956.034; 1994.825;  192.525;    0.000
956.203; 2063.825;  259.525;    0.000
956.373; 1953.825;  185.525;    0.000
956.542; 1965.825;  230.525;    0.000
956.711; 2006.825;  218.525;    0.000
956.881; 1914.825;  232.525;    0.000
957.050; 1962.825;  246.525;    0.000
957.220; 1993.825;  229.525;    0.000
957.389; 2039.825;  211.525;    0.000
957.558; 1998.825;  173.525;    0.000
957.727; 1960.825;  226.525;    0.000
957.897; 1996.825;  209.525;    0.000
958.066; 1959.825;  217.525;    0.000
958.235; 1854.825;  160.525;    0.000
958.404; 1866.825;  199.525;    0.000
958.573; 1971.825;  223.525;    0.000
958.743; 1885.825;  189.525;    0.000
958.912; 1818.825;  199.525;    0.000
959.081; 1864.825;  216.525;    0.000
959.250; 1900.825;  192.525;    0.000
959.419; 1974.825;  216.525;    0.000
959.588; 1963.825;  209.525;    0.000
959.757; 1898.825;  194.525;    0.000
959.926; 1963.825;  200.525;    0.000
960.094; 1887.825;  174.525;    0.000
960.263; 1890.825;  218.525;    0.000
960.432; 1820.825;  173.525;    0.000
960.601; 1830.825;  177.525;    0.000
960.770; 1826.825;  188.525;    0.000
960.939; 1826.825;  167.525;    0.000
961.107; 1848.825;  195.525;    0.000
961.276; 1837.825;  183.525;    0.000
961.445; 1816.825;  195.525;    0.000
961.613; 1798.825;  198.525;    0.000
961.782; 1756.825;  224.525;    0.000
961.951; 1823.825;  178.525;    0.000
962.119; 1799.825;  214.525;    0.000
962.288; 1785.825;  174.525;    0.000
962.456; 1758.825;  197.525;    0.000
962.625; 1877.825;  212.525;    0.000
962.793; 1850.825;  183.525;    0.000
962.962; 1844.825;  189.525;    0.000
963.130; 1853.825;  151.525;    0.000
963.298; 1850.825;  197.525;    0.000
963.467; 1827.825;  202.525;    0.000
963.635; 1788.825;  172.525;    0.000
963.803; 1813.825;  203.525;    0.000
963.972; 1813.825;  204.525;    0.000
964.140; 1846.825;  193.525;    0.000
964.308; 1868.825;  159.525;    0.000
964.477; 1849.825;  142.525;    0.000
964.645; 1815.825;  202.525;    0.000
964.813; 1799.825;  158.525;    0.000
964.981; 1898.825;  179.525;    0.000
965.149; 1875.825;  176.525;    0.000
965.317; 1919.825;  229.525;    0.000
965.485; 1804.825;  179.525;    0.000
965.653; 1850.825;  205.525;    0.000
965.821; 1848.825;  196.525;    0.000
965.989; 1812.825;  202.525;    0.000
966.157; 1812.825;  199.525;    0.000
966.325; 1811.825;  178.525;    0.000
966.493; 1786.825;  177.525;    0.000
966.661; 1767.825;  172.525;    0.000
966.829; 1817.825;  167.525;    0.000
966.996; 1829.825;  202.525;    0.000
967.164; 1818.825;  175.525;    0.000
967.332; 1888.825;  207.525;    0.000
967.500; 1814.825;  170.525;    0.000
967.667; 1811.825;  222.525;    0.000
967.835; 1851.825;  245.525;    0.000
968.003; 1808.825;  180.525;    0.000
968.170; 1845.825;  222.525;    0.000
968.338; 1824.825;  183.525;    0.000
968.505; 1818.825;  197.525;    0.000
968.673; 1810.825;  209.525;    0.000
968.841; 1769.825;  162.525;    0.000
969.008; 1833.825;  187.525;    0.000
969.175; 1763.825;  204.525;    0.000
969.343; 1828.825;  157.525;    0.000
969.510; 1818.825;  189.525;    0.000
969.678; 1821.825;  153.525;    0.000
969.845; 1851.825;  190.525;    0.000
970.012; 1766.825;  162.525;    0.000
970.180; 1839.825;  223.525;    0.000
970.347; 1798.825;  195.525;    0.000
970.514; 1783.825;  185.525;    0.000
970.681; 1806.825;  187.525;    0.000
970.849; 1684.825;  183.525;    0.000
971.016; 1808.825;  168.525;    0.000
971.183; 1766.825;  160.525;    0.000
971.350; 1812.825;  193.525;    0.000
971.517; 1758.825;  202.525;    0.000
971.684; 1811.825;  242.525;    0.000
971.851; 1727.825;  192.525;    0.000
972.018; 1746.825;  194.525;    0.000
972.185; 1699.825;  193.525;    0.000
972.352; 1770.825;  187.525;    0.000
972.519; 1760.825;  233.525;    0.000
972.686; 1806.825;  186.525;    0.000
972.853; 1736.825;  165.525;    0.000
973.020; 1824.825;  183.525;    0.000
973.186; 1754.825;  186.525;    0.000
973.353; 1727.825;  177.525;    0.000
973.520; 1778.825;  203.525;    0.000
973.687; 1709.825;  211.525;    0.000
973.853; 1819.825;  194.525;    0.000
974.020; 1752.825;  201.525;    0.000
974.187; 1704.825;  187.525;    0.000
974.353; 1756.825;  188.525;    0.000
974.520; 1791.825;  136.525;    0.000
974.687; 1718.825;  169.525;    0.000
974.853; 1737.825;  207.525;    0.000
975.020; 1645.825;  190.525;    0.000
975.186; 1775.825;  182.525;    0.000
975.353; 1740.825;  202.525;    0.000
975.519; 1674.825;  189.525;    0.000
975.685; 1677.825;  176.525;    0.000
975.852; 1781.825;  175.525;    0.000
976.018; 1664.825;  155.525;    0.000
976.184; 1679.825;  179.525;    0.000
976.351; 1692.825;  191.525;    0.000
976.517; 1703.825;  246.525;    0.000
976.683; 1769.825;  222.525;    0.000
976.849; 1737.825;  216.525;    0.000
977.016; 1646.825;  212.525;    0.000
977.182; 1695.825;  192.525;    0.000
977.348; 1658.825;  145.525;    0.000
977.514; 1721.825;  195.525;    0.000
977.680; 1799.825;  210.525;    0.000
977.846; 1692.825;  172.525;    0.000
978.012; 1718.825;  190.525;    0.000
978.178; 1710.825;  201.525;    0.000
978.344; 1671.825;  190.525;    0.000
978.510; 1652.825;  199.525;    0.000
978.676; 1695.825;  174.525;    0.000
978.842; 1720.825;  195.525;    0.000
979.008; 1688.825;  205.525;    0.000
979.174; 1694.825;  187.525;    0.000
979.340; 1719.825;  194.525;    0.000
979.505; 1676.825;  221.525;    0.000
979.671; 1599.825;  178.525;    0.000
979.837; 1679.825;  215.525;    0.000
980.003; 1744.825;  176.525;    0.000
980.168; 1758.825;  185.525;    0.000
980.334; 1695.825;  165.525;    0.000
980.499; 1724.825;  231.525;    0.000
980.665; 1704.825;  238.525;    0.000
980.831; 1663.825;  194.525;    0.000
980.996; 1726.825;  169.525;    0.000
981.162; 1734.825;  199.525;    0.000
981.327; 1781.825;  158.525;    0.000
981.493; 1687.825;  193.525;    0.000
981.658; 1674.825;  181.525;    0.000
981.823; 1728.825;  199.525;    0.000
981.989; 1734.825;  186.525;    0.000
982.154; 1715.825;  225.525;    0.000
982.319; 1700.825;  191.525;    0.000
982.485; 1758.825;  205.525;    0.000
982.650; 1785.825;  234.525;    0.000
982.815; 1692.825;  193.525;    0.000
982.980; 1714.825;  177.525;    0.000
983.146; 1721.825;  212.525;    0.000
983.311; 1676.825;  177.525;    0.000
983.476; 1661.825;  185.525;    0.000
983.641; 1713.825;  149.525;    0.000
983.806; 1664.825;  175.525;    0.000
983.971; 1725.825;  234.525;    0.000
984.136; 1697.825;  191.525;    0.000
984.301; 1731.825;  215.525;    0.000
984.466; 1709.825;  207.525;    0.000
984.631; 1647.825;  206.525;    0.000
984.796; 1663.825;  229.525;    0.000
984.961; 1679.825;  220.525;    0.000
985.126; 1676.825;  204.525;    0.000
985.291; 1709.825;  210.525;    0.000
985.455; 1668.825;  193.525;    0.000
985.620; 1672.825;  207.525;    0.000
985.785; 1664.825;  188.525;    0.000
985.950; 1681.825;  168.525;    0.000
986.114; 1737.825;  239.525;    0.000
986.279; 1767.825;  223.525;    0.000
986.444; 1801.825;  154.525;    0.000
986.608; 1761.825;  232.525;    0.000
986.773; 1721.825;  214.525;    0.000
986.937; 1709.825;  220.525;    0.000
987.102; 1702.825;  224.525;    0.000
987.266; 1733.825;  157.525;    0.000
987.431; 1741.825;  246.525;    0.000
987.595; 1721.825;  203.525;    0.000
987.760; 1717.825;  202.525;    0.000
987.924; 1686.825;  208.525;    0.000
988.088; 1801.825;  169.525;    0.000
988.253; 1723.825;  237.525;    0.000
988.417; 1693.825;  202.525;    0.000
988.581; 1695.825;  215.525;    0.000
988.746; 1726.825;  210.525;    0.000
988.910; 1707.825;  191.525;    0.000
989.074; 1706.825;  197.525;    0.000
989.238; 1633.825;  191.525;    0.000
989.402; 1624.825;  222.525;    0.000
989.566; 1652.825;  221.525;    0.000
989.731; 1676.825;  216.525;    0.000
989.895; 1654.825;  183.525;    0.000
990.059; 1597.825;  150.525;    0.000
990.223; 1633.825;  183.525;    0.000
990.387; 1627.825;  241.525;    0.000
990.551; 1705.825;  198.525;    0.000
990.714; 1618.825;  176.525;    0.000
990.878; 1553.825;  203.525;    0.000
991.042; 1637.825;  146.525;    0.000
991.206; 1674.825;  199.525;    0.000
991.370; 1609.825;  223.525;    0.000
991.534; 1538.825;  158.525;    0.000
991.697; 1629.825;  182.525;    0.000
991.861; 1607.825;  195.525;    0.000
992.025; 1698.825;  206.525;    0.000
992.188; 1683.825;  174.525;    0.000
992.352; 1576.825;  183.525;    0.000
992.516; 1631.825;  181.525;    0.000
992.679; 1572.825;  162.525;    0.000
992.843; 1606.825;  173.525;    0.000
993.006; 1590.825;  189.525;    0.000
993.170; 1587.825;  200.525;    0.000
993.333; 1544.825;  167.525;    0.000
993.497; 1523.825;  217.525;    0.000
993.660; 1620.825;  179.525;    0.000
993.824; 1596.825;  195.525;    0.000
993.987; 1672.825;  186.525;    0.000
994.150; 1557.825;  164.525;    0.000
994.314; 1690.825;  215.525;    0.000
994.477; 1667.825;  186.525;    0.000
994.640; 1633.825;  192.525;    0.000
994.803; 1637.825;  215.525;    0.000
994.967; 1585.825;  208.525;    0.000
995.130; 1570.825;  196.525;    0.000
995.293; 1570.825;  221.525;    0.000
995.456; 1571.825;  164.525;    0.000
995.619; 1549.825;  224.525;    0.000
995.782; 1647.825;  184.525;    0.000
995.945; 1622.825;  220.525;    0.000
996.108; 1612.825;  187.525;    0.000
996.271; 1562.825;  192.525;    0.000
996.434; 1647.825;  162.525;    0.000
996.597; 1592.825;  148.525;    0.000
996.760; 1558.825;  186.525;    0.000
996.923; 1547.825;  154.525;    0.000
997.086; 1540.825;  156.525;    0.000
997.248; 1666.825;  215.525;    0.000
997.411; 1573.825;  160.525;    0.000
997.574; 1642.825;  159.525;    0.000
997.737; 1568.825;  179.525;    0.000
997.899; 1623.825;  184.525;    0.000
998.062; 1530.825;  180.525;    0.000
998.225; 1557.825;  168.525;    0.000
998.387; 1534.825;  192.525;    0.000
998.550; 1511.825;  178.525;    0.000
998.712; 1558.825;  192.525;    0.000
998.875; 1598.825;  230.525;    0.000
999.037; 1475.825;  200.525;    0.000
999.200; 1570.825;  196.525;    0.000
999.362; 1532.825;  173.525;    0.000
999.525; 1552.825;  196.525;    0.000
999.687; 1552.825;  159.525;    0.000
999.849; 1560.825;  180.525;    0.000
1000.012; 1560.825;  210.525;    0.000
1000.174; 1593.825;  175.525;    0.000
1000.336; 1569.825;  174.525;    0.000
1000.499; 1617.825;  180.525;    0.000
1000.661; 1573.825;  204.525;    0.000
1000.823; 1573.825;  181.525;    0.000
1000.985; 1583.825;  178.525;    0.000
1001.147; 1707.825;  215.525;    0.000
1001.309; 1635.825;  212.525;    0.000
1001.471; 1639.825;  192.525;    0.000
1001.633; 1565.825;  207.525;    0.000
1001.796; 1612.825;  211.525;    0.000
1001.958; 1668.825;  200.525;    0.000
1002.119; 1556.825;  210.525;    0.000
1002.281; 1682.825;  204.525;    0.000
1002.443; 1733.825;  230.525;    0.000
1002.605; 1789.825;  178.525;    0.000
1002.767; 1841.825;  228.525;    0.000
1002.929; 1891.825;  199.525;    0.000
1003.091; 1974.825;  220.525;    0.000
1003.252; 2067.825;  219.525;    0.000
1003.414; 2105.825;  213.525;    0.000
1003.576; 2117.825;  202.525;    0.000
1003.738; 2192.825;  184.525;    0.000
1003.899; 2352.825;  218.525;    0.000
1004.061; 2372.825;  210.525;    0.000
1004.222; 2429.825;  179.525;    0.000
1004.384; 2537.825;  183.525;    0.000
1004.546; 2579.825;  206.525;    0.000
1004.707; 2563.825;  191.525;    0.000
1004.869; 2603.825;  197.525;    0.000
1005.030; 2589.825;  186.525;    0.000
1005.191; 2571.825;  188.525;    0.000
1005.353; 2482.825;  215.525;    0.000
1005.514; 2470.825;  184.525;    0.000
1005.675; 2364.825;  209.525;    0.000
1005.837; 2295.825;  239.525;    0.000
1005.998; 2180.825;  218.525;    0.000
1006.159; 2228.825;  212.525;    0.000
1006.321; 2234.825;  220.525;    0.000
1006.482; 2319.825;  201.525;    0.000
1006.643; 2474.825;  222.525;    0.000
1006.804; 2503.825;  191.525;    0.000
1006.965; 2567.825;  214.525;    0.000
1007.126; 2590.825;  214.525;    0.000
1007.287; 2574.825;  243.525;    0.000
1007.448; 2516.825;  251.525;    0.000
1007.609; 2496.825;  244.525;    0.000
1007.770; 2448.825;  211.525;    0.000
1007.931; 2420.825;  225.525;    0.000
1008.092; 2438.825;  188.525;    0.000
1008.253; 2499.825;  224.525;    0.000
1008.414; 2495.825;  198.525;    0.000
1008.575; 2599.825;  244.525;    0.000
1008.736; 2573.825;  219.525;    0.000
1008.896; 2620.825;  206.525;    0.000
1009.057; 2558.825;  258.525;    0.000
1009.218; 2470.825;  209.525;    0.000
1009.379; 2536.825;  204.525;    0.000
1009.539; 2635.825;  242.525;    0.000
1009.700; 2653.825;  205.525;    0.000
1009.860; 2784.825;  211.525;    0.000
1010.021; 2654.825;  219.525;    0.000
1010.182; 2659.825;  206.525;    0.000
1010.342; 2540.825;  219.525;    0.000
1010.503; 2793.825;  231.525;    0.000
1010.663; 2941.825;  260.525;    0.000
1010.823; 2900.825;  200.525;    0.000
1010.984; 2990.825;  189.525;    0.000
1011.144; 3079.825;  234.525;    0.000
1011.305; 3103.825;  212.525;    0.000
1011.465; 3201.825;  202.525;    0.000
1011.625; 3287.825;  236.525;    0.000
1011.785; 3446.825;  203.525;    0.000
1011.946; 3354.825;  195.525;    0.000
1012.106; 3232.825;  176.525;    0.000
1012.266; 3223.825;  211.525;    0.000
1012.426; 3250.825;  244.525;    0.000
1012.586; 3244.825;  202.525;    0.000
1012.746; 3214.825;  234.525;    0.000
1012.906; 3261.825;  246.525;    0.000
1013.066; 3172.825;  232.525;    0.000
1013.226; 3146.825;  248.525;    0.000
1013.386; 3185.825;  231.525;    0.000
1013.546; 3120.825;  233.525;    0.000
1013.706; 2967.825;  211.525;    0.000
1013.866; 3157.825;  240.525;    0.000
1014.026; 3094.825;  188.525;    0.000
1014.186; 2999.825;  186.525;    0.000
1014.346; 2989.825;  203.525;    0.000
1014.505; 3130.825;  238.525;    0.000
1014.665; 3047.825;  206.525;    0.000
1014.825; 3038.825;  200.525;    0.000
1014.985; 2990.825;  215.525;    0.000
1015.144; 3097.825;  250.525;    0.000
1015.304; 3272.825;  195.525;    0.000
1015.464; 3154.825;  237.525;    0.000
1015.623; 3090.825;  232.525;    0.000
1015.783; 3396.825;  220.525;    0.000
1015.942; 3593.825;  219.525;    0.000
1016.102; 3609.825;  202.525;    0.000
1016.261; 3520.825;  225.525;    0.000
1016.420; 3650.825;  246.525;    0.000
1016.580; 4077.825;  226.525;    0.000
1016.739; 3921.825;  214.525;    0.000
1016.899; 3809.825;  205.525;    0.000
1017.058; 3881.825;  217.525;    0.000
1017.217; 4280.825;  199.525;    0.000
1017.376; 3937.825;  219.525;    0.000
1017.536; 3683.825;  209.525;    0.000
1017.695; 3577.825;  213.525;    0.000
1017.854; 3621.825;  187.525;    0.000
1018.013; 3533.825;  222.525;    0.000
1018.172; 3485.825;  204.525;    0.000
1018.331; 3406.825;  195.525;    0.000
1018.490; 3569.825;  213.525;    0.000
1018.649; 3807.825;  216.525;    0.000
1018.808; 3935.825;  227.525;    0.000
1018.967; 3989.825;  206.525;    0.000
1019.126; 3894.825;  206.525;    0.000
1019.285; 3889.825;  219.525;    0.000
1019.444; 4010.825;  218.525;    0.000
1019.603; 3754.825;  206.525;    0.000
1019.762; 3713.825;  189.525;    0.000
1019.921; 3750.825;  217.525;    0.000
1020.079; 3929.825;  200.525;    0.000
1020.238; 3900.825;  219.525;    0.000
1020.397; 3978.825;  227.525;    0.000
1020.555; 3805.825;  207.525;    0.000
1020.714; 3776.825;  253.525;    0.000
1020.873; 3961.825;  230.525;    0.000
1021.031; 4131.825;  232.525;    0.000
1021.190; 4016.825;  226.525;    0.000
1021.348; 3901.825;  224.525;    0.000
1021.507; 4087.825;  215.525;    0.000
1021.665; 4253.825;  233.525;    0.000
1021.824; 4122.825;  196.525;    0.000
1021.982; 3957.825;  215.525;    0.000
1022.141; 3839.825;  200.525;    0.000
1022.299; 4136.825;  200.525;    0.000
1022.457; 4385.825;  179.525;    0.000
1022.616; 4216.825;  226.525;    0.000
1022.774; 3927.825;  216.525;    0.000
1022.932; 3966.825;  212.525;    0.000
1023.090; 4397.825;  220.525;    0.000
1023.249; 4501.825;  194.525;    0.000
1023.407; 4061.825;  227.525;    0.000
1023.565; 3982.825;  190.525;    0.000
1023.723; 4208.825;  190.525;    0.000
1023.881; 4449.825;  214.525;    0.000
1024.039; 4449.825;  179.525;    0.000
1024.197; 4221.825;  274.525;    0.000
1024.355; 3946.825;  269.525;    0.000
1024.513; 4163.825;  259.525;    0.000
1024.671; 4617.825;  211.525;    0.000
1024.829; 4505.825;  230.525;    0.000
1024.987; 4241.825;  239.525;    0.000
1025.145; 3948.825;  231.525;    0.000
1025.302; 4134.825;  212.525;    0.000
1025.460; 4523.825;  224.525;    0.000
1025.618; 4687.825;  217.525;    0.000
1025.776; 4451.825;  232.525;    0.000
1025.933; 4109.825;  212.525;    0.000
1026.091; 4234.825;  214.525;    0.000
1026.249; 4618.825;  224.525;    0.000
1026.406; 4774.825;  219.525;    0.000
1026.564; 4428.825;  262.525;    0.000
1026.721; 4131.825;  206.525;    0.000
1026.879; 4134.825;  227.525;    0.000
1027.036; 4498.825;  234.525;    0.000
1027.194; 4864.825;  256.525;    0.000
1027.351; 4765.825;  229.525;    0.000
1027.509; 4454.825;  253.525;    0.000
1027.666; 4196.825;  248.525;    0.000
1027.823; 4554.825;  215.525;    0.000
1027.981; 4871.825;  248.525;    0.000
1028.138; 4869.825;  257.525;    0.000
1028.295; 4730.825;  215.525;    0.000
1028.452; 4223.825;  236.525;    0.000
1028.609; 4276.825;  240.525;    0.000
1028.767; 4726.825;  258.525;    0.000
1028.924; 5131.825;  211.525;    0.000
1029.081; 4862.825;  226.525;    0.000
1029.238; 4708.825;  228.525;    0.000
1029.395; 4403.825;  264.525;    0.000
1029.552; 4524.825;  227.525;    0.000
1029.709; 4952.825;  232.525;    0.000
1029.866; 5178.825;  223.525;    0.000
1030.023; 4939.825;  220.525;    0.000
1030.180; 4500.825;  222.525;    0.000
1030.337; 4581.825;  224.525;    0.000
1030.494; 4775.825;  228.525;    0.000
1030.650; 5038.825;  242.525;    0.000
1030.807; 5370.825;  214.525;    0.000
1030.964; 4781.825;  207.525;    0.000
1031.121; 4861.825;  236.525;    0.000
1031.277; 4690.825;  206.525;    0.000
1031.434; 4908.825;  249.525;    0.000
1031.591; 5288.825;  253.525;    0.000
1031.747; 5269.825;  240.525;    0.000
1031.904; 5249.825;  212.525;    0.000
1032.060; 4940.825;  185.525;    0.000
1032.217; 4929.825;  201.525;    0.000
1032.373; 5333.825;  207.525;    0.000
1032.530; 5511.825;  226.525;    0.000
1032.686; 6071.825;  226.525;    0.000
1032.843; 5993.825;  203.525;    0.000
1032.999; 5615.825;  233.525;    0.000
1033.155; 5873.825;  232.525;    0.000
1033.312; 5688.825;  239.525;    0.000
1033.468; 6810.825;  207.525;    0.000
1033.624; 6993.825;  238.525;    0.000
1033.780; 7478.825;  255.525;    0.000
1033.937; 7349.825;  188.525;    0.000
1034.093; 6823.825;  244.525;    0.000
1034.249; 7178.825;  182.525;    0.000
1034.405; 7039.825;  251.525;    0.000
1034.561; 7758.825;  250.525;    0.000
1034.717; 7845.825;  208.525;    0.000
1034.873; 7952.825;  210.525;    0.000
1035.029; 8096.825;  245.525;    0.000
1035.185; 7686.825;  230.525;    0.000
1035.341; 7332.825;  209.525;    0.000
1035.497; 8017.825;  244.525;    0.000
1035.653; 8245.825;  229.525;    0.000
1035.809; 8733.825;  275.525;    0.000
1035.964; 9674.825;  203.525;    0.000
1036.120; 8859.825;  215.525;    0.000
1036.276; 9193.825;  228.525;    0.000
1036.432; 8973.825;  183.525;    0.000
1036.587; 8315.825;  214.525;    0.000
1036.743; 9084.825;  240.525;    0.000
1036.899; 9788.825;  202.525;    0.000
1037.054;10085.825;  182.525;    0.000
1037.210;10723.825;  228.525;    0.000
1037.365;11130.825;  239.525;    0.000
1037.521;10247.825;  230.525;    0.000
1037.676;10209.825;  217.525;    0.000
1037.832; 9711.825;  235.525;    0.000
1037.987;10112.825;  210.525;    0.000
1038.143;10306.825;  206.525;    0.000
1038.298;11390.825;  177.525;    0.000
1038.453;10891.825;  215.525;    0.000
1038.609;11414.825;  210.525;    0.000
1038.764;12185.825;  227.525;    0.000
1038.919;11396.825;  197.525;    0.000
1039.074;11326.825;  183.525;    0.000
1039.229;11060.825;  218.525;    0.000
1039.385;10322.825;  251.525;    0.000
1039.540;10755.825;  222.525;    0.000
1039.695;11281.825;  215.525;    0.000
1039.850;12314.825;  204.525;    0.000
1040.005;13441.825;  241.525;    0.000
1040.160;14316.825;  180.525;    0.000
1040.315;14212.825;  197.525;    0.000
1040.470;13299.825;  180.525;    0.000
1040.625;12498.825;  196.525;    0.000
1040.780;12707.825;  245.525;    0.000
1040.935;12351.825;  204.525;    0.000
1041.089;12751.825;  213.525;    0.000
1041.244;13632.825;  200.525;    0.000
1041.399;14722.825;  212.525;    0.000
1041.554;15678.825;  239.525;    0.000
1041.708;17316.824;  238.525;    0.000
1041.863;17382.824;  213.525;    0.000
1042.018;16833.824;  236.525;    0.000
1042.172;15770.825;  238.525;    0.000
1042.327;15578.825;  254.525;    0.000
1042.481;16173.825;  197.525;    0.000
1042.636;15848.825;  205.525;    0.000
1042.791;15543.825;  218.525;    0.000
1042.945;17512.824;  261.525;    0.000
1043.099;20004.824;  201.525;    0.000
1043.254;19505.824;  191.525;    0.000
1043.408;19719.824;  279.525;    0.000
1043.563;21100.824;  203.525;    0.000
1043.717;21711.824;  229.525;    0.000
1043.871;20247.824;  213.525;    0.000
1044.025;19679.824;  240.525;    0.000
1044.180;18894.824;  220.525;    0.000
1044.334;18837.824;  268.525;    0.000
1044.488;19328.824;  261.525;    0.000
1044.642;20242.824;  205.525;    0.000
1044.796;22356.824;  240.525;    0.000
1044.950;24580.824;  258.525;    0.000
1045.104;27325.824;  218.525;    0.000
1045.258;26957.824;  213.525;    0.000
1045.412;26634.824;  223.525;    0.000
1045.566;26443.824;  240.525;    0.000
1045.720;24857.824;  235.525;    0.000
1045.874;22925.824;  221.525;    0.000
1046.028;22455.824;  247.525;    0.000
1046.182;22000.824;  200.525;    0.000
1046.336;23052.824;  220.525;    0.000
1046.489;23725.824;  228.525;    0.000
1046.643;23507.824;  249.525;    0.000
1046.797;26282.824;  230.525;    0.000
1046.951;27569.824;  234.525;    0.000
1047.104;28211.824;  262.525;    0.000
1047.258;28957.824;  210.525;    0.000
1047.411;29798.824;  235.525;    0.000
1047.565;30020.824;  237.525;    0.000
1047.719;28923.824;  237.525;    0.000
1047.872;27538.824;  225.525;    0.000
1048.026;26625.824;  237.525;    0.000
1048.179;26652.824;  220.525;    0.000
1048.332;25661.824;  219.525;    0.000
1048.486;26254.824;  195.525;    0.000
1048.639;27312.824;  213.525;    0.000
1048.792;27415.824;  245.525;    0.000
1048.946;29427.824;  234.525;    0.000
1049.099;31621.824;  226.525;    0.000
1049.252;31938.824;  282.525;    0.000
1049.406;30497.824;  255.525;    0.000
1049.559;30516.824;  223.525;    0.000
1049.712;35332.824;  253.525;    0.000
1049.865;37619.824;  271.525;    0.000
1050.018;37682.824;  241.525;    0.000
1050.171;32319.824;  202.525;    0.000
1050.324;30837.824;  250.525;    0.000
1050.477;33037.824;  251.525;    0.000
1050.630;35534.824;  216.525;    0.000
1050.783;36662.824;  205.525;    0.000
1050.936;33706.824;  219.525;    0.000
1051.089;31651.824;  247.525;    0.000
1051.242;33565.824;  238.525;    0.000
1051.394;37236.824;  252.525;    0.000
1051.547;40342.824;  245.525;    0.000
1051.700;38326.824;  206.525;    0.000
1051.853;35518.824;  270.525;    0.000
1052.005;36361.824;  245.525;    0.000
1052.158;39287.824;  290.525;    0.000
1052.311;44596.824;  237.525;    0.000
1052.463;43084.824;  271.525;    0.000
1052.616;37792.824;  255.525;    0.000
1052.768;35831.824;  257.525;    0.000
1052.921;35176.824;  289.525;    0.000
1053.073;36831.824;  287.525;    0.000
1053.226;41679.824;  268.525;    0.000
1053.378;46095.824;  294.525;    0.000
1053.531;49550.824;  255.525;    0.000
1053.683;46631.824;  293.525;    0.000
1053.835;41966.824;  274.525;    0.000
1053.988;31620.824;  282.525;    0.000
1054.140; 5642.825;  291.525;    0.000
1054.292; 1382.825;  292.525;    0.000
1054.444; 1124.825;  299.525;    0.000
1054.596; 1010.825;  319.525;    0.000
1054.749;  943.825;  295.525;    0.000
1054.901;  904.825;  266.525;    0.000
1055.053;  842.825;  300.525;    0.000
1055.205;  823.825;  290.525;    0.000
1055.357;  706.825;  304.525;    0.000
1055.509;  696.825;  292.525;    0.000
1055.661;  679.825;  339.525;    0.000
1055.813;  700.825;  306.525;    0.000
1055.965;  654.825;  293.525;    0.000
1056.116;  654.825;  300.525;    0.000
1056.268;  757.825;  306.525;    0.000
1056.420;  686.825;  288.525;    0.000

