
Integration time [ms]:   0.300
Averaging Nr. [scans]: 1
Smoothing Nr. [pixels]: 0
Data measured with spectrometer [name]: NIR
Wave   ;Sample   ;Dark     ;Reference
[nm]   ;[counts] ;[counts] ;[counts] 

691.496;   -2.250;  155.525;    0.000
691.696;   46.750;  186.525;    0.000
691.896;    3.750;  113.525;    0.000
692.096;   34.750;  169.525;    0.000
692.296;  -25.250;  119.525;    0.000
692.496;   55.750;  182.525;    0.000
692.695;    6.750;  119.525;    0.000
692.895;   48.750;  183.525;    0.000
693.095;   -9.250;  119.525;    0.000
693.295;   24.750;  156.525;    0.000
693.495;   14.750;  145.525;    0.000
693.695;   56.750;  144.525;    0.000
693.894;   15.750;  174.525;    0.000
694.094;   46.750;  148.525;    0.000
694.294;   31.750;  114.525;    0.000
694.494;  450.750;  137.525;    0.000
694.693; 3979.750;  112.525;    0.000
694.893; 4304.750;   85.525;    0.000
695.093; 4398.750;  152.525;    0.000
695.293; 4404.750;  159.525;    0.000
695.492; 4370.750;  131.525;    0.000
695.692; 4364.750;  134.525;    0.000
695.891; 4485.750;  161.525;    0.000
696.091; 4496.750;  180.525;    0.000
696.291; 4445.750;  120.525;    0.000
696.490; 4438.750;  146.525;    0.000
696.690; 4537.750;  145.525;    0.000
696.889; 4581.750;  171.525;    0.000
697.089; 4545.750;   98.525;    0.000
697.288; 4607.750;  172.525;    0.000
697.488; 4532.750;  137.525;    0.000
697.687; 4511.750;  171.525;    0.000
697.887; 4535.750;  142.525;    0.000
698.086; 4691.750;  159.525;    0.000
698.286; 4482.750;  122.525;    0.000
698.485; 4549.750;  121.525;    0.000
698.684; 4646.750;   94.525;    0.000
698.884; 4568.750;  131.525;    0.000
699.083; 4592.750;  112.525;    0.000
699.282; 4678.750;  119.525;    0.000
699.482; 4617.750;  117.525;    0.000
699.681; 4614.750;  115.525;    0.000
699.880; 4699.750;  166.525;    0.000
700.080; 4715.750;  194.525;    0.000
700.279; 4668.750;   98.525;    0.000
700.478; 4675.750;  159.525;    0.000
700.677; 4604.750;  134.525;    0.000
700.877; 4686.750;  171.525;    0.000
701.076; 4720.750;  141.525;    0.000
701.275; 4729.750;  119.525;    0.000
701.474; 4710.750;  132.525;    0.000
701.673; 4639.750;  141.525;    0.000
701.872; 4784.750;  158.525;    0.000
702.071; 4799.750;  129.525;    0.000
702.271; 4729.750;  122.525;    0.000
702.470; 4782.750;  158.525;    0.000
702.669; 4772.750;  145.525;    0.000
702.868; 4791.750;  135.525;    0.000
703.067; 4820.750;  169.525;    0.000
703.266; 4819.750;  125.525;    0.000
703.465; 4848.750;  153.525;    0.000
703.664; 4721.750;  113.525;    0.000
703.863; 4848.750;  170.525;    0.000
704.062; 4775.750;  115.525;    0.000
704.260; 4832.750;  133.525;    0.000
704.459; 4831.750;  123.525;    0.000
704.658; 4803.750;  105.525;    0.000
704.857; 4873.750;  125.525;    0.000
705.056; 4970.750;  108.525;    0.000
705.255; 4771.750;  117.525;    0.000
705.454; 4882.750;  126.525;    0.000
705.652; 4724.750;  137.525;    0.000
705.851; 4857.750;   95.525;    0.000
706.050; 4810.750;  120.525;    0.000
706.249; 4880.750;   81.525;    0.000
706.447; 4840.750;  105.525;    0.000
706.646; 4979.750;  107.525;    0.000
706.845; 4863.750;  104.525;    0.000
707.043; 4918.750;  136.525;    0.000
707.242; 4943.750;   89.525;    0.000
707.441; 4999.750;  147.525;    0.000
707.639; 4998.750;  156.525;    0.000
707.838; 4934.750;  114.525;    0.000
708.037; 4896.750;  100.525;    0.000
708.235; 4942.750;  103.525;    0.000
708.434; 4962.750;  102.525;    0.000
708.632; 4840.750;  100.525;    0.000
708.831; 4906.750;  121.525;    0.000
709.029; 4897.750;  102.525;    0.000
709.228; 4892.750;   88.525;    0.000
709.426; 4972.750;  135.525;    0.000
709.625; 5077.750;  128.525;    0.000
709.823; 4990.750;  123.525;    0.000
710.022; 5087.750;  137.525;    0.000
710.220; 4991.750;  134.525;    0.000
710.418; 5201.750;  122.525;    0.000
710.617; 5109.750;   64.525;    0.000
710.815; 5156.750;   94.525;    0.000
711.013; 5148.750;  127.525;    0.000
711.212; 5222.750;  105.525;    0.000
711.410; 5107.750;  117.525;    0.000
711.608; 5233.750;  114.525;    0.000
711.807; 5201.750;  119.525;    0.000
712.005; 5285.750;   92.525;    0.000
712.203; 5164.750;   95.525;    0.000
712.401; 5218.750;  107.525;    0.000
712.599; 5229.750;  127.525;    0.000
712.798; 5217.750;  120.525;    0.000
712.996; 5321.750;   76.525;    0.000
713.194; 5273.750;  118.525;    0.000
713.392; 5198.750;   60.525;    0.000
713.590; 5253.750;   92.525;    0.000
713.788; 5355.750;  110.525;    0.000
713.986; 5429.750;  130.525;    0.000
714.184; 5415.750;   71.525;    0.000
714.382; 5446.750;   86.525;    0.000
714.580; 5415.750;   74.525;    0.000
714.778; 5534.750;  133.525;    0.000
714.976; 5739.750;   81.525;    0.000
715.174; 5666.750;  100.525;    0.000
715.372; 6048.750;  141.525;    0.000
715.570; 6342.750;   73.525;    0.000
715.768; 6878.750;  119.525;    0.000
715.966; 6796.750;   81.525;    0.000
716.164; 6658.750;  130.525;    0.000
716.362; 6595.750;  125.525;    0.000
716.560; 6352.750;  109.525;    0.000
716.758; 6126.750;   96.525;    0.000
716.955; 5965.750;   83.525;    0.000
717.153; 6024.750;   87.525;    0.000
717.351; 5974.750;  123.525;    0.000
717.549; 5945.750;  121.525;    0.000
717.746; 5982.750;  128.525;    0.000
717.944; 5889.750;  132.525;    0.000
718.142; 5835.750;  120.525;    0.000
718.340; 5630.750;   94.525;    0.000
718.537; 5959.750;   95.525;    0.000
718.735; 5772.750;  152.525;    0.000
718.933; 5803.750;  124.525;    0.000
719.130; 5912.750;  114.525;    0.000
719.328; 5828.750;   63.525;    0.000
719.525; 5776.750;  146.525;    0.000
719.723; 5727.750;   96.525;    0.000
719.920; 5784.750;  120.525;    0.000
720.118; 5841.750;   59.525;    0.000
720.316; 5845.750;  116.525;    0.000
720.513; 5641.750;  127.525;    0.000
720.711; 5776.750;  110.525;    0.000
720.908; 5789.750;   92.525;    0.000
721.105; 5769.750;  138.525;    0.000
721.303; 5715.750;   90.525;    0.000
721.500; 5837.750;  126.525;    0.000
721.698; 5741.750;  103.525;    0.000
721.895; 5833.750;  206.525;    0.000
722.092; 5783.750;   63.525;    0.000
722.290; 5818.750;  123.525;    0.000
722.487; 5947.750;  137.525;    0.000
722.684; 5705.750;  126.525;    0.000
722.882; 5643.750;  119.525;    0.000
723.079; 5906.750;  132.525;    0.000
723.276; 5856.750;   98.525;    0.000
723.473; 5930.750;   97.525;    0.000
723.671; 5729.750;   43.525;    0.000
723.868; 5838.750;  142.525;    0.000
724.065; 5926.750;  102.525;    0.000
724.262; 5793.750;  119.525;    0.000
724.459; 5820.750;   73.525;    0.000
724.656; 5979.750;  128.525;    0.000
724.854; 5884.750;  135.525;    0.000
725.051; 6012.750;   81.525;    0.000
725.248; 5949.750;   88.525;    0.000
725.445; 5905.750;  129.525;    0.000
725.642; 5962.750;   76.525;    0.000
725.839; 6073.750;  134.525;    0.000
726.036; 5849.750;  101.525;    0.000
726.233; 5867.750;   68.525;    0.000
726.430; 5991.750;  121.525;    0.000
726.627; 5974.750;  136.525;    0.000
726.824; 5915.750;   87.525;    0.000
727.021; 5979.750;  141.525;    0.000
727.218; 6068.750;   92.525;    0.000
727.414; 5864.750;  121.525;    0.000
727.611; 5900.750;  100.525;    0.000
727.808; 5960.750;  130.525;    0.000
728.005; 6126.750;   83.525;    0.000
728.202; 5987.750;  120.525;    0.000
728.399; 6017.750;   75.525;    0.000
728.595; 6077.750;  148.525;    0.000
728.792; 6107.750;   79.525;    0.000
728.989; 5980.750;   86.525;    0.000
729.186; 6140.750;   80.525;    0.000
729.382; 6005.750;   72.525;    0.000
729.579; 6051.750;  112.525;    0.000
729.776; 6128.750;  106.525;    0.000
729.972; 5943.750;   77.525;    0.000
730.169; 6049.750;  118.525;    0.000
730.366; 6041.750;   92.525;    0.000
730.562; 6184.750;  104.525;    0.000
730.759; 6119.750;   95.525;    0.000
730.955; 6118.750;   85.525;    0.000
731.152; 6089.750;   79.525;    0.000
731.348; 6145.750;   72.525;    0.000
731.545; 6011.750;   56.525;    0.000
731.741; 6162.750;  106.525;    0.000
731.938; 6134.750;  113.525;    0.000
732.134; 6097.750;  106.525;    0.000
732.331; 6167.750;   82.525;    0.000
732.527; 6234.750;   80.525;    0.000
732.724; 6048.750;   97.525;    0.000
732.920; 6142.750;  127.525;    0.000
733.116; 6149.750;  115.525;    0.000
733.313; 6164.750;  153.525;    0.000
733.509; 6136.750;   76.525;    0.000
733.705; 5971.750;  159.525;    0.000
733.902; 6118.750;   82.525;    0.000
734.098; 6169.750;   70.525;    0.000
734.294; 6199.750;  105.525;    0.000
734.490; 6215.750;  110.525;    0.000
734.687; 6288.750;  102.525;    0.000
734.883; 6230.750;   77.525;    0.000
735.079; 6155.750;   93.525;    0.000
735.275; 6214.750;  109.525;    0.000
735.471; 6336.750;   99.525;    0.000
735.667; 6295.750;  107.525;    0.000
735.863; 6288.750;   89.525;    0.000
736.060; 6250.750;  105.525;    0.000
736.256; 6338.750;  113.525;    0.000
736.452; 6343.750;   90.525;    0.000
736.648; 6304.750;   88.525;    0.000
736.844; 6337.750;  129.525;    0.000
737.040; 6368.750;  139.525;    0.000
737.236; 6496.750;  129.525;    0.000
737.432; 6454.750;   67.525;    0.000
737.628; 6485.750;  104.525;    0.000
737.824; 6335.750;  111.525;    0.000
738.019; 6399.750;  116.525;    0.000
738.215; 6615.750;  135.525;    0.000
738.411; 6664.750;  118.525;    0.000
738.607; 6449.750;   58.525;    0.000
738.803; 6500.750;   32.525;    0.000
738.999; 6536.750;  120.525;    0.000
739.195; 6668.750;   76.525;    0.000
739.390; 6585.750;  119.525;    0.000
739.586; 6603.750;   83.525;    0.000
739.782; 6699.750;  134.525;    0.000
739.978; 6801.750;  122.525;    0.000
740.173; 6799.750;   96.525;    0.000
740.369; 6835.750;   86.525;    0.000
740.565; 6820.750;  122.525;    0.000
740.760; 6798.750;   99.525;    0.000
740.956; 6735.750;  137.525;    0.000
741.152; 6890.750;  108.525;    0.000
741.347; 6918.750;   65.525;    0.000
741.543; 7061.750;   73.525;    0.000
741.738; 7178.750;  142.525;    0.000
741.934; 7368.750;  131.525;    0.000
742.129; 7974.750;   66.525;    0.000
742.325; 8944.750;  143.525;    0.000
742.520; 9899.750;  119.525;    0.000
742.716; 9250.750;  109.525;    0.000
742.911; 8863.750;   62.525;    0.000
743.107; 8654.750;  119.525;    0.000
743.302; 8353.750;   78.525;    0.000
743.498; 8404.750;  130.525;    0.000
743.693; 8656.750;   75.525;    0.000
743.888; 8898.750;  135.525;    0.000
744.084;10538.750;  106.525;    0.000
744.279;13337.750;  101.525;    0.000
744.474;13269.750;   91.525;    0.000
744.670;11661.750;  144.525;    0.000
744.865;10536.750;  128.525;    0.000
745.060; 9876.750;   63.525;    0.000
745.255; 9477.750;  155.525;    0.000
745.451; 9127.750;  110.525;    0.000
745.646; 9149.750;  150.525;    0.000
745.841; 8955.750;  128.525;    0.000
746.036; 9053.750;  110.525;    0.000
746.231; 9307.750;  126.525;    0.000
746.426; 9922.750;   83.525;    0.000
746.622;11575.750;  157.525;    0.000
746.817;15718.750;  112.525;    0.000
747.012;18093.750;  115.525;    0.000
747.207;15414.750;  161.525;    0.000
747.402;13508.750;   88.525;    0.000
747.597;12410.750;  103.525;    0.000
747.792;11798.750;  152.525;    0.000
747.987;11127.750;   80.525;    0.000
748.182;10650.750;   89.525;    0.000
748.377;10055.750;  104.525;    0.000
748.572; 9756.750;  138.525;    0.000
748.767; 9430.750;  100.525;    0.000
748.961; 9102.750;  106.525;    0.000
749.156; 8832.750;  113.525;    0.000
749.351; 8560.750;  116.525;    0.000
749.546; 8433.750;  107.525;    0.000
749.741; 8346.750;  102.525;    0.000
749.936; 8268.750;  105.525;    0.000
750.130; 7943.750;  111.525;    0.000
750.325; 8083.750;   72.525;    0.000
750.520; 7979.750;   96.525;    0.000
750.715; 7948.750;  135.525;    0.000
750.909; 7691.750;  107.525;    0.000
751.104; 7820.750;  106.525;    0.000
751.299; 7614.750;  144.525;    0.000
751.493; 7816.750;  116.525;    0.000
751.688; 7651.750;   96.525;    0.000
751.882; 7510.750;   92.525;    0.000
752.077; 7525.750;  109.525;    0.000
752.272; 7394.750;   96.525;    0.000
752.466; 7325.750;  110.525;    0.000
752.661; 7200.750;  120.525;    0.000
752.855; 7338.750;   70.525;    0.000
753.050; 7353.750;  129.525;    0.000
753.244; 7316.750;  126.525;    0.000
753.439; 7273.750;  115.525;    0.000
753.633; 7087.750;  120.525;    0.000
753.828; 7194.750;  129.525;    0.000
754.022; 7135.750;  139.525;    0.000
754.216; 7189.750;  121.525;    0.000
754.411; 7247.750;  108.525;    0.000
754.605; 7040.750;   94.525;    0.000
754.799; 7058.750;  125.525;    0.000
754.994; 7162.750;  160.525;    0.000
755.188; 7161.750;  151.525;    0.000
755.382; 7046.750;  102.525;    0.000
755.576; 7059.750;  103.525;    0.000
755.771; 6994.750;   99.525;    0.000
755.965; 6958.750;  158.525;    0.000
756.159; 6941.750;   96.525;    0.000
756.353; 6996.750;  157.525;    0.000
756.547; 7044.750;  132.525;    0.000
756.742; 6922.750;  106.525;    0.000
756.936; 6928.750;  113.525;    0.000
757.130; 7037.750;  114.525;    0.000
757.324; 6937.750;  111.525;    0.000
757.518; 6965.750;  142.525;    0.000
757.712; 6962.750;  137.525;    0.000
757.906; 7131.750;   93.525;    0.000
758.100; 6939.750;  119.525;    0.000
758.294; 7015.750;  132.525;    0.000
758.488; 6871.750;  153.525;    0.000
758.682; 6956.750;  101.525;    0.000
758.876; 6898.750;  129.525;    0.000
759.070; 6834.750;  168.525;    0.000
759.264; 6932.750;   96.525;    0.000
759.458; 6984.750;  117.525;    0.000
759.651; 6837.750;  135.525;    0.000
759.845; 6908.750;  127.525;    0.000
760.039; 6774.750;  120.525;    0.000
760.233; 6893.750;  124.525;    0.000
760.427; 6863.750;  115.525;    0.000
760.620; 6983.750;  130.525;    0.000
760.814; 6907.750;  102.525;    0.000
761.008; 7026.750;  174.525;    0.000
761.202; 6789.750;  132.525;    0.000
761.395; 6844.750;  126.525;    0.000
761.589; 6786.750;  133.525;    0.000
761.783; 6888.750;  147.525;    0.000
761.976; 6986.750;  147.525;    0.000
762.170; 7011.750;  174.525;    0.000
762.363; 6943.750;   97.525;    0.000
762.557; 7044.750;  141.525;    0.000
762.750; 7049.750;  112.525;    0.000
762.944; 6982.750;  110.525;    0.000
763.138; 7108.750;  125.525;    0.000
763.331; 7040.750;  101.525;    0.000
763.524; 7137.750;  101.525;    0.000
763.718; 7179.750;  156.525;    0.000
763.911; 7142.750;  143.525;    0.000
764.105; 7121.750;  139.525;    0.000
764.298; 6963.750;   89.525;    0.000
764.492; 6937.750;  111.525;    0.000
764.685; 6918.750;  136.525;    0.000
764.878; 7024.750;  146.525;    0.000
765.072; 7031.750;  110.525;    0.000
765.265; 7076.750;  141.525;    0.000
765.458; 6987.750;   82.525;    0.000
765.651; 7138.750;  144.525;    0.000
765.845; 7117.750;   79.525;    0.000
766.038; 7192.750;  123.525;    0.000
766.231; 7799.750;  125.525;    0.000
766.424;10824.750;  131.525;    0.000
766.617;11018.750;   62.525;    0.000
766.811; 7563.750;  142.525;    0.000
767.004; 7259.750;  134.525;    0.000
767.197; 7236.750;  147.525;    0.000
767.390; 7253.750;  100.525;    0.000
767.583; 7252.750;  121.525;    0.000
767.776; 7226.750;   91.525;    0.000
767.969; 7266.750;  113.525;    0.000
768.162; 7239.750;  170.525;    0.000
768.355; 7385.750;  134.525;    0.000
768.548; 7305.750;  177.525;    0.000
768.741; 7394.750;   96.525;    0.000
768.934; 7362.750;  143.525;    0.000
769.127; 7422.750;  147.525;    0.000
769.320; 7399.750;   93.525;    0.000
769.513; 7499.750;  137.525;    0.000
769.706; 8074.750;   96.525;    0.000
769.898;10800.750;  118.525;    0.000
770.091; 9092.750;  138.525;    0.000
770.284; 7694.750;  133.525;    0.000
770.477; 7728.750;  137.525;    0.000
770.670; 7716.750;  124.525;    0.000
770.862; 7935.750;  125.525;    0.000
771.055; 7781.750;  135.525;    0.000
771.248; 7882.750;  109.525;    0.000
771.441; 7935.750;  141.525;    0.000
771.633; 7879.750;  142.525;    0.000
771.826; 7874.750;  123.525;    0.000
772.018; 8127.750;  136.525;    0.000
772.211; 8058.750;  145.525;    0.000
772.404; 8218.750;  127.525;    0.000
772.596; 8194.750;  193.525;    0.000
772.789; 8394.750;   64.525;    0.000
772.981; 8432.750;  142.525;    0.000
773.174; 8538.750;  105.525;    0.000
773.366; 8622.750;  166.525;    0.000
773.559; 8552.750;  125.525;    0.000
773.751; 8920.750;  126.525;    0.000
773.944; 8953.750;  147.525;    0.000
774.136; 9166.750;  155.525;    0.000
774.329; 9402.750;  127.525;    0.000
774.521; 9633.750;  133.525;    0.000
774.713; 9861.750;  139.525;    0.000
774.906;10081.750;  170.525;    0.000
775.098;10476.750;  144.525;    0.000
775.290;11036.750;  162.525;    0.000
775.483;11495.750;  137.525;    0.000
775.675;12121.750;  148.525;    0.000
775.867;13043.750;   81.525;    0.000
776.059;14393.750;  134.525;    0.000
776.251;15873.750;  137.525;    0.000
776.444;18420.750;  155.525;    0.000
776.636;21657.750;  148.525;    0.000
776.828;27200.750;  129.525;    0.000
777.020;39933.750;  133.525;    0.000
777.212;60347.750;  137.525;    0.000
777.404;65193.750;  124.525;    0.000
777.596;61493.750;  142.525;    0.000
777.788;45141.750;  155.525;    0.000
777.980;33479.750;  119.525;    0.000
778.172;26802.750;  129.525;    0.000
778.364;22315.750;  122.525;    0.000
778.556;19767.750;  129.525;    0.000
778.748;17589.750;  178.525;    0.000
778.940;15946.750;  128.525;    0.000
779.132;14618.750;  145.525;    0.000
779.324;13552.750;   89.525;    0.000
779.516;12688.750;  161.525;    0.000
779.708;11911.750;  183.525;    0.000
779.900;11448.750;  124.525;    0.000
780.091;10970.750;  143.525;    0.000
780.283;10467.750;  135.525;    0.000
780.475;10173.750;  129.525;    0.000
780.667; 9798.750;  178.525;    0.000
780.859; 9633.750;  146.525;    0.000
781.050; 9312.750;  156.525;    0.000
781.242; 9016.750;  138.525;    0.000
781.434; 9055.750;  117.525;    0.000
781.625; 8752.750;  161.525;    0.000
781.817; 8513.750;  127.525;    0.000
782.008; 8499.750;  138.525;    0.000
782.200; 8307.750;  139.525;    0.000
782.392; 8194.750;  179.525;    0.000
782.583; 8071.750;  137.525;    0.000
782.775; 8089.750;  162.525;    0.000
782.966; 7902.750;  159.525;    0.000
783.158; 7760.750;  118.525;    0.000
783.349; 7672.750;  160.525;    0.000
783.541; 7604.750;  139.525;    0.000
783.732; 7539.750;  145.525;    0.000
783.924; 7460.750;  146.525;    0.000
784.115; 7481.750;  125.525;    0.000
784.306; 7427.750;  118.525;    0.000
784.498; 7229.750;  144.525;    0.000
784.689; 7368.750;  145.525;    0.000
784.880; 7281.750;  137.525;    0.000
785.072; 7355.750;  157.525;    0.000
785.263; 7272.750;  149.525;    0.000
785.454; 7163.750;  128.525;    0.000
785.645; 7083.750;  131.525;    0.000
785.837; 7057.750;  137.525;    0.000
786.028; 7184.750;  161.525;    0.000
786.219; 7129.750;  155.525;    0.000
786.410; 7162.750;  146.525;    0.000
786.601; 7070.750;  120.525;    0.000
786.792; 7265.750;  179.525;    0.000
786.984; 7135.750;  113.525;    0.000
787.175; 7073.750;  156.525;    0.000
787.366; 6986.750;  131.525;    0.000
787.557; 6996.750;  138.525;    0.000
787.748; 7011.750;  112.525;    0.000
787.939; 7138.750;  115.525;    0.000
788.130; 7141.750;  150.525;    0.000
788.321; 7016.750;  122.525;    0.000
788.512; 7189.750;  147.525;    0.000
788.703; 7276.750;  126.525;    0.000
788.894; 7232.750;   80.525;    0.000
789.084; 7203.750;  127.525;    0.000
789.275; 7243.750;  141.525;    0.000
789.466; 7265.750;  108.525;    0.000
789.657; 7299.750;  137.525;    0.000
789.848; 7393.750;  126.525;    0.000
790.039; 7336.750;  144.525;    0.000
790.229; 7322.750;  105.525;    0.000
790.420; 7483.750;   96.525;    0.000
790.611; 7322.750;  171.525;    0.000
790.801; 7239.750;   89.525;    0.000
790.992; 7293.750;  140.525;    0.000
791.183; 7076.750;  143.525;    0.000
791.373; 7282.750;  128.525;    0.000
791.564; 7290.750;   96.525;    0.000
791.755; 7226.750;  111.525;    0.000
791.945; 7299.750;  112.525;    0.000
792.136; 7241.750;  124.525;    0.000
792.326; 7136.750;   88.525;    0.000
792.517; 7206.750;  130.525;    0.000
792.707; 7366.750;  144.525;    0.000
792.898; 7344.750;  120.525;    0.000
793.088; 7437.750;  106.525;    0.000
793.279; 7539.750;  104.525;    0.000
793.469; 7454.750;  103.525;    0.000
793.660; 7684.750;  120.525;    0.000
793.850; 7865.750;  106.525;    0.000
794.040; 7999.750;  135.525;    0.000
794.231; 8408.750;   80.525;    0.000
794.421; 9244.750;  120.525;    0.000
794.611;10463.750;  154.525;    0.000
794.802;12483.750;  103.525;    0.000
794.992;13280.750;  120.525;    0.000
795.182;13483.750;  156.525;    0.000
795.372;12523.750;  104.525;    0.000
795.563;10964.750;  153.525;    0.000
795.753; 9890.750;  112.525;    0.000
795.943; 9347.750;  128.525;    0.000
796.133; 8652.750;  128.525;    0.000
796.323; 8462.750;  152.525;    0.000
796.513; 8131.750;  123.525;    0.000
796.703; 7872.750;  134.525;    0.000
796.893; 7550.750;  120.525;    0.000
797.083; 7565.750;  136.525;    0.000
797.273; 7426.750;  128.525;    0.000
797.463; 7148.750;  140.525;    0.000
797.653; 7111.750;   75.525;    0.000
797.843; 7116.750;  114.525;    0.000
798.033; 6851.750;   90.525;    0.000
798.223; 6756.750;  136.525;    0.000
798.413; 6785.750;  164.525;    0.000
798.603; 6572.750;  150.525;    0.000
798.793; 6553.750;  137.525;    0.000
798.983; 6638.750;  119.525;    0.000
799.172; 6485.750;  136.525;    0.000
799.362; 6449.750;  138.525;    0.000
799.552; 6397.750;  123.525;    0.000
799.742; 6361.750;  117.525;    0.000
799.932; 6340.750;  108.525;    0.000
800.121; 6333.750;  152.525;    0.000
800.311; 6301.750;  117.525;    0.000
800.501; 6537.750;  100.525;    0.000
800.690; 6273.750;  139.525;    0.000
800.880; 6261.750;  138.525;    0.000
801.070; 6161.750;  120.525;    0.000
801.259; 6147.750;  143.525;    0.000
801.449; 6011.750;  110.525;    0.000
801.638; 6135.750;  140.525;    0.000
801.828; 6183.750;  103.525;    0.000
802.017; 6287.750;   78.525;    0.000
802.207; 6138.750;  126.525;    0.000
802.396; 5954.750;  151.525;    0.000
802.586; 5928.750;  106.525;    0.000
802.775; 6102.750;  152.525;    0.000
802.965; 6036.750;  117.525;    0.000
803.154; 6102.750;  171.525;    0.000
803.343; 5868.750;  126.525;    0.000
803.533; 5977.750;  135.525;    0.000
803.722; 5978.750;  144.525;    0.000
803.911; 6017.750;  109.525;    0.000
804.101; 5992.750;  146.525;    0.000
804.290; 5937.750;  115.525;    0.000
804.479; 5941.750;  128.525;    0.000
804.668; 5904.750;  156.525;    0.000
804.857; 5905.750;  151.525;    0.000
805.047; 5897.750;  131.525;    0.000
805.236; 5985.750;  144.525;    0.000
805.425; 5935.750;  160.525;    0.000
805.614; 5999.750;  112.525;    0.000
805.803; 5995.750;  120.525;    0.000
805.992; 5949.750;  148.525;    0.000
806.181; 5977.750;  108.525;    0.000
806.370; 5972.750;  142.525;    0.000
806.559; 5908.750;  116.525;    0.000
806.748; 5962.750;  108.525;    0.000
806.937; 5929.750;  110.525;    0.000
807.126; 5963.750;  126.525;    0.000
807.315; 5903.750;  121.525;    0.000
807.504; 5923.750;  102.525;    0.000
807.693; 5872.750;  134.525;    0.000
807.882; 5917.750;  135.525;    0.000
808.071; 5888.750;  135.525;    0.000
808.260; 5980.750;   93.525;    0.000
808.448; 5950.750;  151.525;    0.000
808.637; 6081.750;  105.525;    0.000
808.826; 6025.750;  178.525;    0.000
809.015; 5905.750;  152.525;    0.000
809.203; 6105.750;  147.525;    0.000
809.392; 5988.750;  144.525;    0.000
809.581; 6115.750;  167.525;    0.000
809.770; 6051.750;  151.525;    0.000
809.958; 6075.750;  128.525;    0.000
810.147; 6099.750;  152.525;    0.000
810.335; 6183.750;  160.525;    0.000
810.524; 6234.750;  130.525;    0.000
810.713; 6268.750;  128.525;    0.000
810.901; 6314.750;  140.525;    0.000
811.090; 6400.750;  152.525;    0.000
811.278; 6394.750;  126.525;    0.000
811.467; 6748.750;  161.525;    0.000
811.655; 6871.750;  184.525;    0.000
811.844; 6746.750;  148.525;    0.000
812.032; 6835.750;  138.525;    0.000
812.220; 6778.750;  157.525;    0.000
812.409; 6661.750;  143.525;    0.000
812.597; 6742.750;  124.525;    0.000
812.785; 6680.750;  170.525;    0.000
812.974; 6912.750;  135.525;    0.000
813.162; 6862.750;  135.525;    0.000
813.350; 6825.750;  182.525;    0.000
813.539; 6956.750;  126.525;    0.000
813.727; 7015.750;  127.525;    0.000
813.915; 7063.750;  140.525;    0.000
814.103; 7098.750;  176.525;    0.000
814.291; 7133.750;  115.525;    0.000
814.479; 7205.750;  119.525;    0.000
814.668; 7220.750;  134.525;    0.000
814.856; 7418.750;  120.525;    0.000
815.044; 7596.750;  164.525;    0.000
815.232; 7775.750;  146.525;    0.000
815.420; 7947.750;  154.525;    0.000
815.608; 7895.750;  137.525;    0.000
815.796; 8058.750;  108.525;    0.000
815.984; 8341.750;  134.525;    0.000
816.172; 8702.750;  123.525;    0.000
816.360; 8972.750;  181.525;    0.000
816.548; 9058.750;  139.525;    0.000
816.736; 9484.750;  138.525;    0.000
816.924; 9979.750;  151.525;    0.000
817.111;10508.750;  156.525;    0.000
817.299;11277.750;  147.525;    0.000
817.487;12352.750;  188.525;    0.000
817.675;13785.750;  129.525;    0.000
817.863;16116.750;  128.525;    0.000
818.050;22643.750;  110.525;    0.000
818.238;41795.750;  166.525;    0.000
818.426;58635.750;  136.525;    0.000
818.613;42899.750;  143.525;    0.000
818.801;35267.750;  150.525;    0.000
818.989;33586.750;  179.525;    0.000
819.176;35476.750;  123.525;    0.000
819.364;52226.750;  148.525;    0.000
819.552;65193.750;   86.525;    0.000
819.739;54350.750;  169.525;    0.000
819.927;39576.750;  130.525;    0.000
820.114;32327.750;  144.525;    0.000
820.302;27900.750;  166.525;    0.000
820.489;24927.750;  145.525;    0.000
820.677;22846.750;  101.525;    0.000
820.864;21623.750;  149.525;    0.000
821.052;21378.750;  130.525;    0.000
821.239;21907.750;  147.525;    0.000
821.426;22556.750;  121.525;    0.000
821.614;27122.750;  187.525;    0.000
821.801;28572.750;  105.525;    0.000
821.988;24560.750;  167.525;    0.000
822.176;23098.750;  130.525;    0.000
822.363;23711.750;  143.525;    0.000
822.550;21394.750;  108.525;    0.000
822.737;18885.750;  109.525;    0.000
822.924;17661.750;  156.525;    0.000
823.112;16664.750;  123.525;    0.000
823.299;15274.750;  128.525;    0.000
823.486;14588.750;  138.525;    0.000
823.673;13343.750;  125.525;    0.000
823.860;13239.750;  138.525;    0.000
824.047;13575.750;  122.525;    0.000
824.234;15154.750;  134.525;    0.000
824.421;15371.750;   95.525;    0.000
824.608;13498.750;  151.525;    0.000
824.795;12028.750;  117.525;    0.000
824.982;11086.750;  143.525;    0.000
825.169;10240.750;   83.525;    0.000
825.356; 9956.750;  126.525;    0.000
825.543; 9278.750;   92.525;    0.000
825.730; 9089.750;  113.525;    0.000
825.917; 8634.750;  142.525;    0.000
826.104; 8549.750;  182.525;    0.000
826.290; 8125.750;  137.525;    0.000
826.477; 7966.750;  126.525;    0.000
826.664; 7731.750;  135.525;    0.000
826.851; 7426.750;  139.525;    0.000
827.038; 7387.750;  135.525;    0.000
827.224; 7167.750;  143.525;    0.000
827.411; 7002.750;  153.525;    0.000
827.598; 6820.750;  122.525;    0.000
827.784; 6914.750;  138.525;    0.000
827.971; 6772.750;  134.525;    0.000
828.157; 6494.750;  152.525;    0.000
828.344; 6368.750;  135.525;    0.000
828.531; 6425.750;  137.525;    0.000
828.717; 6252.750;  117.525;    0.000
828.904; 6295.750;  127.525;    0.000
829.090; 6104.750;  172.525;    0.000
829.277; 6075.750;  144.525;    0.000
829.463; 5981.750;  159.525;    0.000
829.650; 5993.750;  187.525;    0.000
829.836; 5800.750;  138.525;    0.000
830.022; 5767.750;  196.525;    0.000
830.209; 5674.750;  118.525;    0.000
830.395; 5641.750;  148.525;    0.000
830.581; 5605.750;  108.525;    0.000
830.768; 5483.750;  137.525;    0.000
830.954; 5466.750;  162.525;    0.000
831.140; 5400.750;  117.525;    0.000
831.327; 5429.750;  176.525;    0.000
831.513; 5397.750;  162.525;    0.000
831.699; 5374.750;  157.525;    0.000
831.885; 5340.750;  153.525;    0.000
832.071; 5131.750;  123.525;    0.000
832.257; 5063.750;  142.525;    0.000
832.444; 5079.750;  165.525;    0.000
832.630; 5024.750;  159.525;    0.000
832.816; 4999.750;  145.525;    0.000
833.002; 5034.750;  120.525;    0.000
833.188; 5108.750;  145.525;    0.000
833.374; 4902.750;  137.525;    0.000
833.560; 4887.750;  152.525;    0.000
833.746; 4856.750;  139.525;    0.000
833.932; 4894.750;  170.525;    0.000
834.118; 4743.750;  111.525;    0.000
834.303; 4934.750;  141.525;    0.000
834.489; 4828.750;  146.525;    0.000
834.675; 4843.750;  156.525;    0.000
834.861; 4776.750;   87.525;    0.000
835.047; 4798.750;  134.525;    0.000
835.233; 4644.750;   89.525;    0.000
835.418; 4751.750;  145.525;    0.000
835.604; 4718.750;  136.525;    0.000
835.790; 4711.750;  132.525;    0.000
835.976; 4660.750;  161.525;    0.000
836.161; 4667.750;  157.525;    0.000
836.347; 4528.750;  147.525;    0.000
836.533; 4586.750;  116.525;    0.000
836.718; 4538.750;  168.525;    0.000
836.904; 4553.750;  199.525;    0.000
837.089; 4564.750;  165.525;    0.000
837.275; 4585.750;  166.525;    0.000
837.460; 4636.750;  144.525;    0.000
837.646; 4584.750;  164.525;    0.000
837.831; 4649.750;  122.525;    0.000
838.017; 4605.750;  163.525;    0.000
838.202; 4465.750;  139.525;    0.000
838.388; 4679.750;  174.525;    0.000
838.573; 4527.750;  140.525;    0.000
838.759; 4649.750;  167.525;    0.000
838.944; 4487.750;  142.525;    0.000
839.129; 4515.750;  164.525;    0.000
839.315; 4506.750;  129.525;    0.000
839.500; 4502.750;  150.525;    0.000
839.685; 4497.750;  118.525;    0.000
839.870; 4522.750;  177.525;    0.000
840.056; 4526.750;  144.525;    0.000
840.241; 4616.750;  121.525;    0.000
840.426; 4530.750;  131.525;    0.000
840.611; 4635.750;  177.525;    0.000
840.796; 4668.750;  173.525;    0.000
840.981; 4768.750;  156.525;    0.000
841.166; 4687.750;  145.525;    0.000
841.352; 4790.750;  150.525;    0.000
841.537; 4688.750;  143.525;    0.000
841.722; 4897.750;  165.525;    0.000
841.907; 4837.750;  184.525;    0.000
842.092; 4996.750;  171.525;    0.000
842.277; 4992.750;  155.525;    0.000
842.461; 5115.750;  152.525;    0.000
842.646; 5315.750;  107.525;    0.000
842.831; 5381.750;  160.525;    0.000
843.016; 5529.750;  160.525;    0.000
843.201; 5557.750;  164.525;    0.000
843.386; 5806.750;  134.525;    0.000
843.571; 6080.750;  132.525;    0.000
843.755; 6619.750;  158.525;    0.000
843.940; 7105.750;  152.525;    0.000
844.125; 8277.750;  154.525;    0.000
844.310; 9744.750;  147.525;    0.000
844.494;13445.750;  158.525;    0.000
844.679;19560.750;  173.525;    0.000
844.864;18877.750;  152.525;    0.000
845.048;14731.750;  139.525;    0.000
845.233;11913.750;  200.525;    0.000
845.418;10107.750;  139.525;    0.000
845.602; 8865.750;  147.525;    0.000
845.787; 7923.750;  148.525;    0.000
845.971; 7374.750;  170.525;    0.000
846.156; 6793.750;  136.525;    0.000
846.340; 6404.750;  146.525;    0.000
846.525; 6163.750;  188.525;    0.000
846.709; 5854.750;  128.525;    0.000
846.893; 5552.750;  151.525;    0.000
847.078; 5403.750;  164.525;    0.000
847.262; 5195.750;  155.525;    0.000
847.447; 5010.750;  114.525;    0.000
847.631; 4892.750;  148.525;    0.000
847.815; 4827.750;  114.525;    0.000
848.000; 4810.750;  134.525;    0.000
848.184; 4644.750;  154.525;    0.000
848.368; 4670.750;  145.525;    0.000
848.552; 4465.750;  122.525;    0.000
848.736; 4512.750;  139.525;    0.000
848.921; 4376.750;  143.525;    0.000
849.105; 4243.750;  145.525;    0.000
849.289; 4396.750;  173.525;    0.000
849.473; 4211.750;  147.525;    0.000
849.657; 4199.750;  144.525;    0.000
849.841; 4231.750;  168.525;    0.000
850.025; 4088.750;  205.525;    0.000
850.209; 4137.750;  171.525;    0.000
850.393; 4082.750;  130.525;    0.000
850.577; 3964.750;  146.525;    0.000
850.761; 4054.750;  188.525;    0.000
850.945; 4005.750;  137.525;    0.000
851.129; 4017.750;  192.525;    0.000
851.313; 4136.750;  199.525;    0.000
851.497; 3951.750;  165.525;    0.000
851.680; 3994.750;  196.525;    0.000
851.864; 3929.750;  169.525;    0.000
852.048; 4005.750;  156.525;    0.000
852.232; 3985.750;  150.525;    0.000
852.416; 4024.750;  219.525;    0.000
852.599; 3914.750;  168.525;    0.000
852.783; 3913.750;  165.525;    0.000
852.967; 3943.750;  166.525;    0.000
853.150; 3883.750;  191.525;    0.000
853.334; 3909.750;  158.525;    0.000
853.518; 3866.750;  168.525;    0.000
853.701; 3821.750;  125.525;    0.000
853.885; 3818.750;  165.525;    0.000
854.068; 3882.750;  142.525;    0.000
854.252; 3779.750;  167.525;    0.000
854.435; 3872.750;  146.525;    0.000
854.619; 3865.750;  163.525;    0.000
854.802; 3782.750;  167.525;    0.000
854.986; 3838.750;  163.525;    0.000
855.169; 3708.750;  146.525;    0.000
855.353; 3851.750;  183.525;    0.000
855.536; 3823.750;  140.525;    0.000
855.719; 3894.750;  168.525;    0.000
855.903; 3900.750;  170.525;    0.000
856.086; 3915.750;  145.525;    0.000
856.269; 3850.750;  126.525;    0.000
856.452; 3968.750;  142.525;    0.000
856.636; 4282.750;  140.525;    0.000
856.819; 4637.750;  127.525;    0.000
857.002; 4662.750;  165.525;    0.000
857.185; 4652.750;  111.525;    0.000
857.368; 4361.750;  143.525;    0.000
857.552; 4344.750;  174.525;    0.000
857.735; 4219.750;  194.525;    0.000
857.918; 4170.750;  171.525;    0.000
858.101; 4089.750;  142.525;    0.000
858.284; 4167.750;  118.525;    0.000
858.467; 4387.750;  163.525;    0.000
858.650; 4366.750;  149.525;    0.000
858.833; 4528.750;  120.525;    0.000
859.016; 4475.750;  169.525;    0.000
859.199; 4792.750;  121.525;    0.000
859.382; 5336.750;  184.525;    0.000
859.564; 5868.750;  139.525;    0.000
859.747; 5571.750;  126.525;    0.000
859.930; 5298.750;  109.525;    0.000
860.113; 5053.750;  137.525;    0.000
860.296; 4917.750;  182.525;    0.000
860.478; 4801.750;  136.525;    0.000
860.661; 4676.750;  157.525;    0.000
860.844; 4750.750;  129.525;    0.000
861.027; 4627.750;  163.525;    0.000
861.209; 4615.750;  151.525;    0.000
861.392; 4653.750;  124.525;    0.000
861.575; 4599.750;  163.525;    0.000
861.757; 4626.750;  205.525;    0.000
861.940; 4758.750;  180.525;    0.000
862.122; 4840.750;  148.525;    0.000
862.305; 4921.750;  128.525;    0.000
862.487; 5228.750;  172.525;    0.000
862.670; 5886.750;  123.525;    0.000
862.852; 7022.750;  126.525;    0.000
863.035; 8709.750;  174.525;    0.000
863.217; 8563.750;  160.525;    0.000
863.400; 7557.750;  164.525;    0.000
863.582; 6846.750;  118.525;    0.000
863.764; 6330.750;  143.525;    0.000
863.947; 5935.750;  137.525;    0.000
864.129; 5752.750;  166.525;    0.000
864.311; 5563.750;  128.525;    0.000
864.493; 5486.750;  153.525;    0.000
864.676; 5520.750;  156.525;    0.000
864.858; 5274.750;  159.525;    0.000
865.040; 5303.750;  163.525;    0.000
865.222; 5490.750;  138.525;    0.000
865.404; 5462.750;  157.525;    0.000
865.587; 5789.750;  184.525;    0.000
865.769; 6052.750;  178.525;    0.000
865.951; 5946.750;  104.525;    0.000
866.133; 5914.750;  147.525;    0.000
866.315; 5914.750;  141.525;    0.000
866.497; 5991.750;  132.525;    0.000
866.679; 6139.750;  139.525;    0.000
866.861; 6374.750;  118.525;    0.000
867.043; 6728.750;  154.525;    0.000
867.225; 7132.750;  147.525;    0.000
867.407; 7846.750;  158.525;    0.000
867.589; 9014.750;  172.525;    0.000
867.770;11284.750;  159.525;    0.000
867.952;16447.750;  149.525;    0.000
868.134;22035.750;  156.525;    0.000
868.316;21752.750;  171.525;    0.000
868.498;20556.750;  200.525;    0.000
868.679;17797.750;  174.525;    0.000
868.861;14276.750;  175.525;    0.000
869.043;11704.750;  174.525;    0.000
869.224;10323.750;  122.525;    0.000
869.406; 8993.750;  166.525;    0.000
869.588; 8535.750;  143.525;    0.000
869.769; 7995.750;  152.525;    0.000
869.951; 7749.750;  165.525;    0.000
870.132; 7970.750;  115.525;    0.000
870.314; 9099.750;  139.525;    0.000
870.495; 9380.750;  168.525;    0.000
870.677; 8360.750;  188.525;    0.000
870.858; 8005.750;  123.525;    0.000
871.040; 8622.750;  170.525;    0.000
871.221; 9762.750;  148.525;    0.000
871.403; 9129.750;  140.525;    0.000
871.584; 8347.750;  174.525;    0.000
871.765; 8357.750;  168.525;    0.000
871.947; 9008.750;  191.525;    0.000
872.128; 8060.750;  132.525;    0.000
872.309; 6977.750;  140.525;    0.000
872.491; 6270.750;  157.525;    0.000
872.672; 5763.750;  130.525;    0.000
872.853; 5729.750;  148.525;    0.000
873.034; 5581.750;  138.525;    0.000
873.215; 5103.750;  152.525;    0.000
873.396; 4980.750;  149.525;    0.000
873.578; 4790.750;  173.525;    0.000
873.759; 4549.750;  158.525;    0.000
873.940; 4473.750;  147.525;    0.000
874.121; 4228.750;  136.525;    0.000
874.302; 4157.750;  151.525;    0.000
874.483; 4180.750;  137.525;    0.000
874.664; 4111.750;  163.525;    0.000
874.845; 4187.750;  124.525;    0.000
875.026; 4035.750;  134.525;    0.000
875.207; 3955.750;  164.525;    0.000
875.388; 3869.750;  163.525;    0.000
875.568; 3840.750;  176.525;    0.000
875.749; 3690.750;  108.525;    0.000
875.930; 3668.750;  191.525;    0.000
876.111; 3682.750;  170.525;    0.000
876.292; 3585.750;  180.525;    0.000
876.472; 3607.750;  150.525;    0.000
876.653; 3502.750;  162.525;    0.000
876.834; 3377.750;  176.525;    0.000
877.015; 3462.750;  203.525;    0.000
877.195; 3469.750;  178.525;    0.000
877.376; 3444.750;  141.525;    0.000
877.556; 3334.750;  135.525;    0.000
877.737; 3315.750;  174.525;    0.000
877.918; 3316.750;  150.525;    0.000
878.098; 3315.750;  133.525;    0.000
878.279; 3389.750;  129.525;    0.000
878.459; 3276.750;  162.525;    0.000
878.640; 3246.750;  187.525;    0.000
878.820; 3239.750;  151.525;    0.000
879.000; 3242.750;  159.525;    0.000
879.181; 3245.750;  171.525;    0.000
879.361; 3159.750;  167.525;    0.000
879.542; 3138.750;  126.525;    0.000
879.722; 3208.750;  152.525;    0.000
879.902; 3268.750;  144.525;    0.000
880.083; 3215.750;  154.525;    0.000
880.263; 3226.750;  148.525;    0.000
880.443; 3402.750;  185.525;    0.000
880.623; 3873.750;  172.525;    0.000
880.803; 4345.750;  152.525;    0.000
880.984; 3796.750;  165.525;    0.000
881.164; 3530.750;  164.525;    0.000
881.344; 3448.750;  141.525;    0.000
881.524; 3405.750;  160.525;    0.000
881.704; 3535.750;  164.525;    0.000
881.884; 3661.750;  159.525;    0.000
882.064; 3844.750;  158.525;    0.000
882.244; 3971.750;  147.525;    0.000
882.424; 3665.750;  160.525;    0.000
882.604; 3524.750;  150.525;    0.000
882.784; 3459.750;  138.525;    0.000
882.964; 3267.750;  157.525;    0.000
883.144; 3170.750;  128.525;    0.000
883.324; 3245.750;  220.525;    0.000
883.504; 3189.750;  177.525;    0.000
883.683; 3008.750;  159.525;    0.000
883.863; 2982.750;  143.525;    0.000
884.043; 3008.750;  156.525;    0.000
884.223; 3067.750;  152.525;    0.000
884.402; 3027.750;  169.525;    0.000
884.582; 2999.750;  162.525;    0.000
884.762; 2978.750;  172.525;    0.000
884.941; 2895.750;  220.525;    0.000
885.121; 2930.750;  128.525;    0.000
885.301; 2992.750;  141.525;    0.000
885.480; 2908.750;  141.525;    0.000
885.660; 2836.750;  132.525;    0.000
885.839; 2892.750;  146.525;    0.000
886.019; 2908.750;  170.525;    0.000
886.198; 2877.750;  143.525;    0.000
886.378; 2853.750;  159.525;    0.000
886.557; 2857.750;  148.525;    0.000
886.737; 2857.750;  125.525;    0.000
886.916; 2867.750;  177.525;    0.000
887.095; 2815.750;  186.525;    0.000
887.275; 2819.750;  134.525;    0.000
887.454; 2835.750;  148.525;    0.000
887.633; 2747.750;  171.525;    0.000
887.813; 2730.750;  187.525;    0.000
887.992; 2860.750;  157.525;    0.000
888.171; 2698.750;  143.525;    0.000
888.350; 2828.750;  182.525;    0.000
888.530; 2782.750;  142.525;    0.000
888.709; 2704.750;  160.525;    0.000
888.888; 2765.750;  197.525;    0.000
889.067; 2772.750;  126.525;    0.000
889.246; 2771.750;  197.525;    0.000
889.425; 2874.750;  161.525;    0.000
889.604; 2751.750;  180.525;    0.000
889.783; 2745.750;  135.525;    0.000
889.962; 2665.750;  107.525;    0.000
890.141; 2684.750;  167.525;    0.000
890.320; 2736.750;  149.525;    0.000
890.499; 2760.750;  194.525;    0.000
890.678; 2673.750;  138.525;    0.000
890.857; 2815.750;  146.525;    0.000
891.036; 2735.750;  178.525;    0.000
891.214; 2647.750;  151.525;    0.000
891.393; 2721.750;  137.525;    0.000
891.572; 2789.750;  177.525;    0.000
891.751; 2732.750;  149.525;    0.000
891.930; 2722.750;  189.525;    0.000
892.108; 2676.750;  136.525;    0.000
892.287; 2699.750;  129.525;    0.000
892.466; 2827.750;  163.525;    0.000
892.644; 2715.750;  147.525;    0.000
892.823; 2648.750;  127.525;    0.000
893.001; 2671.750;  192.525;    0.000
893.180; 2586.750;  157.525;    0.000
893.359; 2706.750;  176.525;    0.000
893.537; 2730.750;  146.525;    0.000
893.716; 2659.750;  154.525;    0.000
893.894; 2654.750;  166.525;    0.000
894.073; 2798.750;  163.525;    0.000
894.251; 2748.750;  166.525;    0.000
894.429; 2688.750;  149.525;    0.000
894.608; 2676.750;  141.525;    0.000
894.786; 2658.750;  139.525;    0.000
894.964; 2686.750;  180.525;    0.000
895.143; 2703.750;  193.525;    0.000
895.321; 2627.750;  163.525;    0.000
895.499; 2723.750;  163.525;    0.000
895.677; 2702.750;  194.525;    0.000
895.856; 2734.750;  176.525;    0.000
896.034; 2652.750;  173.525;    0.000
896.212; 2778.750;  180.525;    0.000
896.390; 2720.750;  146.525;    0.000
896.568; 2742.750;  167.525;    0.000
896.746; 2686.750;  158.525;    0.000
896.924; 2669.750;  163.525;    0.000
897.102; 2660.750;  170.525;    0.000
897.280; 2739.750;  159.525;    0.000
897.458; 2768.750;  182.525;    0.000
897.636; 2836.750;  151.525;    0.000
897.814; 2741.750;  130.525;    0.000
897.992; 2817.750;  213.525;    0.000
898.170; 2702.750;  164.525;    0.000
898.348; 2719.750;  159.525;    0.000
898.526; 2783.750;  182.525;    0.000
898.704; 2863.750;  209.525;    0.000
898.882; 2691.750;  145.525;    0.000
899.059; 2774.750;  172.525;    0.000
899.237; 2768.750;  172.525;    0.000
899.415; 2816.750;  211.525;    0.000
899.593; 2828.750;  151.525;    0.000
899.770; 2764.750;  147.525;    0.000
899.948; 2822.750;  218.525;    0.000
900.125; 2941.750;  166.525;    0.000
900.303; 2911.750;  146.525;    0.000
900.481; 2847.750;  174.525;    0.000
900.658; 2893.750;  198.525;    0.000
900.836; 2892.750;  125.525;    0.000
901.013; 2919.750;  197.525;    0.000
901.191; 2964.750;  181.525;    0.000
901.368; 3016.750;  185.525;    0.000
901.546; 3097.750;  197.525;    0.000
901.723; 3135.750;  205.525;    0.000
901.901; 3248.750;  187.525;    0.000
902.078; 3387.750;  163.525;    0.000
902.255; 3303.750;  141.525;    0.000
902.433; 3359.750;  183.525;    0.000
902.610; 3336.750;  181.525;    0.000
902.787; 3397.750;  174.525;    0.000
902.964; 3488.750;  174.525;    0.000
903.142; 3602.750;  141.525;    0.000
903.319; 3658.750;  214.525;    0.000
903.496; 3679.750;  187.525;    0.000
903.673; 3777.750;  183.525;    0.000
903.850; 3759.750;  125.525;    0.000
904.027; 4040.750;  197.525;    0.000
904.204; 4194.750;  197.525;    0.000
904.381; 4596.750;  196.525;    0.000
904.558; 5389.750;  176.525;    0.000
904.735; 6182.750;  179.525;    0.000
904.912; 6265.750;  203.525;    0.000
905.089; 6164.750;  159.525;    0.000
905.266; 5645.750;  176.525;    0.000
905.443; 5271.750;  184.525;    0.000
905.620; 4782.750;  168.525;    0.000
905.797; 4549.750;  214.525;    0.000
905.974; 4335.750;  154.525;    0.000
906.151; 4321.750;  132.525;    0.000
906.327; 4342.750;  192.525;    0.000
906.504; 4198.750;  186.525;    0.000
906.681; 4071.750;  171.525;    0.000
906.858; 4006.750;  181.525;    0.000
907.034; 3831.750;  164.525;    0.000
907.211; 3694.750;  184.525;    0.000
907.388; 3594.750;  177.525;    0.000
907.564; 3626.750;  150.525;    0.000
907.741; 3452.750;  195.525;    0.000
907.917; 3362.750;  190.525;    0.000
908.094; 3462.750;  214.525;    0.000
908.271; 3314.750;  173.525;    0.000
908.447; 3328.750;  229.525;    0.000
908.623; 3277.750;  162.525;    0.000
908.800; 3240.750;  195.525;    0.000
908.976; 3120.750;  171.525;    0.000
909.153; 3194.750;  167.525;    0.000
909.329; 3171.750;  227.525;    0.000
909.505; 3099.750;  167.525;    0.000
909.682; 3125.750;  174.525;    0.000
909.858; 3057.750;  158.525;    0.000
910.034; 3106.750;  188.525;    0.000
910.211; 2914.750;  158.525;    0.000
910.387; 3048.750;  208.525;    0.000
910.563; 3003.750;  203.525;    0.000
910.739; 2985.750;  201.525;    0.000
910.915; 3056.750;  170.525;    0.000
911.091; 3044.750;  171.525;    0.000
911.268; 2973.750;  220.525;    0.000
911.444; 2836.750;  202.525;    0.000
911.620; 2851.750;  175.525;    0.000
911.796; 2945.750;  175.525;    0.000
911.972; 2909.750;  164.525;    0.000
912.148; 2939.750;  174.525;    0.000
912.324; 2871.750;  155.525;    0.000
912.500; 2990.750;  156.525;    0.000
912.676; 2955.750;  138.525;    0.000
912.851; 2917.750;  158.525;    0.000
913.027; 2846.750;  161.525;    0.000
913.203; 2966.750;  168.525;    0.000
913.379; 2918.750;  172.525;    0.000
913.555; 2982.750;  193.525;    0.000
913.730; 2831.750;  149.525;    0.000
913.906; 2776.750;  159.525;    0.000
914.082; 2910.750;  184.525;    0.000
914.258; 2840.750;  194.525;    0.000
914.433; 2844.750;  175.525;    0.000
914.609; 2790.750;  175.525;    0.000
914.784; 2777.750;  170.525;    0.000
914.960; 2850.750;  212.525;    0.000
915.136; 2821.750;  157.525;    0.000
915.311; 2853.750;  204.525;    0.000
915.487; 2906.750;  180.525;    0.000
915.662; 2969.750;  203.525;    0.000
915.838; 2916.750;  194.525;    0.000
916.013; 2953.750;  217.525;    0.000
916.189; 2939.750;  196.525;    0.000
916.364; 2966.750;  236.525;    0.000
916.539; 2877.750;  192.525;    0.000
916.715; 2919.750;  181.525;    0.000
916.890; 2849.750;  185.525;    0.000
917.065; 2912.750;  166.525;    0.000
917.240; 2842.750;  182.525;    0.000
917.416; 2881.750;  188.525;    0.000
917.591; 2868.750;  185.525;    0.000
917.766; 2895.750;  187.525;    0.000
917.941; 2905.750;  181.525;    0.000
918.116; 2834.750;  207.525;    0.000
918.292; 2921.750;  140.525;    0.000
918.467; 2893.750;  187.525;    0.000
918.642; 2852.750;  208.525;    0.000
918.817; 2899.750;  203.525;    0.000
918.992; 2926.750;  162.525;    0.000
919.167; 2861.750;  206.525;    0.000
919.342; 2873.750;  188.525;    0.000
919.517; 2897.750;  190.525;    0.000
919.692; 2932.750;  174.525;    0.000
919.867; 2970.750;  181.525;    0.000
920.041; 2983.750;  179.525;    0.000
920.216; 3011.750;  186.525;    0.000
920.391; 3153.750;  209.525;    0.000
920.566; 3057.750;  205.525;    0.000
920.741; 3282.750;  205.525;    0.000
920.915; 3312.750;  206.525;    0.000
921.090; 3664.750;  219.525;    0.000
921.265; 4425.750;  185.525;    0.000
921.439; 4841.750;  171.525;    0.000
921.614; 4416.750;  197.525;    0.000
921.789; 3913.750;  189.525;    0.000
921.963; 3787.750;  210.525;    0.000
922.138; 3691.750;  171.525;    0.000
922.312; 3477.750;  194.525;    0.000
922.487; 3571.750;  231.525;    0.000
922.661; 3747.750;  179.525;    0.000
922.836; 4210.750;  213.525;    0.000
923.010; 4404.750;  182.525;    0.000
923.185; 3819.750;  239.525;    0.000
923.359; 3646.750;  200.525;    0.000
923.534; 3656.750;  232.525;    0.000
923.708; 3842.750;  221.525;    0.000
923.882; 4035.750;  193.525;    0.000
924.057; 3882.750;  204.525;    0.000
924.231; 3594.750;  172.525;    0.000
924.405; 3639.750;  202.525;    0.000
924.579; 3652.750;  207.525;    0.000
924.753; 3396.750;  167.525;    0.000
924.928; 3484.750;  202.525;    0.000
925.102; 3562.750;  200.525;    0.000
925.276; 3644.750;  185.525;    0.000
925.450; 3641.750;  170.525;    0.000
925.624; 3741.750;  176.525;    0.000
925.798; 3899.750;  221.525;    0.000
925.972; 4054.750;  162.525;    0.000
926.146; 4457.750;  207.525;    0.000
926.320; 4929.750;  185.525;    0.000
926.494; 5437.750;  192.525;    0.000
926.668; 5690.750;  179.525;    0.000
926.842; 6026.750;  181.525;    0.000
927.016; 5845.750;  224.525;    0.000
927.190; 5701.750;  193.525;    0.000
927.363; 5345.750;  194.525;    0.000
927.537; 5264.750;  210.525;    0.000
927.711; 5096.750;  153.525;    0.000
927.885; 4903.750;  184.525;    0.000
928.058; 4729.750;  197.525;    0.000
928.232; 4609.750;  219.525;    0.000
928.406; 4415.750;  175.525;    0.000
928.579; 4307.750;  179.525;    0.000
928.753; 4290.750;  208.525;    0.000
928.927; 4095.750;  163.525;    0.000
929.100; 3973.750;  138.525;    0.000
929.274; 3908.750;  160.525;    0.000
929.447; 3762.750;  152.525;    0.000
929.621; 3806.750;  168.525;    0.000
929.794; 3722.750;  152.525;    0.000
929.968; 3661.750;  163.525;    0.000
930.141; 3707.750;  164.525;    0.000
930.315; 3626.750;  170.525;    0.000
930.488; 3438.750;  216.525;    0.000
930.661; 3486.750;  184.525;    0.000
930.835; 3353.750;  156.525;    0.000
931.008; 3270.750;  206.525;    0.000
931.181; 3270.750;  163.525;    0.000
931.354; 3240.750;  198.525;    0.000
931.528; 3220.750;  156.525;    0.000
931.701; 3263.750;  170.525;    0.000
931.874; 3132.750;  167.525;    0.000
932.047; 3192.750;  146.525;    0.000
932.220; 3169.750;  159.525;    0.000
932.393; 2979.750;  186.525;    0.000
932.566; 3074.750;  147.525;    0.000
932.739; 2997.750;  192.525;    0.000
932.912; 3019.750;  197.525;    0.000
933.085; 2987.750;  176.525;    0.000
933.258; 3080.750;  171.525;    0.000
933.431; 2958.750;  150.525;    0.000
933.604; 2971.750;  176.525;    0.000
933.777; 2934.750;  215.525;    0.000
933.950; 2876.750;  164.525;    0.000
934.123; 2881.750;  174.525;    0.000
934.296; 2798.750;  203.525;    0.000
934.468; 2812.750;  208.525;    0.000
934.641; 2814.750;  182.525;    0.000
934.814; 2857.750;  170.525;    0.000
934.987; 2853.750;  183.525;    0.000
935.159; 2820.750;  154.525;    0.000
935.332; 2787.750;  178.525;    0.000
935.505; 2932.750;  213.525;    0.000
935.677; 2721.750;  173.525;    0.000
935.850; 2805.750;  190.525;    0.000
936.022; 2791.750;  205.525;    0.000
936.195; 2858.750;  201.525;    0.000
936.367; 2879.750;  189.525;    0.000
936.540; 2853.750;  179.525;    0.000
936.712; 3005.750;  195.525;    0.000
936.885; 2896.750;  207.525;    0.000
937.057; 2904.750;  163.525;    0.000
937.229; 2924.750;  175.525;    0.000
937.402; 3101.750;  168.525;    0.000
937.574; 3063.750;  136.525;    0.000
937.746; 3111.750;  166.525;    0.000
937.919; 3231.750;  178.525;    0.000
938.091; 3381.750;  192.525;    0.000
938.263; 3605.750;  164.525;    0.000
938.435; 3986.750;  204.525;    0.000
938.608; 4674.750;  153.525;    0.000
938.780; 5716.750;  159.525;    0.000
938.952; 5843.750;  160.525;    0.000
939.124; 5927.750;  156.525;    0.000
939.296; 6932.750;  110.525;    0.000
939.468; 7300.750;  135.525;    0.000
939.640; 6147.750;  144.525;    0.000
939.812; 5578.750;  232.525;    0.000
939.984; 4850.750;  128.525;    0.000
940.156; 4511.750;  195.525;    0.000
940.328; 4191.750;  226.525;    0.000
940.500; 3942.750;  146.525;    0.000
940.672; 3774.750;  190.525;    0.000
940.843; 3552.750;  156.525;    0.000
941.015; 3520.750;  200.525;    0.000
941.187; 3360.750;  159.525;    0.000
941.359; 3454.750;  183.525;    0.000
941.531; 3126.750;  137.525;    0.000
941.702; 3159.750;  186.525;    0.000
941.874; 3155.750;  164.525;    0.000
942.046; 3003.750;  202.525;    0.000
942.217; 3044.750;  146.525;    0.000
942.389; 2974.750;  165.525;    0.000
942.560; 2952.750;  191.525;    0.000
942.732; 2852.750;  240.525;    0.000
942.904; 2804.750;  173.525;    0.000
943.075; 2697.750;  157.525;    0.000
943.247; 2690.750;  155.525;    0.000
943.418; 2625.750;  164.525;    0.000
943.589; 2623.750;  150.525;    0.000
943.761; 2775.750;  143.525;    0.000
943.932; 2585.750;  151.525;    0.000
944.104; 2756.750;  194.525;    0.000
944.275; 2513.750;  154.525;    0.000
944.446; 2476.750;  169.525;    0.000
944.617; 2518.750;  138.525;    0.000
944.789; 2499.750;  158.525;    0.000
944.960; 2451.750;  197.525;    0.000
945.131; 2471.750;  139.525;    0.000
945.302; 2499.750;  169.525;    0.000
945.473; 2454.750;  149.525;    0.000
945.645; 2516.750;  171.525;    0.000
945.816; 2560.750;  167.525;    0.000
945.987; 2682.750;  156.525;    0.000
946.158; 2732.750;  185.525;    0.000
946.329; 2642.750;  201.525;    0.000
946.500; 2557.750;  182.525;    0.000
946.671; 2543.750;  156.525;    0.000
946.842; 2552.750;  190.525;    0.000
947.013; 2403.750;  159.525;    0.000
947.183; 2492.750;  209.525;    0.000
947.354; 2331.750;  171.525;    0.000
947.525; 2296.750;  180.525;    0.000
947.696; 2385.750;  163.525;    0.000
947.867; 2362.750;  168.525;    0.000
948.037; 2307.750;  153.525;    0.000
948.208; 2448.750;  178.525;    0.000
948.379; 2419.750;  192.525;    0.000
948.550; 2403.750;  180.525;    0.000
948.720; 2422.750;  196.525;    0.000
948.891; 2332.750;  173.525;    0.000
949.061; 2353.750;  207.525;    0.000
949.232; 2248.750;  176.525;    0.000
949.403; 2238.750;  152.525;    0.000
949.573; 2278.750;  186.525;    0.000
949.744; 2321.750;  181.525;    0.000
949.914; 2345.750;  174.525;    0.000
950.085; 2239.750;  146.525;    0.000
950.255; 2338.750;  162.525;    0.000
950.425; 2330.750;  189.525;    0.000
950.596; 2259.750;  175.525;    0.000
950.766; 2283.750;  209.525;    0.000
950.936; 2314.750;  201.525;    0.000
951.107; 2298.750;  141.525;    0.000
951.277; 2258.750;  211.525;    0.000
951.447; 2220.750;  218.525;    0.000
951.617; 2320.750;  191.525;    0.000
951.788; 2190.750;  193.525;    0.000
951.958; 2172.750;  217.525;    0.000
952.128; 2124.750;  192.525;    0.000
952.298; 2181.750;  237.525;    0.000
952.468; 2215.750;  194.525;    0.000
952.638; 2146.750;  201.525;    0.000
952.808; 2147.750;  203.525;    0.000
952.978; 2159.750;  216.525;    0.000
953.148; 2147.750;  209.525;    0.000
953.318; 2142.750;  213.525;    0.000
953.488; 2080.750;  161.525;    0.000
953.658; 2170.750;  222.525;    0.000
953.828; 2076.750;  196.525;    0.000
953.998; 2086.750;  227.525;    0.000
954.167; 2118.750;  163.525;    0.000
954.337; 2017.750;  201.525;    0.000
954.507; 2032.750;  227.525;    0.000
954.677; 2069.750;  204.525;    0.000
954.846; 2184.750;  210.525;    0.000
955.016; 2076.750;  198.525;    0.000
955.186; 2059.750;  203.525;    0.000
955.355; 2067.750;  198.525;    0.000
955.525; 2005.750;  198.525;    0.000
955.695; 1997.750;  187.525;    0.000
955.864; 2069.750;  243.525;    0.000
956.034; 1942.750;  192.525;    0.000
956.203; 1998.750;  259.525;    0.000
956.373; 1975.750;  185.525;    0.000
956.542; 2039.750;  230.525;    0.000
956.711; 2009.750;  218.525;    0.000
956.881; 1968.750;  232.525;    0.000
957.050; 2040.750;  246.525;    0.000
957.220; 1938.750;  229.525;    0.000
957.389; 1952.750;  211.525;    0.000
957.558; 1907.750;  173.525;    0.000
957.727; 2007.750;  226.525;    0.000
957.897; 1885.750;  209.525;    0.000
958.066; 1952.750;  217.525;    0.000
958.235; 1907.750;  160.525;    0.000
958.404; 1930.750;  199.525;    0.000
958.573; 1952.750;  223.525;    0.000
958.743; 1865.750;  189.525;    0.000
958.912; 1999.750;  199.525;    0.000
959.081; 1902.750;  216.525;    0.000
959.250; 1820.750;  192.525;    0.000
959.419; 1955.750;  216.525;    0.000
959.588; 1871.750;  209.525;    0.000
959.757; 1850.750;  194.525;    0.000
959.926; 1842.750;  200.525;    0.000
960.094; 1903.750;  174.525;    0.000
960.263; 1772.750;  218.525;    0.000
960.432; 1830.750;  173.525;    0.000
960.601; 1874.750;  177.525;    0.000
960.770; 1822.750;  188.525;    0.000
960.939; 1850.750;  167.525;    0.000
961.107; 1805.750;  195.525;    0.000
961.276; 1786.750;  183.525;    0.000
961.445; 1800.750;  195.525;    0.000
961.613; 1796.750;  198.525;    0.000
961.782; 1774.750;  224.525;    0.000
961.951; 1837.750;  178.525;    0.000
962.119; 1826.750;  214.525;    0.000
962.288; 1825.750;  174.525;    0.000
962.456; 1807.750;  197.525;    0.000
962.625; 1752.750;  212.525;    0.000
962.793; 1851.750;  183.525;    0.000
962.962; 1860.750;  189.525;    0.000
963.130; 1741.750;  151.525;    0.000
963.298; 1836.750;  197.525;    0.000
963.467; 1755.750;  202.525;    0.000
963.635; 1800.750;  172.525;    0.000
963.803; 1829.750;  203.525;    0.000
963.972; 1787.750;  204.525;    0.000
964.140; 1809.750;  193.525;    0.000
964.308; 1756.750;  159.525;    0.000
964.477; 1799.750;  142.525;    0.000
964.645; 1725.750;  202.525;    0.000
964.813; 1802.750;  158.525;    0.000
964.981; 1933.750;  179.525;    0.000
965.149; 1855.750;  176.525;    0.000
965.317; 1800.750;  229.525;    0.000
965.485; 1749.750;  179.525;    0.000
965.653; 1748.750;  205.525;    0.000
965.821; 1775.750;  196.525;    0.000
965.989; 1786.750;  202.525;    0.000
966.157; 1751.750;  199.525;    0.000
966.325; 1819.750;  178.525;    0.000
966.493; 1771.750;  177.525;    0.000
966.661; 1794.750;  172.525;    0.000
966.829; 1752.750;  167.525;    0.000
966.996; 1838.750;  202.525;    0.000
967.164; 1786.750;  175.525;    0.000
967.332; 1772.750;  207.525;    0.000
967.500; 1812.750;  170.525;    0.000
967.667; 1817.750;  222.525;    0.000
967.835; 1824.750;  245.525;    0.000
968.003; 1820.750;  180.525;    0.000
968.170; 1929.750;  222.525;    0.000
968.338; 1809.750;  183.525;    0.000
968.505; 1815.750;  197.525;    0.000
968.673; 1815.750;  209.525;    0.000
968.841; 1739.750;  162.525;    0.000
969.008; 1795.750;  187.525;    0.000
969.175; 1705.750;  204.525;    0.000
969.343; 1774.750;  157.525;    0.000
969.510; 1794.750;  189.525;    0.000
969.678; 1790.750;  153.525;    0.000
969.845; 1778.750;  190.525;    0.000
970.012; 1737.750;  162.525;    0.000
970.180; 1812.750;  223.525;    0.000
970.347; 1712.750;  195.525;    0.000
970.514; 1714.750;  185.525;    0.000
970.681; 1676.750;  187.525;    0.000
970.849; 1717.750;  183.525;    0.000
971.016; 1733.750;  168.525;    0.000
971.183; 1735.750;  160.525;    0.000
971.350; 1766.750;  193.525;    0.000
971.517; 1733.750;  202.525;    0.000
971.684; 1757.750;  242.525;    0.000
971.851; 1701.750;  192.525;    0.000
972.018; 1732.750;  194.525;    0.000
972.185; 1714.750;  193.525;    0.000
972.352; 1727.750;  187.525;    0.000
972.519; 1731.750;  233.525;    0.000
972.686; 1761.750;  186.525;    0.000
972.853; 1671.750;  165.525;    0.000
973.020; 1672.750;  183.525;    0.000
973.186; 1724.750;  186.525;    0.000
973.353; 1694.750;  177.525;    0.000
973.520; 1741.750;  203.525;    0.000
973.687; 1694.750;  211.525;    0.000
973.853; 1671.750;  194.525;    0.000
974.020; 1715.750;  201.525;    0.000
974.187; 1706.750;  187.525;    0.000
974.353; 1765.750;  188.525;    0.000
974.520; 1728.750;  136.525;    0.000
974.687; 1682.750;  169.525;    0.000
974.853; 1782.750;  207.525;    0.000
975.020; 1654.750;  190.525;    0.000
975.186; 1617.750;  182.525;    0.000
975.353; 1707.750;  202.525;    0.000
975.519; 1674.750;  189.525;    0.000
975.685; 1684.750;  176.525;    0.000
975.852; 1654.750;  175.525;    0.000
976.018; 1707.750;  155.525;    0.000
976.184; 1758.750;  179.525;    0.000
976.351; 1782.750;  191.525;    0.000
976.517; 1717.750;  246.525;    0.000
976.683; 1726.750;  222.525;    0.000
976.849; 1704.750;  216.525;    0.000
977.016; 1724.750;  212.525;    0.000
977.182; 1656.750;  192.525;    0.000
977.348; 1635.750;  145.525;    0.000
977.514; 1644.750;  195.525;    0.000
977.680; 1683.750;  210.525;    0.000
977.846; 1653.750;  172.525;    0.000
978.012; 1747.750;  190.525;    0.000
978.178; 1650.750;  201.525;    0.000
978.344; 1693.750;  190.525;    0.000
978.510; 1610.750;  199.525;    0.000
978.676; 1703.750;  174.525;    0.000
978.842; 1634.750;  195.525;    0.000
979.008; 1628.750;  205.525;    0.000
979.174; 1693.750;  187.525;    0.000
979.340; 1692.750;  194.525;    0.000
979.505; 1688.750;  221.525;    0.000
979.671; 1676.750;  178.525;    0.000
979.837; 1723.750;  215.525;    0.000
980.003; 1641.750;  176.525;    0.000
980.168; 1675.750;  185.525;    0.000
980.334; 1741.750;  165.525;    0.000
980.499; 1683.750;  231.525;    0.000
980.665; 1708.750;  238.525;    0.000
980.831; 1651.750;  194.525;    0.000
980.996; 1634.750;  169.525;    0.000
981.162; 1733.750;  199.525;    0.000
981.327; 1678.750;  158.525;    0.000
981.493; 1655.750;  193.525;    0.000
981.658; 1710.750;  181.525;    0.000
981.823; 1656.750;  199.525;    0.000
981.989; 1713.750;  186.525;    0.000
982.154; 1728.750;  225.525;    0.000
982.319; 1740.750;  191.525;    0.000
982.485; 1730.750;  205.525;    0.000
982.650; 1803.750;  234.525;    0.000
982.815; 1707.750;  193.525;    0.000
982.980; 1731.750;  177.525;    0.000
983.146; 1649.750;  212.525;    0.000
983.311; 1716.750;  177.525;    0.000
983.476; 1706.750;  185.525;    0.000
983.641; 1704.750;  149.525;    0.000
983.806; 1674.750;  175.525;    0.000
983.971; 1679.750;  234.525;    0.000
984.136; 1747.750;  191.525;    0.000
984.301; 1702.750;  215.525;    0.000
984.466; 1643.750;  207.525;    0.000
984.631; 1708.750;  206.525;    0.000
984.796; 1632.750;  229.525;    0.000
984.961; 1664.750;  220.525;    0.000
985.126; 1700.750;  204.525;    0.000
985.291; 1650.750;  210.525;    0.000
985.455; 1707.750;  193.525;    0.000
985.620; 1651.750;  207.525;    0.000
985.785; 1611.750;  188.525;    0.000
985.950; 1593.750;  168.525;    0.000
986.114; 1670.750;  239.525;    0.000
986.279; 1702.750;  223.525;    0.000
986.444; 1722.750;  154.525;    0.000
986.608; 1744.750;  232.525;    0.000
986.773; 1771.750;  214.525;    0.000
986.937; 1806.750;  220.525;    0.000
987.102; 1776.750;  224.525;    0.000
987.266; 1768.750;  157.525;    0.000
987.431; 1759.750;  246.525;    0.000
987.595; 1760.750;  203.525;    0.000
987.760; 1698.750;  202.525;    0.000
987.924; 1705.750;  208.525;    0.000
988.088; 1689.750;  169.525;    0.000
988.253; 1702.750;  237.525;    0.000
988.417; 1787.750;  202.525;    0.000
988.581; 1662.750;  215.525;    0.000
988.746; 1633.750;  210.525;    0.000
988.910; 1627.750;  191.525;    0.000
989.074; 1646.750;  197.525;    0.000
989.238; 1706.750;  191.525;    0.000
989.402; 1628.750;  222.525;    0.000
989.566; 1631.750;  221.525;    0.000
989.731; 1728.750;  216.525;    0.000
989.895; 1616.750;  183.525;    0.000
990.059; 1598.750;  150.525;    0.000
990.223; 1607.750;  183.525;    0.000
990.387; 1656.750;  241.525;    0.000
990.551; 1633.750;  198.525;    0.000
990.714; 1585.750;  176.525;    0.000
990.878; 1622.750;  203.525;    0.000
991.042; 1592.750;  146.525;    0.000
991.206; 1577.750;  199.525;    0.000
991.370; 1587.750;  223.525;    0.000
991.534; 1595.750;  158.525;    0.000
991.697; 1620.750;  182.525;    0.000
991.861; 1573.750;  195.525;    0.000
992.025; 1635.750;  206.525;    0.000
992.188; 1534.750;  174.525;    0.000
992.352; 1510.750;  183.525;    0.000
992.516; 1573.750;  181.525;    0.000
992.679; 1533.750;  162.525;    0.000
992.843; 1558.750;  173.525;    0.000
993.006; 1558.750;  189.525;    0.000
993.170; 1640.750;  200.525;    0.000
993.333; 1519.750;  167.525;    0.000
993.497; 1585.750;  217.525;    0.000
993.660; 1608.750;  179.525;    0.000
993.824; 1566.750;  195.525;    0.000
993.987; 1669.750;  186.525;    0.000
994.150; 1462.750;  164.525;    0.000
994.314; 1543.750;  215.525;    0.000
994.477; 1539.750;  186.525;    0.000
994.640; 1512.750;  192.525;    0.000
994.803; 1569.750;  215.525;    0.000
994.967; 1584.750;  208.525;    0.000
995.130; 1590.750;  196.525;    0.000
995.293; 1480.750;  221.525;    0.000
995.456; 1583.750;  164.525;    0.000
995.619; 1569.750;  224.525;    0.000
995.782; 1475.750;  184.525;    0.000
995.945; 1542.750;  220.525;    0.000
996.108; 1587.750;  187.525;    0.000
996.271; 1526.750;  192.525;    0.000
996.434; 1569.750;  162.525;    0.000
996.597; 1474.750;  148.525;    0.000
996.760; 1568.750;  186.525;    0.000
996.923; 1468.750;  154.525;    0.000
997.086; 1562.750;  156.525;    0.000
997.248; 1621.750;  215.525;    0.000
997.411; 1512.750;  160.525;    0.000
997.574; 1477.750;  159.525;    0.000
997.737; 1519.750;  179.525;    0.000
997.899; 1512.750;  184.525;    0.000
998.062; 1559.750;  180.525;    0.000
998.225; 1483.750;  168.525;    0.000
998.387; 1539.750;  192.525;    0.000
998.550; 1406.750;  178.525;    0.000
998.712; 1503.750;  192.525;    0.000
998.875; 1536.750;  230.525;    0.000
999.037; 1514.750;  200.525;    0.000
999.200; 1586.750;  196.525;    0.000
999.362; 1502.750;  173.525;    0.000
999.525; 1484.750;  196.525;    0.000
999.687; 1483.750;  159.525;    0.000
999.849; 1484.750;  180.525;    0.000
1000.012; 1542.750;  210.525;    0.000
1000.174; 1460.750;  175.525;    0.000
1000.336; 1499.750;  174.525;    0.000
1000.499; 1520.750;  180.525;    0.000
1000.661; 1529.750;  204.525;    0.000
1000.823; 1488.750;  181.525;    0.000
1000.985; 1585.750;  178.525;    0.000
1001.147; 1550.750;  215.525;    0.000
1001.309; 1555.750;  212.525;    0.000
1001.471; 1533.750;  192.525;    0.000
1001.633; 1575.750;  207.525;    0.000
1001.796; 1549.750;  211.525;    0.000
1001.958; 1602.750;  200.525;    0.000
1002.119; 1600.750;  210.525;    0.000
1002.281; 1669.750;  204.525;    0.000
1002.443; 1722.750;  230.525;    0.000
1002.605; 1729.750;  178.525;    0.000
1002.767; 1804.750;  228.525;    0.000
1002.929; 1803.750;  199.525;    0.000
1003.091; 1811.750;  220.525;    0.000
1003.252; 1952.750;  219.525;    0.000
1003.414; 2051.750;  213.525;    0.000
1003.576; 2015.750;  202.525;    0.000
1003.738; 2082.750;  184.525;    0.000
1003.899; 2114.750;  218.525;    0.000
1004.061; 2191.750;  210.525;    0.000
1004.222; 2252.750;  179.525;    0.000
1004.384; 2286.750;  183.525;    0.000
1004.546; 2348.750;  206.525;    0.000
1004.707; 2346.750;  191.525;    0.000
1004.869; 2326.750;  197.525;    0.000
1005.030; 2357.750;  186.525;    0.000
1005.191; 2336.750;  188.525;    0.000
1005.353; 2247.750;  215.525;    0.000
1005.514; 2198.750;  184.525;    0.000
1005.675; 2198.750;  209.525;    0.000
1005.837; 2045.750;  239.525;    0.000
1005.998; 2041.750;  218.525;    0.000
1006.159; 2064.750;  212.525;    0.000
1006.321; 2152.750;  220.525;    0.000
1006.482; 2144.750;  201.525;    0.000
1006.643; 2247.750;  222.525;    0.000
1006.804; 2177.750;  191.525;    0.000
1006.965; 2245.750;  214.525;    0.000
1007.126; 2293.750;  214.525;    0.000
1007.287; 2347.750;  243.525;    0.000
1007.448; 2324.750;  251.525;    0.000
1007.609; 2309.750;  244.525;    0.000
1007.770; 2231.750;  211.525;    0.000
1007.931; 2237.750;  225.525;    0.000
1008.092; 2206.750;  188.525;    0.000
1008.253; 2299.750;  224.525;    0.000
1008.414; 2377.750;  198.525;    0.000
1008.575; 2364.750;  244.525;    0.000
1008.736; 2339.750;  219.525;    0.000
1008.896; 2344.750;  206.525;    0.000
1009.057; 2410.750;  258.525;    0.000
1009.218; 2259.750;  209.525;    0.000
1009.379; 2391.750;  204.525;    0.000
1009.539; 2394.750;  242.525;    0.000
1009.700; 2503.750;  205.525;    0.000
1009.860; 2612.750;  211.525;    0.000
1010.021; 2456.750;  219.525;    0.000
1010.182; 2474.750;  206.525;    0.000
1010.342; 2520.750;  219.525;    0.000
1010.503; 2696.750;  231.525;    0.000
1010.663; 2775.750;  260.525;    0.000
1010.823; 2883.750;  200.525;    0.000
1010.984; 2992.750;  189.525;    0.000
1011.144; 3057.750;  234.525;    0.000
1011.305; 3177.750;  212.525;    0.000
1011.465; 3416.750;  202.525;    0.000
1011.625; 3378.750;  236.525;    0.000
1011.785; 3449.750;  203.525;    0.000
1011.946; 3401.750;  195.525;    0.000
1012.106; 3271.750;  176.525;    0.000
1012.266; 3269.750;  211.525;    0.000
1012.426; 3176.750;  244.525;    0.000
1012.586; 3295.750;  202.525;    0.000
1012.746; 3225.750;  234.525;    0.000
1012.906; 3074.750;  246.525;    0.000
1013.066; 3157.750;  232.525;    0.000
1013.226; 3053.750;  248.525;    0.000
1013.386; 3106.750;  231.525;    0.000
1013.546; 2967.750;  233.525;    0.000
1013.706; 2904.750;  211.525;    0.000
1013.866; 3005.750;  240.525;    0.000
1014.026; 2957.750;  188.525;    0.000
1014.186; 2816.750;  186.525;    0.000
1014.346; 2858.750;  203.525;    0.000
1014.505; 3025.750;  238.525;    0.000
1014.665; 2979.750;  206.525;    0.000
1014.825; 2819.750;  200.525;    0.000
1014.985; 2841.750;  215.525;    0.000
1015.144; 2978.750;  250.525;    0.000
1015.304; 3061.750;  195.525;    0.000
1015.464; 2996.750;  237.525;    0.000
1015.623; 2956.750;  232.525;    0.000
1015.783; 3229.750;  220.525;    0.000
1015.942; 3316.750;  219.525;    0.000
1016.102; 3189.750;  202.525;    0.000
1016.261; 3305.750;  225.525;    0.000
1016.420; 3407.750;  246.525;    0.000
1016.580; 3671.750;  226.525;    0.000
1016.739; 3433.750;  214.525;    0.000
1016.899; 3381.750;  205.525;    0.000
1017.058; 3603.750;  217.525;    0.000
1017.217; 3760.750;  199.525;    0.000
1017.376; 3466.750;  219.525;    0.000
1017.536; 3247.750;  209.525;    0.000
1017.695; 3285.750;  213.525;    0.000
1017.854; 3510.750;  187.525;    0.000
1018.013; 3273.750;  222.525;    0.000
1018.172; 3150.750;  204.525;    0.000
1018.331; 3208.750;  195.525;    0.000
1018.490; 3405.750;  213.525;    0.000
1018.649; 3536.750;  216.525;    0.000
1018.808; 3519.750;  227.525;    0.000
1018.967; 3404.750;  206.525;    0.000
1019.126; 3575.750;  206.525;    0.000
1019.285; 3641.750;  219.525;    0.000
1019.444; 3505.750;  218.525;    0.000
1019.603; 3476.750;  206.525;    0.000
1019.762; 3269.750;  189.525;    0.000
1019.921; 3430.750;  217.525;    0.000
1020.079; 3427.750;  200.525;    0.000
1020.238; 3633.750;  219.525;    0.000
1020.397; 3531.750;  227.525;    0.000
1020.555; 3313.750;  207.525;    0.000
1020.714; 3428.750;  253.525;    0.000
1020.873; 3662.750;  230.525;    0.000
1021.031; 3661.750;  232.525;    0.000
1021.190; 3396.750;  226.525;    0.000
1021.348; 3369.750;  224.525;    0.000
1021.507; 3595.750;  215.525;    0.000
1021.665; 3834.750;  233.525;    0.000
1021.824; 3663.750;  196.525;    0.000
1021.982; 3353.750;  215.525;    0.000
1022.141; 3407.750;  200.525;    0.000
1022.299; 3854.750;  200.525;    0.000
1022.457; 3904.750;  179.525;    0.000
1022.616; 3662.750;  226.525;    0.000
1022.774; 3387.750;  216.525;    0.000
1022.932; 3624.750;  212.525;    0.000
1023.090; 3994.750;  220.525;    0.000
1023.249; 3905.750;  194.525;    0.000
1023.407; 3722.750;  227.525;    0.000
1023.565; 3394.750;  190.525;    0.000
1023.723; 3617.750;  190.525;    0.000
1023.881; 4008.750;  214.525;    0.000
1024.039; 4007.750;  179.525;    0.000
1024.197; 3736.750;  274.525;    0.000
1024.355; 3512.750;  269.525;    0.000
1024.513; 3721.750;  259.525;    0.000
1024.671; 4133.750;  211.525;    0.000
1024.829; 4070.750;  230.525;    0.000
1024.987; 3851.750;  239.525;    0.000
1025.145; 3495.750;  231.525;    0.000
1025.302; 3623.750;  212.525;    0.000
1025.460; 3939.750;  224.525;    0.000
1025.618; 4160.750;  217.525;    0.000
1025.776; 3924.750;  232.525;    0.000
1025.933; 3632.750;  212.525;    0.000
1026.091; 3672.750;  214.525;    0.000
1026.249; 4004.750;  224.525;    0.000
1026.406; 4301.750;  219.525;    0.000
1026.564; 4093.750;  262.525;    0.000
1026.721; 3743.750;  206.525;    0.000
1026.879; 3599.750;  227.525;    0.000
1027.036; 4145.750;  234.525;    0.000
1027.194; 4145.750;  256.525;    0.000
1027.351; 4279.750;  229.525;    0.000
1027.509; 3920.750;  253.525;    0.000
1027.666; 3792.750;  248.525;    0.000
1027.823; 4001.750;  215.525;    0.000
1027.981; 4131.750;  248.525;    0.000
1028.138; 4344.750;  257.525;    0.000
1028.295; 4055.750;  215.525;    0.000
1028.452; 3855.750;  236.525;    0.000
1028.609; 3951.750;  240.525;    0.000
1028.767; 4264.750;  258.525;    0.000
1028.924; 4325.750;  211.525;    0.000
1029.081; 4226.750;  226.525;    0.000
1029.238; 4150.750;  228.525;    0.000
1029.395; 4018.750;  264.525;    0.000
1029.552; 4113.750;  227.525;    0.000
1029.709; 4437.750;  232.525;    0.000
1029.866; 4452.750;  223.525;    0.000
1030.023; 4180.750;  220.525;    0.000
1030.180; 3914.750;  222.525;    0.000
1030.337; 3971.750;  224.525;    0.000
1030.494; 4129.750;  228.525;    0.000
1030.650; 4415.750;  242.525;    0.000
1030.807; 4637.750;  214.525;    0.000
1030.964; 4204.750;  207.525;    0.000
1031.121; 4140.750;  236.525;    0.000
1031.277; 4031.750;  206.525;    0.000
1031.434; 4354.750;  249.525;    0.000
1031.591; 4721.750;  253.525;    0.000
1031.747; 4451.750;  240.525;    0.000
1031.904; 4517.750;  212.525;    0.000
1032.060; 4214.750;  185.525;    0.000
1032.217; 4142.750;  201.525;    0.000
1032.373; 4835.750;  207.525;    0.000
1032.530; 4924.750;  226.525;    0.000
1032.686; 5307.750;  226.525;    0.000
1032.843; 5150.750;  203.525;    0.000
1032.999; 4902.750;  233.525;    0.000
1033.155; 4934.750;  232.525;    0.000
1033.312; 5155.750;  239.525;    0.000
1033.468; 5816.750;  207.525;    0.000
1033.624; 6242.750;  238.525;    0.000
1033.780; 6650.750;  255.525;    0.000
1033.937; 6296.750;  188.525;    0.000
1034.093; 5952.750;  244.525;    0.000
1034.249; 5859.750;  182.525;    0.000
1034.405; 5896.750;  251.525;    0.000
1034.561; 6566.750;  250.525;    0.000
1034.717; 6803.750;  208.525;    0.000
1034.873; 6907.750;  210.525;    0.000
1035.029; 7100.750;  245.525;    0.000
1035.185; 6669.750;  230.525;    0.000
1035.341; 6326.750;  209.525;    0.000
1035.497; 6838.750;  244.525;    0.000
1035.653; 7096.750;  229.525;    0.000
1035.809; 7639.750;  275.525;    0.000
1035.964; 8211.750;  203.525;    0.000
1036.120; 7820.750;  215.525;    0.000
1036.276; 7796.750;  228.525;    0.000
1036.432; 7339.750;  183.525;    0.000
1036.587; 7276.750;  214.525;    0.000
1036.743; 7632.750;  240.525;    0.000
1036.899; 8163.750;  202.525;    0.000
1037.054; 8433.750;  182.525;    0.000
1037.210; 9348.750;  228.525;    0.000
1037.365; 9201.750;  239.525;    0.000
1037.521; 8931.750;  230.525;    0.000
1037.676; 8552.750;  217.525;    0.000
1037.832; 8149.750;  235.525;    0.000
1037.987; 8243.750;  210.525;    0.000
1038.143; 8061.750;  206.525;    0.000
1038.298; 9318.750;  177.525;    0.000
1038.453; 9215.750;  215.525;    0.000
1038.609;10035.750;  210.525;    0.000
1038.764;10340.750;  227.525;    0.000
1038.919; 9559.750;  197.525;    0.000
1039.074; 9632.750;  183.525;    0.000
1039.229; 8836.750;  218.525;    0.000
1039.385; 9000.750;  251.525;    0.000
1039.540; 8929.750;  222.525;    0.000
1039.695;10002.750;  215.525;    0.000
1039.850;10813.750;  204.525;    0.000
1040.005;11257.750;  241.525;    0.000
1040.160;11937.750;  180.525;    0.000
1040.315;11525.750;  197.525;    0.000
1040.470;10996.750;  180.525;    0.000
1040.625;10753.750;  196.525;    0.000
1040.780;10267.750;  245.525;    0.000
1040.935;10015.750;  204.525;    0.000
1041.089;10653.750;  213.525;    0.000
1041.244;12501.750;  200.525;    0.000
1041.399;12913.750;  212.525;    0.000
1041.554;13596.750;  239.525;    0.000
1041.708;14986.750;  238.525;    0.000
1041.863;14601.750;  213.525;    0.000
1042.018;14023.750;  236.525;    0.000
1042.172;13583.750;  238.525;    0.000
1042.327;12861.750;  254.525;    0.000
1042.481;12930.750;  197.525;    0.000
1042.636;13369.750;  205.525;    0.000
1042.791;13870.750;  218.525;    0.000
1042.945;16408.750;  261.525;    0.000
1043.099;17587.750;  201.525;    0.000
1043.254;16704.750;  191.525;    0.000
1043.408;17937.750;  279.525;    0.000
1043.563;18526.750;  203.525;    0.000
1043.717;17837.750;  229.525;    0.000
1043.871;16448.750;  213.525;    0.000
1044.025;16465.750;  240.525;    0.000
1044.180;16263.750;  220.525;    0.000
1044.334;16630.750;  268.525;    0.000
1044.488;17093.750;  261.525;    0.000
1044.642;17127.750;  205.525;    0.000
1044.796;19263.750;  240.525;    0.000
1044.950;21456.750;  258.525;    0.000
1045.104;23010.750;  218.525;    0.000
1045.258;23181.750;  213.525;    0.000
1045.412;23042.750;  223.525;    0.000
1045.566;22572.750;  240.525;    0.000
1045.720;21513.750;  235.525;    0.000
1045.874;19780.750;  221.525;    0.000
1046.028;18799.750;  247.525;    0.000
1046.182;18798.750;  200.525;    0.000
1046.336;19387.750;  220.525;    0.000
1046.489;19931.750;  228.525;    0.000
1046.643;20463.750;  249.525;    0.000
1046.797;21928.750;  230.525;    0.000
1046.951;22840.750;  234.525;    0.000
1047.104;23972.750;  262.525;    0.000
1047.258;24400.750;  210.525;    0.000
1047.411;25522.750;  235.525;    0.000
1047.565;25139.750;  237.525;    0.000
1047.719;24327.750;  237.525;    0.000
1047.872;23565.750;  225.525;    0.000
1048.026;23205.750;  237.525;    0.000
1048.179;22396.750;  220.525;    0.000
1048.332;22484.750;  219.525;    0.000
1048.486;22156.750;  195.525;    0.000
1048.639;22583.750;  213.525;    0.000
1048.792;22483.750;  245.525;    0.000
1048.946;24495.750;  234.525;    0.000
1049.099;27125.750;  226.525;    0.000
1049.252;26455.750;  282.525;    0.000
1049.406;25890.750;  255.525;    0.000
1049.559;27826.750;  223.525;    0.000
1049.712;31154.750;  253.525;    0.000
1049.865;31161.750;  271.525;    0.000
1050.018;29940.750;  241.525;    0.000
1050.171;27510.750;  202.525;    0.000
1050.324;27262.750;  250.525;    0.000
1050.477;29182.750;  251.525;    0.000
1050.630;29829.750;  216.525;    0.000
1050.783;30407.750;  205.525;    0.000
1050.936;28154.750;  219.525;    0.000
1051.089;27830.750;  247.525;    0.000
1051.242;29626.750;  238.525;    0.000
1051.394;32407.750;  252.525;    0.000
1051.547;34126.750;  245.525;    0.000
1051.700;30940.750;  206.525;    0.000
1051.853;30724.750;  270.525;    0.000
1052.005;31982.750;  245.525;    0.000
1052.158;34082.750;  290.525;    0.000
1052.311;38018.750;  237.525;    0.000
1052.463;35915.750;  271.525;    0.000
1052.616;31969.750;  255.525;    0.000
1052.768;30196.750;  257.525;    0.000
1052.921;29830.750;  289.525;    0.000
1053.073;31476.750;  287.525;    0.000
1053.226;35286.750;  268.525;    0.000
1053.378;39807.750;  294.525;    0.000
1053.531;41445.750;  255.525;    0.000
1053.683;39314.750;  293.525;    0.000
1053.835;33723.750;  274.525;    0.000
1053.988;27786.750;  282.525;    0.000
1054.140; 5156.750;  291.525;    0.000
1054.292; 1245.750;  292.525;    0.000
1054.444;  974.750;  299.525;    0.000
1054.596;  916.750;  319.525;    0.000
1054.749;  804.750;  295.525;    0.000
1054.901;  773.750;  266.525;    0.000
1055.053;  755.750;  300.525;    0.000
1055.205;  718.750;  290.525;    0.000
1055.357;  713.750;  304.525;    0.000
1055.509;  647.750;  292.525;    0.000
1055.661;  655.750;  339.525;    0.000
1055.813;  616.750;  306.525;    0.000
1055.965;  646.750;  293.525;    0.000
1056.116;  615.750;  300.525;    0.000
1056.268;  636.750;  306.525;    0.000
1056.420;  632.750;  288.525;    0.000

