
Integration time [ms]:   0.300
Averaging Nr. [scans]: 1
Smoothing Nr. [pixels]: 0
Data measured with spectrometer [name]: UV2
Wave   ;Sample   ;Dark     ;Reference
[nm]   ;[counts] ;[counts] ;[counts] 

353.533;  229.925;  178.050;    0.000
353.597;  223.925;  251.050;    0.000
353.660;  177.925;  213.050;    0.000
353.723;  198.925;  185.050;    0.000
353.786;  169.925;  191.050;    0.000
353.850;  208.925;  238.050;    0.000
353.913;  197.925;  181.050;    0.000
353.976;  222.925;  190.050;    0.000
354.039;  207.925;  184.050;    0.000
354.102;  222.925;  231.050;    0.000
354.166;  250.925;  188.050;    0.000
354.229;  202.925;  224.050;    0.000
354.292;  159.925;  186.050;    0.000
354.355;  185.925;  175.050;    0.000
354.418;  195.925;  191.050;    0.000
354.481;  225.925;  181.050;    0.000
354.545;  747.925;  193.050;    0.000
354.608;  777.925;  210.050;    0.000
354.671;  814.925;  183.050;    0.000
354.734;  773.925;  189.050;    0.000
354.797;  856.925;  168.050;    0.000
354.860;  799.925;  178.050;    0.000
354.923;  836.925;  236.050;    0.000
354.986;  861.925;  181.050;    0.000
355.050;  844.925;  168.050;    0.000
355.113;  888.925;  201.050;    0.000
355.176;  905.925;  206.050;    0.000
355.239;  934.925;  213.050;    0.000
355.302;  932.925;  198.050;    0.000
355.365;  912.925;  199.050;    0.000
355.428; 1016.925;  200.050;    0.000
355.491; 1004.925;  232.050;    0.000
355.554;  959.925;  184.050;    0.000
355.617;  926.925;  214.050;    0.000
355.680;  954.925;  191.050;    0.000
355.743; 1056.925;  161.050;    0.000
355.806;  986.925;  153.050;    0.000
355.869; 1053.925;  221.050;    0.000
355.932;  989.925;  152.050;    0.000
355.995; 1057.925;  195.050;    0.000
356.058; 1012.925;  172.050;    0.000
356.121; 1097.925;  186.050;    0.000
356.184; 1082.925;  196.050;    0.000
356.247; 1082.925;  183.050;    0.000
356.310;  998.925;  159.050;    0.000
356.373; 1062.925;  183.050;    0.000
356.436; 1020.925;  176.050;    0.000
356.498; 1063.925;  191.050;    0.000
356.561; 1035.925;  145.050;    0.000
356.624; 1093.925;  187.050;    0.000
356.687; 1111.925;  181.050;    0.000
356.750; 1158.925;  227.050;    0.000
356.813; 1097.925;  147.050;    0.000
356.876; 1103.925;  184.050;    0.000
356.939; 1028.925;  141.050;    0.000
357.001; 1177.925;  188.050;    0.000
357.064; 1105.925;  173.050;    0.000
357.127; 1072.925;  159.050;    0.000
357.190; 1147.925;  185.050;    0.000
357.253; 1140.925;  180.050;    0.000
357.316; 1138.925;  199.050;    0.000
357.378; 1152.925;  196.050;    0.000
357.441; 1158.925;  175.050;    0.000
357.504; 1127.925;  164.050;    0.000
357.567; 1116.925;  145.050;    0.000
357.629; 1125.925;  205.050;    0.000
357.692; 1116.925;  175.050;    0.000
357.755; 1159.925;  205.050;    0.000
357.818; 1173.925;  141.050;    0.000
357.880; 1174.925;  170.050;    0.000
357.943; 1154.925;  152.050;    0.000
358.006; 1158.925;  145.050;    0.000
358.069; 1139.925;  164.050;    0.000
358.131; 1190.925;  148.050;    0.000
358.194; 1159.925;  122.050;    0.000
358.257; 1183.925;  147.050;    0.000
358.319; 1157.925;  156.050;    0.000
358.382; 1187.925;  193.050;    0.000
358.445; 1177.925;  155.050;    0.000
358.507; 1219.925;  160.050;    0.000
358.570; 1125.925;  159.050;    0.000
358.633; 1118.925;  163.050;    0.000
358.695; 1249.925;  174.050;    0.000
358.758; 1212.925;  127.050;    0.000
358.821; 1233.925;  165.050;    0.000
358.883; 1162.925;  145.050;    0.000
358.946; 1211.925;  127.050;    0.000
359.008; 1196.925;  180.050;    0.000
359.071; 1204.925;  173.050;    0.000
359.134; 1188.925;  150.050;    0.000
359.196; 1203.925;  158.050;    0.000
359.259; 1161.925;  159.050;    0.000
359.321; 1182.925;  159.050;    0.000
359.384; 1272.925;  182.050;    0.000
359.446; 1214.925;  140.050;    0.000
359.509; 1291.925;  146.050;    0.000
359.571; 1274.925;  133.050;    0.000
359.634; 1207.925;   93.050;    0.000
359.696; 1160.925;  142.050;    0.000
359.759; 1347.925;  161.050;    0.000
359.821; 1249.925;  110.050;    0.000
359.884; 1253.925;  114.050;    0.000
359.946; 1273.925;  180.050;    0.000
360.009; 1216.925;  158.050;    0.000
360.071; 1181.925;  116.050;    0.000
360.134; 1322.925;  170.050;    0.000
360.196; 1320.925;  128.050;    0.000
360.259; 1340.925;  157.050;    0.000
360.321; 1296.925;  122.050;    0.000
360.384; 1322.925;  119.050;    0.000
360.446; 1277.925;  122.050;    0.000
360.508; 1368.925;  195.050;    0.000
360.571; 1312.925;  128.050;    0.000
360.633; 1346.925;  172.050;    0.000
360.696; 1289.925;  115.050;    0.000
360.758; 1304.925;  162.050;    0.000
360.820; 1280.925;  149.050;    0.000
360.883; 1318.925;  151.050;    0.000
360.945; 1333.925;  149.050;    0.000
361.007; 1318.925;  135.050;    0.000
361.070; 1288.925;  162.050;    0.000
361.132; 1302.925;  198.050;    0.000
361.194; 1337.925;  141.050;    0.000
361.257; 1362.925;  154.050;    0.000
361.319; 1361.925;  147.050;    0.000
361.381; 1402.925;  154.050;    0.000
361.443; 1383.925;  144.050;    0.000
361.506; 1376.925;  164.050;    0.000
361.568; 1255.925;  148.050;    0.000
361.630; 1350.925;  127.050;    0.000
361.693; 1377.925;  158.050;    0.000
361.755; 1405.925;  161.050;    0.000
361.817; 1434.925;  173.050;    0.000
361.879; 1315.925;  159.050;    0.000
361.941; 1357.925;  153.050;    0.000
362.004; 1356.925;  148.050;    0.000
362.066; 1318.925;  150.050;    0.000
362.128; 1343.925;  132.050;    0.000
362.190; 1365.925;  207.050;    0.000
362.252; 1412.925;  142.050;    0.000
362.315; 1338.925;  153.050;    0.000
362.377; 1313.925;  164.050;    0.000
362.439; 1389.925;  155.050;    0.000
362.501; 1360.925;  157.050;    0.000
362.563; 1436.925;  188.050;    0.000
362.625; 1357.925;  194.050;    0.000
362.688; 1400.925;  159.050;    0.000
362.750; 1396.925;  205.050;    0.000
362.812; 1362.925;  148.050;    0.000
362.874; 1382.925;  173.050;    0.000
362.936; 1406.925;  152.050;    0.000
362.998; 1406.925;  145.050;    0.000
363.060; 1402.925;  184.050;    0.000
363.122; 1433.925;  147.050;    0.000
363.184; 1447.925;  136.050;    0.000
363.246; 1437.925;  171.050;    0.000
363.308; 1383.925;  154.050;    0.000
363.370; 1457.925;  175.050;    0.000
363.432; 1418.925;  139.050;    0.000
363.494; 1509.925;  163.050;    0.000
363.556; 1378.925;  117.050;    0.000
363.618; 1453.925;  126.050;    0.000
363.680; 1326.925;  147.050;    0.000
363.742; 1451.925;  161.050;    0.000
363.804; 1446.925;  159.050;    0.000
363.866; 1433.925;  170.050;    0.000
363.928; 1434.925;  122.050;    0.000
363.990; 1475.925;  167.050;    0.000
364.052; 1439.925;  180.050;    0.000
364.114; 1439.925;  119.050;    0.000
364.176; 1464.925;  184.050;    0.000
364.238; 1437.925;  180.050;    0.000
364.300; 1481.925;  159.050;    0.000
364.362; 1443.925;  163.050;    0.000
364.424; 1383.925;  139.050;    0.000
364.486; 1532.925;  189.050;    0.000
364.548; 1482.925;  167.050;    0.000
364.609; 1504.925;  165.050;    0.000
364.671; 1449.925;  171.050;    0.000
364.733; 1413.925;  165.050;    0.000
364.795; 1440.925;  122.050;    0.000
364.857; 1421.925;  147.050;    0.000
364.919; 1376.925;  104.050;    0.000
364.981; 1452.925;  143.050;    0.000
365.042; 1456.925;  166.050;    0.000
365.104; 1438.925;  162.050;    0.000
365.166; 1364.925;  155.050;    0.000
365.228; 1432.925;  179.050;    0.000
365.290; 1442.925;  133.050;    0.000
365.351; 1470.925;  142.050;    0.000
365.413; 1465.925;  144.050;    0.000
365.475; 1430.925;  139.050;    0.000
365.537; 1500.925;  181.050;    0.000
365.598; 1437.925;  166.050;    0.000
365.660; 1433.925;  130.050;    0.000
365.722; 1516.925;  177.050;    0.000
365.784; 1493.925;  149.050;    0.000
365.845; 1494.925;  156.050;    0.000
365.907; 1426.925;  122.050;    0.000
365.969; 1504.925;  140.050;    0.000
366.030; 1478.925;  156.050;    0.000
366.092; 1416.925;  140.050;    0.000
366.154; 1475.925;  169.050;    0.000
366.215; 1567.925;  170.050;    0.000
366.277; 1546.925;  143.050;    0.000
366.339; 1515.925;  139.050;    0.000
366.400; 1538.925;  139.050;    0.000
366.462; 1473.925;  140.050;    0.000
366.524; 1443.925;  150.050;    0.000
366.585; 1519.925;  163.050;    0.000
366.647; 1507.925;  193.050;    0.000
366.708; 1497.925;  135.050;    0.000
366.770; 1586.925;  165.050;    0.000
366.832; 1519.925;  168.050;    0.000
366.893; 1537.925;  157.050;    0.000
366.955; 1427.925;  132.050;    0.000
367.016; 1564.925;  127.050;    0.000
367.078; 1499.925;  146.050;    0.000
367.139; 1547.925;  129.050;    0.000
367.201; 1452.925;  148.050;    0.000
367.262; 1493.925;  165.050;    0.000
367.324; 1514.925;  171.050;    0.000
367.385; 1411.925;  118.050;    0.000
367.447; 1545.925;  144.050;    0.000
367.508; 1592.925;  135.050;    0.000
367.570; 1542.925;  160.050;    0.000
367.631; 1553.925;  157.050;    0.000
367.693; 1531.925;  168.050;    0.000
367.754; 1470.925;  139.050;    0.000
367.816; 1548.925;  141.050;    0.000
367.877; 1567.925;  195.050;    0.000
367.939; 1610.925;  166.050;    0.000
368.000; 1533.925;  127.050;    0.000
368.062; 1541.925;  143.050;    0.000
368.123; 1598.925;  156.050;    0.000
368.184; 1555.925;  179.050;    0.000
368.246; 1531.925;  168.050;    0.000
368.307; 1490.925;  203.050;    0.000
368.369; 1512.925;  149.050;    0.000
368.430; 1597.925;  121.050;    0.000
368.491; 1555.925;  131.050;    0.000
368.553; 1575.925;  161.050;    0.000
368.614; 1533.925;  157.050;    0.000
368.675; 1594.925;  152.050;    0.000
368.737; 1576.925;  168.050;    0.000
368.798; 1551.925;  147.050;    0.000
368.859; 1617.925;  174.050;    0.000
368.921; 1550.925;  168.050;    0.000
368.982; 1559.925;  151.050;    0.000
369.043; 1556.925;  169.050;    0.000
369.104; 1643.925;  149.050;    0.000
369.166; 1582.925;  178.050;    0.000
369.227; 1619.925;  149.050;    0.000
369.288; 1515.925;  131.050;    0.000
369.349; 1610.925;  128.050;    0.000
369.411; 1565.925;  198.050;    0.000
369.472; 1535.925;  156.050;    0.000
369.533; 1581.925;  142.050;    0.000
369.594; 1661.925;  125.050;    0.000
369.656; 1619.925;  153.050;    0.000
369.717; 1556.925;  124.050;    0.000
369.778; 1625.925;  163.050;    0.000
369.839; 1626.925;  130.050;    0.000
369.900; 1632.925;  170.050;    0.000
369.961; 1527.925;  142.050;    0.000
370.023; 1578.925;  197.050;    0.000
370.084; 1616.925;  151.050;    0.000
370.145; 1637.925;  128.050;    0.000
370.206; 1612.925;  152.050;    0.000
370.267; 1621.925;  154.050;    0.000
370.328; 1599.925;  154.050;    0.000
370.389; 1674.925;  173.050;    0.000
370.451; 1674.925;  191.050;    0.000
370.512; 1670.925;  155.050;    0.000
370.573; 1648.925;  134.050;    0.000
370.634; 1687.925;  160.050;    0.000
370.695; 1631.925;  124.050;    0.000
370.756; 1649.925;  169.050;    0.000
370.817; 1683.925;  169.050;    0.000
370.878; 1656.925;  200.050;    0.000
370.939; 1611.925;  157.050;    0.000
371.000; 1627.925;  131.050;    0.000
371.061; 1618.925;  136.050;    0.000
371.122; 1743.925;  176.050;    0.000
371.183; 1634.925;   81.050;    0.000
371.244; 1695.925;  156.050;    0.000
371.305; 1673.925;  131.050;    0.000
371.366; 1687.925;  161.050;    0.000
371.427; 1619.925;  127.050;    0.000
371.488; 1641.925;  184.050;    0.000
371.549; 1653.925;  159.050;    0.000
371.610; 1674.925;  147.050;    0.000
371.671; 1645.925;  132.050;    0.000
371.732; 1653.925;  163.050;    0.000
371.793; 1664.925;  179.050;    0.000
371.853; 1598.925;  179.050;    0.000
371.914; 1725.925;  149.050;    0.000
371.975; 1590.925;  117.050;    0.000
372.036; 1666.925;  141.050;    0.000
372.097; 1686.925;  101.050;    0.000
372.158; 1703.925;  115.050;    0.000
372.219; 1668.925;  174.050;    0.000
372.280; 1673.925;  134.050;    0.000
372.340; 1819.925;  180.050;    0.000
372.401; 1689.925;  166.050;    0.000
372.462; 1699.925;  171.050;    0.000
372.523; 1662.925;  132.050;    0.000
372.584; 1630.925;  182.050;    0.000
372.645; 1677.925;  149.050;    0.000
372.705; 1730.925;  182.050;    0.000
372.766; 1735.925;  145.050;    0.000
372.827; 1679.925;  161.050;    0.000
372.888; 1705.925;  156.050;    0.000
372.948; 1678.925;  158.050;    0.000
373.009; 1711.925;  178.050;    0.000
373.070; 1691.925;  166.050;    0.000
373.131; 1633.925;  154.050;    0.000
373.191; 1760.925;  193.050;    0.000
373.252; 1747.925;  148.050;    0.000
373.313; 1745.925;  152.050;    0.000
373.373; 1703.925;  156.050;    0.000
373.434; 1740.925;  166.050;    0.000
373.495; 1714.925;  152.050;    0.000
373.555; 1681.925;  145.050;    0.000
373.616; 1676.925;  141.050;    0.000
373.677; 1651.925;  169.050;    0.000
373.737; 1694.925;  166.050;    0.000
373.798; 1665.925;  151.050;    0.000
373.859; 1774.925;  170.050;    0.000
373.919; 1748.925;  206.050;    0.000
373.980; 1733.925;  140.050;    0.000
374.041; 1711.925;  148.050;    0.000
374.101; 1738.925;  165.050;    0.000
374.162; 1745.925;  166.050;    0.000
374.222; 1728.925;  156.050;    0.000
374.283; 1762.925;  161.050;    0.000
374.343; 1835.925;  185.050;    0.000
374.404; 1689.925;  148.050;    0.000
374.465; 1748.925;  162.050;    0.000
374.525; 1764.925;  177.050;    0.000
374.586; 1763.925;  164.050;    0.000
374.646; 1771.925;  180.050;    0.000
374.707; 1836.925;  203.050;    0.000
374.767; 1800.925;  148.050;    0.000
374.828; 1700.925;  142.050;    0.000
374.888; 1825.925;  187.050;    0.000
374.949; 1727.925;  137.050;    0.000
375.009; 1778.925;  155.050;    0.000
375.070; 1812.925;  165.050;    0.000
375.130; 1766.925;  168.050;    0.000
375.190; 1762.925;  157.050;    0.000
375.251; 1817.925;  206.050;    0.000
375.311; 1791.925;  141.050;    0.000
375.372; 1806.925;  144.050;    0.000
375.432; 1857.925;  153.050;    0.000
375.493; 1771.925;  168.050;    0.000
375.553; 1736.925;  146.050;    0.000
375.613; 1747.925;  142.050;    0.000
375.674; 1817.925;  153.050;    0.000
375.734; 1814.925;  166.050;    0.000
375.794; 1857.925;  145.050;    0.000
375.855; 1776.925;  162.050;    0.000
375.915; 1825.925;  162.050;    0.000
375.975; 1812.925;  144.050;    0.000
376.036; 1695.925;  128.050;    0.000
376.096; 1756.925;  122.050;    0.000
376.156; 1824.925;  140.050;    0.000
376.217; 1790.925;  158.050;    0.000
376.277; 1868.925;  163.050;    0.000
376.337; 1789.925;  139.050;    0.000
376.398; 1850.925;  176.050;    0.000
376.458; 1762.925;  143.050;    0.000
376.518; 1811.925;  136.050;    0.000
376.578; 1786.925;  177.050;    0.000
376.639; 1822.925;  163.050;    0.000
376.699; 1795.925;  183.050;    0.000
376.759; 1819.925;  169.050;    0.000
376.819; 1775.925;  147.050;    0.000
376.880; 1821.925;  188.050;    0.000
376.940; 1801.925;  185.050;    0.000
377.000; 1805.925;  131.050;    0.000
377.060; 1813.925;  182.050;    0.000
377.120; 1853.925;  165.050;    0.000
377.180; 1838.925;  169.050;    0.000
377.241; 1840.925;  146.050;    0.000
377.301; 1846.925;  183.050;    0.000
377.361; 1800.925;  124.050;    0.000
377.421; 1814.925;  186.050;    0.000
377.481; 1891.925;  178.050;    0.000
377.541; 1810.925;  140.050;    0.000
377.601; 1911.925;  175.050;    0.000
377.661; 1838.925;  169.050;    0.000
377.722; 1839.925;  144.050;    0.000
377.782; 1893.925;  182.050;    0.000
377.842; 1853.925;  161.050;    0.000
377.902; 1895.925;  151.050;    0.000
377.962; 1895.925;  134.050;    0.000
378.022; 1935.925;  153.050;    0.000
378.082; 1890.925;  178.050;    0.000
378.142; 1950.925;  118.050;    0.000
378.202; 1873.925;  153.050;    0.000
378.262; 1961.925;  166.050;    0.000
378.322; 1997.925;  174.050;    0.000
378.382; 1907.925;  148.050;    0.000
378.442; 2023.925;  190.050;    0.000
378.502; 1904.925;  136.050;    0.000
378.562; 1950.925;  130.050;    0.000
378.622; 2016.925;  188.050;    0.000
378.682; 1957.925;  163.050;    0.000
378.742; 1897.925;  150.050;    0.000
378.802; 2030.925;  127.050;    0.000
378.862; 2033.925;  186.050;    0.000
378.921; 1990.925;  203.050;    0.000
378.981; 2066.925;  177.050;    0.000
379.041; 1978.925;  134.050;    0.000
379.101; 1961.925;  167.050;    0.000
379.161; 1944.925;  130.050;    0.000
379.221; 2067.925;  169.050;    0.000
379.281; 2017.925;  162.050;    0.000
379.341; 2081.925;  134.050;    0.000
379.401; 2090.925;  151.050;    0.000
379.460; 2034.925;  190.050;    0.000
379.520; 2085.925;  158.050;    0.000
379.580; 2000.925;  162.050;    0.000
379.640; 2004.925;  146.050;    0.000
379.700; 2053.925;  167.050;    0.000
379.759; 2097.925;  194.050;    0.000
379.819; 1994.925;  176.050;    0.000
379.879; 2066.925;  140.050;    0.000
379.939; 2132.925;  184.050;    0.000
379.999; 2054.925;  165.050;    0.000
380.058; 2128.925;  194.050;    0.000
380.118; 2173.925;  137.050;    0.000
380.178; 2071.925;  139.050;    0.000
380.237; 2048.925;  139.050;    0.000
380.297; 2063.925;  160.050;    0.000
380.357; 2204.925;  194.050;    0.000
380.417; 2108.925;  174.050;    0.000
380.476; 2089.925;  153.050;    0.000
380.536; 2178.925;  169.050;    0.000
380.596; 2155.925;  159.050;    0.000
380.655; 2190.925;  178.050;    0.000
380.715; 2174.925;  196.050;    0.000
380.775; 2164.925;  202.050;    0.000
380.834; 2123.925;  186.050;    0.000
380.894; 2189.925;  167.050;    0.000
380.954; 2157.925;  150.050;    0.000
381.013; 2271.925;  187.050;    0.000
381.073; 2262.925;  114.050;    0.000
381.132; 2217.925;  176.050;    0.000
381.192; 2208.925;  197.050;    0.000
381.252; 2246.925;  172.050;    0.000
381.311; 2275.925;  155.050;    0.000
381.371; 2269.925;  172.050;    0.000
381.430; 2186.925;  143.050;    0.000
381.490; 2318.925;  136.050;    0.000
381.549; 2259.925;  131.050;    0.000
381.609; 2273.925;  203.050;    0.000
381.668; 2340.925;  135.050;    0.000
381.728; 2375.925;  163.050;    0.000
381.787; 2373.925;  195.050;    0.000
381.847; 2365.925;  185.050;    0.000
381.906; 2324.925;  187.050;    0.000
381.966; 2404.925;  153.050;    0.000
382.025; 2399.925;  175.050;    0.000
382.085; 2440.925;  195.050;    0.000
382.144; 2502.925;  210.050;    0.000
382.204; 2560.925;  201.050;    0.000
382.263; 2562.925;  178.050;    0.000
382.323; 2395.925;  151.050;    0.000
382.382; 2468.925;  147.050;    0.000
382.441; 2607.925;  144.050;    0.000
382.501; 2700.925;  156.050;    0.000
382.560; 2779.925;  160.050;    0.000
382.619; 2793.925;  173.050;    0.000
382.679; 2922.925;  167.050;    0.000
382.738; 3103.925;  189.050;    0.000
382.798; 3182.925;  181.050;    0.000
382.857; 3505.925;  161.050;    0.000
382.916; 3768.925;  162.050;    0.000
382.976; 3817.925;  169.050;    0.000
383.035; 3755.925;  174.050;    0.000
383.094; 3787.925;  178.050;    0.000
383.154; 4274.925;  188.050;    0.000
383.213; 4716.925;  162.050;    0.000
383.272; 4638.925;  144.050;    0.000
383.331; 3965.925;  144.050;    0.000
383.391; 3683.925;  198.050;    0.000
383.450; 3529.925;  185.050;    0.000
383.509; 3596.925;  132.050;    0.000
383.568; 3649.925;  171.050;    0.000
383.628; 3838.925;  171.050;    0.000
383.687; 4155.925;  172.050;    0.000
383.746; 4690.925;  144.050;    0.000
383.805; 5572.925;  177.050;    0.000
383.864; 5384.925;  145.050;    0.000
383.924; 4205.925;  203.050;    0.000
383.983; 3597.925;  153.050;    0.000
384.042; 3311.925;  171.050;    0.000
384.101; 3124.925;  186.050;    0.000
384.160; 3044.925;  132.050;    0.000
384.219; 2924.925;  157.050;    0.000
384.279; 2796.925;  166.050;    0.000
384.338; 2701.925;  141.050;    0.000
384.397; 2672.925;  142.050;    0.000
384.456; 2692.925;  155.050;    0.000
384.515; 2648.925;  158.050;    0.000
384.574; 2518.925;  208.050;    0.000
384.633; 2596.925;  158.050;    0.000
384.692; 2564.925;  162.050;    0.000
384.751; 2576.925;  179.050;    0.000
384.810; 2562.925;  150.050;    0.000
384.869; 2453.925;  147.050;    0.000
384.929; 2532.925;  132.050;    0.000
384.988; 2484.925;  166.050;    0.000
385.047; 2476.925;  161.050;    0.000
385.106; 2525.925;  180.050;    0.000
385.165; 2560.925;  123.050;    0.000
385.224; 2600.925;  153.050;    0.000
385.283; 2486.925;  158.050;    0.000
385.342; 2484.925;  184.050;    0.000
385.401; 2534.925;  191.050;    0.000
385.459; 2450.925;  143.050;    0.000
385.518; 2448.925;  152.050;    0.000
385.577; 2395.925;  134.050;    0.000
385.636; 2494.925;  187.050;    0.000
385.695; 2531.925;  141.050;    0.000
385.754; 2503.925;  143.050;    0.000
385.813; 2406.925;  145.050;    0.000
385.872; 2489.925;  116.050;    0.000
385.931; 2507.925;  147.050;    0.000
385.990; 2443.925;  170.050;    0.000
386.049; 2501.925;  189.050;    0.000
386.107; 2437.925;  122.050;    0.000
386.166; 2434.925;  155.050;    0.000
386.225; 2455.925;  173.050;    0.000
386.284; 2473.925;  138.050;    0.000
386.343; 2446.925;  216.050;    0.000
386.402; 2482.925;  162.050;    0.000
386.460; 2495.925;  131.050;    0.000
386.519; 2359.925;  122.050;    0.000
386.578; 2444.925;  140.050;    0.000
386.637; 2399.925;  169.050;    0.000
386.696; 2417.925;  176.050;    0.000
386.754; 2403.925;  127.050;    0.000
386.813; 2419.925;  138.050;    0.000
386.872; 2422.925;  135.050;    0.000
386.931; 2435.925;  170.050;    0.000
386.989; 2392.925;  167.050;    0.000
387.048; 2507.925;  131.050;    0.000
387.107; 2479.925;  176.050;    0.000
387.165; 2409.925;  139.050;    0.000
387.224; 2399.925;  150.050;    0.000
387.283; 2462.925;  169.050;    0.000
387.342; 2487.925;  191.050;    0.000
387.400; 2429.925;  131.050;    0.000
387.459; 2374.925;  139.050;    0.000
387.517; 2477.925;  214.050;    0.000
387.576; 2427.925;  146.050;    0.000
387.635; 2443.925;  161.050;    0.000
387.693; 2414.925;  197.050;    0.000
387.752; 2389.925;  159.050;    0.000
387.811; 2378.925;  144.050;    0.000
387.869; 2445.925;  172.050;    0.000
387.928; 2439.925;  160.050;    0.000
387.986; 2353.925;  192.050;    0.000
388.045; 2320.925;  121.050;    0.000
388.103; 2411.925;  129.050;    0.000
388.162; 2424.925;  169.050;    0.000
388.221; 2451.925;  171.050;    0.000
388.279; 2304.925;  135.050;    0.000
388.338; 2470.925;  222.050;    0.000
388.396; 2387.925;  168.050;    0.000
388.455; 2438.925;  178.050;    0.000
388.513; 2331.925;  151.050;    0.000
388.572; 2430.925;  147.050;    0.000
388.630; 2305.925;  158.050;    0.000
388.689; 2365.925;  163.050;    0.000
388.747; 2271.925;  180.050;    0.000
388.806; 2373.925;  119.050;    0.000
388.864; 2429.925;  159.050;    0.000
388.922; 2470.925;  152.050;    0.000
388.981; 2324.925;  125.050;    0.000
389.039; 2425.925;  151.050;    0.000
389.098; 2370.925;  151.050;    0.000
389.156; 2420.925;  175.050;    0.000
389.214; 2429.925;  133.050;    0.000
389.273; 2380.925;  142.050;    0.000
389.331; 2386.925;  179.050;    0.000
389.390; 2331.925;  179.050;    0.000
389.448; 2286.925;  159.050;    0.000
389.506; 2464.925;  140.050;    0.000
389.565; 2364.925;  160.050;    0.000
389.623; 2445.925;  181.050;    0.000
389.681; 2347.925;  181.050;    0.000
389.740; 2361.925;  187.050;    0.000
389.798; 2338.925;  163.050;    0.000
389.856; 2414.925;  185.050;    0.000
389.914; 2344.925;  170.050;    0.000
389.973; 2429.925;  150.050;    0.000
390.031; 2418.925;  149.050;    0.000
390.089; 2435.925;  191.050;    0.000
390.147; 2367.925;  126.050;    0.000
390.206; 2290.925;  174.050;    0.000
390.264; 2302.925;  164.050;    0.000
390.322; 2411.925;  150.050;    0.000
390.380; 2459.925;  137.050;    0.000
390.439; 2323.925;  176.050;    0.000
390.497; 2419.925;  188.050;    0.000
390.555; 2389.925;  143.050;    0.000
390.613; 2385.925;  174.050;    0.000
390.671; 2397.925;  208.050;    0.000
390.729; 2441.925;  135.050;    0.000
390.788; 2397.925;  169.050;    0.000
390.846; 2412.925;  173.050;    0.000
390.904; 2420.925;  176.050;    0.000
390.962; 2352.925;  179.050;    0.000
391.020; 2470.925;  201.050;    0.000
391.078; 2516.925;  192.050;    0.000
391.136; 2370.925;  170.050;    0.000
391.194; 2394.925;  163.050;    0.000
391.253; 2432.925;  203.050;    0.000
391.311; 2347.925;  170.050;    0.000
391.369; 2392.925;  191.050;    0.000
391.427; 2437.925;  226.050;    0.000
391.485; 2411.925;  181.050;    0.000
391.543; 2398.925;  177.050;    0.000
391.601; 2427.925;  150.050;    0.000
391.659; 2474.925;  201.050;    0.000
391.717; 2478.925;  166.050;    0.000
391.775; 2507.925;  200.050;    0.000
391.833; 2529.925;  180.050;    0.000
391.891; 2449.925;  172.050;    0.000
391.949; 2445.925;  174.050;    0.000
392.007; 2515.925;  194.050;    0.000
392.065; 2451.925;  161.050;    0.000
392.123; 2478.925;  159.050;    0.000
392.180; 2542.925;  193.050;    0.000
392.238; 2498.925;  188.050;    0.000
392.296; 2521.925;  206.050;    0.000
392.354; 2463.925;  170.050;    0.000
392.412; 2537.925;  207.050;    0.000
392.470; 2463.925;  168.050;    0.000
392.528; 2491.925;  185.050;    0.000
392.586; 2446.925;  154.050;    0.000
392.644; 2389.925;  190.050;    0.000
392.701; 2506.925;  195.050;    0.000
392.759; 2519.925;  229.050;    0.000
392.817; 2537.925;  176.050;    0.000
392.875; 2441.925;  198.050;    0.000
392.933; 2642.925;  174.050;    0.000
392.991; 2551.925;  237.050;    0.000
393.048; 2519.925;  212.050;    0.000
393.106; 2512.925;  191.050;    0.000
393.164; 2480.925;  136.050;    0.000
393.222; 2553.925;  164.050;    0.000
393.279; 2637.925;  208.050;    0.000
393.337; 2641.925;  203.050;    0.000
393.395; 2596.925;  191.050;    0.000
393.453; 2566.925;  153.050;    0.000
393.510; 2582.925;  171.050;    0.000
393.568; 2532.925;  203.050;    0.000
393.626; 2570.925;  169.050;    0.000
393.684; 2500.925;  201.050;    0.000
393.741; 2573.925;  172.050;    0.000
393.799; 2567.925;  149.050;    0.000
393.857; 2572.925;  151.050;    0.000
393.914; 2605.925;  192.050;    0.000
393.972; 2598.925;  176.050;    0.000
394.030; 2626.925;  165.050;    0.000
394.087; 2571.925;  192.050;    0.000
394.145; 2556.925;  183.050;    0.000
394.202; 2538.925;  161.050;    0.000
394.260; 2657.925;  135.050;    0.000
394.318; 2569.925;  188.050;    0.000
394.375; 2585.925;  163.050;    0.000
394.433; 2568.925;  151.050;    0.000
394.490; 2601.925;  190.050;    0.000
394.548; 2550.925;  157.050;    0.000
394.605; 2654.925;  205.050;    0.000
394.663; 2646.925;  173.050;    0.000
394.720; 2660.925;  171.050;    0.000
394.778; 2660.925;  190.050;    0.000
394.836; 2583.925;  134.050;    0.000
394.893; 2611.925;  142.050;    0.000
394.951; 2649.925;  192.050;    0.000
395.008; 2638.925;  149.050;    0.000
395.065; 2566.925;  194.050;    0.000
395.123; 2667.925;  160.050;    0.000
395.180; 2627.925;  178.050;    0.000
395.238; 2610.925;  191.050;    0.000
395.295; 2749.925;  160.050;    0.000
395.353; 2677.925;  162.050;    0.000
395.410; 2713.925;  165.050;    0.000
395.468; 2747.925;  190.050;    0.000
395.525; 2705.925;  173.050;    0.000
395.582; 2774.925;  161.050;    0.000
395.640; 2728.925;  200.050;    0.000
395.697; 2814.925;  198.050;    0.000
395.754; 2767.925;  136.050;    0.000
395.812; 2700.925;  172.050;    0.000
395.869; 2813.925;  172.050;    0.000
395.927; 2708.925;  145.050;    0.000
395.984; 2709.925;  220.050;    0.000
396.041; 2729.925;  137.050;    0.000
396.098; 2738.925;  161.050;    0.000
396.156; 2700.925;  159.050;    0.000
396.213; 2654.925;  200.050;    0.000
396.270; 2790.925;  209.050;    0.000
396.328; 2746.925;  162.050;    0.000
396.385; 2761.925;  186.050;    0.000
396.442; 2806.925;  177.050;    0.000
396.499; 2695.925;  183.050;    0.000
396.557; 2829.925;  182.050;    0.000
396.614; 2857.925;  186.050;    0.000
396.671; 2740.925;  144.050;    0.000
396.728; 2741.925;  176.050;    0.000
396.785; 2791.925;  169.050;    0.000
396.843; 2796.925;  134.050;    0.000
396.900; 2804.925;  184.050;    0.000
396.957; 2824.925;  197.050;    0.000
397.014; 2746.925;  187.050;    0.000
397.071; 2871.925;  186.050;    0.000
397.128; 2788.925;  200.050;    0.000
397.186; 2896.925;  175.050;    0.000
397.243; 2810.925;  154.050;    0.000
397.300; 2799.925;  191.050;    0.000
397.357; 2813.925;  238.050;    0.000
397.414; 2934.925;  161.050;    0.000
397.471; 2844.925;  135.050;    0.000
397.528; 2871.925;  158.050;    0.000
397.585; 2833.925;  159.050;    0.000
397.642; 2888.925;  180.050;    0.000
397.699; 2767.925;  170.050;    0.000
397.756; 2902.925;  175.050;    0.000
397.814; 2839.925;  182.050;    0.000
397.871; 2908.925;  173.050;    0.000
397.928; 2916.925;  173.050;    0.000
397.985; 2871.925;  176.050;    0.000
398.042; 2889.925;  189.050;    0.000
398.099; 2807.925;  160.050;    0.000
398.156; 2906.925;  218.050;    0.000
398.212; 2888.925;  194.050;    0.000
398.269; 2953.925;  199.050;    0.000
398.326; 2980.925;  188.050;    0.000
398.383; 2955.925;  187.050;    0.000
398.440; 2945.925;  174.050;    0.000
398.497; 2926.925;  214.050;    0.000
398.554; 3012.925;  181.050;    0.000
398.611; 3002.925;  195.050;    0.000
398.668; 2959.925;  145.050;    0.000
398.725; 2960.925;  178.050;    0.000
398.782; 2957.925;  210.050;    0.000
398.839; 3112.925;  216.050;    0.000
398.895; 3031.925;  189.050;    0.000
398.952; 3151.925;  206.050;    0.000
399.009; 3164.925;  142.050;    0.000
399.066; 3092.925;  192.050;    0.000
399.123; 3104.925;  181.050;    0.000
399.180; 3197.925;  200.050;    0.000
399.236; 3179.925;  156.050;    0.000
399.293; 3250.925;  194.050;    0.000
399.350; 3316.925;  167.050;    0.000
399.407; 3310.925;  192.050;    0.000
399.463; 3362.925;  161.050;    0.000
399.520; 3353.925;  149.050;    0.000
399.577; 3473.925;  156.050;    0.000
399.634; 3416.925;  195.050;    0.000
399.690; 3363.925;  163.050;    0.000
399.747; 3433.925;  192.050;    0.000
399.804; 3292.925;  212.050;    0.000
399.861; 3396.925;  203.050;    0.000
399.917; 3390.925;  221.050;    0.000
399.974; 3395.925;  221.050;    0.000
400.031; 3420.925;  195.050;    0.000
400.087; 3372.925;  159.050;    0.000
400.144; 3324.925;  201.050;    0.000
400.201; 3317.925;  206.050;    0.000
400.257; 3279.925;  168.050;    0.000
400.314; 3308.925;  183.050;    0.000
400.370; 3304.925;  209.050;    0.000
400.427; 3338.925;  192.050;    0.000
400.484; 3084.925;  150.050;    0.000
400.540; 3193.925;  213.050;    0.000
400.597; 3182.925;  161.050;    0.000
400.653; 3222.925;  170.050;    0.000
400.710; 3195.925;  173.050;    0.000
400.766; 3278.925;  204.050;    0.000
400.823; 3112.925;  194.050;    0.000
400.879; 3201.925;  188.050;    0.000
400.936; 3145.925;  172.050;    0.000
400.993; 3191.925;  154.050;    0.000
401.049; 3147.925;  157.050;    0.000
401.105; 3240.925;  214.050;    0.000
401.162; 3276.925;  195.050;    0.000
401.218; 3196.925;  195.050;    0.000
401.275; 3219.925;  182.050;    0.000
401.331; 3125.925;  188.050;    0.000
401.388; 3180.925;  194.050;    0.000
401.444; 3174.925;  175.050;    0.000
401.501; 3196.925;  169.050;    0.000
401.557; 3095.925;  176.050;    0.000
401.614; 3142.925;  153.050;    0.000
401.670; 3274.925;  178.050;    0.000
401.726; 3207.925;  179.050;    0.000
401.783; 3262.925;  198.050;    0.000
401.839; 3187.925;  179.050;    0.000
401.895; 3185.925;  154.050;    0.000
401.952; 3133.925;  138.050;    0.000
402.008; 3155.925;  135.050;    0.000
402.064; 3265.925;  154.050;    0.000
402.121; 3269.925;  199.050;    0.000
402.177; 3224.925;  126.050;    0.000
402.233; 3184.925;  190.050;    0.000
402.290; 3169.925;  175.050;    0.000
402.346; 3250.925;  200.050;    0.000
402.402; 3224.925;  191.050;    0.000
402.458; 3192.925;  172.050;    0.000
402.515; 3264.925;  186.050;    0.000
402.571; 3206.925;  189.050;    0.000
402.627; 3247.925;  151.050;    0.000
402.683; 3278.925;  187.050;    0.000
402.740; 3174.925;  147.050;    0.000
402.796; 3240.925;  176.050;    0.000
402.852; 3255.925;  200.050;    0.000
402.908; 3293.925;  201.050;    0.000
402.964; 3291.925;  153.050;    0.000
403.021; 3211.925;  165.050;    0.000
403.077; 3202.925;  195.050;    0.000
403.133; 3217.925;  139.050;    0.000
403.189; 3308.925;  166.050;    0.000
403.245; 3355.925;  194.050;    0.000
403.301; 3383.925;  210.050;    0.000
403.357; 3315.925;  187.050;    0.000
403.414; 3300.925;  195.050;    0.000
403.470; 3358.925;  150.050;    0.000
403.526; 3311.925;  158.050;    0.000
403.582; 3329.925;  184.050;    0.000
403.638; 3415.925;  171.050;    0.000
403.694; 3330.925;  197.050;    0.000
403.750; 3317.925;  196.050;    0.000
403.806; 3393.925;  192.050;    0.000
403.862; 3384.925;  169.050;    0.000
403.918; 3345.925;  199.050;    0.000
403.974; 3371.925;  156.050;    0.000
404.030; 3304.925;  193.050;    0.000
404.086; 3334.925;  161.050;    0.000
404.142; 3320.925;  172.050;    0.000
404.198; 3316.925;  195.050;    0.000
404.254; 3399.925;  167.050;    0.000
404.310; 3428.925;  156.050;    0.000
404.366; 3325.925;  144.050;    0.000
404.422; 3332.925;  161.050;    0.000
404.478; 3426.925;  179.050;    0.000
404.534; 3381.925;  163.050;    0.000
404.590; 3340.925;  183.050;    0.000
404.646; 3340.925;  155.050;    0.000
404.701; 3434.925;  142.050;    0.000
404.757; 3515.925;  175.050;    0.000
404.813; 3370.925;  153.050;    0.000
404.869; 3466.925;  199.050;    0.000
404.925; 3314.925;  153.050;    0.000
404.981; 3455.925;  174.050;    0.000
405.037; 3389.925;  185.050;    0.000
405.092; 3393.925;  166.050;    0.000
405.148; 3391.925;  161.050;    0.000
405.204; 3369.925;  170.050;    0.000
405.260; 3435.925;  154.050;    0.000
405.316; 3448.925;  128.050;    0.000
405.371; 3320.925;  142.050;    0.000
405.427; 3355.925;  196.050;    0.000
405.483; 3414.925;  172.050;    0.000
405.539; 3511.925;  182.050;    0.000
405.594; 3466.925;  153.050;    0.000
405.650; 3412.925;  124.050;    0.000
405.706; 3345.925;  189.050;    0.000
405.761; 3527.925;  165.050;    0.000
405.817; 3375.925;  152.050;    0.000
405.873; 3445.925;  174.050;    0.000
405.928; 3476.925;  167.050;    0.000
405.984; 3456.925;  210.050;    0.000
406.040; 3525.925;  160.050;    0.000
406.095; 3535.925;  163.050;    0.000
406.151; 3462.925;  208.050;    0.000
406.207; 3438.925;  177.050;    0.000
406.262; 3488.925;  176.050;    0.000
406.318; 3524.925;  157.050;    0.000
406.374; 3495.925;  141.050;    0.000
406.429; 3467.925;  189.050;    0.000
406.485; 3585.925;  190.050;    0.000
406.540; 3576.925;  155.050;    0.000
406.596; 3554.925;  182.050;    0.000
406.651; 3631.925;  200.050;    0.000
406.707; 3581.925;  130.050;    0.000
406.763; 3696.925;  174.050;    0.000
406.818; 3566.925;  151.050;    0.000
406.874; 3617.925;  122.050;    0.000
406.929; 3809.925;  153.050;    0.000
406.985; 3698.925;  198.050;    0.000
407.040; 3744.925;  174.050;    0.000
407.095; 3759.925;  161.050;    0.000
407.151; 3772.925;  184.050;    0.000
407.206; 3824.925;  188.050;    0.000
407.262; 3819.925;  180.050;    0.000
407.317; 3852.925;  186.050;    0.000
407.373; 3945.925;  200.050;    0.000
407.428; 3816.925;  211.050;    0.000
407.484; 3856.925;  193.050;    0.000
407.539; 3861.925;  167.050;    0.000
407.594; 3942.925;  178.050;    0.000
407.650; 3904.925;  171.050;    0.000
407.705; 3826.925;  153.050;    0.000
407.760; 3856.925;  196.050;    0.000
407.816; 3874.925;  205.050;    0.000
407.871; 3941.925;  232.050;    0.000
407.926; 3898.925;  215.050;    0.000
407.982; 3801.925;  154.050;    0.000
408.037; 3934.925;  217.050;    0.000
408.092; 3831.925;  190.050;    0.000
408.148; 3846.925;  181.050;    0.000
408.203; 3863.925;  203.050;    0.000
408.258; 3794.925;  154.050;    0.000
408.314; 3853.925;  198.050;    0.000
408.369; 3745.925;  156.050;    0.000
408.424; 3823.925;  216.050;    0.000
408.479; 3791.925;  191.050;    0.000
408.534; 3847.925;  200.050;    0.000
408.590; 3738.925;  182.050;    0.000
408.645; 3808.925;  141.050;    0.000
408.700; 3767.925;  209.050;    0.000
408.755; 3711.925;  205.050;    0.000
408.810; 3753.925;  171.050;    0.000
408.866; 3783.925;  200.050;    0.000
408.921; 3848.925;  188.050;    0.000
408.976; 3821.925;  156.050;    0.000
409.031; 3761.925;  164.050;    0.000
409.086; 3736.925;  155.050;    0.000
409.141; 3717.925;  205.050;    0.000
409.196; 3776.925;  173.050;    0.000
409.252; 3692.925;  179.050;    0.000
409.307; 3698.925;  131.050;    0.000
409.362; 3724.925;  173.050;    0.000
409.417; 3654.925;  120.050;    0.000
409.472; 3754.925;  198.050;    0.000
409.527; 3752.925;  153.050;    0.000
409.582; 3793.925;  177.050;    0.000
409.637; 3730.925;  184.050;    0.000
409.692; 3745.925;  203.050;    0.000
409.747; 3757.925;  158.050;    0.000
409.802; 3746.925;  212.050;    0.000
409.857; 3716.925;  192.050;    0.000
409.912; 3759.925;  179.050;    0.000
409.967; 3842.925;  177.050;    0.000
410.022; 3698.925;  204.050;    0.000
410.077; 3671.925;  175.050;    0.000
410.132; 3840.925;  207.050;    0.000
410.187; 3763.925;  169.050;    0.000
410.242; 3861.925;  186.050;    0.000
410.297; 3695.925;  185.050;    0.000
410.351; 3699.925;  191.050;    0.000
410.406; 3770.925;  215.050;    0.000
410.461; 3711.925;  190.050;    0.000
410.516; 3688.925;  172.050;    0.000
410.571; 3755.925;  190.050;    0.000
410.626; 3745.925;  189.050;    0.000
410.681; 3811.925;  191.050;    0.000
410.736; 3767.925;  166.050;    0.000
410.790; 3772.925;  179.050;    0.000
410.845; 3811.925;  196.050;    0.000
410.900; 3782.925;  168.050;    0.000
410.955; 3747.925;  173.050;    0.000
411.010; 3751.925;  162.050;    0.000
411.064; 3826.925;  205.050;    0.000
411.119; 3741.925;  203.050;    0.000
411.174; 3695.925;  207.050;    0.000
411.229; 3757.925;  218.050;    0.000
411.283; 3751.925;  218.050;    0.000
411.338; 3717.925;  180.050;    0.000
411.393; 3698.925;  191.050;    0.000
411.447; 3765.925;  207.050;    0.000
411.502; 3696.925;  204.050;    0.000
411.557; 3747.925;  208.050;    0.000
411.612; 3712.925;  191.050;    0.000
411.666; 3839.925;  233.050;    0.000
411.721; 3664.925;  193.050;    0.000
411.776; 3862.925;  195.050;    0.000
411.830; 3789.925;  229.050;    0.000
411.885; 3764.925;  181.050;    0.000
411.939; 3715.925;  214.050;    0.000
411.994; 3710.925;  140.050;    0.000
412.049; 3783.925;  205.050;    0.000
412.103; 3794.925;  232.050;    0.000
412.158; 3768.925;  228.050;    0.000
412.212; 3859.925;  204.050;    0.000
412.267; 3759.925;  203.050;    0.000
412.322; 3797.925;  212.050;    0.000
412.376; 3759.925;  195.050;    0.000
412.431; 3760.925;  197.050;    0.000
412.485; 3757.925;  235.050;    0.000
412.540; 3805.925;  197.050;    0.000
412.594; 3780.925;  199.050;    0.000
412.649; 3733.925;  195.050;    0.000
412.703; 3714.925;  214.050;    0.000
412.758; 3786.925;  213.050;    0.000
412.812; 3730.925;  154.050;    0.000
412.866; 3660.925;  159.050;    0.000
412.921; 3720.925;  207.050;    0.000
412.975; 3657.925;  194.050;    0.000
413.030; 3797.925;  214.050;    0.000
413.084; 3735.925;  174.050;    0.000
413.139; 3714.925;  211.050;    0.000
413.193; 3692.925;  223.050;    0.000
413.247; 3692.925;  198.050;    0.000
413.302; 3706.925;  184.050;    0.000
413.356; 3713.925;  194.050;    0.000
413.410; 3647.925;  219.050;    0.000
413.465; 3726.925;  209.050;    0.000
413.519; 3666.925;  178.050;    0.000
413.573; 3735.925;  189.050;    0.000
413.628; 3740.925;  184.050;    0.000
413.682; 3755.925;  189.050;    0.000
413.736; 3613.925;  196.050;    0.000
413.791; 3775.925;  208.050;    0.000
413.845; 3715.925;  206.050;    0.000
413.899; 3668.925;  193.050;    0.000
413.953; 3749.925;  176.050;    0.000
414.008; 3696.925;  163.050;    0.000
414.062; 3713.925;  195.050;    0.000
414.116; 3689.925;  176.050;    0.000
414.170; 3720.925;  218.050;    0.000
414.225; 3734.925;  183.050;    0.000
414.279; 3720.925;  191.050;    0.000
414.333; 3812.925;  215.050;    0.000
414.387; 3778.925;  187.050;    0.000
414.441; 3744.925;  182.050;    0.000
414.496; 3751.925;  205.050;    0.000
414.550; 3706.925;  203.050;    0.000
414.604; 3724.925;  223.050;    0.000
414.658; 3719.925;  159.050;    0.000
414.712; 3792.925;  194.050;    0.000
414.766; 3755.925;  232.050;    0.000
414.820; 3841.925;  235.050;    0.000
414.874; 3762.925;  169.050;    0.000
414.928; 3745.925;  207.050;    0.000
414.982; 3744.925;  174.050;    0.000
415.037; 3703.925;  173.050;    0.000
415.091; 3762.925;  219.050;    0.000
415.145; 3629.925;  174.050;    0.000
415.199; 3772.925;  207.050;    0.000
415.253; 3798.925;  228.050;    0.000
415.307; 3787.925;  182.050;    0.000
415.361; 3727.925;  219.050;    0.000
415.415; 3808.925;  218.050;    0.000
415.469; 3786.925;  233.050;    0.000
415.523; 3875.925;  203.050;    0.000
415.577; 3847.925;  186.050;    0.000
415.631; 3767.925;  215.050;    0.000
415.684; 3796.925;  212.050;    0.000
415.738; 3679.925;  206.050;    0.000
415.792; 3627.925;  219.050;    0.000
415.846; 3731.925;  208.050;    0.000
415.900; 3693.925;  203.050;    0.000
415.954; 3652.925;  237.050;    0.000
416.008; 3717.925;  242.050;    0.000
416.062; 3677.925;  197.050;    0.000
416.116; 3697.925;  189.050;    0.000
416.169; 3698.925;  199.050;    0.000
416.223; 3738.925;  230.050;    0.000
416.277; 3760.925;  226.050;    0.000
416.331; 3666.925;  254.050;    0.000
416.385; 3752.925;  204.050;    0.000
416.439; 3643.925;  201.050;    0.000
416.492; 3669.925;  238.050;    0.000
416.546; 3700.925;  234.050;    0.000
416.600; 3769.925;  244.050;    0.000
416.654; 3738.925;  233.050;    0.000
416.707; 3739.925;  214.050;    0.000
416.761; 3652.925;  214.050;    0.000
416.815; 3690.925;  192.050;    0.000
416.869; 3668.925;  225.050;    0.000
416.922; 3707.925;  214.050;    0.000
416.976; 3687.925;  206.050;    0.000
417.030; 3724.925;  226.050;    0.000
417.083; 3677.925;  207.050;    0.000
417.137; 3672.925;  236.050;    0.000
417.191; 3617.925;  208.050;    0.000
417.244; 3715.925;  260.050;    0.000
417.298; 3698.925;  222.050;    0.000
417.352; 3684.925;  191.050;    0.000
417.405; 3784.925;  229.050;    0.000
417.459; 3774.925;  249.050;    0.000
417.512; 3775.925;  259.050;    0.000
417.566; 3697.925;  220.050;    0.000
417.620; 3640.925;  229.050;    0.000
417.673; 3672.925;  190.050;    0.000
417.727; 3663.925;  204.050;    0.000
417.780; 3701.925;  223.050;    0.000
417.834; 3644.925;  213.050;    0.000
417.887; 3700.925;  238.050;    0.000
417.941; 3746.925;  244.050;    0.000
417.994; 3775.925;  247.050;    0.000
418.048; 3736.925;  225.050;    0.000
418.101; 3740.925;  210.050;    0.000
418.155; 3598.925;  224.050;    0.000
418.208; 3719.925;  229.050;    0.000
418.262; 3705.925;  255.050;    0.000
418.315; 3536.925;  248.050;    0.000
418.369; 3642.925;  212.050;    0.000
418.422; 3649.925;  241.050;    0.000
418.476; 3761.925;  220.050;    0.000
418.529; 3714.925;  257.050;    0.000
418.582; 3760.925;  203.050;    0.000
418.636; 3699.925;  221.050;    0.000
418.689; 3732.925;  202.050;    0.000
418.743; 3698.925;  227.050;    0.000
418.796; 3629.925;  226.050;    0.000
418.849; 3716.925;  199.050;    0.000
418.903; 3797.925;  234.050;    0.000
418.956; 3814.925;  236.050;    0.000
419.009; 3735.925;  305.050;    0.000
419.063; 3604.925;  216.050;    0.000
419.116; 3656.925;  245.050;    0.000
419.169; 3732.925;  208.050;    0.000
419.222; 3751.925;  233.050;    0.000
419.276; 3721.925;  244.050;    0.000
419.329; 3622.925;  197.050;    0.000
419.382; 3628.925;  222.050;    0.000
419.435; 3694.925;  199.050;    0.000
419.489; 3601.925;  226.050;    0.000
419.542; 3626.925;  223.050;    0.000
419.595; 3695.925;  204.050;    0.000
419.648; 3578.925;  234.050;    0.000
419.701; 3607.925;  211.050;    0.000
419.755; 3646.925;  184.050;    0.000
419.808; 3657.925;  223.050;    0.000
419.861; 3629.925;  197.050;    0.000
419.914; 3689.925;  258.050;    0.000
419.967; 3585.925;  205.050;    0.000
420.020; 3527.925;  195.050;    0.000
420.073; 3544.925;  191.050;    0.000
420.127; 3580.925;  256.050;    0.000
420.180; 3540.925;  232.050;    0.000
420.233; 3654.925;  200.050;    0.000
420.286; 3609.925;  207.050;    0.000
420.339; 3516.925;  223.050;    0.000
420.392; 3616.925;  243.050;    0.000
420.445; 3518.925;  195.050;    0.000
420.498; 3549.925;  239.050;    0.000
420.551; 3516.925;  201.050;    0.000
420.604; 3492.925;  245.050;    0.000
420.657; 3576.925;  221.050;    0.000
420.710; 3625.925;  223.050;    0.000
420.763; 3470.925;  241.050;    0.000
420.816; 3460.925;  198.050;    0.000
420.869; 3574.925;  210.050;    0.000
420.922; 3490.925;  206.050;    0.000
420.975; 3592.925;  239.050;    0.000
421.028; 3445.925;  248.050;    0.000
421.081; 3452.925;  236.050;    0.000
421.134; 3443.925;  208.050;    0.000
421.187; 3425.925;  216.050;    0.000
421.239; 3430.925;  199.050;    0.000
421.292; 3506.925;  255.050;    0.000
421.345; 3524.925;  241.050;    0.000
421.398; 3517.925;  221.050;    0.000
421.451; 3590.925;  237.050;    0.000
421.504; 3499.925;  225.050;    0.000
421.557; 3449.925;  213.050;    0.000
421.609; 3468.925;  178.050;    0.000
421.662; 3562.925;  206.050;    0.000
421.715; 3571.925;  212.050;    0.000
421.768; 3393.925;  236.050;    0.000
421.821; 3414.925;  228.050;    0.000
421.873; 3390.925;  200.050;    0.000
421.926; 3425.925;  226.050;    0.000
421.979; 3447.925;  221.050;    0.000
422.032; 3496.925;  219.050;    0.000
422.084; 3427.925;  253.050;    0.000
422.137; 3411.925;  195.050;    0.000
422.190; 3476.925;  192.050;    0.000
422.243; 3429.925;  236.050;    0.000
422.295; 3428.925;  205.050;    0.000
422.348; 3431.925;  198.050;    0.000
422.401; 3525.925;  245.050;    0.000
422.453; 3454.925;  241.050;    0.000
422.506; 3470.925;  255.050;    0.000
422.559; 3548.925;  188.050;    0.000
422.611; 3423.925;  236.050;    0.000
422.664; 3452.925;  218.050;    0.000
422.716; 3475.925;  210.050;    0.000
422.769; 3353.925;  209.050;    0.000
422.822; 3410.925;  213.050;    0.000
422.874; 3377.925;  227.050;    0.000
422.927; 3550.925;  272.050;    0.000
422.979; 3407.925;  204.050;    0.000
423.032; 3394.925;  210.050;    0.000
423.084; 3479.925;  236.050;    0.000
423.137; 3382.925;  223.050;    0.000
423.189; 3469.925;  253.050;    0.000
423.242; 3385.925;  185.050;    0.000
423.294; 3367.925;  232.050;    0.000
423.347; 3379.925;  213.050;    0.000
423.399; 3369.925;  227.050;    0.000
423.452; 3356.925;  236.050;    0.000
423.504; 3340.925;  232.050;    0.000
423.557; 3355.925;  195.050;    0.000
423.609; 3469.925;  238.050;    0.000
423.662; 3426.925;  207.050;    0.000
423.714; 3294.925;  231.050;    0.000
423.766; 3306.925;  211.050;    0.000
423.819; 3417.925;  207.050;    0.000
423.871; 3356.925;  228.050;    0.000
423.923; 3381.925;  223.050;    0.000
423.976; 3385.925;  217.050;    0.000
424.028; 3313.925;  231.050;    0.000
424.081; 3364.925;  219.050;    0.000
424.133; 3246.925;  255.050;    0.000
424.185; 3328.925;  199.050;    0.000
424.238; 3270.925;  238.050;    0.000
424.290; 3350.925;  209.050;    0.000
424.342; 3288.925;  213.050;    0.000
424.394; 3377.925;  215.050;    0.000
424.447; 3278.925;  265.050;    0.000
424.499; 3297.925;  238.050;    0.000
424.551; 3391.925;  256.050;    0.000
424.603; 3320.925;  222.050;    0.000
424.656; 3168.925;  227.050;    0.000
424.708; 3313.925;  250.050;    0.000
424.760; 3310.925;  228.050;    0.000
424.812; 3289.925;  249.050;    0.000
424.864; 3270.925;  222.050;    0.000
424.917; 3284.925;  235.050;    0.000
424.969; 3332.925;  266.050;    0.000
425.021; 3285.925;  233.050;    0.000
425.073; 3196.925;  194.050;    0.000
425.125; 3363.925;  256.050;    0.000
425.177; 3290.925;  225.050;    0.000
425.229; 3202.925;  242.050;    0.000
425.282; 3288.925;  236.050;    0.000
425.334; 3262.925;  250.050;    0.000
425.386; 3221.925;  231.050;    0.000
425.438; 3343.925;  216.050;    0.000
425.490; 3279.925;  240.050;    0.000
425.542; 3236.925;  231.050;    0.000
425.594; 3139.925;  206.050;    0.000
425.646; 3266.925;  201.050;    0.000
425.698; 3229.925;  193.050;    0.000
425.750; 3265.925;  241.050;    0.000
425.802; 3226.925;  199.050;    0.000
425.854; 3241.925;  216.050;    0.000
425.906; 3189.925;  220.050;    0.000
425.958; 3154.925;  200.050;    0.000
426.010; 3192.925;  214.050;    0.000
426.062; 3173.925;  245.050;    0.000
426.114; 3162.925;  241.050;    0.000
426.166; 3216.925;  241.050;    0.000
426.218; 3287.925;  255.050;    0.000
426.270; 3316.925;  228.050;    0.000
426.321; 3260.925;  222.050;    0.000
426.373; 3289.925;  218.050;    0.000
426.425; 3256.925;  258.050;    0.000
426.477; 3159.925;  225.050;    0.000
426.529; 3136.925;  223.050;    0.000
426.581; 3264.925;  198.050;    0.000
426.633; 3142.925;  228.050;    0.000
426.684; 3166.925;  210.050;    0.000
426.736; 3135.925;  208.050;    0.000
426.788; 3222.925;  231.050;    0.000
426.840; 3186.925;  212.050;    0.000
426.892; 3129.925;  221.050;    0.000
426.943; 3159.925;  240.050;    0.000
426.995; 3099.925;  243.050;    0.000
427.047; 3131.925;  231.050;    0.000
427.099; 3071.925;  189.050;    0.000
427.150; 3110.925;  212.050;    0.000
427.202; 3171.925;  219.050;    0.000
427.254; 3155.925;  203.050;    0.000
427.306; 3115.925;  217.050;    0.000
427.357; 3125.925;  232.050;    0.000
427.409; 3165.925;  251.050;    0.000
427.461; 3087.925;  185.050;    0.000
427.512; 3069.925;  239.050;    0.000
427.564; 3131.925;  208.050;    0.000
427.616; 3076.925;  233.050;    0.000
427.667; 3114.925;  223.050;    0.000
427.719; 3011.925;  206.050;    0.000
427.770; 3086.925;  195.050;    0.000
427.822; 3077.925;  223.050;    0.000
427.874; 3052.925;  232.050;    0.000
427.925; 3063.925;  209.050;    0.000
427.977; 3171.925;  208.050;    0.000
428.028; 3025.925;  187.050;    0.000
428.080; 3002.925;  209.050;    0.000
428.131; 3114.925;  237.050;    0.000
428.183; 3013.925;  200.050;    0.000
428.234; 3031.925;  215.050;    0.000
428.286; 3026.925;  229.050;    0.000
428.337; 3039.925;  206.050;    0.000
428.389; 3103.925;  216.050;    0.000
428.440; 3058.925;  287.050;    0.000
428.492; 3113.925;  269.050;    0.000
428.543; 3025.925;  234.050;    0.000
428.595; 3015.925;  214.050;    0.000
428.646; 3047.925;  229.050;    0.000
428.697; 3041.925;  249.050;    0.000
428.749; 3044.925;  250.050;    0.000
428.800; 3084.925;  242.050;    0.000
428.852; 3019.925;  232.050;    0.000
428.903; 2989.925;  196.050;    0.000
428.954; 3048.925;  226.050;    0.000
429.006; 3072.925;  232.050;    0.000
429.057; 2986.925;  188.050;    0.000
429.108; 3041.925;  237.050;    0.000
429.160; 3058.925;  221.050;    0.000
429.211; 2914.925;  222.050;    0.000
429.262; 2958.925;  215.050;    0.000
429.314; 2971.925;  225.050;    0.000
429.365; 3046.925;  220.050;    0.000
429.416; 3087.925;  242.050;    0.000
429.467; 2969.925;  220.050;    0.000
429.519; 2983.925;  217.050;    0.000
429.570; 2927.925;  248.050;    0.000
429.621; 3065.925;  233.050;    0.000
429.672; 3041.925;  220.050;    0.000
429.724; 2878.925;  179.050;    0.000
429.775; 2961.925;  218.050;    0.000
429.826; 2943.925;  197.050;    0.000
429.877; 2948.925;  206.050;    0.000
429.928; 2916.925;  229.050;    0.000
429.980; 2901.925;  207.050;    0.000
430.031; 2882.925;  264.050;    0.000
430.082; 2935.925;  210.050;    0.000
430.133; 2960.925;  218.050;    0.000
430.184; 2984.925;  246.050;    0.000
430.235; 2910.925;  201.050;    0.000
430.286; 2933.925;  207.050;    0.000
430.337; 2855.925;  224.050;    0.000
430.388; 2896.925;  216.050;    0.000
430.439; 2858.925;  210.050;    0.000
430.490; 2875.925;  208.050;    0.000
430.542; 2850.925;  211.050;    0.000
430.593; 2965.925;  203.050;    0.000
430.644; 2906.925;  235.050;    0.000
430.695; 2935.925;  200.050;    0.000
430.746; 2927.925;  215.050;    0.000
430.797; 2925.925;  235.050;    0.000
430.848; 2926.925;  197.050;    0.000
430.898; 2875.925;  209.050;    0.000
430.949; 2869.925;  231.050;    0.000
431.000; 2809.925;  227.050;    0.000
431.051; 2978.925;  225.050;    0.000
431.102; 2933.925;  180.050;    0.000
431.153; 2949.925;  248.050;    0.000
431.204; 2916.925;  185.050;    0.000
431.255; 2962.925;  199.050;    0.000
431.306; 2893.925;  228.050;    0.000
431.357; 2902.925;  237.050;    0.000
431.408; 2958.925;  223.050;    0.000
431.458; 2888.925;  240.050;    0.000
431.509; 2813.925;  207.050;    0.000
431.560; 2944.925;  219.050;    0.000
431.611; 2919.925;  206.050;    0.000
431.662; 2925.925;  253.050;    0.000
431.713; 3000.925;  199.050;    0.000
431.763; 2930.925;  197.050;    0.000
431.814; 2962.925;  205.050;    0.000
431.865; 2961.925;  218.050;    0.000
431.916; 2888.925;  202.050;    0.000
431.966; 2882.925;  203.050;    0.000
432.017; 2907.925;  244.050;    0.000
432.068; 2959.925;  246.050;    0.000
432.118; 3032.925;  212.050;    0.000
432.169; 2966.925;  214.050;    0.000
432.220; 2947.925;  241.050;    0.000
432.271; 2795.925;  237.050;    0.000
432.321; 2893.925;  246.050;    0.000
432.372; 2996.925;  257.050;    0.000
432.423; 2987.925;  198.050;    0.000
432.473; 2929.925;  202.050;    0.000
432.524; 2899.925;  242.050;    0.000
432.574; 2902.925;  202.050;    0.000
432.625; 2888.925;  212.050;    0.000
432.676; 2913.925;  242.050;    0.000
432.726; 2864.925;  268.050;    0.000
432.777; 2787.925;  228.050;    0.000
432.827; 2899.925;  230.050;    0.000
432.878; 2854.925;  221.050;    0.000
432.928; 2924.925;  218.050;    0.000
432.979; 2866.925;  243.050;    0.000
433.029; 2845.925;  217.050;    0.000
433.080; 2823.925;  208.050;    0.000
433.130; 2893.925;  236.050;    0.000
433.181; 2816.925;  282.050;    0.000
433.231; 2969.925;  257.050;    0.000
433.282; 2830.925;  268.050;    0.000
433.332; 2895.925;  241.050;    0.000
433.383; 2836.925;  271.050;    0.000
433.433; 2872.925;  262.050;    0.000
433.484; 2844.925;  266.050;    0.000
433.534; 2827.925;  217.050;    0.000
433.585; 2795.925;  230.050;    0.000
433.635; 2852.925;  245.050;    0.000
433.685; 2870.925;  250.050;    0.000
433.736; 2854.925;  308.050;    0.000
433.786; 2817.925;  242.050;    0.000
433.836; 2961.925;  256.050;    0.000
433.887; 2912.925;  250.050;    0.000
433.937; 2801.925;  250.050;    0.000
433.987; 2901.925;  219.050;    0.000
434.038; 2872.925;  248.050;    0.000
434.088; 2798.925;  231.050;    0.000
434.138; 2944.925;  266.050;    0.000
434.189; 2840.925;  240.050;    0.000
434.239; 2900.925;  245.050;    0.000
434.289; 2978.925;  285.050;    0.000
434.339; 2905.925;  255.050;    0.000
434.389; 2916.925;  242.050;    0.000
434.440; 2912.925;  273.050;    0.000
434.490; 2862.925;  272.050;    0.000
434.540; 2981.925;  264.050;    0.000
434.590; 2964.925;  233.050;    0.000
434.640; 2916.925;  244.050;    0.000
434.691; 2952.925;  226.050;    0.000
434.741; 2923.925;  253.050;    0.000
434.791; 2938.925;  269.050;    0.000
434.841; 2930.925;  252.050;    0.000
434.891; 3022.925;  281.050;    0.000
434.941; 3052.925;  296.050;    0.000
434.991; 2981.925;  264.050;    0.000
435.042; 2947.925;  262.050;    0.000
435.092; 2955.925;  237.050;    0.000
435.142; 2919.925;  232.050;    0.000
435.192; 3048.925;  251.050;    0.000
435.242; 2930.925;  251.050;    0.000
435.292; 2835.925;  246.050;    0.000
435.342; 2857.925;  236.050;    0.000
435.392; 2873.925;  273.050;    0.000
435.442; 2894.925;  273.050;    0.000
435.492; 2827.925;  273.050;    0.000
435.542; 2825.925;  242.050;    0.000
435.592; 2900.925;  213.050;    0.000
435.642; 2882.925;  248.050;    0.000
435.692; 2911.925;  242.050;    0.000
435.742; 2869.925;  222.050;    0.000
435.792; 2794.925;  260.050;    0.000
435.842; 2852.925;  266.050;    0.000
435.891; 2773.925;  227.050;    0.000
435.941; 2745.925;  228.050;    0.000
435.991; 2806.925;  282.050;    0.000
436.041; 2749.925;  231.050;    0.000
436.091; 2848.925;  250.050;    0.000
436.141; 2786.925;  221.050;    0.000
436.191; 2772.925;  223.050;    0.000
436.241; 2809.925;  250.050;    0.000
436.290; 2788.925;  243.050;    0.000
436.340; 2642.925;  236.050;    0.000
436.390; 2715.925;  260.050;    0.000
436.440; 2734.925;  253.050;    0.000
436.490; 2720.925;  236.050;    0.000
436.539; 2746.925;  249.050;    0.000
436.589; 2757.925;  231.050;    0.000
436.639; 2703.925;  237.050;    0.000
436.689; 2641.925;  222.050;    0.000
436.738; 2674.925;  263.050;    0.000
436.788; 2717.925;  230.050;    0.000
436.838; 2682.925;  281.050;    0.000
436.887; 2727.925;  230.050;    0.000
436.937; 2740.925;  250.050;    0.000
436.987; 2599.925;  251.050;    0.000
437.036; 2620.925;  238.050;    0.000
437.086; 2733.925;  234.050;    0.000
437.136; 2715.925;  250.050;    0.000
437.185; 2634.925;  228.050;    0.000
437.235; 2715.925;  309.050;    0.000
437.285; 2650.925;  246.050;    0.000
437.334; 2658.925;  262.050;    0.000
437.384; 2717.925;  228.050;    0.000
437.433; 2637.925;  241.050;    0.000
437.483; 2629.925;  220.050;    0.000
437.532; 2657.925;  252.050;    0.000
437.582; 2729.925;  270.050;    0.000
437.631; 2658.925;  251.050;    0.000
437.681; 2664.925;  284.050;    0.000
437.730; 2640.925;  239.050;    0.000
437.780; 2608.925;  221.050;    0.000
437.829; 2588.925;  254.050;    0.000
437.879; 2657.925;  221.050;    0.000
437.928; 2580.925;  205.050;    0.000
437.978; 2622.925;  223.050;    0.000
438.027; 2678.925;  262.050;    0.000
438.077; 2638.925;  280.050;    0.000
438.126; 2624.925;  254.050;    0.000
438.176; 2578.925;  230.050;    0.000
438.225; 2619.925;  227.050;    0.000
438.274; 2593.925;  264.050;    0.000
438.324; 2629.925;  233.050;    0.000
438.373; 2542.925;  238.050;    0.000
438.422; 2599.925;  260.050;    0.000
438.472; 2525.925;  223.050;    0.000
438.521; 2584.925;  213.050;    0.000
438.570; 2596.925;  236.050;    0.000
438.620; 2587.925;  282.050;    0.000
438.669; 2607.925;  209.050;    0.000
438.718; 2608.925;  245.050;    0.000
438.768; 2538.925;  238.050;    0.000
438.817; 2594.925;  259.050;    0.000
438.866; 2653.925;  232.050;    0.000
438.915; 2615.925;  288.050;    0.000
438.965; 2590.925;  228.050;    0.000
439.014; 2583.925;  246.050;    0.000
439.063; 2609.925;  287.050;    0.000
439.112; 2556.925;  217.050;    0.000
439.162; 2597.925;  275.050;    0.000
439.211; 2689.925;  287.050;    0.000
439.260; 2503.925;  238.050;    0.000
439.309; 2614.925;  225.050;    0.000
439.358; 2674.925;  248.050;    0.000
439.407; 2628.925;  237.050;    0.000
439.456; 2562.925;  223.050;    0.000
439.506; 2645.925;  266.050;    0.000
439.555; 2631.925;  260.050;    0.000
439.604; 2565.925;  233.050;    0.000
439.653; 2604.925;  242.050;    0.000
439.702; 2621.925;  255.050;    0.000
439.751; 2608.925;  202.050;    0.000
439.800; 2687.925;  247.050;    0.000
439.849; 2574.925;  250.050;    0.000
439.898; 2546.925;  216.050;    0.000
439.947; 2610.925;  231.050;    0.000
439.996; 2602.925;  272.050;    0.000
440.045; 2675.925;  217.050;    0.000
440.094; 2669.925;  220.050;    0.000
440.143; 2573.925;  245.050;    0.000
440.192; 2641.925;  267.050;    0.000
440.241; 2629.925;  263.050;    0.000
440.290; 2699.925;  246.050;    0.000
440.339; 2668.925;  225.050;    0.000
440.388; 2696.925;  256.050;    0.000
440.437; 2620.925;  253.050;    0.000
440.486; 2632.925;  249.050;    0.000
440.535; 2651.925;  232.050;    0.000
440.583; 2596.925;  220.050;    0.000
440.632; 2660.925;  239.050;    0.000
440.681; 2676.925;  236.050;    0.000
440.730; 2706.925;  282.050;    0.000
440.779; 2637.925;  245.050;    0.000
440.828; 2634.925;  213.050;    0.000
440.876; 2632.925;  231.050;    0.000
440.925; 2584.925;  271.050;    0.000
440.974; 2649.925;  240.050;    0.000
441.023; 2646.925;  214.050;    0.000
441.072; 2695.925;  236.050;    0.000
441.120; 2738.925;  271.050;    0.000
441.169; 2728.925;  281.050;    0.000
441.218; 2740.925;  255.050;    0.000
441.267; 2721.925;  272.050;    0.000
441.315; 2719.925;  229.050;    0.000
441.364; 2773.925;  241.050;    0.000
441.413; 2722.925;  224.050;    0.000
441.461; 2638.925;  241.050;    0.000
441.510; 2720.925;  289.050;    0.000
441.559; 2731.925;  222.050;    0.000
441.607; 2784.925;  242.050;    0.000
441.656; 2743.925;  255.050;    0.000
441.705; 2747.925;  260.050;    0.000
441.753; 2740.925;  290.050;    0.000
441.802; 2669.925;  264.050;    0.000
441.850; 2714.925;  224.050;    0.000
441.899; 2701.925;  275.050;    0.000
441.948; 2693.925;  227.050;    0.000
441.996; 2718.925;  216.050;    0.000
442.045; 2736.925;  271.050;    0.000
442.093; 2685.925;  227.050;    0.000
442.142; 2736.925;  273.050;    0.000
442.190; 2792.925;  257.050;    0.000
442.239; 2753.925;  269.050;    0.000
442.287; 2688.925;  257.050;    0.000
442.336; 2796.925;  237.050;    0.000
442.384; 2728.925;  214.050;    0.000
442.433; 2666.925;  272.050;    0.000
442.481; 2692.925;  258.050;    0.000
442.529; 2766.925;  242.050;    0.000
442.578; 2734.925;  278.050;    0.000
442.626; 2750.925;  264.050;    0.000
442.675; 2753.925;  293.050;    0.000
442.723; 2656.925;  244.050;    0.000
442.771; 2739.925;  232.050;    0.000
442.820; 2735.925;  266.050;    0.000
442.868; 2665.925;  253.050;    0.000
442.917; 2778.925;  250.050;    0.000
442.965; 2714.925;  279.050;    0.000
443.013; 2751.925;  253.050;    0.000
443.062; 2691.925;  282.050;    0.000
443.110; 2682.925;  258.050;    0.000
443.158; 2763.925;  246.050;    0.000
443.206; 2705.925;  255.050;    0.000
443.255; 2727.925;  296.050;    0.000
443.303; 2795.925;  272.050;    0.000
443.351; 2731.925;  270.050;    0.000
443.399; 2639.925;  258.050;    0.000
443.448; 2722.925;  265.050;    0.000
443.496; 2629.925;  219.050;    0.000
443.544; 2731.925;  205.050;    0.000
443.592; 2733.925;  266.050;    0.000
443.640; 2763.925;  260.050;    0.000
443.689; 2841.925;  232.050;    0.000
443.737; 2760.925;  281.050;    0.000
443.785; 2813.925;  248.050;    0.000
443.833; 2814.925;  286.050;    0.000
443.881; 2781.925;  225.050;    0.000
443.929; 2794.925;  255.050;    0.000
443.977; 2774.925;  248.050;    0.000
444.025; 2686.925;  255.050;    0.000
444.074; 2801.925;  266.050;    0.000
444.122; 2798.925;  266.050;    0.000
444.170; 2819.925;  207.050;    0.000
444.218; 2783.925;  253.050;    0.000
444.266; 2801.925;  263.050;    0.000
444.314; 2838.925;  272.050;    0.000
444.362; 2875.925;  272.050;    0.000
444.410; 2881.925;  255.050;    0.000
444.458; 2939.925;  288.050;    0.000
444.506; 2946.925;  263.050;    0.000
444.554; 2781.925;  243.050;    0.000
444.602; 2879.925;  285.050;    0.000
444.650; 2944.925;  273.050;    0.000
444.698; 2861.925;  221.050;    0.000
444.746; 2889.925;  243.050;    0.000
444.793; 2922.925;  217.050;    0.000
444.841; 2889.925;  262.050;    0.000
444.889; 2856.925;  264.050;    0.000
444.937; 3022.925;  226.050;    0.000
444.985; 2980.925;  257.050;    0.000
445.033; 2899.925;  264.050;    0.000
445.081; 2928.925;  264.050;    0.000
445.129; 2760.925;  187.050;    0.000
445.176; 2863.925;  212.050;    0.000
445.224; 2862.925;  198.050;    0.000
445.272; 2937.925;  265.050;    0.000
445.320; 2900.925;  239.050;    0.000
445.368; 2922.925;  245.050;    0.000
445.415; 2867.925;  215.050;    0.000
445.463; 2871.925;  202.050;    0.000
445.511; 2826.925;  234.050;    0.000
445.559; 2818.925;  269.050;    0.000
445.606; 2791.925;  214.050;    0.000
445.654; 2851.925;  227.050;    0.000
445.702; 2869.925;  276.050;    0.000
445.749; 2843.925;  256.050;    0.000
445.797; 2789.925;  236.050;    0.000
445.845; 2829.925;  230.050;    0.000
445.892; 2851.925;  233.050;    0.000
445.940; 2834.925;  257.050;    0.000
445.988; 2851.925;  253.050;    0.000
446.035; 2818.925;  265.050;    0.000
446.083; 2884.925;  254.050;    0.000
446.130; 2749.925;  228.050;    0.000
446.178; 2951.925;  256.050;    0.000
446.226; 2807.925;  238.050;    0.000
446.273; 2861.925;  228.050;    0.000
446.321; 2838.925;  220.050;    0.000
446.368; 2880.925;  249.050;    0.000
446.416; 2939.925;  221.050;    0.000
446.463; 2937.925;  232.050;    0.000
446.511; 2972.925;  243.050;    0.000
446.558; 2803.925;  217.050;    0.000
446.606; 2938.925;  256.050;    0.000
446.653; 2879.925;  238.050;    0.000
446.701; 2942.925;  259.050;    0.000
446.748; 2904.925;  227.050;    0.000
446.796; 2983.925;  236.050;    0.000
446.843; 3037.925;  241.050;    0.000
446.891; 2979.925;  292.050;    0.000
446.938; 2927.925;  219.050;    0.000
446.985; 2992.925;  255.050;    0.000
447.033; 3045.925;  237.050;    0.000
447.080; 3018.925;  278.050;    0.000
447.128; 2985.925;  237.050;    0.000
447.175; 3037.925;  247.050;    0.000
447.222; 3022.925;  235.050;    0.000
447.270; 3120.925;  274.050;    0.000
447.317; 3091.925;  222.050;    0.000
447.364; 3086.925;  230.050;    0.000
447.411; 3168.925;  297.050;    0.000
447.459; 3085.925;  243.050;    0.000
447.506; 3172.925;  202.050;    0.000
447.553; 3127.925;  232.050;    0.000
447.601; 3095.925;  262.050;    0.000
447.648; 3168.925;  254.050;    0.000
447.695; 3156.925;  287.050;    0.000
447.742; 3274.925;  232.050;    0.000
447.789; 3309.925;  257.050;    0.000
447.837; 3307.925;  260.050;    0.000
447.884; 3248.925;  272.050;    0.000
447.931; 3352.925;  241.050;    0.000
447.978; 3363.925;  241.050;    0.000
448.025; 3450.925;  264.050;    0.000
448.072; 3517.925;  279.050;    0.000
448.120; 3490.925;  263.050;    0.000
448.167; 3482.925;  284.050;    0.000
448.214; 3455.925;  252.050;    0.000
448.261; 3383.925;  247.050;    0.000
448.308; 3370.925;  249.050;    0.000
448.355; 3329.925;  263.050;    0.000
448.402; 3351.925;  251.050;    0.000
448.449; 3271.925;  257.050;    0.000
448.496; 3161.925;  243.050;    0.000
448.543; 3165.925;  274.050;    0.000
448.590; 3212.925;  299.050;    0.000
448.637; 3117.925;  259.050;    0.000
448.684; 3115.925;  266.050;    0.000
448.731; 3048.925;  261.050;    0.000
448.778; 3014.925;  292.050;    0.000
448.825; 2994.925;  253.050;    0.000
448.872; 2980.925;  253.050;    0.000
448.919; 2997.925;  218.050;    0.000
448.966; 2978.925;  254.050;    0.000
449.013; 2955.925;  263.050;    0.000
449.060; 2997.925;  282.050;    0.000
449.107; 2850.925;  244.050;    0.000
449.154; 2930.925;  236.050;    0.000
449.200; 2919.925;  226.050;    0.000
449.247; 2773.925;  273.050;    0.000
449.294; 2862.925;  270.050;    0.000
449.341; 2843.925;  283.050;    0.000
449.388; 2901.925;  261.050;    0.000
449.435; 2815.925;  254.050;    0.000
449.481; 2862.925;  318.050;    0.000
449.528; 2803.925;  274.050;    0.000
449.575; 2805.925;  251.050;    0.000
449.622; 2824.925;  276.050;    0.000
449.668; 2795.925;  242.050;    0.000
449.715; 2761.925;  286.050;    0.000
449.762; 2683.925;  268.050;    0.000
449.809; 2884.925;  285.050;    0.000
449.855; 2738.925;  277.050;    0.000
449.902; 2727.925;  246.050;    0.000
449.949; 2660.925;  268.050;    0.000
449.995; 2771.925;  289.050;    0.000
450.042; 2624.925;  256.050;    0.000
450.089; 2711.925;  290.050;    0.000
450.135; 2703.925;  300.050;    0.000
450.182; 2666.925;  317.050;    0.000
450.229; 2677.925;  282.050;    0.000
450.275; 2812.925;  307.050;    0.000
450.322; 2631.925;  260.050;    0.000
450.368; 2699.925;  315.050;    0.000
450.415; 2671.925;  306.050;    0.000
450.462; 2738.925;  314.050;    0.000
450.508; 2694.925;  303.050;    0.000
450.555; 2625.925;  281.050;    0.000
450.601; 2653.925;  291.050;    0.000
450.648; 2649.925;  288.050;    0.000
450.694; 2687.925;  290.050;    0.000
450.741; 2687.925;  303.050;    0.000
450.787; 2636.925;  298.050;    0.000
450.834; 2640.925;  265.050;    0.000
450.880; 2672.925;  273.050;    0.000
450.927; 2675.925;  312.050;    0.000
450.973; 2595.925;  303.050;    0.000
451.019; 2642.925;  222.050;    0.000
451.066; 2548.925;  284.050;    0.000
451.112; 2616.925;  296.050;    0.000
451.159; 2635.925;  299.050;    0.000
451.205; 2609.925;  311.050;    0.000
451.251; 2637.925;  306.050;    0.000
451.298; 2616.925;  281.050;    0.000
451.344; 2586.925;  311.050;    0.000
451.390; 2641.925;  331.050;    0.000
451.437; 2608.925;  303.050;    0.000
451.483; 2722.925;  284.050;    0.000
451.529; 2538.925;  310.050;    0.000
451.576; 2565.925;  301.050;    0.000
451.622; 2628.925;  275.050;    0.000
451.668; 2568.925;  269.050;    0.000
451.714; 2561.925;  277.050;    0.000
451.761; 2609.925;  298.050;    0.000
451.807; 2546.925;  316.050;    0.000
451.853; 2592.925;  301.050;    0.000
451.899; 2504.925;  292.050;    0.000
451.945; 2500.925;  324.050;    0.000
451.992; 2616.925;  292.050;    0.000
452.038; 2633.925;  261.050;    0.000
452.084; 2544.925;  286.050;    0.000
452.130; 2568.925;  301.050;    0.000
452.176; 2662.925;  287.050;    0.000
452.222; 2514.925;  265.050;    0.000
452.268; 2498.925;  268.050;    0.000
452.315; 2492.925;  272.050;    0.000
452.361; 2536.925;  258.050;    0.000
452.407; 2515.925;  279.050;    0.000
452.453; 2475.925;  252.050;    0.000
452.499; 2575.925;  305.050;    0.000
452.545; 2464.925;  263.050;    0.000
452.591; 2598.925;  284.050;    0.000
452.637; 2513.925;  289.050;    0.000
452.683; 2453.925;  249.050;    0.000
452.729; 2531.925;  290.050;    0.000
452.775; 2458.925;  315.050;    0.000
452.821; 2389.925;  271.050;    0.000
452.867; 2418.925;  258.050;    0.000
452.913; 2446.925;  256.050;    0.000
452.959; 2485.925;  266.050;    0.000
453.005; 2483.925;  299.050;    0.000
453.051; 2498.925;  299.050;    0.000
453.097; 2479.925;  268.050;    0.000
453.142; 2523.925;  251.050;    0.000
453.188; 2528.925;  284.050;    0.000
453.234; 2453.925;  285.050;    0.000
453.280; 2477.925;  263.050;    0.000
453.326; 2525.925;  273.050;    0.000
453.372; 2549.925;  253.050;    0.000
453.418; 2494.925;  269.050;    0.000
453.463; 2412.925;  250.050;    0.000
453.509; 2448.925;  289.050;    0.000
453.555; 2536.925;  262.050;    0.000
453.601; 2430.925;  274.050;    0.000
453.647; 2445.925;  306.050;    0.000
453.692; 2458.925;  264.050;    0.000
453.738; 2430.925;  312.050;    0.000
453.784; 2420.925;  300.050;    0.000
453.829; 2411.925;  284.050;    0.000
453.875; 2442.925;  270.050;    0.000
453.921; 2387.925;  237.050;    0.000
453.967; 2459.925;  263.050;    0.000
454.012; 2426.925;  295.050;    0.000
454.058; 2371.925;  293.050;    0.000
454.104; 2437.925;  264.050;    0.000
454.149; 2387.925;  282.050;    0.000
454.195; 2377.925;  277.050;    0.000
454.240; 2477.925;  307.050;    0.000
454.286; 2365.925;  282.050;    0.000
454.332; 2422.925;  291.050;    0.000
454.377; 2475.925;  302.050;    0.000
454.423; 2456.925;  276.050;    0.000
454.468; 2418.925;  281.050;    0.000
454.514; 2410.925;  290.050;    0.000
454.559; 2465.925;  289.050;    0.000
454.605; 2449.925;  258.050;    0.000
454.650; 2374.925;  281.050;    0.000
454.696; 2417.925;  308.050;    0.000
454.741; 2435.925;  288.050;    0.000
454.787; 2382.925;  284.050;    0.000
454.832; 2430.925;  306.050;    0.000
454.878; 2383.925;  288.050;    0.000
454.923; 2356.925;  287.050;    0.000
454.969; 2419.925;  325.050;    0.000
455.014; 2463.925;  323.050;    0.000
455.060; 2451.925;  290.050;    0.000
455.105; 2453.925;  285.050;    0.000
455.150; 2450.925;  303.050;    0.000
455.196; 2485.925;  282.050;    0.000
455.241; 2463.925;  281.050;    0.000
455.286; 2369.925;  290.050;    0.000
455.332; 2432.925;  280.050;    0.000
455.377; 2449.925;  243.050;    0.000
455.422; 2418.925;  308.050;    0.000
455.468; 2323.925;  308.050;    0.000
455.513; 2374.925;  290.050;    0.000
455.558; 2406.925;  211.050;    0.000
455.604; 2512.925;  289.050;    0.000
455.649; 2447.925;  297.050;    0.000
455.694; 2387.925;  287.050;    0.000
455.739; 2389.925;  296.050;    0.000
455.785; 2419.925;  315.050;    0.000
455.830; 2380.925;  328.050;    0.000
455.875; 2447.925;  310.050;    0.000
455.920; 2369.925;  261.050;    0.000
455.965; 2454.925;  277.050;    0.000
456.010; 2335.925;  317.050;    0.000
456.056; 2440.925;  299.050;    0.000
456.101; 2405.925;  262.050;    0.000
456.146; 2466.925;  318.050;    0.000
456.191; 2457.925;  274.050;    0.000
456.236; 2361.925;  274.050;    0.000
456.281; 2356.925;  275.050;    0.000
456.326; 2386.925;  256.050;    0.000
456.371; 2453.925;  260.050;    0.000
456.416; 2348.925;  304.050;    0.000
456.461; 2416.925;  278.050;    0.000
456.507; 2344.925;  299.050;    0.000
456.552; 2467.925;  305.050;    0.000
456.597; 2428.925;  271.050;    0.000
456.642; 2390.925;  273.050;    0.000
456.687; 2454.925;  290.050;    0.000
456.732; 2430.925;  327.050;    0.000
456.776; 2411.925;  284.050;    0.000
456.821; 2496.925;  321.050;    0.000
456.866; 2361.925;  272.050;    0.000
456.911; 2421.925;  232.050;    0.000
456.956; 2413.925;  263.050;    0.000
457.001; 2367.925;  277.050;    0.000
457.046; 2494.925;  284.050;    0.000
457.091; 2496.925;  269.050;    0.000
457.136; 2386.925;  269.050;    0.000
457.181; 2430.925;  275.050;    0.000
457.225; 2371.925;  310.050;    0.000
457.270; 2529.925;  295.050;    0.000
457.315; 2472.925;  284.050;    0.000
457.360; 2451.925;  264.050;    0.000
457.405; 2443.925;  273.050;    0.000
457.450; 2457.925;  284.050;    0.000
457.494; 2398.925;  273.050;    0.000
457.539; 2488.925;  287.050;    0.000
457.584; 2459.925;  279.050;    0.000
457.629; 2381.925;  288.050;    0.000
457.673; 2390.925;  297.050;    0.000
457.718; 2409.925;  270.050;    0.000
457.763; 2462.925;  295.050;    0.000
457.807; 2465.925;  321.050;    0.000
457.852; 2484.925;  293.050;    0.000
457.897; 2533.925;  282.050;    0.000
457.941; 2546.925;  320.050;    0.000
457.986; 2529.925;  295.050;    0.000
458.031; 2408.925;  314.050;    0.000
458.075; 2482.925;  280.050;    0.000
458.120; 2502.925;  314.050;    0.000
458.165; 2475.925;  289.050;    0.000
458.209; 2536.925;  289.050;    0.000
458.254; 2540.925;  272.050;    0.000
458.298; 2489.925;  305.050;    0.000
458.343; 2551.925;  284.050;    0.000
458.387; 2537.925;  340.050;    0.000
458.432; 2606.925;  306.050;    0.000
458.476; 2510.925;  311.050;    0.000
458.521; 2612.925;  304.050;    0.000
458.565; 2577.925;  329.050;    0.000
458.610; 2564.925;  287.050;    0.000
458.654; 2585.925;  300.050;    0.000
458.699; 2641.925;  295.050;    0.000
458.743; 2580.925;  269.050;    0.000
458.788; 2540.925;  294.050;    0.000
458.832; 2602.925;  301.050;    0.000
458.877; 2588.925;  303.050;    0.000
458.921; 2588.925;  259.050;    0.000
458.965; 2654.925;  308.050;    0.000
459.010; 2678.925;  330.050;    0.000
459.054; 2687.925;  298.050;    0.000
459.099; 2764.925;  303.050;    0.000
459.143; 2744.925;  333.050;    0.000
459.187; 2645.925;  291.050;    0.000
459.231; 2601.925;  316.050;    0.000
459.276; 2693.925;  294.050;    0.000
459.320; 2744.925;  291.050;    0.000
459.364; 2650.925;  318.050;    0.000
459.409; 2648.925;  325.050;    0.000
459.453; 2710.925;  293.050;    0.000
459.497; 2734.925;  354.050;    0.000
459.541; 2748.925;  313.050;    0.000
459.586; 2677.925;  282.050;    0.000
459.630; 2638.925;  286.050;    0.000
459.674; 2599.925;  292.050;    0.000
459.718; 2659.925;  280.050;    0.000
459.762; 2658.925;  304.050;    0.000
459.807; 2692.925;  352.050;    0.000
459.851; 2651.925;  300.050;    0.000
459.895; 2667.925;  311.050;    0.000
459.939; 2727.925;  303.050;    0.000
459.983; 2757.925;  299.050;    0.000
460.027; 2764.925;  307.050;    0.000
460.071; 2761.925;  313.050;    0.000
460.115; 2745.925;  325.050;    0.000
460.159; 2745.925;  331.050;    0.000
460.204; 2774.925;  301.050;    0.000
460.248; 2734.925;  329.050;    0.000
460.292; 2894.925;  310.050;    0.000
460.336; 2796.925;  304.050;    0.000
460.380; 2802.925;  313.050;    0.000
460.424; 2813.925;  300.050;    0.000
460.468; 2875.925;  338.050;    0.000
460.512; 2871.925;  310.050;    0.000
460.556; 2852.925;  337.050;    0.000
460.599; 2823.925;  310.050;    0.000
460.643; 2768.925;  303.050;    0.000
460.687; 2797.925;  316.050;    0.000
460.731; 2811.925;  292.050;    0.000
460.775; 2848.925;  294.050;    0.000
460.819; 2899.925;  310.050;    0.000
460.863; 2726.925;  349.050;    0.000
460.907; 2748.925;  265.050;    0.000
460.951; 2885.925;  325.050;    0.000
460.995; 2828.925;  338.050;    0.000
461.038; 2785.925;  304.050;    0.000
461.082; 2775.925;  312.050;    0.000
461.126; 2798.925;  358.050;    0.000
461.170; 2840.925;  306.050;    0.000
461.214; 2816.925;  330.050;    0.000
461.257; 2856.925;  311.050;    0.000
461.301; 2913.925;  303.050;    0.000
461.345; 2815.925;  310.050;    0.000
461.389; 2848.925;  296.050;    0.000
461.432; 2744.925;  304.050;    0.000
461.476; 2718.925;  305.050;    0.000
461.520; 2806.925;  319.050;    0.000
461.563; 2863.925;  294.050;    0.000
461.607; 2900.925;  295.050;    0.000
461.651; 2818.925;  335.050;    0.000
461.694; 2863.925;  276.050;    0.000
461.738; 2779.925;  327.050;    0.000
461.782; 2845.925;  288.050;    0.000
461.825; 2870.925;  319.050;    0.000
461.869; 2931.925;  305.050;    0.000
461.913; 2905.925;  281.050;    0.000
461.956; 2949.925;  281.050;    0.000
462.000; 2926.925;  339.050;    0.000
462.043; 2921.925;  347.050;    0.000
462.087; 2941.925;  314.050;    0.000
462.130; 2982.925;  332.050;    0.000
462.174; 2964.925;  332.050;    0.000
462.217; 2869.925;  299.050;    0.000
462.261; 2906.925;  323.050;    0.000
462.304; 3008.925;  286.050;    0.000
462.348; 2915.925;  305.050;    0.000
462.391; 2922.925;  293.050;    0.000
462.435; 2974.925;  365.050;    0.000
462.478; 3073.925;  329.050;    0.000
462.522; 2932.925;  316.050;    0.000
462.565; 3093.925;  328.050;    0.000
462.608; 3043.925;  350.050;    0.000
462.652; 3019.925;  328.050;    0.000
462.695; 3116.925;  358.050;    0.000
462.739; 3012.925;  317.050;    0.000
462.782; 3214.925;  329.050;    0.000
462.825; 3055.925;  368.050;    0.000
462.869; 3131.925;  343.050;    0.000
462.912; 3100.925;  404.050;    0.000
462.955; 3082.925;  328.050;    0.000
462.998; 3215.925;  340.050;    0.000
463.042; 3227.925;  361.050;    0.000
463.085; 3151.925;  337.050;    0.000
463.128; 3186.925;  373.050;    0.000
463.172; 2995.925;  347.050;    0.000
463.215;  399.925;  305.050;    0.000
463.258;  311.925;  324.050;    0.000
463.301;  305.925;  296.050;    0.000
463.344;  319.925;  332.050;    0.000
463.388;  329.925;  309.050;    0.000
463.431;  309.925;  298.050;    0.000
463.474;  369.925;  351.050;    0.000
463.517;  276.925;  319.050;    0.000
463.560;  309.925;  325.050;    0.000
463.603;  336.925;  330.050;    0.000
463.646;  338.925;  332.050;    0.000
463.690;  328.925;  325.050;    0.000
463.733;  346.925;  323.050;    0.000
463.776;  336.925;  276.050;    0.000
463.819;  324.925;  320.050;    0.000
463.862;  309.925;  275.050;    0.000

