
Integration time [ms]:   0.300
Averaging Nr. [scans]: 1
Smoothing Nr. [pixels]: 0
Data measured with spectrometer [name]: VIS
Wave   ;Sample   ;Dark     ;Reference
[nm]   ;[counts] ;[counts] ;[counts] 

450.961;  235.600;  204.350;    0.000
451.100;  237.600;  243.350;    0.000
451.239;  205.600;  228.350;    0.000
451.377;  281.600;  250.350;    0.000
451.516;  231.600;  189.350;    0.000
451.655;  222.600;  235.350;    0.000
451.794;  253.600;  223.350;    0.000
451.932;  283.600;  269.350;    0.000
452.071;  203.600;  250.350;    0.000
452.210;  224.600;  262.350;    0.000
452.348;  247.600;  259.350;    0.000
452.487;  219.600;  231.350;    0.000
452.626;  222.600;  220.350;    0.000
452.764;  228.600;  252.350;    0.000
452.903;  232.600;  236.350;    0.000
453.042;  270.600;  217.350;    0.000
453.180; 1780.600;  273.350;    0.000
453.319; 1945.600;  261.350;    0.000
453.458; 1882.600;  219.350;    0.000
453.596; 1914.600;  307.350;    0.000
453.735; 1899.600;  246.350;    0.000
453.873; 1976.600;  270.350;    0.000
454.012; 1933.600;  232.350;    0.000
454.150; 1879.600;  211.350;    0.000
454.289; 2023.600;  245.350;    0.000
454.427; 2074.600;  224.350;    0.000
454.566; 2054.600;  252.350;    0.000
454.704; 2023.600;  225.350;    0.000
454.843; 2060.600;  195.350;    0.000
454.981; 2048.600;  258.350;    0.000
455.120; 1989.600;  191.350;    0.000
455.258; 2245.600;  243.350;    0.000
455.397; 2124.600;  188.350;    0.000
455.535; 2204.600;  219.350;    0.000
455.674; 2066.600;  184.350;    0.000
455.812; 2199.600;  225.350;    0.000
455.951; 2187.600;  201.350;    0.000
456.089; 2280.600;  187.350;    0.000
456.227; 2204.600;  199.350;    0.000
456.366; 2169.600;  235.350;    0.000
456.504; 2132.600;  216.350;    0.000
456.642; 2306.600;  256.350;    0.000
456.781; 2238.600;  201.350;    0.000
456.919; 2286.600;  231.350;    0.000
457.057; 2327.600;  181.350;    0.000
457.196; 2260.600;  231.350;    0.000
457.334; 2295.600;  229.350;    0.000
457.472; 2403.600;  242.350;    0.000
457.610; 2369.600;  221.350;    0.000
457.749; 2452.600;  218.350;    0.000
457.887; 2418.600;  213.350;    0.000
458.025; 2618.600;  228.350;    0.000
458.163; 2578.600;  204.350;    0.000
458.301; 2629.600;  230.350;    0.000
458.440; 2608.600;  200.350;    0.000
458.578; 2841.600;  222.350;    0.000
458.716; 2727.600;  137.350;    0.000
458.854; 2779.600;  259.350;    0.000
458.992; 2823.600;  172.350;    0.000
459.130; 2734.600;  253.350;    0.000
459.269; 2855.600;  212.350;    0.000
459.407; 2846.600;  212.350;    0.000
459.545; 2896.600;  225.350;    0.000
459.683; 2958.600;  225.350;    0.000
459.821; 2887.600;  192.350;    0.000
459.959; 3030.600;  205.350;    0.000
460.097; 2913.600;  199.350;    0.000
460.235; 2978.600;  232.350;    0.000
460.373; 2993.600;  248.350;    0.000
460.511; 3152.600;  225.350;    0.000
460.649; 3105.600;  204.350;    0.000
460.787; 2983.600;  221.350;    0.000
460.925; 3157.600;  181.350;    0.000
461.063; 3079.600;  243.350;    0.000
461.201; 3042.600;  212.350;    0.000
461.339; 3323.600;  229.350;    0.000
461.477; 3042.600;  162.350;    0.000
461.615; 3147.600;  232.350;    0.000
461.753; 3230.600;  193.350;    0.000
461.891; 3195.600;  217.350;    0.000
462.029; 3334.600;  224.350;    0.000
462.166; 3433.600;  222.350;    0.000
462.304; 3328.600;  185.350;    0.000
462.442; 3513.600;  246.350;    0.000
462.580; 3310.600;  246.350;    0.000
462.718; 3409.600;  235.350;    0.000
462.856; 3361.600;  230.350;    0.000
462.993; 3250.600;  266.350;    0.000
463.131; 3351.600;  208.350;    0.000
463.269; 3173.600;  218.350;    0.000
463.407; 3163.600;  215.350;    0.000
463.545; 3153.600;  200.350;    0.000
463.682; 3299.600;  206.350;    0.000
463.820; 3358.600;  211.350;    0.000
463.958; 3561.600;  206.350;    0.000
464.095; 3730.600;  193.350;    0.000
464.233; 3849.600;  203.350;    0.000
464.371; 3590.600;  258.350;    0.000
464.509; 3717.600;  219.350;    0.000
464.646; 3705.600;  210.350;    0.000
464.784; 3629.600;  206.350;    0.000
464.921; 3749.600;  233.350;    0.000
465.059; 3445.600;  186.350;    0.000
465.197; 3439.600;  213.350;    0.000
465.334; 3343.600;  202.350;    0.000
465.472; 3307.600;  236.350;    0.000
465.609; 3351.600;  206.350;    0.000
465.747; 3417.600;  208.350;    0.000
465.885; 3368.600;  198.350;    0.000
466.022; 3380.600;  210.350;    0.000
466.160; 3394.600;  245.350;    0.000
466.297; 3288.600;  226.350;    0.000
466.435; 3365.600;  235.350;    0.000
466.572; 3402.600;  226.350;    0.000
466.710; 3358.600;  266.350;    0.000
466.847; 3369.600;  258.350;    0.000
466.985; 3392.600;  228.350;    0.000
467.122; 3393.600;  201.350;    0.000
467.260; 3259.600;  170.350;    0.000
467.397; 3135.600;  174.350;    0.000
467.534; 3291.600;  244.350;    0.000
467.672; 3272.600;  247.350;    0.000
467.809; 3119.600;  182.350;    0.000
467.947; 3564.600;  208.350;    0.000
468.084; 3260.600;  206.350;    0.000
468.221; 3422.600;  249.350;    0.000
468.359; 3338.600;  253.350;    0.000
468.496; 3090.600;  208.350;    0.000
468.633; 3152.600;  189.350;    0.000
468.771; 3326.600;  216.350;    0.000
468.908; 3339.600;  240.350;    0.000
469.045; 3291.600;  234.350;    0.000
469.183; 3291.600;  203.350;    0.000
469.320; 3364.600;  230.350;    0.000
469.457; 3325.600;  219.350;    0.000
469.594; 3304.600;  233.350;    0.000
469.732; 3266.600;  230.350;    0.000
469.869; 3428.600;  239.350;    0.000
470.006; 3398.600;  224.350;    0.000
470.143; 3563.600;  241.350;    0.000
470.280; 3618.600;  234.350;    0.000
470.417; 3551.600;  236.350;    0.000
470.555; 3414.600;  207.350;    0.000
470.692; 3399.600;  251.350;    0.000
470.829; 3532.600;  238.350;    0.000
470.966; 3411.600;  242.350;    0.000
471.103; 3524.600;  215.350;    0.000
471.240; 3277.600;  237.350;    0.000
471.377; 3350.600;  235.350;    0.000
471.514; 3254.600;  256.350;    0.000
471.651; 3398.600;  198.350;    0.000
471.789; 3256.600;  215.350;    0.000
471.926; 3429.600;  210.350;    0.000
472.063; 3275.600;  237.350;    0.000
472.200; 3369.600;  265.350;    0.000
472.337; 3283.600;  240.350;    0.000
472.474; 3294.600;  195.350;    0.000
472.611; 3227.600;  228.350;    0.000
472.748; 3154.600;  234.350;    0.000
472.884; 3213.600;  230.350;    0.000
473.021; 3198.600;  219.350;    0.000
473.158; 3245.600;  253.350;    0.000
473.295; 3278.600;  207.350;    0.000
473.432; 3481.600;  238.350;    0.000
473.569; 3317.600;  236.350;    0.000
473.706; 3201.600;  203.350;    0.000
473.843; 3163.600;  232.350;    0.000
473.980; 3397.600;  207.350;    0.000
474.117; 3327.600;  182.350;    0.000
474.253; 3373.600;  261.350;    0.000
474.390; 3057.600;  211.350;    0.000
474.527; 3098.600;  229.350;    0.000
474.664; 3163.600;  181.350;    0.000
474.801; 3414.600;  250.350;    0.000
474.937; 3451.600;  196.350;    0.000
475.074; 3501.600;  213.350;    0.000
475.211; 3409.600;  232.350;    0.000
475.348; 3270.600;  228.350;    0.000
475.484; 3389.600;  240.350;    0.000
475.621; 3394.600;  235.350;    0.000
475.758; 3241.600;  232.350;    0.000
475.894; 3263.600;  227.350;    0.000
476.031; 3477.600;  233.350;    0.000
476.168; 3191.600;  205.350;    0.000
476.304; 3231.600;  263.350;    0.000
476.441; 3447.600;  255.350;    0.000
476.578; 3272.600;  191.350;    0.000
476.714; 3503.600;  218.350;    0.000
476.851; 3314.600;  224.350;    0.000
476.987; 3508.600;  225.350;    0.000
477.124; 3414.600;  231.350;    0.000
477.261; 3318.600;  291.350;    0.000
477.397; 3308.600;  218.350;    0.000
477.534; 3405.600;  209.350;    0.000
477.670; 3322.600;  210.350;    0.000
477.807; 3379.600;  199.350;    0.000
477.943; 3717.600;  219.350;    0.000
478.080; 3434.600;  234.350;    0.000
478.216; 3635.600;  196.350;    0.000
478.353; 3421.600;  234.350;    0.000
478.489; 3552.600;  219.350;    0.000
478.626; 3543.600;  209.350;    0.000
478.762; 3635.600;  206.350;    0.000
478.898; 3734.600;  209.350;    0.000
479.035; 3623.600;  232.350;    0.000
479.171; 3502.600;  219.350;    0.000
479.308; 3728.600;  226.350;    0.000
479.444; 3542.600;  184.350;    0.000
479.580; 3499.600;  192.350;    0.000
479.717; 3608.600;  247.350;    0.000
479.853; 3717.600;  181.350;    0.000
479.989; 3728.600;  212.350;    0.000
480.126; 3809.600;  187.350;    0.000
480.262; 3852.600;  217.350;    0.000
480.398; 3780.600;  249.350;    0.000
480.535; 3791.600;  196.350;    0.000
480.671; 3660.600;  199.350;    0.000
480.807; 3791.600;  231.350;    0.000
480.943; 3636.600;  192.350;    0.000
481.080; 3576.600;  206.350;    0.000
481.216; 3584.600;  189.350;    0.000
481.352; 3740.600;  215.350;    0.000
481.488; 3726.600;  223.350;    0.000
481.624; 3804.600;  235.350;    0.000
481.760; 3818.600;  218.350;    0.000
481.897; 3558.600;  204.350;    0.000
482.033; 3652.600;  243.350;    0.000
482.169; 3689.600;  239.350;    0.000
482.305; 3490.600;  221.350;    0.000
482.441; 3717.600;  162.350;    0.000
482.577; 3657.600;  241.350;    0.000
482.713; 3576.600;  223.350;    0.000
482.849; 3511.600;  195.350;    0.000
482.985; 3559.600;  230.350;    0.000
483.121; 3685.600;  230.350;    0.000
483.258; 3601.600;  254.350;    0.000
483.394; 3800.600;  199.350;    0.000
483.530; 3686.600;  209.350;    0.000
483.665; 3748.600;  196.350;    0.000
483.801; 3575.600;  208.350;    0.000
483.937; 3611.600;  202.350;    0.000
484.073; 3532.600;  247.350;    0.000
484.209; 3603.600;  188.350;    0.000
484.345; 3688.600;  241.350;    0.000
484.481; 3834.600;  247.350;    0.000
484.617; 3656.600;  248.350;    0.000
484.753; 3854.600;  255.350;    0.000
484.889; 3732.600;  253.350;    0.000
485.025; 3696.600;  226.350;    0.000
485.161; 3907.600;  207.350;    0.000
485.296; 3656.600;  247.350;    0.000
485.432; 3857.600;  255.350;    0.000
485.568; 3640.600;  216.350;    0.000
485.704; 3882.600;  232.350;    0.000
485.840; 3690.600;  231.350;    0.000
485.975; 3790.600;  233.350;    0.000
486.111; 3565.600;  207.350;    0.000
486.247; 3886.600;  211.350;    0.000
486.383; 3707.600;  219.350;    0.000
486.518; 3723.600;  213.350;    0.000
486.654; 3837.600;  216.350;    0.000
486.790; 3799.600;  253.350;    0.000
486.926; 3949.600;  229.350;    0.000
487.061; 3876.600;  241.350;    0.000
487.197; 3740.600;  218.350;    0.000
487.333; 3675.600;  221.350;    0.000
487.468; 3630.600;  206.350;    0.000
487.604; 3743.600;  254.350;    0.000
487.740; 3754.600;  240.350;    0.000
487.875; 3930.600;  260.350;    0.000
488.011; 3720.600;  232.350;    0.000
488.146; 3693.600;  206.350;    0.000
488.282; 3724.600;  236.350;    0.000
488.417; 3745.600;  255.350;    0.000
488.553; 3739.600;  221.350;    0.000
488.688; 3602.600;  233.350;    0.000
488.824; 3783.600;  246.350;    0.000
488.960; 3942.600;  267.350;    0.000
489.095; 3859.600;  217.350;    0.000
489.230; 3740.600;  226.350;    0.000
489.366; 3681.600;  232.350;    0.000
489.501; 3758.600;  220.350;    0.000
489.637; 3903.600;  245.350;    0.000
489.772; 3864.600;  228.350;    0.000
489.908; 4114.600;  250.350;    0.000
490.043; 3765.600;  239.350;    0.000
490.178; 3895.600;  213.350;    0.000
490.314; 3926.600;  270.350;    0.000
490.449; 3638.600;  245.350;    0.000
490.585; 3927.600;  218.350;    0.000
490.720; 3857.600;  243.350;    0.000
490.855; 3872.600;  196.350;    0.000
490.991; 3883.600;  208.350;    0.000
491.126; 4115.600;  268.350;    0.000
491.261; 3998.600;  226.350;    0.000
491.396; 3909.600;  201.350;    0.000
491.532; 3982.600;  213.350;    0.000
491.667; 3894.600;  183.350;    0.000
491.802; 4054.600;  239.350;    0.000
491.937; 3985.600;  228.350;    0.000
492.073; 4013.600;  258.350;    0.000
492.208; 4003.600;  218.350;    0.000
492.343; 3935.600;  205.350;    0.000
492.478; 3985.600;  247.350;    0.000
492.613; 4015.600;  217.350;    0.000
492.749; 3953.600;  258.350;    0.000
492.884; 3916.600;  208.350;    0.000
493.019; 3862.600;  248.350;    0.000
493.154; 3803.600;  231.350;    0.000
493.289; 4032.600;  226.350;    0.000
493.424; 4011.600;  216.350;    0.000
493.559; 3764.600;  205.350;    0.000
493.694; 3971.600;  203.350;    0.000
493.829; 3970.600;  231.350;    0.000
493.964; 3788.600;  200.350;    0.000
494.099; 3866.600;  253.350;    0.000
494.234; 3982.600;  244.350;    0.000
494.369; 4070.600;  239.350;    0.000
494.504; 3913.600;  223.350;    0.000
494.639; 3776.600;  263.350;    0.000
494.774; 3967.600;  240.350;    0.000
494.909; 3911.600;  231.350;    0.000
495.044; 4083.600;  195.350;    0.000
495.179; 4013.600;  231.350;    0.000
495.314; 3994.600;  231.350;    0.000
495.449; 3940.600;  239.350;    0.000
495.584; 3944.600;  201.350;    0.000
495.719; 3990.600;  201.350;    0.000
495.854; 4125.600;  201.350;    0.000
495.988; 4105.600;  239.350;    0.000
496.123; 4042.600;  199.350;    0.000
496.258; 4128.600;  256.350;    0.000
496.393; 4013.600;  214.350;    0.000
496.528; 4183.600;  220.350;    0.000
496.663; 4199.600;  207.350;    0.000
496.797; 4133.600;  241.350;    0.000
496.932; 4492.600;  215.350;    0.000
497.067; 4321.600;  240.350;    0.000
497.202; 4460.600;  177.350;    0.000
497.336; 4578.600;  221.350;    0.000
497.471; 4759.600;  228.350;    0.000
497.606; 4622.600;  213.350;    0.000
497.740; 4901.600;  217.350;    0.000
497.875; 4882.600;  182.350;    0.000
498.010; 5271.600;  230.350;    0.000
498.144; 5362.600;  217.350;    0.000
498.279; 5629.600;  194.350;    0.000
498.414; 5627.600;  270.350;    0.000
498.548; 5537.600;  184.350;    0.000
498.683; 5596.600;  188.350;    0.000
498.817; 5397.600;  216.350;    0.000
498.952; 5389.600;  208.350;    0.000
499.087; 5516.600;  236.350;    0.000
499.221; 5485.600;  219.350;    0.000
499.356; 5436.600;  263.350;    0.000
499.490; 5869.600;  221.350;    0.000
499.625; 6043.600;  233.350;    0.000
499.759; 5916.600;  245.350;    0.000
499.894; 6259.600;  241.350;    0.000
500.028; 6370.600;  237.350;    0.000
500.162; 6165.600;  282.350;    0.000
500.297; 6554.600;  232.350;    0.000
500.431; 6382.600;  266.350;    0.000
500.566; 6634.600;  254.350;    0.000
500.700; 6495.600;  238.350;    0.000
500.835; 6017.600;  264.350;    0.000
500.969; 6121.600;  165.350;    0.000
501.103; 6007.600;  190.350;    0.000
501.238; 5795.600;  274.350;    0.000
501.372; 5756.600;  270.350;    0.000
501.506; 5231.600;  231.350;    0.000
501.641; 5265.600;  224.350;    0.000
501.775; 5178.600;  224.350;    0.000
501.909; 5172.600;  218.350;    0.000
502.043; 4644.600;  238.350;    0.000
502.178; 4844.600;  289.350;    0.000
502.312; 4633.600;  225.350;    0.000
502.446; 4433.600;  295.350;    0.000
502.580; 4470.600;  200.350;    0.000
502.715; 4592.600;  256.350;    0.000
502.849; 4542.600;  226.350;    0.000
502.983; 4521.600;  250.350;    0.000
503.117; 4285.600;  229.350;    0.000
503.251; 4281.600;  267.350;    0.000
503.385; 4240.600;  237.350;    0.000
503.520; 4291.600;  210.350;    0.000
503.654; 4001.600;  204.350;    0.000
503.788; 4235.600;  236.350;    0.000
503.922; 4123.600;  225.350;    0.000
504.056; 3932.600;  222.350;    0.000
504.190; 3846.600;  220.350;    0.000
504.324; 3993.600;  257.350;    0.000
504.458; 3976.600;  223.350;    0.000
504.592; 3834.600;  252.350;    0.000
504.726; 3794.600;  216.350;    0.000
504.860; 3763.600;  231.350;    0.000
504.994; 3685.600;  228.350;    0.000
505.128; 3734.600;  239.350;    0.000
505.262; 3649.600;  245.350;    0.000
505.396; 3725.600;  231.350;    0.000
505.530; 3410.600;  211.350;    0.000
505.664; 3501.600;  223.350;    0.000
505.798; 3363.600;  239.350;    0.000
505.932; 3427.600;  232.350;    0.000
506.066; 3513.600;  263.350;    0.000
506.199; 3335.600;  231.350;    0.000
506.333; 3209.600;  213.350;    0.000
506.467; 3354.600;  241.350;    0.000
506.601; 3472.600;  233.350;    0.000
506.735; 3315.600;  235.350;    0.000
506.869; 3296.600;  269.350;    0.000
507.002; 3409.600;  244.350;    0.000
507.136; 3193.600;  258.350;    0.000
507.270; 3322.600;  218.350;    0.000
507.404; 3268.600;  191.350;    0.000
507.537; 3260.600;  226.350;    0.000
507.671; 3207.600;  243.350;    0.000
507.805; 3191.600;  234.350;    0.000
507.939; 3191.600;  234.350;    0.000
508.072; 3192.600;  261.350;    0.000
508.206; 3166.600;  220.350;    0.000
508.340; 3092.600;  241.350;    0.000
508.473; 3196.600;  214.350;    0.000
508.607; 3160.600;  232.350;    0.000
508.740; 3194.600;  222.350;    0.000
508.874; 3001.600;  225.350;    0.000
509.008; 3012.600;  258.350;    0.000
509.141; 3292.600;  210.350;    0.000
509.275; 3126.600;  199.350;    0.000
509.408; 3159.600;  260.350;    0.000
509.542; 2979.600;  252.350;    0.000
509.675; 3106.600;  276.350;    0.000
509.809; 3014.600;  266.350;    0.000
509.942; 3105.600;  227.350;    0.000
510.076; 2846.600;  243.350;    0.000
510.209; 3118.600;  221.350;    0.000
510.343; 2917.600;  229.350;    0.000
510.476; 3021.600;  246.350;    0.000
510.610; 3073.600;  211.350;    0.000
510.743; 3011.600;  279.350;    0.000
510.877; 2943.600;  274.350;    0.000
511.010; 2855.600;  252.350;    0.000
511.143; 2785.600;  228.350;    0.000
511.277; 2859.600;  261.350;    0.000
511.410; 3004.600;  217.350;    0.000
511.543; 2926.600;  230.350;    0.000
511.677; 3014.600;  245.350;    0.000
511.810; 2965.600;  237.350;    0.000
511.943; 2972.600;  224.350;    0.000
512.077; 2966.600;  194.350;    0.000
512.210; 2863.600;  212.350;    0.000
512.343; 2879.600;  236.350;    0.000
512.476; 2971.600;  248.350;    0.000
512.610; 2804.600;  249.350;    0.000
512.743; 2933.600;  224.350;    0.000
512.876; 3034.600;  277.350;    0.000
513.009; 3020.600;  261.350;    0.000
513.142; 2996.600;  213.350;    0.000
513.276; 2916.600;  192.350;    0.000
513.409; 2871.600;  267.350;    0.000
513.542; 2947.600;  224.350;    0.000
513.675; 2870.600;  244.350;    0.000
513.808; 2742.600;  218.350;    0.000
513.941; 3046.600;  237.350;    0.000
514.074; 2838.600;  257.350;    0.000
514.207; 2884.600;  245.350;    0.000
514.340; 2903.600;  195.350;    0.000
514.474; 2995.600;  244.350;    0.000
514.607; 2905.600;  230.350;    0.000
514.740; 3133.600;  246.350;    0.000
514.873; 3306.600;  268.350;    0.000
515.006; 3172.600;  253.350;    0.000
515.139; 3178.600;  235.350;    0.000
515.272; 3199.600;  214.350;    0.000
515.404; 3449.600;  228.350;    0.000
515.537; 3379.600;  263.350;    0.000
515.670; 3158.600;  270.350;    0.000
515.803; 3217.600;  243.350;    0.000
515.936; 3256.600;  226.350;    0.000
516.069; 3185.600;  227.350;    0.000
516.202; 3278.600;  259.350;    0.000
516.335; 3227.600;  260.350;    0.000
516.468; 3339.600;  243.350;    0.000
516.600; 3706.600;  258.350;    0.000
516.733; 4157.600;  235.350;    0.000
516.866; 4357.600;  267.350;    0.000
516.999; 3824.600;  251.350;    0.000
517.132; 4418.600;  261.350;    0.000
517.264; 5729.600;  260.350;    0.000
517.397; 5977.600;  231.350;    0.000
517.530; 4761.600;  257.350;    0.000
517.663; 4158.600;  263.350;    0.000
517.795; 3825.600;  250.350;    0.000
517.928; 3669.600;  257.350;    0.000
518.061; 3711.600;  227.350;    0.000
518.193; 4433.600;  252.350;    0.000
518.326; 6841.600;  227.350;    0.000
518.459; 7561.600;  210.350;    0.000
518.591; 5997.600;  214.350;    0.000
518.724; 4376.600;  269.350;    0.000
518.857; 3727.600;  215.350;    0.000
518.989; 3559.600;  259.350;    0.000
519.122; 3431.600;  238.350;    0.000
519.254; 3459.600;  248.350;    0.000
519.387; 3058.600;  246.350;    0.000
519.519; 3220.600;  239.350;    0.000
519.652; 3218.600;  249.350;    0.000
519.784; 3110.600;  238.350;    0.000
519.917; 3038.600;  231.350;    0.000
520.049; 2971.600;  244.350;    0.000
520.182; 3136.600;  205.350;    0.000
520.314; 2957.600;  262.350;    0.000
520.447; 3063.600;  234.350;    0.000
520.579; 2979.600;  273.350;    0.000
520.712; 2740.600;  215.350;    0.000
520.844; 2972.600;  258.350;    0.000
520.976; 2905.600;  242.350;    0.000
521.109; 2776.600;  232.350;    0.000
521.241; 2756.600;  236.350;    0.000
521.373; 2774.600;  227.350;    0.000
521.506; 2740.600;  212.350;    0.000
521.638; 2737.600;  292.350;    0.000
521.770; 2882.600;  259.350;    0.000
521.903; 2802.600;  263.350;    0.000
522.035; 2559.600;  269.350;    0.000
522.167; 2732.600;  289.350;    0.000
522.300; 2685.600;  255.350;    0.000
522.432; 2615.600;  247.350;    0.000
522.564; 2629.600;  239.350;    0.000
522.696; 2676.600;  246.350;    0.000
522.828; 2686.600;  230.350;    0.000
522.961; 2577.600;  239.350;    0.000
523.093; 2642.600;  269.350;    0.000
523.225; 2635.600;  251.350;    0.000
523.357; 2548.600;  244.350;    0.000
523.489; 2451.600;  266.350;    0.000
523.621; 2561.600;  267.350;    0.000
523.753; 2691.600;  234.350;    0.000
523.885; 2498.600;  229.350;    0.000
524.018; 2648.600;  221.350;    0.000
524.150; 2488.600;  264.350;    0.000
524.282; 2579.600;  283.350;    0.000
524.414; 2604.600;  258.350;    0.000
524.546; 2497.600;  286.350;    0.000
524.678; 2400.600;  274.350;    0.000
524.810; 2478.600;  253.350;    0.000
524.942; 2430.600;  183.350;    0.000
525.074; 2402.600;  232.350;    0.000
525.206; 2403.600;  250.350;    0.000
525.338; 2344.600;  228.350;    0.000
525.469; 2385.600;  224.350;    0.000
525.601; 2469.600;  247.350;    0.000
525.733; 2393.600;  199.350;    0.000
525.865; 2392.600;  230.350;    0.000
525.997; 2422.600;  209.350;    0.000
526.129; 2473.600;  211.350;    0.000
526.261; 2529.600;  233.350;    0.000
526.393; 2397.600;  261.350;    0.000
526.524; 2310.600;  206.350;    0.000
526.656; 2519.600;  260.350;    0.000
526.788; 2389.600;  293.350;    0.000
526.920; 2477.600;  208.350;    0.000
527.052; 2375.600;  204.350;    0.000
527.183; 2345.600;  244.350;    0.000
527.315; 2408.600;  237.350;    0.000
527.447; 2381.600;  236.350;    0.000
527.578; 2447.600;  235.350;    0.000
527.710; 2454.600;  253.350;    0.000
527.842; 2415.600;  231.350;    0.000
527.973; 2354.600;  224.350;    0.000
528.105; 2421.600;  237.350;    0.000
528.237; 2486.600;  213.350;    0.000
528.368; 2299.600;  194.350;    0.000
528.500; 2394.600;  195.350;    0.000
528.632; 2421.600;  201.350;    0.000
528.763; 2349.600;  196.350;    0.000
528.895; 2447.600;  204.350;    0.000
529.026; 2316.600;  214.350;    0.000
529.158; 2353.600;  197.350;    0.000
529.289; 2379.600;  230.350;    0.000
529.421; 2399.600;  247.350;    0.000
529.552; 2430.600;  255.350;    0.000
529.684; 2252.600;  270.350;    0.000
529.815; 2491.600;  248.350;    0.000
529.947; 2364.600;  234.350;    0.000
530.078; 2468.600;  223.350;    0.000
530.210; 2329.600;  243.350;    0.000
530.341; 2386.600;  222.350;    0.000
530.472; 2478.600;  217.350;    0.000
530.604; 2550.600;  242.350;    0.000
530.735; 2458.600;  249.350;    0.000
530.867; 2345.600;  257.350;    0.000
530.998; 2399.600;  250.350;    0.000
531.129; 2469.600;  244.350;    0.000
531.260; 2529.600;  276.350;    0.000
531.392; 2427.600;  220.350;    0.000
531.523; 2443.600;  262.350;    0.000
531.654; 2642.600;  264.350;    0.000
531.786; 2489.600;  225.350;    0.000
531.917; 2633.600;  285.350;    0.000
532.048; 2436.600;  239.350;    0.000
532.179; 2552.600;  248.350;    0.000
532.311; 2367.600;  219.350;    0.000
532.442; 2543.600;  264.350;    0.000
532.573; 2491.600;  230.350;    0.000
532.704; 2520.600;  253.350;    0.000
532.835; 2514.600;  239.350;    0.000
532.966; 2376.600;  247.350;    0.000
533.097; 2498.600;  225.350;    0.000
533.229; 2494.600;  282.350;    0.000
533.360; 2318.600;  236.350;    0.000
533.491; 2463.600;  247.350;    0.000
533.622; 2416.600;  265.350;    0.000
533.753; 2383.600;  226.350;    0.000
533.884; 2489.600;  294.350;    0.000
534.015; 2459.600;  215.350;    0.000
534.146; 2544.600;  223.350;    0.000
534.277; 2460.600;  264.350;    0.000
534.408; 2466.600;  232.350;    0.000
534.539; 2559.600;  274.350;    0.000
534.670; 2590.600;  275.350;    0.000
534.801; 2322.600;  261.350;    0.000
534.932; 2490.600;  225.350;    0.000
535.063; 2433.600;  235.350;    0.000
535.194; 2390.600;  300.350;    0.000
535.324; 2343.600;  249.350;    0.000
535.455; 2315.600;  260.350;    0.000
535.586; 2451.600;  288.350;    0.000
535.717; 2333.600;  237.350;    0.000
535.848; 2311.600;  271.350;    0.000
535.979; 2486.600;  234.350;    0.000
536.109; 2408.600;  255.350;    0.000
536.240; 2346.600;  269.350;    0.000
536.371; 2345.600;  232.350;    0.000
536.502; 2478.600;  253.350;    0.000
536.632; 2429.600;  240.350;    0.000
536.763; 2390.600;  251.350;    0.000
536.894; 2367.600;  256.350;    0.000
537.025; 2279.600;  247.350;    0.000
537.155; 2385.600;  272.350;    0.000
537.286; 2345.600;  241.350;    0.000
537.417; 2463.600;  279.350;    0.000
537.547; 2350.600;  229.350;    0.000
537.678; 2348.600;  227.350;    0.000
537.808; 2365.600;  225.350;    0.000
537.939; 2291.600;  250.350;    0.000
538.070; 2376.600;  263.350;    0.000
538.200; 2337.600;  270.350;    0.000
538.331; 2470.600;  249.350;    0.000
538.461; 2381.600;  230.350;    0.000
538.592; 2338.600;  282.350;    0.000
538.722; 2304.600;  253.350;    0.000
538.853; 2261.600;  240.350;    0.000
538.983; 2365.600;  232.350;    0.000
539.114; 2365.600;  248.350;    0.000
539.244; 2335.600;  256.350;    0.000
539.375; 2342.600;  248.350;    0.000
539.505; 2407.600;  235.350;    0.000
539.636; 2363.600;  237.350;    0.000
539.766; 2389.600;  263.350;    0.000
539.896; 2270.600;  217.350;    0.000
540.027; 2307.600;  217.350;    0.000
540.157; 2338.600;  231.350;    0.000
540.287; 2312.600;  210.350;    0.000
540.418; 2335.600;  239.350;    0.000
540.548; 2405.600;  260.350;    0.000
540.678; 2218.600;  228.350;    0.000
540.809; 2457.600;  241.350;    0.000
540.939; 2460.600;  238.350;    0.000
541.069; 2548.600;  245.350;    0.000
541.200; 2333.600;  225.350;    0.000
541.330; 2445.600;  219.350;    0.000
541.460; 2439.600;  254.350;    0.000
541.590; 2362.600;  234.350;    0.000
541.720; 2440.600;  196.350;    0.000
541.851; 2327.600;  200.350;    0.000
541.981; 2329.600;  235.350;    0.000
542.111; 2658.600;  246.350;    0.000
542.241; 2395.600;  214.350;    0.000
542.371; 2522.600;  221.350;    0.000
542.501; 2728.600;  259.350;    0.000
542.631; 2459.600;  213.350;    0.000
542.761; 2793.600;  240.350;    0.000
542.891; 2584.600;  242.350;    0.000
543.021; 2631.600;  230.350;    0.000
543.151; 2654.600;  261.350;    0.000
543.281; 2604.600;  212.350;    0.000
543.411; 2495.600;  229.350;    0.000
543.542; 2410.600;  204.350;    0.000
543.671; 2610.600;  260.350;    0.000
543.801; 2501.600;  236.350;    0.000
543.931; 2514.600;  243.350;    0.000
544.061; 2508.600;  262.350;    0.000
544.191; 2673.600;  223.350;    0.000
544.321; 2423.600;  217.350;    0.000
544.451; 2483.600;  209.350;    0.000
544.581; 2481.600;  213.350;    0.000
544.711; 2488.600;  256.350;    0.000
544.841; 2563.600;  235.350;    0.000
544.970; 2710.600;  260.350;    0.000
545.100; 2628.600;  236.350;    0.000
545.230; 2807.600;  220.350;    0.000
545.360; 2850.600;  219.350;    0.000
545.490; 2592.600;  217.350;    0.000
545.619; 2671.600;  199.350;    0.000
545.749; 2528.600;  183.350;    0.000
545.879; 2492.600;  169.350;    0.000
546.009; 2519.600;  215.350;    0.000
546.138; 2520.600;  228.350;    0.000
546.268; 2448.600;  209.350;    0.000
546.398; 2444.600;  167.350;    0.000
546.527; 2442.600;  178.350;    0.000
546.657; 2450.600;  175.350;    0.000
546.786; 2544.600;  225.350;    0.000
546.916; 2574.600;  196.350;    0.000
547.046; 2488.600;  185.350;    0.000
547.175; 2341.600;  184.350;    0.000
547.305; 2655.600;  197.350;    0.000
547.434; 2536.600;  168.350;    0.000
547.564; 2527.600;  183.350;    0.000
547.693; 2408.600;  204.350;    0.000
547.823; 2567.600;  211.350;    0.000
547.953; 2500.600;  174.350;    0.000
548.082; 2640.600;  217.350;    0.000
548.211; 2504.600;  201.350;    0.000
548.341; 2580.600;  195.350;    0.000
548.470; 2552.600;  225.350;    0.000
548.600; 2502.600;  194.350;    0.000
548.729; 2536.600;  218.350;    0.000
548.859; 2440.600;  202.350;    0.000
548.988; 2440.600;  193.350;    0.000
549.117; 2464.600;  182.350;    0.000
549.247; 2547.600;  198.350;    0.000
549.376; 2514.600;  200.350;    0.000
549.505; 2566.600;  200.350;    0.000
549.635; 2488.600;  224.350;    0.000
549.764; 2600.600;  200.350;    0.000
549.893; 2486.600;  224.350;    0.000
550.023; 2537.600;  207.350;    0.000
550.152; 2601.600;  167.350;    0.000
550.281; 2536.600;  219.350;    0.000
550.410; 2586.600;  217.350;    0.000
550.539; 2615.600;  211.350;    0.000
550.669; 2583.600;  173.350;    0.000
550.798; 2575.600;  211.350;    0.000
550.927; 2636.600;  195.350;    0.000
551.056; 2435.600;  176.350;    0.000
551.185; 2588.600;  203.350;    0.000
551.314; 2604.600;  178.350;    0.000
551.443; 2534.600;  185.350;    0.000
551.573; 2628.600;  167.350;    0.000
551.702; 2692.600;  193.350;    0.000
551.831; 2670.600;  245.350;    0.000
551.960; 2464.600;  190.350;    0.000
552.089; 2591.600;  202.350;    0.000
552.218; 2622.600;  211.350;    0.000
552.347; 2774.600;  184.350;    0.000
552.476; 2675.600;  200.350;    0.000
552.605; 2658.600;  174.350;    0.000
552.734; 2676.600;  206.350;    0.000
552.863; 2709.600;  189.350;    0.000
552.992; 2845.600;  209.350;    0.000
553.121; 2694.600;  201.350;    0.000
553.249; 2815.600;  208.350;    0.000
553.378; 2794.600;  142.350;    0.000
553.507; 2811.600;  208.350;    0.000
553.636; 2613.600;  192.350;    0.000
553.765; 2711.600;  182.350;    0.000
553.894; 2608.600;  183.350;    0.000
554.023; 2719.600;  182.350;    0.000
554.151; 2736.600;  211.350;    0.000
554.280; 2549.600;  179.350;    0.000
554.409; 2512.600;  182.350;    0.000
554.538; 2612.600;  209.350;    0.000
554.666; 2588.600;  182.350;    0.000
554.795; 2588.600;  179.350;    0.000
554.924; 2515.600;  217.350;    0.000
555.052; 2636.600;  220.350;    0.000
555.181; 2674.600;  228.350;    0.000
555.310; 2620.600;  212.350;    0.000
555.439; 2636.600;  199.350;    0.000
555.567; 2530.600;  220.350;    0.000
555.696; 2642.600;  187.350;    0.000
555.824; 2583.600;  189.350;    0.000
555.953; 2578.600;  217.350;    0.000
556.082; 2454.600;  187.350;    0.000
556.210; 2455.600;  245.350;    0.000
556.339; 2581.600;  195.350;    0.000
556.467; 2666.600;  218.350;    0.000
556.596; 2533.600;  198.350;    0.000
556.724; 2507.600;  201.350;    0.000
556.853; 2498.600;  196.350;    0.000
556.981; 2511.600;  175.350;    0.000
557.110; 2493.600;  210.350;    0.000
557.238; 2507.600;  190.350;    0.000
557.367; 2580.600;  192.350;    0.000
557.495; 2541.600;  219.350;    0.000
557.623; 2560.600;  203.350;    0.000
557.752; 2471.600;  166.350;    0.000
557.880; 2464.600;  172.350;    0.000
558.008; 2678.600;  221.350;    0.000
558.137; 2555.600;  211.350;    0.000
558.265; 2632.600;  157.350;    0.000
558.393; 2500.600;  198.350;    0.000
558.522; 2698.600;  209.350;    0.000
558.650; 2579.600;  260.350;    0.000
558.778; 2528.600;  203.350;    0.000
558.906; 2572.600;  210.350;    0.000
559.035; 2616.600;  194.350;    0.000
559.163; 2711.600;  192.350;    0.000
559.291; 2584.600;  215.350;    0.000
559.419; 2650.600;  197.350;    0.000
559.548; 2602.600;  160.350;    0.000
559.676; 2660.600;  200.350;    0.000
559.804; 2746.600;  223.350;    0.000
559.932; 2602.600;  213.350;    0.000
560.060; 2705.600;  224.350;    0.000
560.188; 2743.600;  221.350;    0.000
560.316; 2652.600;  223.350;    0.000
560.444; 2747.600;  159.350;    0.000
560.572; 2715.600;  204.350;    0.000
560.700; 2925.600;  213.350;    0.000
560.828; 2918.600;  216.350;    0.000
560.956; 2876.600;  207.350;    0.000
561.085; 2908.600;  231.350;    0.000
561.212; 2710.600;  197.350;    0.000
561.340; 2701.600;  192.350;    0.000
561.468; 2751.600;  215.350;    0.000
561.596; 2908.600;  215.350;    0.000
561.724; 2714.600;  181.350;    0.000
561.852; 2703.600;  184.350;    0.000
561.980; 2823.600;  217.350;    0.000
562.108; 2960.600;  199.350;    0.000
562.236; 2758.600;  181.350;    0.000
562.364; 2993.600;  234.350;    0.000
562.492; 2816.600;  225.350;    0.000
562.619; 2892.600;  204.350;    0.000
562.747; 2920.600;  223.350;    0.000
562.875; 3073.600;  210.350;    0.000
563.003; 2941.600;  232.350;    0.000
563.130; 3002.600;  224.350;    0.000
563.258; 3050.600;  213.350;    0.000
563.386; 3012.600;  191.350;    0.000
563.514; 3137.600;  252.350;    0.000
563.641; 3153.600;  201.350;    0.000
563.769; 3207.600;  201.350;    0.000
563.897; 3189.600;  176.350;    0.000
564.024; 3500.600;  167.350;    0.000
564.152; 3517.600;  205.350;    0.000
564.280; 3391.600;  222.350;    0.000
564.407; 3366.600;  192.350;    0.000
564.535; 3495.600;  231.350;    0.000
564.662; 3424.600;  197.350;    0.000
564.790; 3563.600;  200.350;    0.000
564.917; 3490.600;  172.350;    0.000
565.045; 3469.600;  187.350;    0.000
565.173; 3426.600;  173.350;    0.000
565.300; 3616.600;  196.350;    0.000
565.428; 3702.600;  195.350;    0.000
565.555; 3793.600;  191.350;    0.000
565.682; 3853.600;  169.350;    0.000
565.810; 4053.600;  198.350;    0.000
565.937; 4118.600;  213.350;    0.000
566.065; 4131.600;  221.350;    0.000
566.192; 4501.600;  173.350;    0.000
566.320; 4335.600;  214.350;    0.000
566.447; 4595.600;  214.350;    0.000
566.574; 4587.600;  188.350;    0.000
566.702; 4652.600;  198.350;    0.000
566.829; 4925.600;  200.350;    0.000
566.956; 4846.600;  194.350;    0.000
567.083; 4786.600;  176.350;    0.000
567.211; 4790.600;  189.350;    0.000
567.338; 4858.600;  184.350;    0.000
567.465; 4787.600;  181.350;    0.000
567.593; 5121.600;  194.350;    0.000
567.720; 5033.600;  193.350;    0.000
567.847; 4865.600;  196.350;    0.000
567.974; 5221.600;  199.350;    0.000
568.101; 5538.600;  150.350;    0.000
568.228; 6915.600;  174.350;    0.000
568.356; 7951.600;  164.350;    0.000
568.483; 7745.600;  163.350;    0.000
568.610; 7623.600;  187.350;    0.000
568.737; 8739.600;  192.350;    0.000
568.864;10834.600;  218.350;    0.000
568.991;10652.600;  169.350;    0.000
569.118; 9177.600;  161.350;    0.000
569.245; 7772.600;  161.350;    0.000
569.372; 7358.600;  187.350;    0.000
569.499; 6683.600;  146.350;    0.000
569.626; 6234.600;  172.350;    0.000
569.753; 5705.600;  188.350;    0.000
569.880; 5534.600;  180.350;    0.000
570.007; 5183.600;  187.350;    0.000
570.134; 4996.600;  196.350;    0.000
570.261; 4961.600;  127.350;    0.000
570.388; 4759.600;  189.350;    0.000
570.515; 4763.600;  219.350;    0.000
570.642; 4506.600;  187.350;    0.000
570.768; 4504.600;  175.350;    0.000
570.895; 4283.600;  165.350;    0.000
571.022; 4394.600;  180.350;    0.000
571.149; 4274.600;  209.350;    0.000
571.276; 3951.600;  187.350;    0.000
571.402; 4140.600;  227.350;    0.000
571.529; 3980.600;  166.350;    0.000
571.656; 3887.600;  203.350;    0.000
571.783; 3895.600;  156.350;    0.000
571.909; 3794.600;  195.350;    0.000
572.036; 3742.600;  165.350;    0.000
572.163; 3642.600;  156.350;    0.000
572.289; 3502.600;  193.350;    0.000
572.416; 3546.600;  199.350;    0.000
572.543; 3559.600;  185.350;    0.000
572.669; 3505.600;  180.350;    0.000
572.796; 3661.600;  173.350;    0.000
572.922; 3629.600;  186.350;    0.000
573.049; 3399.600;  185.350;    0.000
573.176; 3340.600;  196.350;    0.000
573.302; 3479.600;  189.350;    0.000
573.429; 3447.600;  186.350;    0.000
573.555; 3331.600;  220.350;    0.000
573.682; 3244.600;  196.350;    0.000
573.808; 3248.600;  201.350;    0.000
573.935; 3282.600;  188.350;    0.000
574.061; 3312.600;  216.350;    0.000
574.188; 3298.600;  161.350;    0.000
574.314; 3330.600;  189.350;    0.000
574.440; 3264.600;  190.350;    0.000
574.567; 3147.600;  201.350;    0.000
574.693; 3042.600;  175.350;    0.000
574.820; 3369.600;  188.350;    0.000
574.946; 3329.600;  182.350;    0.000
575.072; 3328.600;  188.350;    0.000
575.198; 3340.600;  232.350;    0.000
575.325; 3217.600;  159.350;    0.000
575.451; 3111.600;  231.350;    0.000
575.577; 3143.600;  196.350;    0.000
575.704; 3122.600;  177.350;    0.000
575.830; 3278.600;  171.350;    0.000
575.956; 3133.600;  163.350;    0.000
576.082; 3094.600;  197.350;    0.000
576.208; 3112.600;  181.350;    0.000
576.335; 3103.600;  218.350;    0.000
576.461; 3171.600;  207.350;    0.000
576.587; 3083.600;  173.350;    0.000
576.713; 3149.600;  170.350;    0.000
576.839; 3344.600;  186.350;    0.000
576.965; 3186.600;  194.350;    0.000
577.091; 3304.600;  167.350;    0.000
577.217; 3164.600;  212.350;    0.000
577.343; 3145.600;  214.350;    0.000
577.469; 3164.600;  208.350;    0.000
577.596; 3149.600;  188.350;    0.000
577.722; 3182.600;  221.350;    0.000
577.848; 2950.600;  197.350;    0.000
577.974; 3305.600;  222.350;    0.000
578.099; 3140.600;  187.350;    0.000
578.225; 3167.600;  213.350;    0.000
578.351; 3167.600;  190.350;    0.000
578.477; 3147.600;  212.350;    0.000
578.603; 3281.600;  178.350;    0.000
578.729; 3246.600;  193.350;    0.000
578.855; 3272.600;  194.350;    0.000
578.981; 3338.600;  152.350;    0.000
579.107; 3110.600;  175.350;    0.000
579.232; 3293.600;  192.350;    0.000
579.358; 3279.600;  186.350;    0.000
579.484; 3342.600;  186.350;    0.000
579.610; 3251.600;  199.350;    0.000
579.735; 3361.600;  197.350;    0.000
579.861; 3289.600;  203.350;    0.000
579.987; 3460.600;  220.350;    0.000
580.113; 3439.600;  210.350;    0.000
580.238; 3352.600;  189.350;    0.000
580.364; 3517.600;  214.350;    0.000
580.490; 3515.600;  205.350;    0.000
580.615; 3402.600;  231.350;    0.000
580.741; 3448.600;  212.350;    0.000
580.867; 3502.600;  196.350;    0.000
580.992; 3517.600;  214.350;    0.000
581.118; 3558.600;  178.350;    0.000
581.243; 3531.600;  209.350;    0.000
581.369; 3522.600;  173.350;    0.000
581.494; 3613.600;  209.350;    0.000
581.620; 3483.600;  204.350;    0.000
581.745; 3827.600;  168.350;    0.000
581.871; 3816.600;  236.350;    0.000
581.996; 3653.600;  212.350;    0.000
582.122; 3909.600;  192.350;    0.000
582.247; 3792.600;  179.350;    0.000
582.373; 3918.600;  189.350;    0.000
582.498; 3842.600;  217.350;    0.000
582.624; 3935.600;  231.350;    0.000
582.749; 4131.600;  237.350;    0.000
582.874; 4146.600;  205.350;    0.000
583.000; 4249.600;  204.350;    0.000
583.125; 4221.600;  192.350;    0.000
583.250; 4296.600;  229.350;    0.000
583.376; 4274.600;  256.350;    0.000
583.501; 4469.600;  200.350;    0.000
583.626; 4325.600;  207.350;    0.000
583.751; 4615.600;  215.350;    0.000
583.877; 4806.600;  212.350;    0.000
584.002; 4573.600;  227.350;    0.000
584.127; 4907.600;  153.350;    0.000
584.252; 4807.600;  197.350;    0.000
584.377; 4828.600;  183.350;    0.000
584.503; 5213.600;  211.350;    0.000
584.628; 5193.600;  215.350;    0.000
584.753; 5418.600;  194.350;    0.000
584.878; 5370.600;  154.350;    0.000
585.003; 5556.600;  213.350;    0.000
585.128; 5611.600;  199.350;    0.000
585.253; 5843.600;  219.350;    0.000
585.378; 6023.600;  174.350;    0.000
585.503; 6149.600;  202.350;    0.000
585.628; 6292.600;  186.350;    0.000
585.753; 6530.600;  209.350;    0.000
585.878; 6766.600;  167.350;    0.000
586.003; 6862.600;  226.350;    0.000
586.128; 7343.600;  206.350;    0.000
586.253; 7528.600;  198.350;    0.000
586.378; 7721.600;  180.350;    0.000
586.503; 8313.600;  201.350;    0.000
586.628; 8463.600;  206.350;    0.000
586.753; 9096.600;  178.350;    0.000
586.878; 9424.600;  228.350;    0.000
587.003;10093.600;  199.350;    0.000
587.127;10829.600;  194.350;    0.000
587.252;11494.600;  212.350;    0.000
587.377;12462.600;  172.350;    0.000
587.502;13282.600;  219.350;    0.000
587.627;14235.600;  247.350;    0.000
587.751;15217.600;  184.350;    0.000
587.876;16921.600;  215.350;    0.000
588.001;18741.600;  163.350;    0.000
588.125;20767.600;  185.350;    0.000
588.250;23490.600;  171.350;    0.000
588.375;26743.600;  255.350;    0.000
588.499;30905.600;  185.350;    0.000
588.624;37419.602;  167.350;    0.000
588.749;45698.602;  170.350;    0.000
588.873;54437.602;  173.350;    0.000
588.998;61826.602;  203.350;    0.000
589.122;63227.602;  184.350;    0.000
589.247;58674.602;  217.350;    0.000
589.372;53155.602;  250.350;    0.000
589.496;55241.602;  200.350;    0.000
589.621;60497.602;  199.350;    0.000
589.745;57734.602;  235.350;    0.000
589.870;47641.602;  206.350;    0.000
589.994;38394.602;  194.350;    0.000
590.118;31911.600;  177.350;    0.000
590.243;27483.600;  231.350;    0.000
590.367;24493.600;  173.350;    0.000
590.492;21963.600;  170.350;    0.000
590.616;19587.600;  182.350;    0.000
590.740;17894.600;  178.350;    0.000
590.865;16046.600;  219.350;    0.000
590.989;15095.600;  210.350;    0.000
591.114;13970.600;  194.350;    0.000
591.238;12814.600;  154.350;    0.000
591.362;12125.600;  210.350;    0.000
591.486;11741.600;  215.350;    0.000
591.611;10896.600;  194.350;    0.000
591.735;10593.600;  206.350;    0.000
591.859; 9677.600;  188.350;    0.000
591.983; 9627.600;  202.350;    0.000
592.107; 9321.600;  175.350;    0.000
592.232; 8594.600;  214.350;    0.000
592.356; 8411.600;  232.350;    0.000
592.480; 8109.600;  203.350;    0.000
592.604; 7780.600;  204.350;    0.000
592.728; 7711.600;  187.350;    0.000
592.852; 7305.600;  204.350;    0.000
592.976; 7150.600;  163.350;    0.000
593.100; 6851.600;  177.350;    0.000
593.224; 6672.600;  209.350;    0.000
593.349; 6624.600;  255.350;    0.000
593.473; 6211.600;  225.350;    0.000
593.597; 6361.600;  211.350;    0.000
593.721; 6036.600;  222.350;    0.000
593.844; 5840.600;  202.350;    0.000
593.968; 6032.600;  223.350;    0.000
594.092; 5786.600;  162.350;    0.000
594.216; 5519.600;  211.350;    0.000
594.340; 5466.600;  198.350;    0.000
594.464; 5316.600;  242.350;    0.000
594.588; 5292.600;  213.350;    0.000
594.712; 5151.600;  198.350;    0.000
594.836; 4872.600;  207.350;    0.000
594.959; 5027.600;  192.350;    0.000
595.083; 4860.600;  180.350;    0.000
595.207; 4716.600;  242.350;    0.000
595.331; 4550.600;  172.350;    0.000
595.455; 4512.600;  185.350;    0.000
595.578; 4440.600;  221.350;    0.000
595.702; 4350.600;  233.350;    0.000
595.826; 4180.600;  164.350;    0.000
595.949; 4381.600;  215.350;    0.000
596.073; 4210.600;  198.350;    0.000
596.197; 4140.600;  266.350;    0.000
596.320; 4177.600;  236.350;    0.000
596.444; 3868.600;  215.350;    0.000
596.568; 3955.600;  213.350;    0.000
596.691; 3885.600;  198.350;    0.000
596.815; 3902.600;  210.350;    0.000
596.938; 3915.600;  207.350;    0.000
597.062; 3866.600;  187.350;    0.000
597.186; 3790.600;  234.350;    0.000
597.309; 3699.600;  176.350;    0.000
597.433; 3701.600;  222.350;    0.000
597.556; 3548.600;  219.350;    0.000
597.680; 3535.600;  227.350;    0.000
597.803; 3491.600;  240.350;    0.000
597.926; 3540.600;  227.350;    0.000
598.050; 3445.600;  198.350;    0.000
598.173; 3436.600;  235.350;    0.000
598.297; 3448.600;  233.350;    0.000
598.420; 3328.600;  211.350;    0.000
598.543; 3244.600;  207.350;    0.000
598.667; 3245.600;  232.350;    0.000
598.790; 3196.600;  205.350;    0.000
598.913; 3200.600;  200.350;    0.000
599.037; 3200.600;  193.350;    0.000
599.160; 3374.600;  199.350;    0.000
599.283; 3355.600;  237.350;    0.000
599.406; 3184.600;  168.350;    0.000
599.530; 3282.600;  231.350;    0.000
599.653; 3156.600;  220.350;    0.000
599.776; 3055.600;  203.350;    0.000
599.899; 3216.600;  202.350;    0.000
600.022; 2988.600;  189.350;    0.000
600.145; 3023.600;  175.350;    0.000
600.269; 3046.600;  235.350;    0.000
600.392; 3036.600;  213.350;    0.000
600.515; 3030.600;  236.350;    0.000
600.638; 2872.600;  198.350;    0.000
600.761; 3038.600;  195.350;    0.000
600.884; 2823.600;  221.350;    0.000
601.007; 2928.600;  236.350;    0.000
601.130; 2841.600;  223.350;    0.000
601.253; 2916.600;  250.350;    0.000
601.376; 2921.600;  195.350;    0.000
601.499; 2860.600;  168.350;    0.000
601.622; 2876.600;  221.350;    0.000
601.745; 2821.600;  223.350;    0.000
601.868; 2870.600;  204.350;    0.000
601.991; 2823.600;  207.350;    0.000
602.113; 2944.600;  223.350;    0.000
602.236; 2788.600;  182.350;    0.000
602.359; 2807.600;  235.350;    0.000
602.482; 2879.600;  173.350;    0.000
602.605; 2702.600;  227.350;    0.000
602.728; 2776.600;  227.350;    0.000
602.850; 2708.600;  250.350;    0.000
602.973; 2714.600;  195.350;    0.000
603.096; 2732.600;  270.350;    0.000
603.219; 2801.600;  197.350;    0.000
603.341; 2850.600;  195.350;    0.000
603.464; 2638.600;  204.350;    0.000
603.587; 2653.600;  243.350;    0.000
603.709; 2644.600;  188.350;    0.000
603.832; 2703.600;  214.350;    0.000
603.955; 2571.600;  213.350;    0.000
604.077; 2589.600;  201.350;    0.000
604.200; 2705.600;  209.350;    0.000
604.323; 2644.600;  201.350;    0.000
604.445; 2644.600;  202.350;    0.000
604.568; 2610.600;  230.350;    0.000
604.690; 2531.600;  212.350;    0.000
604.813; 2573.600;  226.350;    0.000
604.935; 2686.600;  216.350;    0.000
605.058; 2572.600;  182.350;    0.000
605.180; 2599.600;  204.350;    0.000
605.303; 2546.600;  199.350;    0.000
605.425; 2607.600;  178.350;    0.000
605.547; 2495.600;  209.350;    0.000
605.670; 2460.600;  206.350;    0.000
605.792; 2472.600;  199.350;    0.000
605.915; 2549.600;  221.350;    0.000
606.037; 2468.600;  222.350;    0.000
606.159; 2466.600;  160.350;    0.000
606.282; 2536.600;  188.350;    0.000
606.404; 2478.600;  205.350;    0.000
606.526; 2521.600;  228.350;    0.000
606.648; 2390.600;  184.350;    0.000
606.771; 2485.600;  195.350;    0.000
606.893; 2558.600;  193.350;    0.000
607.015; 2455.600;  202.350;    0.000
607.137; 2409.600;  189.350;    0.000
607.260; 2355.600;  201.350;    0.000
607.382; 2443.600;  211.350;    0.000
607.504; 2477.600;  206.350;    0.000
607.626; 2464.600;  236.350;    0.000
607.748; 2531.600;  228.350;    0.000
607.870; 2310.600;  212.350;    0.000
607.992; 2472.600;  201.350;    0.000
608.114; 2419.600;  214.350;    0.000
608.237; 2548.600;  235.350;    0.000
608.359; 2362.600;  215.350;    0.000
608.481; 2363.600;  183.350;    0.000
608.603; 2426.600;  206.350;    0.000
608.725; 2336.600;  238.350;    0.000
608.847; 2434.600;  237.350;    0.000
608.969; 2377.600;  227.350;    0.000
609.090; 2550.600;  205.350;    0.000
609.212; 2307.600;  182.350;    0.000
609.334; 2438.600;  210.350;    0.000
609.456; 2503.600;  208.350;    0.000
609.578; 2319.600;  195.350;    0.000
609.700; 2373.600;  196.350;    0.000
609.822; 2212.600;  184.350;    0.000
609.944; 2321.600;  258.350;    0.000
610.065; 2320.600;  219.350;    0.000
610.187; 2404.600;  217.350;    0.000
610.309; 2323.600;  179.350;    0.000
610.431; 2224.600;  189.350;    0.000
610.552; 2383.600;  212.350;    0.000
610.674; 2416.600;  211.350;    0.000
610.796; 2348.600;  168.350;    0.000
610.918; 2322.600;  201.350;    0.000
611.039; 2306.600;  212.350;    0.000
611.161; 2484.600;  207.350;    0.000
611.282; 2282.600;  219.350;    0.000
611.404; 2422.600;  243.350;    0.000
611.526; 2413.600;  180.350;    0.000
611.647; 2339.600;  235.350;    0.000
611.769; 2194.600;  189.350;    0.000
611.890; 2329.600;  201.350;    0.000
612.012; 2339.600;  191.350;    0.000
612.133; 2293.600;  227.350;    0.000
612.255; 2340.600;  191.350;    0.000
612.377; 2275.600;  192.350;    0.000
612.498; 2367.600;  202.350;    0.000
612.619; 2282.600;  207.350;    0.000
612.741; 2285.600;  241.350;    0.000
612.862; 2300.600;  219.350;    0.000
612.984; 2210.600;  203.350;    0.000
613.105; 2332.600;  228.350;    0.000
613.226; 2359.600;  199.350;    0.000
613.348; 2299.600;  238.350;    0.000
613.469; 2308.600;  239.350;    0.000
613.590; 2177.600;  183.350;    0.000
613.712; 2234.600;  245.350;    0.000
613.833; 2276.600;  241.350;    0.000
613.954; 2468.600;  208.350;    0.000
614.076; 2360.600;  181.350;    0.000
614.197; 2349.600;  217.350;    0.000
614.318; 2345.600;  182.350;    0.000
614.439; 2276.600;  204.350;    0.000
614.560; 2368.600;  219.350;    0.000
614.682; 2240.600;  238.350;    0.000
614.803; 2251.600;  240.350;    0.000
614.924; 2413.600;  212.350;    0.000
615.045; 2408.600;  225.350;    0.000
615.166; 2478.600;  227.350;    0.000
615.287; 2682.600;  230.350;    0.000
615.408; 3502.600;  187.350;    0.000
615.529; 3807.600;  211.350;    0.000
615.650; 3440.600;  202.350;    0.000
615.771; 2985.600;  203.350;    0.000
615.892; 2983.600;  222.350;    0.000
616.013; 4113.600;  215.350;    0.000
616.134; 5288.600;  193.350;    0.000
616.255; 4738.600;  242.350;    0.000
616.376; 3861.600;  205.350;    0.000
616.497; 3256.600;  200.350;    0.000
616.618; 3057.600;  177.350;    0.000
616.739; 2902.600;  218.350;    0.000
616.860; 2865.600;  214.350;    0.000
616.981; 2717.600;  208.350;    0.000
617.102; 2604.600;  203.350;    0.000
617.222; 2565.600;  212.350;    0.000
617.343; 2369.600;  162.350;    0.000
617.464; 2591.600;  230.350;    0.000
617.585; 2449.600;  197.350;    0.000
617.705; 2504.600;  209.350;    0.000
617.826; 2437.600;  229.350;    0.000
617.947; 2263.600;  216.350;    0.000
618.068; 2290.600;  192.350;    0.000
618.188; 2281.600;  230.350;    0.000
618.309; 2342.600;  238.350;    0.000
618.430; 2407.600;  242.350;    0.000
618.550; 2288.600;  235.350;    0.000
618.671; 2349.600;  207.350;    0.000
618.791; 2225.600;  228.350;    0.000
618.912; 2297.600;  266.350;    0.000
619.033; 2304.600;  232.350;    0.000
619.153; 2244.600;  207.350;    0.000
619.274; 2167.600;  193.350;    0.000
619.394; 2271.600;  237.350;    0.000
619.515; 2237.600;  216.350;    0.000
619.635; 2248.600;  203.350;    0.000
619.756; 2146.600;  227.350;    0.000
619.876; 2196.600;  244.350;    0.000
619.996; 2220.600;  220.350;    0.000
620.117; 2143.600;  231.350;    0.000
620.237; 2204.600;  235.350;    0.000
620.358; 2213.600;  241.350;    0.000
620.478; 2190.600;  237.350;    0.000
620.598; 2170.600;  255.350;    0.000
620.719; 2118.600;  243.350;    0.000
620.839; 2184.600;  237.350;    0.000
620.959; 2229.600;  216.350;    0.000
621.079; 2153.600;  240.350;    0.000
621.200; 2093.600;  195.350;    0.000
621.320; 2051.600;  287.350;    0.000
621.440; 2010.600;  236.350;    0.000
621.560; 2145.600;  231.350;    0.000
621.681; 2121.600;  177.350;    0.000
621.801; 2089.600;  257.350;    0.000
621.921; 2070.600;  241.350;    0.000
622.041; 2099.600;  239.350;    0.000
622.161; 2041.600;  233.350;    0.000
622.281; 2063.600;  204.350;    0.000
622.401; 2173.600;  204.350;    0.000
622.521; 2145.600;  242.350;    0.000
622.641; 2080.600;  205.350;    0.000
622.761; 2085.600;  254.350;    0.000
622.882; 2048.600;  225.350;    0.000
623.002; 2097.600;  255.350;    0.000
623.121; 2049.600;  244.350;    0.000
623.241; 2146.600;  238.350;    0.000
623.361; 1931.600;  208.350;    0.000
623.481; 2022.600;  194.350;    0.000
623.601; 2047.600;  249.350;    0.000
623.721; 2183.600;  229.350;    0.000
623.841; 2069.600;  244.350;    0.000
623.961; 2090.600;  253.350;    0.000
624.081; 2011.600;  218.350;    0.000
624.201; 1988.600;  218.350;    0.000
624.320; 2034.600;  212.350;    0.000
624.440; 2011.600;  251.350;    0.000
624.560; 2087.600;  244.350;    0.000
624.680; 1966.600;  224.350;    0.000
624.799; 2004.600;  198.350;    0.000
624.919; 2057.600;  215.350;    0.000
625.039; 2094.600;  225.350;    0.000
625.159; 2096.600;  209.350;    0.000
625.278; 2039.600;  211.350;    0.000
625.398; 2000.600;  260.350;    0.000
625.518; 1913.600;  205.350;    0.000
625.637; 2029.600;  240.350;    0.000
625.757; 1972.600;  208.350;    0.000
625.876; 1946.600;  221.350;    0.000
625.996; 2014.600;  245.350;    0.000
626.115; 2035.600;  196.350;    0.000
626.235; 1945.600;  241.350;    0.000
626.354; 2076.600;  231.350;    0.000
626.474; 1955.600;  220.350;    0.000
626.594; 1913.600;  210.350;    0.000
626.713; 1952.600;  229.350;    0.000
626.832; 1957.600;  236.350;    0.000
626.952; 1960.600;  223.350;    0.000
627.071; 1916.600;  211.350;    0.000
627.191; 1975.600;  220.350;    0.000
627.310; 1948.600;  206.350;    0.000
627.429; 1951.600;  223.350;    0.000
627.549; 1874.600;  205.350;    0.000
627.668; 1940.600;  227.350;    0.000
627.787; 1944.600;  221.350;    0.000
627.907; 1874.600;  194.350;    0.000
628.026; 1946.600;  231.350;    0.000
628.145; 1929.600;  210.350;    0.000
628.264; 1838.600;  245.350;    0.000
628.384; 1996.600;  234.350;    0.000
628.503; 1867.600;  210.350;    0.000
628.622; 1931.600;  223.350;    0.000
628.741; 1923.600;  210.350;    0.000
628.860; 1887.600;  222.350;    0.000
628.980; 1914.600;  184.350;    0.000
629.099; 1900.600;  234.350;    0.000
629.218; 1908.600;  157.350;    0.000
629.337; 1944.600;  220.350;    0.000
629.456; 1914.600;  210.350;    0.000
629.575; 2029.600;  239.350;    0.000
629.694; 1900.600;  216.350;    0.000
629.813; 1902.600;  218.350;    0.000
629.932; 1820.600;  175.350;    0.000
630.051; 1867.600;  218.350;    0.000
630.170; 1953.600;  215.350;    0.000
630.289; 1932.600;  203.350;    0.000
630.408; 1875.600;  180.350;    0.000
630.527; 1900.600;  249.350;    0.000
630.646; 1862.600;  186.350;    0.000
630.764; 1921.600;  189.350;    0.000
630.883; 2020.600;  221.350;    0.000
631.002; 1822.600;  191.350;    0.000
631.121; 1902.600;  210.350;    0.000
631.240; 1909.600;  256.350;    0.000
631.359; 2035.600;  246.350;    0.000
631.477; 1928.600;  230.350;    0.000
631.596; 1997.600;  229.350;    0.000
631.715; 2019.600;  242.350;    0.000
631.834; 1831.600;  261.350;    0.000
631.952; 1842.600;  250.350;    0.000
632.071; 1942.600;  218.350;    0.000
632.190; 1817.600;  200.350;    0.000
632.308; 1884.600;  226.350;    0.000
632.427; 1824.600;  234.350;    0.000
632.546; 1965.600;  250.350;    0.000
632.664; 1935.600;  224.350;    0.000
632.783; 1963.600;  211.350;    0.000
632.901; 2040.600;  254.350;    0.000
633.020; 1896.600;  204.350;    0.000
633.138; 1917.600;  228.350;    0.000
633.257; 1974.600;  219.350;    0.000
633.375; 1878.600;  243.350;    0.000
633.494; 1928.600;  242.350;    0.000
633.612; 1908.600;  227.350;    0.000
633.731; 1947.600;  221.350;    0.000
633.849; 1837.600;  239.350;    0.000
633.968; 1905.600;  219.350;    0.000
634.086; 1890.600;  218.350;    0.000
634.204; 1872.600;  203.350;    0.000
634.323; 1936.600;  222.350;    0.000
634.441; 1827.600;  257.350;    0.000
634.559; 1799.600;  201.350;    0.000
634.678; 1841.600;  214.350;    0.000
634.796; 1914.600;  207.350;    0.000
634.914; 1766.600;  226.350;    0.000
635.032; 1826.600;  250.350;    0.000
635.151; 1800.600;  228.350;    0.000
635.269; 1763.600;  188.350;    0.000
635.387; 1867.600;  247.350;    0.000
635.505; 1777.600;  250.350;    0.000
635.623; 1823.600;  230.350;    0.000
635.742; 1834.600;  209.350;    0.000
635.860; 1850.600;  239.350;    0.000
635.978; 1818.600;  213.350;    0.000
636.096; 1857.600;  176.350;    0.000
636.214; 1750.600;  246.350;    0.000
636.332; 1833.600;  224.350;    0.000
636.450; 1849.600;  215.350;    0.000
636.568; 1829.600;  246.350;    0.000
636.686; 1677.600;  225.350;    0.000
636.804; 1761.600;  218.350;    0.000
636.922; 1789.600;  195.350;    0.000
637.040; 1777.600;  213.350;    0.000
637.158; 1815.600;  228.350;    0.000
637.276; 1769.600;  206.350;    0.000
637.394; 1789.600;  224.350;    0.000
637.512; 1833.600;  245.350;    0.000
637.629; 1903.600;  234.350;    0.000
637.747; 1818.600;  233.350;    0.000
637.865; 1741.600;  236.350;    0.000
637.983; 1813.600;  235.350;    0.000
638.101; 1661.600;  232.350;    0.000
638.218; 1784.600;  256.350;    0.000
638.336; 1905.600;  216.350;    0.000
638.454; 1795.600;  255.350;    0.000
638.572; 1921.600;  237.350;    0.000
638.689; 1723.600;  271.350;    0.000
638.807; 1772.600;  243.350;    0.000
638.925; 1815.600;  259.350;    0.000
639.042; 1740.600;  185.350;    0.000
639.160; 1819.600;  250.350;    0.000
639.278; 1668.600;  207.350;    0.000
639.395; 1776.600;  243.350;    0.000
639.513; 1752.600;  235.350;    0.000
639.630; 1760.600;  230.350;    0.000
639.748; 1754.600;  192.350;    0.000
639.865; 1868.600;  219.350;    0.000
639.983; 1784.600;  183.350;    0.000
640.100; 1782.600;  251.350;    0.000
640.218; 1710.600;  246.350;    0.000
640.335; 1783.600;  227.350;    0.000
640.453; 1748.600;  259.350;    0.000
640.570; 1766.600;  251.350;    0.000
640.688; 1767.600;  223.350;    0.000
640.805; 1741.600;  246.350;    0.000
640.922; 1760.600;  249.350;    0.000
641.040; 1770.600;  257.350;    0.000
641.157; 1673.600;  207.350;    0.000
641.274; 1854.600;  241.350;    0.000
641.391; 1679.600;  246.350;    0.000
641.509; 1678.600;  216.350;    0.000
641.626; 1767.600;  252.350;    0.000
641.743; 1739.600;  215.350;    0.000
641.860; 1807.600;  234.350;    0.000
641.978; 1680.600;  216.350;    0.000
642.095; 1647.600;  247.350;    0.000
642.212; 1800.600;  199.350;    0.000
642.329; 1730.600;  237.350;    0.000
642.446; 1788.600;  222.350;    0.000
642.563; 1748.600;  287.350;    0.000
642.681; 1660.600;  261.350;    0.000
642.798; 1686.600;  251.350;    0.000
642.915; 1647.600;  238.350;    0.000
643.032; 1682.600;  246.350;    0.000
643.149; 1712.600;  239.350;    0.000
643.266; 1796.600;  238.350;    0.000
643.383; 1581.600;  231.350;    0.000
643.500; 1738.600;  212.350;    0.000
643.617; 1713.600;  236.350;    0.000
643.734; 1712.600;  239.350;    0.000
643.850; 1834.600;  234.350;    0.000
643.967; 1781.600;  253.350;    0.000
644.084; 1659.600;  253.350;    0.000
644.201; 1761.600;  227.350;    0.000
644.318; 1808.600;  247.350;    0.000
644.435; 1817.600;  264.350;    0.000
644.552; 1687.600;  230.350;    0.000
644.668; 1780.600;  250.350;    0.000
644.785; 1883.600;  235.350;    0.000
644.902; 1886.600;  227.350;    0.000
645.019; 1787.600;  203.350;    0.000
645.135; 1852.600;  210.350;    0.000
645.252; 1742.600;  206.350;    0.000
645.369; 1742.600;  235.350;    0.000
645.485; 1739.600;  223.350;    0.000
645.602; 1814.600;  205.350;    0.000
645.719; 1730.600;  222.350;    0.000
645.835; 1879.600;  246.350;    0.000
645.952; 1787.600;  239.350;    0.000
646.068; 1778.600;  225.350;    0.000
646.185; 1885.600;  248.350;    0.000
646.302; 1825.600;  226.350;    0.000
646.418; 1752.600;  228.350;    0.000
646.535; 1936.600;  219.350;    0.000
646.651; 1759.600;  204.350;    0.000
646.768; 1715.600;  247.350;    0.000
646.884; 1781.600;  228.350;    0.000
647.000; 1762.600;  223.350;    0.000
647.117; 1778.600;  251.350;    0.000
647.233; 1812.600;  223.350;    0.000
647.350; 1754.600;  237.350;    0.000
647.466; 1981.600;  223.350;    0.000
647.582; 1883.600;  243.350;    0.000
647.699; 1871.600;  223.350;    0.000
647.815; 1892.600;  215.350;    0.000
647.931; 1753.600;  214.350;    0.000
648.047; 1835.600;  199.350;    0.000
648.164; 1824.600;  233.350;    0.000
648.280; 1896.600;  231.350;    0.000
648.396; 1836.600;  215.350;    0.000
648.512; 1965.600;  252.350;    0.000
648.629; 1788.600;  237.350;    0.000
648.745; 1806.600;  216.350;    0.000
648.861; 1926.600;  207.350;    0.000
648.977; 1954.600;  247.350;    0.000
649.093; 1829.600;  221.350;    0.000
649.209; 1882.600;  232.350;    0.000
649.325; 1931.600;  245.350;    0.000
649.441; 1849.600;  253.350;    0.000
649.557; 1921.600;  221.350;    0.000
649.673; 1825.600;  182.350;    0.000
649.789; 1917.600;  245.350;    0.000
649.905; 1808.600;  204.350;    0.000
650.021; 1891.600;  270.350;    0.000
650.137; 1815.600;  218.350;    0.000
650.253; 2037.600;  268.350;    0.000
650.369; 1881.600;  222.350;    0.000
650.485; 1942.600;  215.350;    0.000
650.601; 1964.600;  218.350;    0.000
650.717; 1892.600;  208.350;    0.000
650.833; 1865.600;  263.350;    0.000
650.948; 1987.600;  266.350;    0.000
651.064; 1937.600;  271.350;    0.000
651.180; 1972.600;  232.350;    0.000
651.296; 1966.600;  237.350;    0.000
651.411; 1915.600;  233.350;    0.000
651.527; 1922.600;  232.350;    0.000
651.643; 1907.600;  259.350;    0.000
651.759; 1980.600;  257.350;    0.000
651.874; 1989.600;  216.350;    0.000
651.990; 2012.600;  234.350;    0.000
652.105; 1987.600;  195.350;    0.000
652.221; 1950.600;  245.350;    0.000
652.337; 1900.600;  210.350;    0.000
652.452; 1981.600;  259.350;    0.000
652.568; 1962.600;  202.350;    0.000
652.683; 2006.600;  233.350;    0.000
652.799; 2057.600;  230.350;    0.000
652.914; 1950.600;  198.350;    0.000
653.030; 2033.600;  203.350;    0.000
653.145; 2133.600;  228.350;    0.000
653.261; 2101.600;  244.350;    0.000
653.376; 2067.600;  214.350;    0.000
653.492; 1971.600;  246.350;    0.000
653.607; 2221.600;  241.350;    0.000
653.722; 2153.600;  257.350;    0.000
653.838; 2205.600;  265.350;    0.000
653.953; 2134.600;  252.350;    0.000
654.068; 2374.600;  270.350;    0.000
654.184; 2293.600;  248.350;    0.000
654.299; 2339.600;  226.350;    0.000
654.414; 2267.600;  190.350;    0.000
654.530; 2331.600;  263.350;    0.000
654.645; 2407.600;  240.350;    0.000
654.760; 2575.600;  243.350;    0.000
654.875; 2592.600;  210.350;    0.000
654.990; 2690.600;  250.350;    0.000
655.106; 2792.600;  277.350;    0.000
655.221; 2814.600;  249.350;    0.000
655.336; 2856.600;  239.350;    0.000
655.451; 3056.600;  226.350;    0.000
655.566; 3131.600;  236.350;    0.000
655.681; 3292.600;  272.350;    0.000
655.796; 3415.600;  224.350;    0.000
655.911; 3450.600;  247.350;    0.000
656.026; 3654.600;  240.350;    0.000
656.141; 4020.600;  239.350;    0.000
656.256; 4106.600;  241.350;    0.000
656.371; 4142.600;  213.350;    0.000
656.486; 4099.600;  275.350;    0.000
656.601; 4007.600;  225.350;    0.000
656.716; 3756.600;  239.350;    0.000
656.831; 3777.600;  260.350;    0.000
656.946; 3617.600;  250.350;    0.000
657.060; 3458.600;  257.350;    0.000
657.175; 3300.600;  256.350;    0.000
657.290; 3172.600;  255.350;    0.000
657.405; 3215.600;  303.350;    0.000
657.520; 2893.600;  272.350;    0.000
657.634; 2923.600;  268.350;    0.000
657.749; 2826.600;  261.350;    0.000
657.864; 2878.600;  235.350;    0.000
657.979; 2732.600;  257.350;    0.000
658.093; 2685.600;  243.350;    0.000
658.208; 2508.600;  281.350;    0.000
658.323; 2539.600;  240.350;    0.000
658.437; 2645.600;  285.350;    0.000
658.552; 2470.600;  262.350;    0.000
658.666; 2427.600;  269.350;    0.000
658.781; 2452.600;  244.350;    0.000
658.895; 2388.600;  259.350;    0.000
659.010; 2387.600;  254.350;    0.000
659.125; 2353.600;  210.350;    0.000
659.239; 2322.600;  212.350;    0.000
659.353; 2238.600;  269.350;    0.000
659.468; 2194.600;  269.350;    0.000
659.582; 2302.600;  244.350;    0.000
659.697; 2157.600;  262.350;    0.000
659.811; 2153.600;  271.350;    0.000
659.926; 2105.600;  232.350;    0.000
660.040; 2161.600;  250.350;    0.000
660.154; 2039.600;  209.350;    0.000
660.269; 2237.600;  212.350;    0.000
660.383; 2027.600;  237.350;    0.000
660.497; 2035.600;  231.350;    0.000
660.612; 2031.600;  232.350;    0.000
660.726; 2090.600;  276.350;    0.000
660.840; 1971.600;  235.350;    0.000
660.954; 1916.600;  224.350;    0.000
661.068; 2006.600;  241.350;    0.000
661.183; 1924.600;  223.350;    0.000
661.297; 1965.600;  255.350;    0.000
661.411; 1858.600;  223.350;    0.000
661.525; 1944.600;  249.350;    0.000
661.639; 1877.600;  264.350;    0.000
661.753; 1906.600;  225.350;    0.000
661.867; 1849.600;  245.350;    0.000
661.981; 1819.600;  225.350;    0.000
662.095; 1916.600;  262.350;    0.000
662.209; 1899.600;  225.350;    0.000
662.323; 1879.600;  228.350;    0.000
662.437; 1767.600;  230.350;    0.000
662.551; 1768.600;  234.350;    0.000
662.665; 1794.600;  212.350;    0.000
662.779; 1792.600;  254.350;    0.000
662.893; 1866.600;  269.350;    0.000
663.007; 1708.600;  196.350;    0.000
663.121; 1790.600;  262.350;    0.000
663.235; 1809.600;  263.350;    0.000
663.349; 1764.600;  242.350;    0.000
663.462; 1663.600;  234.350;    0.000
663.576; 1652.600;  219.350;    0.000
663.690; 1739.600;  234.350;    0.000
663.804; 1645.600;  205.350;    0.000
663.917; 1572.600;  224.350;    0.000
664.031; 1712.600;  208.350;    0.000
664.145; 1708.600;  241.350;    0.000
664.258; 1672.600;  188.350;    0.000
664.372; 1605.600;  214.350;    0.000
664.486; 1650.600;  203.350;    0.000
664.599; 1634.600;  217.350;    0.000
664.713; 1630.600;  286.350;    0.000
664.827; 1536.600;  199.350;    0.000
664.940; 1611.600;  250.350;    0.000
665.054; 1647.600;  261.350;    0.000
665.167; 1585.600;  258.350;    0.000
665.281; 1615.600;  234.350;    0.000
665.394; 1594.600;  213.350;    0.000
665.508; 1706.600;  222.350;    0.000
665.621; 1646.600;  254.350;    0.000
665.735; 1579.600;  252.350;    0.000
665.848; 1652.600;  248.350;    0.000
665.961; 1613.600;  234.350;    0.000
666.075; 1577.600;  262.350;    0.000
666.188; 1575.600;  270.350;    0.000
666.301; 1626.600;  237.350;    0.000
666.415; 1648.600;  245.350;    0.000
666.528; 1591.600;  248.350;    0.000
666.641; 1497.600;  210.350;    0.000
666.755; 1600.600;  218.350;    0.000
666.868; 1525.600;  224.350;    0.000
666.981; 1510.600;  244.350;    0.000
667.094; 1546.600;  279.350;    0.000
667.207; 1559.600;  190.350;    0.000
667.321; 1450.600;  210.350;    0.000
667.434; 1525.600;  205.350;    0.000
667.547; 1509.600;  253.350;    0.000
667.660; 1505.600;  243.350;    0.000
667.773; 1440.600;  242.350;    0.000
667.886; 1529.600;  218.350;    0.000
667.999; 1427.600;  226.350;    0.000
668.112; 1477.600;  258.350;    0.000
668.225; 1537.600;  243.350;    0.000
668.338; 1466.600;  224.350;    0.000
668.451; 1323.600;  250.350;    0.000
668.564; 1486.600;  260.350;    0.000
668.677; 1491.600;  204.350;    0.000
668.790; 1443.600;  229.350;    0.000
668.903; 1477.600;  269.350;    0.000
669.016; 1456.600;  228.350;    0.000
669.129; 1447.600;  253.350;    0.000
669.242; 1444.600;  245.350;    0.000
669.354; 1442.600;  234.350;    0.000
669.467; 1407.600;  256.350;    0.000
669.580; 1470.600;  223.350;    0.000
669.693; 1506.600;  252.350;    0.000
669.806; 1396.600;  212.350;    0.000
669.918; 1387.600;  228.350;    0.000
670.031; 1522.600;  265.350;    0.000
670.144; 1431.600;  255.350;    0.000
670.256; 1369.600;  229.350;    0.000
670.369; 1456.600;  301.350;    0.000
670.482; 1426.600;  263.350;    0.000
670.594; 1361.600;  246.350;    0.000
670.707; 1400.600;  255.350;    0.000
670.820; 1413.600;  256.350;    0.000
670.932; 1410.600;  210.350;    0.000
671.045; 1395.600;  249.350;    0.000
671.157; 1417.600;  254.350;    0.000
671.270; 1376.600;  265.350;    0.000
671.382; 1371.600;  219.350;    0.000
671.495; 1355.600;  242.350;    0.000
671.607; 1404.600;  266.350;    0.000
671.720; 1381.600;  238.350;    0.000
671.832; 1302.600;  220.350;    0.000
671.944; 1404.600;  251.350;    0.000
672.057; 1346.600;  232.350;    0.000
672.169; 1408.600;  240.350;    0.000
672.281; 1443.600;  270.350;    0.000
672.394; 1421.600;  257.350;    0.000
672.506; 1476.600;  247.350;    0.000
672.618; 1447.600;  229.350;    0.000
672.731; 1350.600;  227.350;    0.000
672.843; 1354.600;  282.350;    0.000
672.955; 1433.600;  262.350;    0.000
673.067; 1404.600;  277.350;    0.000
673.180; 1428.600;  280.350;    0.000
673.292; 1339.600;  241.350;    0.000
673.404; 1371.600;  234.350;    0.000
673.516; 1391.600;  224.350;    0.000
673.628; 1380.600;  272.350;    0.000
673.740; 1322.600;  249.350;    0.000
673.852; 1392.600;  288.350;    0.000
673.964; 1358.600;  278.350;    0.000
674.076; 1400.600;  273.350;    0.000
674.188; 1334.600;  251.350;    0.000
674.300; 1309.600;  244.350;    0.000
674.412; 1404.600;  267.350;    0.000
674.524; 1375.600;  276.350;    0.000
674.636; 1418.600;  234.350;    0.000
674.748; 1387.600;  267.350;    0.000
674.860; 1371.600;  255.350;    0.000
674.972; 1420.600;  253.350;    0.000
675.084; 1332.600;  253.350;    0.000
675.196; 1443.600;  300.350;    0.000
675.307; 1370.600;  307.350;    0.000
675.419; 1350.600;  245.350;    0.000
675.531; 1398.600;  292.350;    0.000
675.643; 1322.600;  244.350;    0.000
675.755; 1326.600;  265.350;    0.000
675.866; 1363.600;  281.350;    0.000
675.978; 1275.600;  266.350;    0.000
676.090; 1287.600;  267.350;    0.000
676.201; 1361.600;  265.350;    0.000
676.313; 1343.600;  222.350;    0.000
676.425; 1342.600;  248.350;    0.000
676.536; 1378.600;  234.350;    0.000
676.648; 1278.600;  261.350;    0.000
676.759; 1343.600;  280.350;    0.000
676.871; 1336.600;  260.350;    0.000
676.983; 1365.600;  277.350;    0.000
677.094; 1319.600;  252.350;    0.000
677.206; 1415.600;  238.350;    0.000
677.317; 1304.600;  269.350;    0.000
677.429; 1354.600;  245.350;    0.000
677.540; 1319.600;  244.350;    0.000
677.651; 1236.600;  225.350;    0.000
677.763; 1274.600;  216.350;    0.000
677.874; 1270.600;  226.350;    0.000
677.986; 1357.600;  234.350;    0.000
678.097; 1316.600;  237.350;    0.000
678.208; 1320.600;  278.350;    0.000
678.320; 1285.600;  243.350;    0.000
678.431; 1285.600;  248.350;    0.000
678.542; 1329.600;  240.350;    0.000
678.653; 1186.600;  250.350;    0.000
678.765; 1316.600;  258.350;    0.000
678.876; 1325.600;  221.350;    0.000
678.987; 1231.600;  229.350;    0.000
679.098; 1321.600;  233.350;    0.000
679.209; 1285.600;  274.350;    0.000
679.320; 1234.600;  216.350;    0.000
679.432; 1247.600;  246.350;    0.000
679.543; 1284.600;  226.350;    0.000
679.654; 1251.600;  232.350;    0.000
679.765; 1305.600;  246.350;    0.000
679.876; 1225.600;  263.350;    0.000
679.987; 1256.600;  216.350;    0.000
680.098; 1288.600;  262.350;    0.000
680.209; 1312.600;  219.350;    0.000
680.320; 1253.600;  232.350;    0.000
680.431; 1277.600;  261.350;    0.000
680.542; 1242.600;  219.350;    0.000
680.653; 1290.600;  238.350;    0.000
680.763; 1196.600;  191.350;    0.000
680.874; 1237.600;  267.350;    0.000
680.985; 1241.600;  240.350;    0.000
681.096; 1243.600;  251.350;    0.000
681.207; 1337.600;  232.350;    0.000
681.318; 1308.600;  211.350;    0.000
681.428; 1257.600;  233.350;    0.000
681.539; 1165.600;  197.350;    0.000
681.650; 1208.600;  197.350;    0.000
681.760; 1261.600;  243.350;    0.000
681.871; 1218.600;  245.350;    0.000
681.982; 1317.600;  218.350;    0.000
682.093; 1257.600;  262.350;    0.000
682.203; 1258.600;  250.350;    0.000
682.314; 1257.600;  239.350;    0.000
682.424; 1235.600;  250.350;    0.000
682.535; 1185.600;  206.350;    0.000
682.646; 1261.600;  302.350;    0.000
682.756; 1265.600;  258.350;    0.000
682.867; 1293.600;  265.350;    0.000
682.977; 1238.600;  218.350;    0.000
683.088; 1175.600;  264.350;    0.000
683.198; 1257.600;  236.350;    0.000
683.308; 1275.600;  246.350;    0.000
683.419; 1255.600;  296.350;    0.000
683.529; 1247.600;  242.350;    0.000
683.640; 1260.600;  245.350;    0.000
683.750; 1185.600;  213.350;    0.000
683.860; 1314.600;  256.350;    0.000
683.971; 1228.600;  251.350;    0.000
684.081; 1248.600;  232.350;    0.000
684.191; 1320.600;  252.350;    0.000
684.301; 1179.600;  214.350;    0.000
684.412; 1237.600;  261.350;    0.000
684.522; 1220.600;  243.350;    0.000
684.632; 1256.600;  257.350;    0.000
684.742; 1288.600;  271.350;    0.000
684.852; 1218.600;  258.350;    0.000
684.963; 1183.600;  262.350;    0.000
685.073; 1168.600;  219.350;    0.000
685.183; 1238.600;  270.350;    0.000
685.293; 1200.600;  233.350;    0.000
685.403; 1319.600;  274.350;    0.000
685.513; 1310.600;  280.350;    0.000
685.623; 1236.600;  267.350;    0.000
685.733; 1229.600;  274.350;    0.000
685.843; 1252.600;  274.350;    0.000
685.953; 1202.600;  244.350;    0.000
686.063; 1243.600;  261.350;    0.000
686.173; 1198.600;  283.350;    0.000
686.283; 1193.600;  260.350;    0.000
686.393; 1164.600;  256.350;    0.000
686.503; 1125.600;  295.350;    0.000
686.612; 1310.600;  294.350;    0.000
686.722; 1263.600;  263.350;    0.000
686.832; 1225.600;  291.350;    0.000
686.942; 1224.600;  229.350;    0.000
687.052; 1211.600;  241.350;    0.000
687.161; 1221.600;  304.350;    0.000
687.271; 1182.600;  223.350;    0.000
687.381; 1163.600;  273.350;    0.000
687.491; 1184.600;  246.350;    0.000
687.600; 1204.600;  242.350;    0.000
687.710; 1231.600;  225.350;    0.000
687.820; 1219.600;  259.350;    0.000
687.929; 1192.600;  232.350;    0.000
688.039; 1184.600;  248.350;    0.000
688.148; 1186.600;  250.350;    0.000
688.258; 1246.600;  240.350;    0.000
688.367; 1162.600;  253.350;    0.000
688.477; 1154.600;  229.350;    0.000
688.586; 1194.600;  259.350;    0.000
688.696; 1195.600;  250.350;    0.000
688.805; 1271.600;  279.350;    0.000
688.915; 1131.600;  250.350;    0.000
689.024; 1191.600;  240.350;    0.000
689.134; 1163.600;  269.350;    0.000
689.243; 1120.600;  214.350;    0.000
689.352; 1274.600;  257.350;    0.000
689.462; 1148.600;  248.350;    0.000
689.571; 1196.600;  233.350;    0.000
689.680; 1174.600;  236.350;    0.000
689.790; 1176.600;  238.350;    0.000
689.899; 1217.600;  232.350;    0.000
690.008; 1238.600;  259.350;    0.000
690.117; 1176.600;  254.350;    0.000
690.227; 1115.600;  251.350;    0.000
690.336; 1216.600;  240.350;    0.000
690.445; 1199.600;  235.350;    0.000
690.554; 1229.600;  243.350;    0.000
690.663; 1218.600;  214.350;    0.000
690.772; 1162.600;  247.350;    0.000
690.881; 1188.600;  249.350;    0.000
690.990; 1148.600;  265.350;    0.000
691.099; 1157.600;  217.350;    0.000
691.209; 1137.600;  272.350;    0.000
691.318; 1169.600;  223.350;    0.000
691.427; 1172.600;  212.350;    0.000
691.536; 1168.600;  260.350;    0.000
691.644; 1215.600;  246.350;    0.000
691.753; 1197.600;  251.350;    0.000
691.862; 1207.600;  239.350;    0.000
691.971; 1140.600;  253.350;    0.000
692.080; 1176.600;  255.350;    0.000
692.189; 1248.600;  228.350;    0.000
692.298; 1193.600;  243.350;    0.000
692.406; 1196.600;  269.350;    0.000
692.515; 1180.600;  254.350;    0.000
692.624; 1138.600;  225.350;    0.000
692.733; 1190.600;  245.350;    0.000
692.842; 1155.600;  259.350;    0.000
692.950; 1214.600;  226.350;    0.000
693.059; 1134.600;  216.350;    0.000
693.168; 1209.600;  266.350;    0.000
693.276; 1217.600;  236.350;    0.000
693.385; 1186.600;  257.350;    0.000
693.494; 1179.600;  268.350;    0.000
693.602; 1165.600;  239.350;    0.000
693.711; 1153.600;  224.350;    0.000
693.819; 1217.600;  263.350;    0.000
693.928; 1197.600;  270.350;    0.000
694.036; 1146.600;  247.350;    0.000
694.145; 1173.600;  261.350;    0.000
694.253; 1191.600;  261.350;    0.000
694.362; 1211.600;  253.350;    0.000
694.470; 1193.600;  270.350;    0.000
694.579; 1183.600;  233.350;    0.000
694.687; 1193.600;  260.350;    0.000
694.795; 1196.600;  228.350;    0.000
694.904; 1188.600;  228.350;    0.000
695.012; 1171.600;  288.350;    0.000
695.120; 1246.600;  230.350;    0.000
695.229; 1195.600;  287.350;    0.000
695.337; 1184.600;  249.350;    0.000
695.445; 1284.600;  283.350;    0.000
695.553; 1158.600;  251.350;    0.000
695.662; 1151.600;  236.350;    0.000
695.770; 1172.600;  267.350;    0.000
695.878; 1218.600;  268.350;    0.000
695.986; 1236.600;  297.350;    0.000
696.094; 1275.600;  275.350;    0.000
696.202; 1194.600;  201.350;    0.000
696.310; 1192.600;  283.350;    0.000
696.419; 1207.600;  261.350;    0.000
696.527; 1124.600;  252.350;    0.000
696.635; 1218.600;  249.350;    0.000
696.743; 1145.600;  236.350;    0.000
696.851; 1164.600;  241.350;    0.000
696.959; 1208.600;  278.350;    0.000
697.067; 1138.600;  239.350;    0.000
697.174; 1177.600;  260.350;    0.000
697.282; 1171.600;  259.350;    0.000
697.390; 1182.600;  302.350;    0.000
697.498; 1206.600;  216.350;    0.000
697.606; 1155.600;  245.350;    0.000
697.714; 1143.600;  279.350;    0.000
697.822; 1242.600;  267.350;    0.000
697.929; 1141.600;  234.350;    0.000
698.037; 1127.600;  255.350;    0.000
698.145; 1124.600;  226.350;    0.000
698.253; 1212.600;  261.350;    0.000
698.360; 1223.600;  299.350;    0.000
698.468; 1203.600;  254.350;    0.000
698.576; 1192.600;  307.350;    0.000
698.683; 1156.600;  280.350;    0.000
698.791; 1132.600;  284.350;    0.000
698.899; 1242.600;  279.350;    0.000
699.006; 1234.600;  264.350;    0.000
699.114; 1194.600;  263.350;    0.000
699.221; 1144.600;  291.350;    0.000
699.329; 1214.600;  309.350;    0.000
699.436; 1239.600;  261.350;    0.000
699.544; 1189.600;  259.350;    0.000
699.651; 1191.600;  251.350;    0.000
699.759; 1136.600;  251.350;    0.000
699.866; 1143.600;  266.350;    0.000
699.974; 1048.600;  264.350;    0.000
700.081; 1109.600;  295.350;    0.000
700.188; 1148.600;  293.350;    0.000
700.296; 1138.600;  233.350;    0.000
700.403; 1192.600;  290.350;    0.000
700.510; 1114.600;  275.350;    0.000
700.618; 1233.600;  273.350;    0.000
700.725; 1120.600;  262.350;    0.000
700.832; 1147.600;  250.350;    0.000
700.940; 1200.600;  300.350;    0.000
701.047; 1203.600;  245.350;    0.000
701.154; 1123.600;  280.350;    0.000
701.261; 1158.600;  270.350;    0.000
701.368; 1150.600;  286.350;    0.000
701.475; 1198.600;  301.350;    0.000
701.582; 1198.600;  286.350;    0.000
701.690; 1180.600;  279.350;    0.000
701.797; 1177.600;  292.350;    0.000
701.904; 1169.600;  314.350;    0.000
702.011; 1213.600;  340.350;    0.000
702.118; 1183.600;  276.350;    0.000
702.225; 1190.600;  351.350;    0.000
702.332; 1175.600;  301.350;    0.000
702.439; 1133.600;  334.350;    0.000
702.546; 1227.600;  325.350;    0.000
702.652; 1198.600;  343.350;    0.000
702.759; 1301.600;  339.350;    0.000
702.866; 1198.600;  344.350;    0.000
702.973; 1307.600;  330.350;    0.000
703.080; 1220.600;  322.350;    0.000
703.187; 1169.600;  327.350;    0.000
703.294; 1137.600;  339.350;    0.000
703.400; 1087.600;  325.350;    0.000
703.507;  456.600;  372.350;    0.000
703.614;  298.600;  348.350;    0.000
703.720;  333.600;  333.350;    0.000
703.827;  329.600;  331.350;    0.000
703.934;  340.600;  330.350;    0.000
704.040;  342.600;  327.350;    0.000
704.147;  343.600;  327.350;    0.000
704.254;  379.600;  354.350;    0.000
704.360;  289.600;  337.350;    0.000
704.467;  374.600;  370.350;    0.000
704.573;  359.600;  367.350;    0.000
704.680;  342.600;  339.350;    0.000
704.786;  322.600;  356.350;    0.000
704.893;  341.600;  352.350;    0.000
704.999;  321.600;  332.350;    0.000
705.106;  352.600;  359.350;    0.000

