0 1283.0
1 1219.0
2 1226.0
3 1249.0
4 1220.0
5 1277.0
6 1535.0
7 1077.0
8 1310.0
9 1204.0
10 1203.0
11 1295.0
12 1159.0
13 1301.0
14 1437.0
15 1254.0
16 1204.0
17 1114.0
18 1335.0
19 1329.0
20 1328.0
21 1410.0
22 1352.0
23 1258.0
24 1461.0
25 1483.0
26 1204.0
27 1477.0
28 1373.0
29 1281.0
30 1240.0
31 1425.0
32 1347.0
33 1400.0
34 1311.0
35 1524.0
36 1701.0
37 1284.0
38 1482.0
39 1352.0
40 1388.0
41 1339.0
42 1402.0
43 1337.0
44 2043.0
45 1321.0
46 1174.0
47 1384.0
48 1302.0
49 1367.0
50 1284.0
51 1540.0
52 1310.0
53 1411.0
54 1433.0
55 1344.0
56 1332.0
57 1445.0
58 1426.0
59 1513.0
60 1428.0
61 1507.0
62 1449.0
63 1336.0
64 1594.0
65 1332.0
66 1432.0
67 1357.0
68 1495.0
69 1364.0
70 1381.0
71 1338.0
72 1337.0
73 1471.0
74 1394.0
75 1391.0
76 1389.0
77 1402.0
78 1373.0
79 1367.0
80 1548.0
81 1287.0
82 1257.0
83 1296.0
84 1482.0
85 1315.0
86 1506.0
87 1559.0
88 1345.0
89 1853.0
90 1649.0
91 1288.0
92 1292.0
93 1473.0
94 1513.0
95 1448.0
96 1420.0
97 1411.0
98 1506.0
99 1416.0
100 1402.0
101 1429.0
102 1287.0
103 1670.0
104 1328.0
105 1489.0
106 1401.0
107 1464.0
108 1476.0
109 1512.0
110 1409.0
111 1340.0
112 1449.0
113 1322.0
114 1458.0
115 1460.0
116 1431.0
117 1618.0
118 1647.0
119 1579.0
120 1436.0
121 1417.0
122 1402.0
123 1531.0
124 1552.0
125 1274.0
126 1655.0
127 1217.0
128 1403.0
129 1389.0
130 1460.0
131 1490.0
132 1311.0
133 1392.0
134 1520.0
135 1580.0
136 1364.0
137 1453.0
138 1460.0
139 1335.0
140 1415.0
141 1436.0
142 1378.0
143 1312.0
144 1411.0
145 1337.0
146 1308.0
147 1394.0
148 1420.0
149 1544.0
150 1303.0
151 1445.0
152 1428.0
153 1363.0
154 1397.0
155 1296.0
156 1526.0
157 1389.0
158 1433.0
159 1450.0
160 1353.0
161 1437.0
162 1289.0
163 1305.0
164 1362.0
165 1284.0
166 1291.0
167 1245.0
168 1294.0
169 1382.0
170 1202.0
171 1325.0
172 1777.0
173 1557.0
174 1229.0
175 1426.0
176 1581.0
177 1200.0
178 1454.0
179 1292.0
180 1377.0
181 1242.0
182 1247.0
183 1220.0
184 1356.0
185 1381.0
186 1271.0
187 1349.0
188 1318.0
189 1343.0
190 1519.0
191 1421.0
192 1348.0
193 1476.0
194 1353.0
195 1595.0
196 1465.0
197 1337.0
198 1585.0
199 1309.0
200 1492.0
201 1292.0
202 1206.0
203 1089.0
204 1530.0
205 1286.0
206 1373.0
207 1319.0
208 1465.0
209 1473.0
210 1384.0
211 1316.0
212 1375.0
213 1368.0
214 1301.0
215 1380.0
216 1387.0
217 1478.0
218 1496.0
219 1380.0
220 1487.0
221 1253.0
222 1490.0
223 1365.0
224 1340.0
225 1467.0
226 1356.0
227 1350.0
228 1213.0
229 1396.0
230 1508.0
231 1643.0
232 1521.0
233 1346.0
234 1315.0
235 1546.0
236 1292.0
237 1356.0
238 1384.0
239 1431.0
240 1176.0
241 1395.0
242 1329.0
243 1358.0
244 1895.0
245 1411.0
246 1325.0
247 1660.0
248 1653.0
249 1339.0
250 1314.0
251 1462.0
252 1341.0
253 1153.0
254 1515.0
255 1315.0
256 1376.0
257 5026.0
258 1557.0
259 1317.0
260 1487.0
261 1288.0
262 1402.0
263 1340.0
264 1440.0
265 1413.0
266 1645.0
267 1281.0
268 1499.0
269 1495.0
270 1558.0
271 1424.0
272 1492.0
273 1766.0
274 1417.0
275 1376.0
276 1316.0
277 1406.0
278 1325.0
279 1451.0
280 1456.0
281 1440.0
282 1376.0
283 1454.0
284 1419.0
285 1427.0
286 1329.0
287 1417.0
288 1400.0
289 1333.0
290 1241.0
291 1231.0
292 1381.0
293 1431.0
294 1469.0
295 1309.0
296 1343.0
297 1528.0
298 1325.0
299 1401.0
300 1549.0
301 1412.0
302 1424.0
303 1504.0
304 1526.0
305 1493.0
306 1476.0
307 1398.0
308 1486.0
309 1353.0
310 1434.0
311 1401.0
312 1509.0
313 1332.0
314 1565.0
315 1589.0
316 1410.0
317 1504.0
318 1330.0
319 1310.0
320 1404.0
321 1534.0
322 1510.0
323 1355.0
324 1410.0
325 1437.0
326 1419.0
327 1226.0
328 1602.0
329 1361.0
330 1354.0
331 1564.0
332 1382.0
333 1487.0
334 1464.0
335 1344.0
336 1421.0
337 1256.0
338 1426.0
339 1683.0
340 1355.0
341 1457.0
342 1395.0
343 1539.0
344 1359.0
345 1396.0
346 1417.0
347 1388.0
348 1466.0
349 1435.0
350 1526.0
351 1504.0
352 1138.0
353 1338.0
354 1361.0
355 1416.0
356 1361.0
357 1445.0
358 1550.0
359 1343.0
360 1450.0
361 1440.0
362 1474.0
363 1389.0
364 1386.0
365 1372.0
366 1430.0
367 1507.0
368 1284.0
369 1446.0
370 1449.0
371 1210.0
372 1425.0
373 1331.0
374 1378.0
375 1320.0
376 1343.0
377 1486.0
378 1466.0
379 1215.0
380 1513.0
381 1557.0
382 1482.0
383 1374.0
384 1378.0
385 1342.0
386 1437.0
387 1310.0
388 1668.0
389 1217.0
390 1436.0
391 1284.0
392 1306.0
393 1513.0
394 1503.0
395 1405.0
396 1327.0
397 1710.0
398 1416.0
399 1440.0
400 1381.0
401 1294.0
402 1407.0
403 1487.0
404 1707.0
405 1391.0
406 1596.0
407 1423.0
408 1335.0
409 1530.0
410 1527.0
411 1592.0
412 1496.0
413 1478.0
414 1335.0
415 1319.0
416 1510.0
417 1550.0
418 1694.0
419 1343.0
420 1395.0
421 1580.0
422 1461.0
423 1617.0
424 1412.0
425 1395.0
426 1471.0
427 1261.0
428 1201.0
429 1490.0
430 1451.0
431 1337.0
432 1495.0
433 1439.0
434 1451.0
435 1632.0
436 1287.0
437 1561.0
438 1497.0
439 1409.0
440 1373.0
441 1399.0
442 1541.0
443 1418.0
444 1343.0
445 1465.0
446 1568.0
447 1236.0
448 1433.0
449 1500.0
450 1514.0
451 1399.0
452 1397.0
453 1362.0
454 1307.0
455 1191.0
456 1467.0
457 1579.0
458 1395.0
459 1375.0
460 1432.0
461 1296.0
462 1522.0
463 1469.0
464 1482.0
465 1420.0
466 1300.0
467 1581.0
468 1214.0
469 1390.0
470 1648.0
471 1440.0
472 1450.0
473 1391.0
474 1522.0
475 1612.0
476 1348.0
477 1582.0
478 1563.0
479 1470.0
480 1339.0
481 1541.0
482 1437.0
483 1587.0
484 1602.0
485 1230.0
486 1771.0
487 1481.0
488 1479.0
489 1434.0
490 1460.0
491 1396.0
492 1292.0
493 1488.0
494 1454.0
495 1473.0
496 1566.0
497 1500.0
498 1575.0
499 1371.0
500 1489.0
501 1394.0
502 1383.0
503 1326.0
504 1621.0
505 1531.0
506 1665.0
507 1731.0
508 1716.0
509 2087.0
510 2843.0
511 5659.0
512 16258.0
513 39807.0
514 48175.0
515 31868.0
516 11443.0
517 2967.0
518 1789.0
519 1681.0
520 1715.0
521 1626.0
522 1551.0
523 1507.0
524 1463.0
525 1448.0
526 1473.0
527 1399.0
528 1413.0
529 1460.0
530 1379.0
531 1518.0
532 1402.0
533 1352.0
534 1587.0
535 1551.0
536 1670.0
537 1618.0
538 1485.0
539 1513.0
540 1645.0
541 1539.0
542 1546.0
543 1797.0
544 1984.0
545 2975.0
546 3770.0
547 5130.0
548 6155.0
549 7176.0
550 7486.0
551 7364.0
552 7050.0
553 6781.0
554 6332.0
555 6323.0
556 6371.0
557 6528.0
558 6529.0
559 6502.0
560 6429.0
561 6404.0
562 6791.0
563 6398.0
564 6151.0
565 6165.0
566 6025.0
567 6030.0
568 5620.0
569 5699.0
570 5797.0
571 5500.0
572 5704.0
573 5525.0
574 5544.0
575 5639.0
576 5758.0
577 5724.0
578 5670.0
579 5621.0
580 5725.0
581 5693.0
582 5955.0
583 5734.0
584 5717.0
585 5758.0
586 5948.0
587 5721.0
588 5595.0
589 5598.0
590 5325.0
591 5392.0
592 5385.0
593 5379.0
594 5625.0
595 5482.0
596 5478.0
597 5423.0
598 5123.0
599 5386.0
600 5275.0
601 5349.0
602 5342.0
603 5465.0
604 5400.0
605 5386.0
606 5588.0
607 5614.0
608 5570.0
609 5847.0
610 5905.0
611 5931.0
612 6303.0
613 6181.0
614 6460.0
615 6555.0
616 7052.0
617 7818.0
618 8575.0
619 9669.0
620 10760.0
621 10882.0
622 10972.0
623 10616.0
624 9945.0
625 8886.0
626 7343.0
627 6566.0
628 6073.0
629 5787.0
630 5821.0
631 5414.0
632 5355.0
633 5167.0
634 4971.0
635 4929.0
636 4940.0
637 4739.0
638 4752.0
639 4707.0
640 4729.0
641 4796.0
642 4546.0
643 4662.0
644 4728.0
645 4871.0
646 4696.0
647 4735.0
648 4586.0
649 4809.0
650 4955.0
651 4915.0
652 4929.0
653 4870.0
654 5054.0
655 5019.0
656 5364.0
657 5577.0
658 6192.0
659 7170.0
660 8818.0
661 9964.0
662 10297.0
663 9495.0
664 8967.0
665 8415.0
666 7615.0
667 7054.0
668 6982.0
669 6218.0
670 5409.0
671 4725.0
672 4564.0
673 4574.0
674 4273.0
675 4210.0
676 4384.0
677 4217.0
678 4201.0
679 4188.0
680 4159.0
681 4441.0
682 4047.0
683 3969.0
684 4083.0
685 4047.0
686 3983.0
687 3921.0
688 4049.0
689 4133.0
690 3880.0
691 3947.0
692 4161.0
693 4043.0
694 3975.0
695 3979.0
696 4014.0
697 4034.0
698 4079.0
699 3997.0
700 4146.0
701 4031.0
702 4320.0
703 4052.0
704 4013.0
705 3956.0
706 3966.0
707 4145.0
708 4098.0
709 4005.0
710 4007.0
711 3983.0
712 4037.0
713 4049.0
714 3926.0
715 4102.0
716 3971.0
717 4138.0
718 4032.0
719 4036.0
720 4141.0
721 4184.0
722 4100.0
723 4032.0
724 3943.0
725 4191.0
726 3939.0
727 3975.0
728 4211.0
729 4166.0
730 4034.0
731 3826.0
732 4119.0
733 3967.0
734 3943.0
735 4148.0
736 4000.0
737 3903.0
738 4235.0
739 3959.0
740 4119.0
741 4138.0
742 4089.0
743 4195.0
744 4219.0
745 4259.0
746 4382.0
747 4319.0
748 4820.0
749 4713.0
750 5396.0
751 5958.0
752 7283.0
753 10503.0
754 18872.0
755 36615.0
756 51719.0
757 46475.0
758 25984.0
759 11900.0
760 7261.0
761 5901.0
762 5116.0
763 4775.0
764 4592.0
765 4442.0
766 4365.0
767 4495.0
768 4296.0
769 4263.0
770 4411.0
771 4465.0
772 4274.0
773 4161.0
774 4224.0
775 4395.0
776 4503.0
777 4627.0
778 4425.0
779 4402.0
780 4459.0
781 4418.0
782 5256.0
783 5923.0
784 6939.0
785 7591.0
786 7067.0
787 6016.0
788 5358.0
789 4971.0
790 4973.0
791 5474.0
792 6104.0
793 6693.0
794 5920.0
795 5341.0
796 5475.0
797 6592.0
798 7507.0
799 7605.0
800 6227.0
801 5086.0
802 4628.0
803 4450.0
804 4546.0
805 4998.0
806 5002.0
807 5176.0
808 4973.0
809 4876.0
810 4619.0
811 4273.0
812 4305.0
813 4166.0
814 4278.0
815 3985.0
816 4014.0
817 3908.0
818 3951.0
819 4056.0
820 3986.0
821 3995.0
822 4088.0
823 3741.0
824 3865.0
825 3927.0
826 4008.0
827 3986.0
828 4012.0
829 3899.0
830 4048.0
831 4225.0
832 3973.0
833 4033.0
834 4132.0
835 4135.0
836 3968.0
837 3911.0
838 4093.0
839 4100.0
840 4051.0
841 3789.0
842 3942.0
843 3851.0
844 4010.0
845 4065.0
846 3783.0
847 3808.0
848 3946.0
849 4046.0
850 3786.0
851 3837.0
852 3922.0
853 3677.0
854 3777.0
855 3673.0
856 3854.0
857 3792.0
858 3770.0
859 3755.0
860 3875.0
861 3810.0
862 3822.0
863 3746.0
864 3900.0
865 3681.0
866 3763.0
867 3773.0
868 3896.0
869 3749.0
870 3604.0
871 3876.0
872 4110.0
873 3977.0
874 3808.0
875 3746.0
876 3721.0
877 3748.0
878 3814.0
879 3695.0
880 3689.0
881 3897.0
882 3733.0
883 3736.0
884 3902.0
885 3924.0
886 3878.0
887 3760.0
888 3786.0
889 3919.0
890 4024.0
891 4045.0
892 3930.0
893 3715.0
894 3867.0
895 3715.0
896 3529.0
897 3711.0
898 3763.0
899 3684.0
900 3742.0
901 3932.0
902 3677.0
903 3653.0
904 3703.0
905 3800.0
906 3636.0
907 3887.0
908 3791.0
909 3764.0
910 3771.0
911 3924.0
912 3780.0
913 3817.0
914 3743.0
915 3872.0
916 4021.0
917 3699.0
918 3596.0
919 3841.0
920 3635.0
921 3806.0
922 3770.0
923 3874.0
924 3770.0
925 3706.0
926 3878.0
927 3787.0
928 3973.0
929 3635.0
930 3703.0
931 3669.0
932 3807.0
933 3475.0
934 3856.0
935 3707.0
936 3518.0
937 3596.0
938 3549.0
939 3501.0
940 3672.0
941 3624.0
942 3664.0
943 3604.0
944 3603.0
945 3743.0
946 3528.0
947 3685.0
948 3508.0
949 3501.0
950 3518.0
951 3753.0
952 3816.0
953 3471.0
954 3560.0
955 3595.0
956 3620.0
957 3409.0
958 3418.0
959 3523.0
960 3494.0
961 3502.0
962 3668.0
963 3520.0
964 3440.0
965 3664.0
966 3400.0
967 3314.0
968 3404.0
969 3553.0
970 3503.0
971 3376.0
972 3337.0
973 3796.0
974 3468.0
975 3355.0
976 3338.0
977 3442.0
978 3391.0
979 3370.0
980 3434.0
981 3378.0
982 3575.0
983 3341.0
984 3421.0
985 3295.0
986 3319.0
987 3548.0
988 3480.0
989 3473.0
990 3397.0
991 3374.0
992 3485.0
993 3404.0
994 3193.0
995 3303.0
996 3339.0
997 3401.0
998 3399.0
999 3209.0
1000 3249.0
1001 3384.0
1002 3302.0
1003 3539.0
1004 3448.0
1005 3394.0
1006 3635.0
1007 3441.0
1008 3342.0
1009 3455.0
1010 3529.0
1011 3342.0
1012 3587.0
1013 3286.0
1014 3401.0
1015 3525.0
1016 3242.0
1017 3380.0
1018 3614.0
1019 3396.0
1020 3330.0
1021 3377.0
1022 3349.0
1023 3487.0
1024 3189.0
1025 3393.0
1026 3579.0
1027 3321.0
1028 3396.0
1029 3523.0
1030 3532.0
1031 3504.0
1032 3552.0
1033 3472.0
1034 3472.0
1035 3411.0
1036 3389.0
1037 3596.0
1038 3400.0
1039 3437.0
1040 3363.0
1041 3345.0
1042 3304.0
1043 3265.0
1044 3222.0
1045 3899.0
1046 3376.0
1047 3353.0
1048 3441.0
1049 3495.0
1050 3312.0
1051 3289.0
1052 3283.0
1053 4370.0
1054 3336.0
1055 3109.0
1056 3364.0
1057 3265.0
1058 3286.0
1059 3573.0
1060 3249.0
1061 3392.0
1062 3272.0
1063 3366.0
1064 3352.0
1065 3268.0
1066 3425.0
1067 3333.0
1068 3950.0
1069 3241.0
1070 3445.0
1071 3176.0
1072 3533.0
1073 3313.0
1074 3655.0
1075 3383.0
1076 3549.0
1077 3306.0
1078 3243.0
1079 3407.0
1080 3325.0
1081 3242.0
1082 3228.0
1083 3489.0
1084 3317.0
1085 3404.0
1086 3240.0
1087 3282.0
1088 3321.0
1089 3414.0
1090 3304.0
1091 3712.0
1092 3177.0
1093 3311.0
1094 3495.0
1095 3426.0
1096 3385.0
1097 3308.0
1098 3423.0
1099 3194.0
1100 3346.0
1101 3213.0
1102 3014.0
1103 3203.0
1104 3118.0
1105 3143.0
1106 3371.0
1107 3142.0
1108 3185.0
1109 3181.0
1110 3391.0
1111 3367.0
1112 3236.0
1113 3175.0
1114 3060.0
1115 3397.0
1116 3297.0
1117 3095.0
1118 3323.0
1119 3286.0
1120 3237.0
1121 3127.0
1122 3250.0
1123 3144.0
1124 3226.0
1125 3230.0
1126 3291.0
1127 3206.0
1128 3429.0
1129 3117.0
1130 3347.0
1131 3243.0
1132 3113.0
1133 3172.0
1134 3082.0
1135 3193.0
1136 3268.0
1137 3210.0
1138 3318.0
1139 3248.0
1140 3075.0
1141 3340.0
1142 3385.0
1143 3058.0
1144 3332.0
1145 3206.0
1146 3224.0
1147 3124.0
1148 3178.0
1149 3194.0
1150 3082.0
1151 3188.0
1152 3037.0
1153 3158.0
1154 3434.0
1155 3212.0
1156 3091.0
1157 3489.0
1158 3288.0
1159 3219.0
1160 3245.0
1161 3304.0
1162 3018.0
1163 3173.0
1164 2980.0
1165 3011.0
1166 3267.0
1167 3017.0
1168 3291.0
1169 3070.0
1170 3302.0
1171 3064.0
1172 3235.0
1173 3085.0
1174 3137.0
1175 3056.0
1176 3244.0
1177 3015.0
1178 3136.0
1179 3184.0
1180 3123.0
1181 3412.0
1182 3078.0
1183 2996.0
1184 3150.0
1185 3118.0
1186 2998.0
1187 3396.0
1188 3159.0
1189 3030.0
1190 2961.0
1191 2981.0
1192 2998.0
1193 3137.0
1194 3130.0
1195 3249.0
1196 3217.0
1197 3122.0
1198 3188.0
1199 3015.0
1200 3153.0
1201 3075.0
1202 3017.0
1203 3015.0
1204 3225.0
1205 3093.0
1206 2994.0
1207 3014.0
1208 3337.0
1209 3009.0
1210 2897.0
1211 3177.0
1212 2899.0
1213 3050.0
1214 3089.0
1215 3206.0
1216 3264.0
1217 3168.0
1218 3088.0
1219 2987.0
1220 2963.0
1221 2955.0
1222 3018.0
1223 2925.0
1224 3153.0
1225 3189.0
1226 2950.0
1227 3131.0
1228 3226.0
1229 2999.0
1230 3047.0
1231 2938.0
1232 3050.0
1233 3169.0
1234 3224.0
1235 3032.0
1236 3025.0
1237 3097.0
1238 2909.0
1239 2946.0
1240 3092.0
1241 2968.0
1242 2844.0
1243 3023.0
1244 3083.0
1245 2973.0
1246 2925.0
1247 3086.0
1248 2967.0
1249 2962.0
1250 3074.0
1251 2959.0
1252 2908.0
1253 3104.0
1254 3092.0
1255 3407.0
1256 2720.0
1257 3131.0
1258 3076.0
1259 3059.0
1260 3209.0
1261 3016.0
1262 3007.0
1263 2944.0
1264 2973.0
1265 2757.0
1266 2936.0
1267 3041.0
1268 3071.0
1269 2890.0
1270 2987.0
1271 2936.0
1272 2855.0
1273 2798.0
1274 2895.0
1275 2886.0
1276 3158.0
1277 2887.0
1278 3044.0
1279 2929.0
1280 2878.0
1281 2948.0
1282 2911.0
1283 2973.0
1284 3046.0
1285 2938.0
1286 3089.0
1287 2814.0
1288 3062.0
1289 2928.0
1290 2933.0
1291 2670.0
1292 3274.0
1293 3246.0
1294 2937.0
1295 3140.0
1296 2931.0
1297 2943.0
1298 2964.0
1299 2873.0
1300 2862.0
1301 2816.0
1302 3002.0
1303 2738.0
1304 2924.0
1305 2893.0
1306 2711.0
1307 3014.0
1308 2930.0
1309 2948.0
1310 2886.0
1311 2716.0
1312 2796.0
1313 2878.0
1314 2837.0
1315 3028.0
1316 2905.0
1317 2838.0
1318 2964.0
1319 2700.0
1320 3119.0
1321 2901.0
1322 3038.0
1323 2961.0
1324 3036.0
1325 3083.0
1326 2836.0
1327 2758.0
1328 3012.0
1329 2889.0
1330 2997.0
1331 3015.0
1332 3116.0
1333 2886.0
1334 3011.0
1335 2869.0
1336 2983.0
1337 2800.0
1338 2810.0
1339 2896.0
1340 2941.0
1341 3030.0
1342 2962.0
1343 2807.0
1344 3107.0
1345 2955.0
1346 2835.0
1347 3017.0
1348 2974.0
1349 2884.0
1350 2870.0
1351 2939.0
1352 2925.0
1353 2741.0
1354 2843.0
1355 2821.0
1356 2713.0
1357 2845.0
1358 2837.0
1359 2720.0
1360 2787.0
1361 3193.0
1362 2794.0
1363 2977.0
1364 2917.0
1365 2833.0
1366 2967.0
1367 2991.0
1368 2867.0
1369 2728.0
1370 3183.0
1371 2831.0
1372 2827.0
1373 2808.0
1374 2736.0
1375 2801.0
1376 2898.0
1377 2808.0
1378 2917.0
1379 2745.0
1380 3150.0
1381 2856.0
1382 2758.0
1383 3005.0
1384 2915.0
1385 2812.0
1386 3084.0
1387 2986.0
1388 2905.0
1389 3055.0
1390 2912.0
1391 2976.0
1392 3149.0
1393 2786.0
1394 2952.0
1395 3261.0
1396 2879.0
1397 2880.0
1398 2860.0
1399 2852.0
1400 2906.0
1401 2982.0
1402 3058.0
1403 2863.0
1404 2990.0
1405 3045.0
1406 3005.0
1407 2844.0
1408 2962.0
1409 3039.0
1410 2916.0
1411 3802.0
1412 2807.0
1413 2976.0
1414 3277.0
1415 2984.0
1416 3179.0
1417 2945.0
1418 3066.0
1419 3064.0
1420 2977.0
1421 2877.0
1422 2960.0
1423 3014.0
1424 2946.0
1425 3105.0
1426 3232.0
1427 3248.0
1428 2922.0
1429 3029.0
1430 3068.0
1431 3063.0
1432 2927.0
1433 3109.0
1434 2931.0
1435 3035.0
1436 3315.0
1437 3122.0
1438 3064.0
1439 3334.0
1440 3083.0
1441 3077.0
1442 3176.0
1443 3064.0
1444 3325.0
1445 3358.0
1446 3046.0
1447 3330.0
1448 3084.0
1449 3228.0
1450 2993.0
1451 3206.0
1452 3020.0
1453 3250.0
1454 3119.0
1455 3026.0
1456 3202.0
1457 3196.0
1458 3405.0
1459 3151.0
1460 2933.0
1461 3144.0
1462 3216.0
1463 3078.0
1464 3230.0
1465 3088.0
1466 3194.0
1467 3309.0
1468 2995.0
1469 3190.0
1470 3116.0
1471 3124.0
1472 3011.0
1473 3113.0
1474 3118.0
1475 3193.0
1476 2814.0
1477 3322.0
1478 2957.0
1479 3148.0
1480 3048.0
1481 3045.0
1482 3239.0
1483 3021.0
1484 3091.0
1485 3037.0
1486 3337.0
1487 3091.0
1488 3091.0
1489 3092.0
1490 3306.0
1491 3033.0
1492 3106.0
1493 2971.0
1494 3184.0
1495 3074.0
1496 3079.0
1497 2828.0
1498 3067.0
1499 2992.0
1500 3162.0
1501 3171.0
1502 3227.0
1503 3107.0
1504 3035.0
1505 3221.0
1506 3091.0
1507 3227.0
1508 3003.0
1509 3036.0
1510 3097.0
1511 3264.0
1512 3058.0
1513 3054.0
1514 3064.0
1515 3199.0
1516 3107.0
1517 3124.0
1518 3145.0
1519 3128.0
1520 3155.0
1521 3080.0
1522 3037.0
1523 3303.0
1524 3137.0
1525 3008.0
1526 2989.0
1527 2998.0
1528 3086.0
1529 3095.0
1530 3122.0
1531 3009.0
1532 3164.0
1533 3138.0
1534 3765.0
1535 3157.0
1536 3217.0
1537 3044.0
1538 3106.0
1539 3075.0
1540 3096.0
1541 3068.0
1542 3166.0
1543 3204.0
1544 3032.0
1545 3030.0
1546 3006.0
1547 3116.0
1548 3023.0
1549 3115.0
1550 3058.0
1551 3157.0
1552 2991.0
1553 3076.0
1554 3038.0
1555 3092.0
1556 3083.0
1557 3011.0
1558 3011.0
1559 2945.0
1560 3023.0
1561 2758.0
1562 2955.0
1563 3492.0
1564 3043.0
1565 2962.0
1566 2770.0
1567 2932.0
1568 2773.0
1569 2941.0
1570 3052.0
1571 2897.0
1572 3004.0
1573 2910.0
1574 2923.0
1575 2782.0
1576 2854.0
1577 2863.0
1578 2778.0
1579 2763.0
1580 2627.0
1581 2861.0
1582 2924.0
1583 2889.0
1584 2822.0
1585 2825.0
1586 2640.0
1587 2741.0
1588 2704.0
1589 2703.0
1590 2831.0
1591 2631.0
1592 2676.0
1593 2545.0
1594 2534.0
1595 2714.0
1596 2633.0
1597 2810.0
1598 2940.0
1599 2508.0
1600 2774.0
1601 2507.0
1602 2815.0
1603 2610.0
1604 2761.0
1605 2590.0
1606 2580.0
1607 2654.0
1608 2754.0
1609 2477.0
1610 2748.0
1611 2496.0
1612 2367.0
1613 2488.0
1614 2675.0
1615 2441.0
1616 2527.0
1617 2559.0
1618 2303.0
1619 2649.0
1620 2416.0
1621 2449.0
1622 2398.0
1623 2385.0
1624 2355.0
1625 2375.0
1626 2442.0
1627 2523.0
1628 2412.0
1629 2412.0
1630 2345.0
1631 2592.0
1632 2507.0
1633 2388.0
1634 2413.0
1635 2443.0
1636 2460.0
1637 2385.0
1638 2412.0
1639 2271.0
1640 2474.0
1641 2468.0
1642 2487.0
1643 2395.0
1644 2455.0
1645 2318.0
1646 2293.0
1647 2230.0
1648 2437.0
1649 2350.0
1650 2302.0
1651 2432.0
1652 2589.0
1653 2381.0
1654 2257.0
1655 2574.0
1656 2251.0
1657 2311.0
1658 2407.0
1659 2247.0
1660 2336.0
1661 2381.0
1662 2481.0
1663 2228.0
1664 2290.0
1665 2408.0
1666 2382.0
1667 2303.0
1668 2358.0
1669 2374.0
1670 2353.0
1671 2419.0
1672 2407.0
1673 2334.0
1674 2409.0
1675 2257.0
1676 2367.0
1677 2581.0
1678 2489.0
1679 2533.0
1680 2308.0
1681 2450.0
1682 2193.0
1683 2466.0
1684 2515.0
1685 2459.0
1686 2439.0
1687 2359.0
1688 2327.0
1689 2407.0
1690 2426.0
1691 2308.0
1692 2585.0
1693 2520.0
1694 2316.0
1695 2474.0
1696 2313.0
1697 2445.0
1698 2346.0
1699 2178.0
1700 2355.0
1701 2286.0
1702 2350.0
1703 2404.0
1704 2362.0
1705 2311.0
1706 2268.0
1707 2313.0
1708 2372.0
1709 2465.0
1710 2271.0
1711 2576.0
1712 2318.0
1713 2299.0
1714 2415.0
1715 2311.0
1716 2529.0
1717 2274.0
1718 2389.0
1719 2181.0
1720 2209.0
1721 2252.0
1722 2340.0
1723 2199.0
1724 2395.0
1725 2369.0
1726 2330.0
1727 2317.0
1728 2396.0
1729 2285.0
1730 2381.0
1731 2257.0
1732 2367.0
1733 2442.0
1734 2274.0
1735 2341.0
1736 2198.0
1737 2241.0
1738 2284.0
1739 2251.0
1740 2420.0
1741 2193.0
1742 2456.0
1743 2290.0
1744 2289.0
1745 2251.0
1746 2348.0
1747 2240.0
1748 2199.0
1749 2283.0
1750 2323.0
1751 2346.0
1752 2041.0
1753 2195.0
1754 2075.0
1755 2665.0
1756 2307.0
1757 2377.0
1758 2180.0
1759 2212.0
1760 2146.0
1761 2340.0
1762 2190.0
1763 2249.0
1764 2233.0
1765 2162.0
1766 2186.0
1767 2387.0
1768 2206.0
1769 2226.0
1770 2165.0
1771 2371.0
1772 2221.0
1773 2369.0
1774 2331.0
1775 2236.0
1776 2357.0
1777 2214.0
1778 2341.0
1779 2231.0
1780 2509.0
1781 2327.0
1782 2128.0
1783 2230.0
1784 2237.0
1785 2239.0
1786 2294.0
1787 2175.0
1788 2148.0
1789 2213.0
1790 2227.0
1791 2212.0
1792 2809.0
1793 2136.0
1794 2297.0
1795 2065.0
1796 2265.0
1797 2131.0
1798 2051.0
1799 2706.0
1800 2497.0
1801 2194.0
1802 2311.0
1803 2076.0
1804 2019.0
1805 2069.0
1806 2196.0
1807 2319.0
1808 2159.0
1809 2916.0
1810 2244.0
1811 2221.0
1812 2143.0
1813 2338.0
1814 2120.0
1815 2129.0
1816 2154.0
1817 2263.0
1818 2372.0
1819 2119.0
1820 2234.0
1821 2274.0
1822 2132.0
1823 2186.0
1824 2125.0
1825 2180.0
1826 2196.0
1827 2308.0
1828 2235.0
1829 2275.0
1830 2234.0
1831 2472.0
1832 2311.0
1833 2378.0
1834 2187.0
1835 2330.0
1836 2350.0
1837 2288.0
1838 2384.0
1839 2125.0
1840 2235.0
1841 2117.0
1842 1965.0
1843 2076.0
1844 2088.0
1845 2215.0
1846 2206.0
1847 2126.0
1848 2264.0
1849 2311.0
1850 2307.0
1851 2139.0
1852 2272.0
1853 2062.0
1854 2111.0
1855 2178.0
1856 2224.0
1857 2137.0
1858 2080.0
1859 2351.0
1860 2250.0
1861 2195.0
1862 2200.0
1863 2219.0
1864 2219.0
1865 2125.0
1866 3174.0
1867 2262.0
1868 2267.0
1869 2084.0
1870 2395.0
1871 2075.0
1872 2204.0
1873 2061.0
1874 2124.0
1875 2158.0
1876 2296.0
1877 2111.0
1878 2103.0
1879 2278.0
1880 2233.0
1881 2208.0
1882 2266.0
1883 2201.0
1884 2178.0
1885 1960.0
1886 2373.0
1887 2236.0
1888 2219.0
1889 1939.0
1890 2333.0
1891 1977.0
1892 2101.0
1893 2185.0
1894 2117.0
1895 2268.0
1896 2159.0
1897 1987.0
1898 1884.0
1899 2171.0
1900 2150.0
1901 2181.0
1902 2365.0
1903 2221.0
1904 2433.0
1905 2329.0
1906 2217.0
1907 2030.0
1908 2250.0
1909 2062.0
1910 2053.0
1911 2161.0
1912 2087.0
1913 2129.0
1914 2373.0
1915 2057.0
1916 1970.0
1917 2070.0
1918 2171.0
1919 2049.0
1920 1908.0
1921 2328.0
1922 2003.0
1923 1974.0
1924 2214.0
1925 2014.0
1926 1841.0
1927 2176.0
1928 1989.0
1929 2024.0
1930 1952.0
1931 1912.0
1932 1754.0
1933 2132.0
1934 2053.0
1935 2035.0
1936 1895.0
1937 1752.0
1938 1858.0
1939 1754.0
1940 1673.0
1941 1737.0
1942 1639.0
1943 1724.0
1944 1812.0
1945 1878.0
1946 1882.0
1947 1570.0
1948 1730.0
1949 1764.0
1950 1893.0
1951 1932.0
1952 1904.0
1953 1917.0
1954 2039.0
1955 1893.0
1956 1949.0
1957 1608.0
1958 1886.0
1959 2073.0
1960 1640.0
1961 1756.0
1962 1683.0
1963 1716.0
1964 1905.0
1965 1625.0
1966 1678.0
1967 1914.0
1968 1868.0
1969 1914.0
1970 1658.0
1971 1726.0
1972 1754.0
1973 1626.0
1974 1689.0
1975 1447.0
1976 1527.0
1977 1681.0
1978 1727.0
1979 1472.0
1980 3421.0
1981 1751.0
1982 1432.0
1983 1423.0
1984 1268.0
1985 1377.0
1986 1373.0
1987 1453.0
1988 1801.0
1989 1344.0
1990 1804.0
1991 1478.0
1992 1659.0
1993 1622.0
1994 1844.0
1995 1521.0
1996 1351.0
1997 1626.0
1998 1641.0
1999 1383.0
2000 1555.0
2001 1621.0
2002 1427.0
2003 1473.0
2004 1560.0
2005 1504.0
2006 1366.0
2007 1577.0
2008 1515.0
2009 1480.0
2010 1424.0
2011 1313.0
2012 1977.0
2013 1114.0
2014 1471.0
2015 1422.0
2016 1694.0
2017 1310.0
2018 1330.0
2019 1267.0
2020 1313.0
2021 1386.0
2022 1432.0
2023 1247.0
2024 1481.0
2025 1372.0
2026 1292.0
2027 1372.0
2028 1393.0
2029 1211.0
2030 1854.0
2031 1261.0
2032 1495.0
2033 1467.0
2034 1203.0
2035 1259.0
2036 1327.0
2037 1244.0
2038 1281.0
2039 1352.0
2040 1366.0
2041 1330.0
2042 1314.0
2043 1057.0
2044 1206.0
2045 1051.0
2046 1189.0
2047 1109.0
