0 431.0
1 505.0
2 475.0
3 494.0
4 442.0
5 461.0
6 468.0
7 491.0
8 491.0
9 485.0
10 498.0
11 504.0
12 477.0
13 489.0
14 472.0
15 491.0
16 482.0
17 494.0
18 450.0
19 514.0
20 497.0
21 477.0
22 483.0
23 495.0
24 473.0
25 458.0
26 504.0
27 469.0
28 477.0
29 486.0
30 421.0
31 478.0
32 438.0
33 460.0
34 459.0
35 444.0
36 427.0
37 437.0
38 428.0
39 485.0
40 482.0
41 439.0
42 428.0
43 436.0
44 414.0
45 445.0
46 471.0
47 454.0
48 464.0
49 443.0
50 448.0
51 437.0
52 459.0
53 420.0
54 447.0
55 442.0
56 414.0
57 457.0
58 428.0
59 481.0
60 447.0
61 429.0
62 444.0
63 480.0
64 430.0
65 437.0
66 438.0
67 482.0
68 480.0
69 483.0
70 426.0
71 487.0
72 417.0
73 502.0
74 419.0
75 463.0
76 433.0
77 474.0
78 457.0
79 433.0
80 469.0
81 448.0
82 425.0
83 442.0
84 450.0
85 476.0
86 464.0
87 446.0
88 425.0
89 419.0
90 426.0
91 458.0
92 459.0
93 472.0
94 421.0
95 447.0
96 443.0
97 481.0
98 448.0
99 458.0
100 461.0
101 459.0
102 432.0
103 482.0
104 443.0
105 452.0
106 469.0
107 446.0
108 453.0
109 479.0
110 458.0
111 468.0
112 423.0
113 484.0
114 447.0
115 501.0
116 452.0
117 455.0
118 424.0
119 443.0
120 444.0
121 458.0
122 427.0
123 460.0
124 445.0
125 488.0
126 487.0
127 455.0
128 464.0
129 462.0
130 442.0
131 477.0
132 455.0
133 450.0
134 475.0
135 457.0
136 476.0
137 465.0
138 459.0
139 479.0
140 454.0
141 476.0
142 452.0
143 489.0
144 499.0
145 443.0
146 504.0
147 496.0
148 440.0
149 465.0
150 443.0
151 462.0
152 482.0
153 466.0
154 474.0
155 523.0
156 469.0
157 477.0
158 501.0
159 477.0
160 381.0
161 468.0
162 460.0
163 428.0
164 476.0
165 464.0
166 448.0
167 448.0
168 438.0
169 484.0
170 432.0
171 438.0
172 464.0
173 461.0
174 424.0
175 438.0
176 459.0
177 470.0
178 496.0
179 468.0
180 465.0
181 479.0
182 443.0
183 410.0
184 462.0
185 494.0
186 439.0
187 451.0
188 447.0
189 475.0
190 461.0
191 503.0
192 455.0
193 443.0
194 415.0
195 434.0
196 445.0
197 465.0
198 417.0
199 441.0
200 429.0
201 440.0
202 476.0
203 424.0
204 488.0
205 480.0
206 426.0
207 410.0
208 442.0
209 474.0
210 458.0
211 475.0
212 437.0
213 427.0
214 447.0
215 405.0
216 435.0
217 426.0
218 417.0
219 461.0
220 432.0
221 459.0
222 439.0
223 474.0
224 422.0
225 430.0
226 459.0
227 463.0
228 449.0
229 433.0
230 469.0
231 491.0
232 467.0
233 442.0
234 452.0
235 478.0
236 451.0
237 479.0
238 415.0
239 442.0
240 439.0
241 481.0
242 461.0
243 465.0
244 485.0
245 457.0
246 426.0
247 498.0
248 446.0
249 466.0
250 452.0
251 473.0
252 453.0
253 453.0
254 449.0
255 472.0
256 416.0
257 470.0
258 462.0
259 448.0
260 462.0
261 474.0
262 435.0
263 465.0
264 484.0
265 445.0
266 475.0
267 475.0
268 456.0
269 528.0
270 464.0
271 423.0
272 449.0
273 500.0
274 464.0
275 462.0
276 451.0
277 482.0
278 418.0
279 436.0
280 441.0
281 455.0
282 479.0
283 451.0
284 464.0
285 460.0
286 477.0
287 477.0
288 473.0
289 432.0
290 442.0
291 468.0
292 436.0
293 476.0
294 474.0
295 403.0
296 420.0
297 468.0
298 432.0
299 461.0
300 467.0
301 472.0
302 452.0
303 478.0
304 444.0
305 445.0
306 460.0
307 472.0
308 441.0
309 446.0
310 446.0
311 446.0
312 432.0
313 470.0
314 447.0
315 481.0
316 469.0
317 492.0
318 483.0
319 489.0
320 476.0
321 474.0
322 440.0
323 451.0
324 446.0
325 450.0
326 459.0
327 462.0
328 445.0
329 471.0
330 423.0
331 433.0
332 481.0
333 436.0
334 449.0
335 447.0
336 478.0
337 478.0
338 444.0
339 452.0
340 445.0
341 451.0
342 455.0
343 450.0
344 454.0
345 496.0
346 431.0
347 473.0
348 439.0
349 483.0
350 440.0
351 471.0
352 486.0
353 479.0
354 497.0
355 436.0
356 427.0
357 457.0
358 489.0
359 500.0
360 508.0
361 445.0
362 496.0
363 468.0
364 464.0
365 512.0
366 438.0
367 424.0
368 490.0
369 484.0
370 460.0
371 463.0
372 458.0
373 463.0
374 458.0
375 476.0
376 433.0
377 509.0
378 443.0
379 475.0
380 462.0
381 456.0
382 458.0
383 495.0
384 455.0
385 439.0
386 454.0
387 495.0
388 441.0
389 479.0
390 461.0
391 485.0
392 459.0
393 510.0
394 429.0
395 480.0
396 470.0
397 457.0
398 465.0
399 440.0
400 480.0
401 429.0
402 452.0
403 480.0
404 486.0
405 462.0
406 464.0
407 466.0
408 446.0
409 511.0
410 473.0
411 490.0
412 477.0
413 447.0
414 443.0
415 456.0
416 475.0
417 484.0
418 475.0
419 475.0
420 422.0
421 457.0
422 474.0
423 447.0
424 423.0
425 451.0
426 468.0
427 429.0
428 459.0
429 455.0
430 439.0
431 472.0
432 472.0
433 491.0
434 445.0
435 465.0
436 490.0
437 474.0
438 431.0
439 484.0
440 456.0
441 499.0
442 445.0
443 457.0
444 458.0
445 478.0
446 477.0
447 438.0
448 424.0
449 473.0
450 479.0
451 456.0
452 465.0
453 456.0
454 444.0
455 515.0
456 498.0
457 494.0
458 430.0
459 496.0
460 477.0
461 485.0
462 409.0
463 495.0
464 482.0
465 466.0
466 434.0
467 448.0
468 471.0
469 467.0
470 437.0
471 495.0
472 470.0
473 471.0
474 455.0
475 492.0
476 499.0
477 457.0
478 453.0
479 449.0
480 486.0
481 493.0
482 480.0
483 468.0
484 446.0
485 497.0
486 452.0
487 480.0
488 442.0
489 489.0
490 490.0
491 518.0
492 494.0
493 459.0
494 466.0
495 537.0
496 483.0
497 461.0
498 487.0
499 441.0
500 450.0
501 505.0
502 468.0
503 499.0
504 462.0
505 469.0
506 472.0
507 490.0
508 515.0
509 481.0
510 500.0
511 518.0
512 437.0
513 511.0
514 468.0
515 498.0
516 463.0
517 496.0
518 463.0
519 480.0
520 481.0
521 485.0
522 472.0
523 509.0
524 490.0
525 458.0
526 484.0
527 486.0
528 500.0
529 495.0
530 453.0
531 490.0
532 509.0
533 466.0
534 499.0
535 492.0
536 497.0
537 456.0
538 443.0
539 467.0
540 466.0
541 492.0
542 502.0
543 469.0
544 443.0
545 471.0
546 452.0
547 461.0
548 450.0
549 479.0
550 485.0
551 472.0
552 444.0
553 473.0
554 485.0
555 484.0
556 418.0
557 466.0
558 452.0
559 460.0
560 496.0
561 485.0
562 417.0
563 492.0
564 478.0
565 472.0
566 452.0
567 494.0
568 450.0
569 461.0
570 442.0
571 452.0
572 435.0
573 469.0
574 408.0
575 443.0
576 430.0
577 459.0
578 448.0
579 484.0
580 455.0
581 469.0
582 501.0
583 482.0
584 454.0
585 491.0
586 476.0
587 482.0
588 443.0
589 447.0
590 465.0
591 466.0
592 487.0
593 453.0
594 497.0
595 448.0
596 507.0
597 487.0
598 460.0
599 516.0
600 452.0
601 493.0
602 475.0
603 494.0
604 470.0
605 490.0
606 488.0
607 493.0
608 445.0
609 479.0
610 499.0
611 480.0
612 488.0
613 470.0
614 487.0
615 495.0
616 504.0
617 512.0
618 505.0
619 513.0
620 471.0
621 492.0
622 456.0
623 518.0
624 536.0
625 477.0
626 456.0
627 522.0
628 465.0
629 492.0
630 476.0
631 480.0
632 473.0
633 482.0
634 540.0
635 498.0
636 504.0
637 508.0
638 449.0
639 488.0
640 449.0
641 518.0
642 460.0
643 458.0
644 466.0
645 478.0
646 491.0
647 494.0
648 465.0
649 505.0
650 519.0
651 479.0
652 477.0
653 450.0
654 490.0
655 509.0
656 475.0
657 488.0
658 469.0
659 499.0
660 436.0
661 467.0
662 450.0
663 452.0
664 475.0
665 496.0
666 503.0
667 465.0
668 506.0
669 467.0
670 400.0
671 473.0
672 486.0
673 477.0
674 455.0
675 450.0
676 434.0
677 455.0
678 442.0
679 425.0
680 479.0
681 419.0
682 479.0
683 461.0
684 454.0
685 467.0
686 447.0
687 457.0
688 440.0
689 477.0
690 413.0
691 471.0
692 462.0
693 448.0
694 458.0
695 426.0
696 445.0
697 463.0
698 440.0
699 455.0
700 447.0
701 452.0
702 455.0
703 430.0
704 433.0
705 413.0
706 402.0
707 443.0
708 429.0
709 448.0
710 412.0
711 413.0
712 387.0
713 432.0
714 424.0
715 450.0
716 398.0
717 415.0
718 398.0
719 402.0
720 433.0
721 417.0
722 435.0
723 423.0
724 427.0
725 442.0
726 434.0
727 413.0
728 415.0
729 401.0
730 435.0
731 397.0
732 396.0
733 439.0
734 400.0
735 439.0
736 386.0
737 450.0
738 413.0
739 396.0
740 391.0
741 407.0
742 445.0
743 416.0
744 430.0
745 401.0
746 389.0
747 434.0
748 418.0
749 409.0
750 398.0
751 416.0
752 473.0
753 417.0
754 418.0
755 423.0
756 394.0
757 432.0
758 398.0
759 433.0
760 425.0
761 425.0
762 450.0
763 433.0
764 426.0
765 416.0
766 378.0
767 411.0
768 414.0
769 423.0
770 420.0
771 371.0
772 403.0
773 457.0
774 431.0
775 392.0
776 397.0
777 425.0
778 428.0
779 429.0
780 430.0
781 428.0
782 426.0
783 424.0
784 452.0
785 419.0
786 460.0
787 433.0
788 400.0
789 426.0
790 417.0
791 426.0
792 448.0
793 438.0
794 423.0
795 410.0
796 403.0
797 400.0
798 383.0
799 409.0
800 431.0
801 423.0
802 380.0
803 419.0
804 412.0
805 461.0
806 407.0
807 442.0
808 423.0
809 406.0
810 420.0
811 405.0
812 387.0
813 433.0
814 445.0
815 444.0
816 410.0
817 425.0
818 418.0
819 392.0
820 390.0
821 445.0
822 412.0
823 419.0
824 434.0
825 423.0
826 424.0
827 450.0
828 427.0
829 425.0
830 413.0
831 434.0
832 437.0
833 425.0
834 430.0
835 410.0
836 399.0
837 412.0
838 464.0
839 419.0
840 453.0
841 413.0
842 404.0
843 416.0
844 415.0
845 438.0
846 400.0
847 400.0
848 460.0
849 431.0
850 443.0
851 394.0
852 400.0
853 398.0
854 387.0
855 427.0
856 391.0
857 448.0
858 409.0
859 381.0
860 377.0
861 387.0
862 390.0
863 386.0
864 376.0
865 438.0
866 409.0
867 405.0
868 379.0
869 400.0
870 405.0
871 404.0
872 424.0
873 397.0
874 392.0
875 414.0
876 426.0
877 412.0
878 418.0
879 376.0
880 421.0
881 369.0
882 398.0
883 401.0
884 400.0
885 404.0
886 384.0
887 407.0
888 396.0
889 382.0
890 390.0
891 406.0
892 399.0
893 404.0
894 395.0
895 411.0
896 423.0
897 397.0
898 432.0
899 427.0
900 363.0
901 405.0
902 390.0
903 428.0
904 421.0
905 419.0
906 418.0
907 425.0
908 382.0
909 420.0
910 391.0
911 361.0
912 422.0
913 389.0
914 414.0
915 389.0
916 418.0
917 399.0
918 408.0
919 405.0
920 404.0
921 431.0
922 425.0
923 438.0
924 398.0
925 372.0
926 391.0
927 406.0
928 393.0
929 419.0
930 446.0
931 413.0
932 397.0
933 424.0
934 429.0
935 461.0
936 412.0
937 432.0
938 400.0
939 426.0
940 430.0
941 376.0
942 416.0
943 412.0
944 423.0
945 417.0
946 390.0
947 406.0
948 422.0
949 431.0
950 418.0
951 415.0
952 435.0
953 431.0
954 429.0
955 417.0
956 415.0
957 447.0
958 419.0
959 446.0
960 458.0
961 433.0
962 425.0
963 399.0
964 385.0
965 393.0
966 452.0
967 430.0
968 437.0
969 406.0
970 436.0
971 454.0
972 391.0
973 430.0
974 439.0
975 410.0
976 453.0
977 425.0
978 455.0
979 429.0
980 433.0
981 434.0
982 406.0
983 481.0
984 384.0
985 426.0
986 399.0
987 439.0
988 440.0
989 416.0
990 423.0
991 421.0
992 421.0
993 432.0
994 418.0
995 425.0
996 434.0
997 406.0
998 380.0
999 445.0
1000 430.0
1001 443.0
1002 403.0
1003 422.0
1004 428.0
1005 455.0
1006 393.0
1007 431.0
1008 397.0
1009 412.0
1010 453.0
1011 432.0
1012 387.0
1013 430.0
1014 454.0
1015 452.0
1016 428.0
1017 423.0
1018 413.0
1019 383.0
1020 378.0
1021 408.0
1022 427.0
1023 392.0
1024 385.0
1025 443.0
1026 424.0
1027 411.0
1028 400.0
1029 424.0
1030 389.0
1031 386.0
1032 445.0
1033 430.0
1034 432.0
1035 404.0
1036 409.0
1037 420.0
1038 405.0
1039 394.0
1040 470.0
1041 432.0
1042 414.0
1043 430.0
1044 391.0
1045 405.0
1046 422.0
1047 451.0
1048 431.0
1049 409.0
1050 396.0
1051 431.0
1052 405.0
1053 429.0
1054 414.0
1055 448.0
1056 441.0
1057 422.0
1058 420.0
1059 443.0
1060 434.0
1061 404.0
1062 437.0
1063 406.0
1064 415.0
1065 431.0
1066 420.0
1067 380.0
1068 431.0
1069 443.0
1070 405.0
1071 392.0
1072 444.0
1073 395.0
1074 439.0
1075 426.0
1076 398.0
1077 430.0
1078 419.0
1079 435.0
1080 459.0
1081 437.0
1082 447.0
1083 483.0
1084 457.0
1085 451.0
1086 392.0
1087 425.0
1088 397.0
1089 432.0
1090 435.0
1091 424.0
1092 426.0
1093 412.0
1094 432.0
1095 453.0
1096 424.0
1097 425.0
1098 422.0
1099 446.0
1100 446.0
1101 414.0
1102 426.0
1103 449.0
1104 455.0
1105 451.0
1106 407.0
1107 435.0
1108 440.0
1109 439.0
1110 429.0
1111 415.0
1112 425.0
1113 418.0
1114 417.0
1115 432.0
1116 431.0
1117 444.0
1118 431.0
1119 434.0
1120 424.0
1121 425.0
1122 440.0
1123 399.0
1124 415.0
1125 424.0
1126 430.0
1127 422.0
1128 453.0
1129 435.0
1130 468.0
1131 415.0
1132 421.0
1133 420.0
1134 425.0
1135 408.0
1136 481.0
1137 426.0
1138 442.0
1139 446.0
1140 468.0
1141 434.0
1142 435.0
1143 401.0
1144 433.0
1145 412.0
1146 413.0
1147 467.0
1148 402.0
1149 434.0
1150 450.0
1151 454.0
1152 441.0
1153 453.0
1154 429.0
1155 419.0
1156 437.0
1157 454.0
1158 402.0
1159 408.0
1160 433.0
1161 436.0
1162 433.0
1163 439.0
1164 422.0
1165 462.0
1166 416.0
1167 412.0
1168 407.0
1169 409.0
1170 413.0
1171 408.0
1172 402.0
1173 455.0
1174 420.0
1175 400.0
1176 436.0
1177 425.0
1178 455.0
1179 416.0
1180 402.0
1181 450.0
1182 440.0
1183 437.0
1184 446.0
1185 425.0
1186 433.0
1187 428.0
1188 400.0
1189 417.0
1190 430.0
1191 430.0
1192 422.0
1193 420.0
1194 432.0
1195 413.0
1196 415.0
1197 465.0
1198 424.0
1199 422.0
1200 388.0
1201 439.0
1202 440.0
1203 406.0
1204 383.0
1205 464.0
1206 443.0
1207 470.0
1208 427.0
1209 401.0
1210 434.0
1211 439.0
1212 413.0
1213 369.0
1214 392.0
1215 449.0
1216 441.0
1217 420.0
1218 400.0
1219 438.0
1220 418.0
1221 418.0
1222 446.0
1223 384.0
1224 469.0
1225 425.0
1226 399.0
1227 435.0
1228 406.0
1229 450.0
1230 396.0
1231 405.0
1232 423.0
1233 451.0
1234 435.0
1235 408.0
1236 408.0
1237 435.0
1238 463.0
1239 439.0
1240 414.0
1241 444.0
1242 409.0
1243 445.0
1244 435.0
1245 441.0
1246 444.0
1247 412.0
1248 420.0
1249 425.0
1250 440.0
1251 450.0
1252 428.0
1253 440.0
1254 470.0
1255 412.0
1256 425.0
1257 420.0
1258 444.0
1259 455.0
1260 416.0
1261 436.0
1262 414.0
1263 416.0
1264 429.0
1265 416.0
1266 424.0
1267 435.0
1268 434.0
1269 448.0
1270 394.0
1271 446.0
1272 455.0
1273 433.0
1274 438.0
1275 455.0
1276 455.0
1277 451.0
1278 414.0
1279 445.0
1280 439.0
1281 457.0
1282 419.0
1283 419.0
1284 470.0
1285 467.0
1286 446.0
1287 429.0
1288 483.0
1289 465.0
1290 457.0
1291 443.0
1292 406.0
1293 439.0
1294 412.0
1295 428.0
1296 479.0
1297 447.0
1298 429.0
1299 466.0
1300 442.0
1301 473.0
1302 415.0
1303 476.0
1304 417.0
1305 463.0
1306 464.0
1307 471.0
1308 426.0
1309 460.0
1310 419.0
1311 420.0
1312 451.0
1313 483.0
1314 484.0
1315 465.0
1316 444.0
1317 465.0
1318 455.0
1319 480.0
1320 402.0
1321 478.0
1322 462.0
1323 475.0
1324 478.0
1325 465.0
1326 431.0
1327 419.0
1328 447.0
1329 457.0
1330 454.0
1331 475.0
1332 431.0
1333 461.0
1334 476.0
1335 471.0
1336 451.0
1337 425.0
1338 436.0
1339 490.0
1340 441.0
1341 427.0
1342 432.0
1343 446.0
1344 445.0
1345 478.0
1346 459.0
1347 440.0
1348 475.0
1349 426.0
1350 465.0
1351 445.0
1352 470.0
1353 439.0
1354 425.0
1355 476.0
1356 444.0
1357 443.0
1358 429.0
1359 426.0
1360 444.0
1361 430.0
1362 423.0
1363 460.0
1364 437.0
1365 456.0
1366 417.0
1367 433.0
1368 450.0
1369 446.0
1370 434.0
1371 450.0
1372 450.0
1373 453.0
1374 467.0
1375 417.0
1376 455.0
1377 445.0
1378 444.0
1379 425.0
1380 442.0
1381 429.0
1382 492.0
1383 444.0
1384 410.0
1385 427.0
1386 484.0
1387 432.0
1388 418.0
1389 475.0
1390 445.0
1391 440.0
1392 476.0
1393 467.0
1394 431.0
1395 464.0
1396 466.0
1397 428.0
1398 465.0
1399 457.0
1400 442.0
1401 445.0
1402 448.0
1403 474.0
1404 442.0
1405 453.0
1406 456.0
1407 444.0
1408 447.0
1409 481.0
1410 446.0
1411 432.0
1412 470.0
1413 473.0
1414 472.0
1415 413.0
1416 444.0
1417 467.0
1418 478.0
1419 464.0
1420 454.0
1421 428.0
1422 449.0
1423 455.0
1424 490.0
1425 447.0
1426 444.0
1427 446.0
1428 457.0
1429 501.0
1430 461.0
1431 454.0
1432 453.0
1433 440.0
1434 476.0
1435 412.0
1436 455.0
1437 456.0
1438 434.0
1439 448.0
1440 444.0
1441 415.0
1442 462.0
1443 465.0
1444 446.0
1445 490.0
1446 501.0
1447 437.0
1448 456.0
1449 439.0
1450 433.0
1451 454.0
1452 432.0
1453 476.0
1454 483.0
1455 442.0
1456 453.0
1457 462.0
1458 428.0
1459 455.0
1460 405.0
1461 472.0
1462 447.0
1463 442.0
1464 445.0
1465 434.0
1466 462.0
1467 447.0
1468 463.0
1469 444.0
1470 429.0
1471 457.0
1472 419.0
1473 429.0
1474 492.0
1475 474.0
1476 458.0
1477 433.0
1478 486.0
1479 466.0
1480 469.0
1481 429.0
1482 480.0
1483 447.0
1484 435.0
1485 400.0
1486 438.0
1487 466.0
1488 443.0
1489 469.0
1490 454.0
1491 445.0
1492 473.0
1493 453.0
1494 408.0
1495 475.0
1496 442.0
1497 458.0
1498 480.0
1499 406.0
1500 487.0
1501 491.0
1502 443.0
1503 432.0
1504 429.0
1505 469.0
1506 497.0
1507 471.0
1508 478.0
1509 442.0
1510 444.0
1511 420.0
1512 447.0
1513 433.0
1514 415.0
1515 492.0
1516 494.0
1517 453.0
1518 492.0
1519 465.0
1520 492.0
1521 475.0
1522 470.0
1523 452.0
1524 430.0
1525 452.0
1526 477.0
1527 437.0
1528 462.0
1529 465.0
1530 472.0
1531 472.0
1532 452.0
1533 489.0
1534 458.0
1535 426.0
1536 452.0
1537 460.0
1538 460.0
1539 477.0
1540 455.0
1541 452.0
1542 434.0
1543 476.0
1544 436.0
1545 435.0
1546 466.0
1547 501.0
1548 482.0
1549 436.0
1550 481.0
1551 423.0
1552 514.0
1553 465.0
1554 446.0
1555 442.0
1556 473.0
1557 477.0
1558 418.0
1559 469.0
1560 493.0
1561 482.0
1562 500.0
1563 475.0
1564 468.0
1565 460.0
1566 471.0
1567 458.0
1568 485.0
1569 470.0
1570 470.0
1571 453.0
1572 471.0
1573 474.0
1574 477.0
1575 407.0
1576 462.0
1577 463.0
1578 419.0
1579 448.0
1580 471.0
1581 479.0
1582 479.0
1583 479.0
1584 526.0
1585 485.0
1586 449.0
1587 459.0
1588 411.0
1589 469.0
1590 466.0
1591 450.0
1592 459.0
1593 435.0
1594 442.0
1595 467.0
1596 467.0
1597 475.0
1598 443.0
1599 445.0
1600 439.0
1601 473.0
1602 431.0
1603 487.0
1604 452.0
1605 447.0
1606 442.0
1607 485.0
1608 453.0
1609 494.0
1610 449.0
1611 483.0
1612 482.0
1613 494.0
1614 469.0
1615 442.0
1616 519.0
1617 507.0
1618 479.0
1619 518.0
1620 487.0
1621 493.0
1622 471.0
1623 469.0
1624 437.0
1625 451.0
1626 502.0
1627 487.0
1628 490.0
1629 462.0
1630 473.0
1631 431.0
1632 467.0
1633 477.0
1634 479.0
1635 500.0
1636 481.0
1637 459.0
1638 458.0
1639 441.0
1640 454.0
1641 514.0
1642 431.0
1643 493.0
1644 478.0
1645 493.0
1646 467.0
1647 439.0
1648 480.0
1649 465.0
1650 442.0
1651 431.0
1652 481.0
1653 482.0
1654 446.0
1655 487.0
1656 451.0
1657 500.0
1658 463.0
1659 447.0
1660 449.0
1661 475.0
1662 490.0
1663 455.0
1664 489.0
1665 440.0
1666 495.0
1667 469.0
1668 457.0
1669 458.0
1670 466.0
1671 493.0
1672 450.0
1673 452.0
1674 467.0
1675 487.0
1676 466.0
1677 449.0
1678 434.0
1679 465.0
1680 499.0
1681 427.0
1682 462.0
1683 447.0
1684 474.0
1685 461.0
1686 457.0
1687 437.0
1688 467.0
1689 499.0
1690 494.0
1691 470.0
1692 452.0
1693 471.0
1694 471.0
1695 473.0
1696 477.0
1697 482.0
1698 433.0
1699 433.0
1700 490.0
1701 472.0
1702 445.0
1703 430.0
1704 444.0
1705 479.0
1706 454.0
1707 468.0
1708 461.0
1709 488.0
1710 497.0
1711 465.0
1712 476.0
1713 434.0
1714 488.0
1715 466.0
1716 442.0
1717 494.0
1718 457.0
1719 474.0
1720 439.0
1721 467.0
1722 411.0
1723 474.0
1724 447.0
1725 479.0
1726 447.0
1727 485.0
1728 475.0
1729 459.0
1730 485.0
1731 489.0
1732 462.0
1733 471.0
1734 467.0
1735 444.0
1736 486.0
1737 505.0
1738 475.0
1739 485.0
1740 476.0
1741 479.0
1742 486.0
1743 457.0
1744 478.0
1745 454.0
1746 479.0
1747 483.0
1748 494.0
1749 477.0
1750 483.0
1751 499.0
1752 483.0
1753 489.0
1754 482.0
1755 497.0
1756 493.0
1757 461.0
1758 446.0
1759 477.0
1760 456.0
1761 528.0
1762 490.0
1763 491.0
1764 512.0
1765 506.0
1766 474.0
1767 495.0
1768 485.0
1769 498.0
1770 503.0
1771 485.0
1772 507.0
1773 474.0
1774 477.0
1775 437.0
1776 506.0
1777 477.0
1778 463.0
1779 480.0
1780 456.0
1781 511.0
1782 514.0
1783 485.0
1784 484.0
1785 468.0
1786 503.0
1787 499.0
1788 462.0
1789 484.0
1790 456.0
1791 495.0
1792 523.0
1793 463.0
1794 466.0
1795 470.0
1796 451.0
1797 461.0
1798 439.0
1799 475.0
1800 497.0
1801 461.0
1802 482.0
1803 515.0
1804 445.0
1805 482.0
1806 436.0
1807 465.0
1808 453.0
1809 460.0
1810 433.0
1811 456.0
1812 436.0
1813 478.0
1814 460.0
1815 452.0
1816 406.0
1817 470.0
1818 467.0
1819 428.0
1820 462.0
1821 451.0
1822 491.0
1823 437.0
1824 466.0
1825 465.0
1826 467.0
1827 479.0
1828 460.0
1829 467.0
1830 448.0
1831 467.0
1832 471.0
1833 470.0
1834 423.0
1835 412.0
1836 475.0
1837 451.0
1838 503.0
1839 457.0
1840 504.0
1841 493.0
1842 467.0
1843 451.0
1844 464.0
1845 436.0
1846 482.0
1847 489.0
1848 465.0
1849 462.0
1850 462.0
1851 499.0
1852 508.0
1853 456.0
1854 487.0
1855 457.0
1856 467.0
1857 456.0
1858 494.0
1859 455.0
1860 432.0
1861 477.0
1862 464.0
1863 493.0
1864 453.0
1865 512.0
1866 526.0
1867 448.0
1868 474.0
1869 502.0
1870 490.0
1871 495.0
1872 476.0
1873 493.0
1874 465.0
1875 493.0
1876 499.0
1877 498.0
1878 488.0
1879 444.0
1880 456.0
1881 519.0
1882 471.0
1883 456.0
1884 460.0
1885 438.0
1886 471.0
1887 491.0
1888 464.0
1889 482.0
1890 473.0
1891 459.0
1892 473.0
1893 458.0
1894 485.0
1895 468.0
1896 497.0
1897 438.0
1898 461.0
1899 480.0
1900 462.0
1901 488.0
1902 449.0
1903 444.0
1904 484.0
1905 443.0
1906 468.0
1907 454.0
1908 476.0
1909 484.0
1910 449.0
1911 466.0
1912 477.0
1913 456.0
1914 492.0
1915 492.0
1916 457.0
1917 482.0
1918 464.0
1919 416.0
1920 446.0
1921 474.0
1922 483.0
1923 506.0
1924 506.0
1925 461.0
1926 471.0
1927 469.0
1928 491.0
1929 509.0
1930 488.0
1931 447.0
1932 440.0
1933 485.0
1934 458.0
1935 466.0
1936 521.0
1937 474.0
1938 486.0
1939 489.0
1940 455.0
1941 490.0
1942 487.0
1943 473.0
1944 472.0
1945 495.0
1946 491.0
1947 477.0
1948 498.0
1949 508.0
1950 517.0
1951 489.0
1952 466.0
1953 503.0
1954 458.0
1955 514.0
1956 470.0
1957 517.0
1958 483.0
1959 479.0
1960 515.0
1961 499.0
1962 518.0
1963 483.0
1964 465.0
1965 501.0
1966 501.0
1967 467.0
1968 477.0
1969 482.0
1970 466.0
1971 496.0
1972 491.0
1973 456.0
1974 473.0
1975 517.0
1976 440.0
1977 459.0
1978 490.0
1979 500.0
1980 482.0
1981 470.0
1982 485.0
1983 455.0
1984 466.0
1985 475.0
1986 497.0
1987 504.0
1988 497.0
1989 493.0
1990 487.0
1991 492.0
1992 458.0
1993 498.0
1994 474.0
1995 489.0
1996 502.0
1997 481.0
1998 507.0
1999 493.0
2000 528.0
2001 539.0
2002 494.0
2003 515.0
2004 518.0
2005 502.0
2006 507.0
2007 493.0
2008 505.0
2009 505.0
2010 513.0
2011 507.0
2012 532.0
2013 494.0
2014 520.0
2015 510.0
2016 553.0
2017 568.0
2018 575.0
2019 552.0
2020 577.0
2021 528.0
2022 594.0
2023 579.0
2024 572.0
2025 600.0
2026 574.0
2027 587.0
2028 559.0
2029 564.0
2030 576.0
2031 553.0
2032 607.0
2033 573.0
2034 554.0
2035 584.0
2036 600.0
2037 533.0
2038 608.0
2039 607.0
2040 586.0
2041 610.0
2042 602.0
2043 612.0
2044 565.0
2045 553.0
2046 599.0
2047 601.0
