0 550.0
1 502.0
2 500.0
3 494.0
4 487.0
5 545.0
6 503.0
7 518.0
8 461.0
9 485.0
10 502.0
11 499.0
12 497.0
13 514.0
14 488.0
15 503.0
16 523.0
17 534.0
18 449.0
19 498.0
20 503.0
21 497.0
22 457.0
23 480.0
24 485.0
25 475.0
26 510.0
27 458.0
28 446.0
29 470.0
30 463.0
31 509.0
32 463.0
33 481.0
34 471.0
35 479.0
36 460.0
37 501.0
38 462.0
39 497.0
40 509.0
41 502.0
42 506.0
43 479.0
44 484.0
45 480.0
46 483.0
47 509.0
48 493.0
49 460.0
50 478.0
51 471.0
52 450.0
53 480.0
54 414.0
55 493.0
56 493.0
57 459.0
58 486.0
59 481.0
60 506.0
61 454.0
62 439.0
63 455.0
64 440.0
65 481.0
66 453.0
67 441.0
68 431.0
69 446.0
70 442.0
71 444.0
72 448.0
73 457.0
74 445.0
75 477.0
76 442.0
77 480.0
78 418.0
79 470.0
80 440.0
81 431.0
82 422.0
83 427.0
84 417.0
85 414.0
86 437.0
87 485.0
88 421.0
89 438.0
90 433.0
91 432.0
92 432.0
93 452.0
94 465.0
95 436.0
96 422.0
97 446.0
98 432.0
99 478.0
100 428.0
101 423.0
102 475.0
103 458.0
104 415.0
105 456.0
106 445.0
107 439.0
108 457.0
109 439.0
110 416.0
111 456.0
112 431.0
113 430.0
114 421.0
115 438.0
116 434.0
117 459.0
118 469.0
119 404.0
120 451.0
121 459.0
122 473.0
123 436.0
124 418.0
125 461.0
126 447.0
127 440.0
128 396.0
129 471.0
130 494.0
131 457.0
132 468.0
133 482.0
134 451.0
135 481.0
136 430.0
137 438.0
138 467.0
139 461.0
140 452.0
141 473.0
142 443.0
143 461.0
144 466.0
145 480.0
146 454.0
147 483.0
148 444.0
149 477.0
150 442.0
151 435.0
152 453.0
153 474.0
154 472.0
155 423.0
156 441.0
157 502.0
158 471.0
159 470.0
160 433.0
161 440.0
162 461.0
163 441.0
164 437.0
165 466.0
166 452.0
167 468.0
168 476.0
169 482.0
170 463.0
171 444.0
172 418.0
173 448.0
174 435.0
175 455.0
176 460.0
177 489.0
178 412.0
179 445.0
180 451.0
181 448.0
182 420.0
183 452.0
184 456.0
185 459.0
186 402.0
187 420.0
188 434.0
189 442.0
190 433.0
191 449.0
192 436.0
193 455.0
194 423.0
195 456.0
196 452.0
197 434.0
198 419.0
199 449.0
200 476.0
201 510.0
202 445.0
203 447.0
204 462.0
205 444.0
206 439.0
207 412.0
208 441.0
209 411.0
210 454.0
211 423.0
212 438.0
213 460.0
214 453.0
215 453.0
216 445.0
217 455.0
218 416.0
219 466.0
220 448.0
221 450.0
222 433.0
223 446.0
224 439.0
225 488.0
226 443.0
227 438.0
228 447.0
229 421.0
230 446.0
231 471.0
232 445.0
233 413.0
234 438.0
235 429.0
236 449.0
237 476.0
238 462.0
239 425.0
240 466.0
241 428.0
242 488.0
243 441.0
244 428.0
245 473.0
246 458.0
247 482.0
248 450.0
249 466.0
250 448.0
251 481.0
252 427.0
253 451.0
254 459.0
255 492.0
256 486.0
257 455.0
258 451.0
259 445.0
260 408.0
261 463.0
262 433.0
263 457.0
264 470.0
265 460.0
266 443.0
267 426.0
268 460.0
269 445.0
270 464.0
271 451.0
272 437.0
273 480.0
274 450.0
275 452.0
276 441.0
277 488.0
278 442.0
279 459.0
280 448.0
281 500.0
282 448.0
283 471.0
284 439.0
285 470.0
286 426.0
287 418.0
288 461.0
289 451.0
290 443.0
291 437.0
292 385.0
293 440.0
294 459.0
295 443.0
296 442.0
297 422.0
298 462.0
299 405.0
300 421.0
301 453.0
302 471.0
303 481.0
304 436.0
305 432.0
306 416.0
307 449.0
308 450.0
309 490.0
310 480.0
311 454.0
312 446.0
313 431.0
314 465.0
315 428.0
316 477.0
317 489.0
318 457.0
319 454.0
320 426.0
321 488.0
322 456.0
323 440.0
324 425.0
325 423.0
326 450.0
327 448.0
328 486.0
329 438.0
330 465.0
331 457.0
332 478.0
333 451.0
334 439.0
335 496.0
336 456.0
337 461.0
338 457.0
339 459.0
340 438.0
341 464.0
342 468.0
343 442.0
344 457.0
345 477.0
346 438.0
347 440.0
348 461.0
349 438.0
350 470.0
351 495.0
352 446.0
353 456.0
354 459.0
355 473.0
356 465.0
357 449.0
358 496.0
359 465.0
360 466.0
361 412.0
362 488.0
363 454.0
364 456.0
365 411.0
366 470.0
367 442.0
368 479.0
369 446.0
370 487.0
371 439.0
372 441.0
373 425.0
374 443.0
375 441.0
376 471.0
377 456.0
378 478.0
379 465.0
380 422.0
381 455.0
382 436.0
383 459.0
384 426.0
385 451.0
386 447.0
387 452.0
388 435.0
389 417.0
390 455.0
391 459.0
392 478.0
393 455.0
394 480.0
395 421.0
396 411.0
397 455.0
398 433.0
399 472.0
400 464.0
401 453.0
402 461.0
403 434.0
404 486.0
405 398.0
406 434.0
407 436.0
408 443.0
409 437.0
410 403.0
411 513.0
412 528.0
413 451.0
414 424.0
415 463.0
416 448.0
417 444.0
418 459.0
419 476.0
420 439.0
421 476.0
422 424.0
423 451.0
424 474.0
425 405.0
426 468.0
427 456.0
428 455.0
429 477.0
430 426.0
431 480.0
432 468.0
433 477.0
434 458.0
435 435.0
436 478.0
437 476.0
438 492.0
439 471.0
440 447.0
441 483.0
442 480.0
443 436.0
444 463.0
445 435.0
446 417.0
447 482.0
448 456.0
449 493.0
450 473.0
451 470.0
452 501.0
453 468.0
454 466.0
455 460.0
456 433.0
457 480.0
458 444.0
459 497.0
460 444.0
461 466.0
462 468.0
463 496.0
464 496.0
465 500.0
466 427.0
467 440.0
468 450.0
469 478.0
470 456.0
471 443.0
472 524.0
473 485.0
474 451.0
475 450.0
476 503.0
477 498.0
478 526.0
479 449.0
480 447.0
481 459.0
482 447.0
483 477.0
484 450.0
485 463.0
486 445.0
487 475.0
488 488.0
489 435.0
490 473.0
491 442.0
492 471.0
493 454.0
494 457.0
495 446.0
496 507.0
497 473.0
498 449.0
499 450.0
500 439.0
501 449.0
502 466.0
503 466.0
504 457.0
505 457.0
506 458.0
507 463.0
508 443.0
509 434.0
510 456.0
511 421.0
512 417.0
513 425.0
514 487.0
515 436.0
516 440.0
517 402.0
518 462.0
519 451.0
520 440.0
521 478.0
522 441.0
523 423.0
524 431.0
525 438.0
526 451.0
527 464.0
528 431.0
529 433.0
530 485.0
531 443.0
532 500.0
533 433.0
534 432.0
535 450.0
536 429.0
537 482.0
538 422.0
539 446.0
540 441.0
541 448.0
542 433.0
543 467.0
544 449.0
545 456.0
546 422.0
547 468.0
548 463.0
549 440.0
550 486.0
551 425.0
552 454.0
553 455.0
554 482.0
555 435.0
556 428.0
557 493.0
558 439.0
559 441.0
560 491.0
561 452.0
562 444.0
563 521.0
564 444.0
565 477.0
566 406.0
567 442.0
568 470.0
569 442.0
570 416.0
571 485.0
572 429.0
573 453.0
574 433.0
575 486.0
576 424.0
577 426.0
578 472.0
579 436.0
580 467.0
581 482.0
582 441.0
583 432.0
584 458.0
585 465.0
586 463.0
587 426.0
588 472.0
589 409.0
590 428.0
591 487.0
592 469.0
593 452.0
594 476.0
595 498.0
596 459.0
597 468.0
598 478.0
599 468.0
600 453.0
601 479.0
602 466.0
603 473.0
604 450.0
605 460.0
606 431.0
607 427.0
608 500.0
609 439.0
610 490.0
611 493.0
612 473.0
613 452.0
614 447.0
615 483.0
616 492.0
617 508.0
618 456.0
619 439.0
620 487.0
621 484.0
622 446.0
623 486.0
624 493.0
625 467.0
626 498.0
627 469.0
628 437.0
629 478.0
630 451.0
631 463.0
632 454.0
633 498.0
634 513.0
635 429.0
636 461.0
637 501.0
638 467.0
639 468.0
640 480.0
641 508.0
642 444.0
643 475.0
644 490.0
645 466.0
646 450.0
647 474.0
648 455.0
649 487.0
650 493.0
651 487.0
652 465.0
653 477.0
654 451.0
655 442.0
656 489.0
657 512.0
658 460.0
659 467.0
660 473.0
661 498.0
662 466.0
663 532.0
664 479.0
665 464.0
666 457.0
667 465.0
668 450.0
669 495.0
670 518.0
671 482.0
672 460.0
673 439.0
674 501.0
675 455.0
676 471.0
677 432.0
678 463.0
679 472.0
680 437.0
681 453.0
682 486.0
683 449.0
684 462.0
685 462.0
686 478.0
687 465.0
688 490.0
689 477.0
690 481.0
691 473.0
692 480.0
693 475.0
694 472.0
695 474.0
696 464.0
697 508.0
698 475.0
699 454.0
700 475.0
701 488.0
702 454.0
703 505.0
704 437.0
705 451.0
706 464.0
707 483.0
708 492.0
709 420.0
710 479.0
711 448.0
712 463.0
713 476.0
714 474.0
715 457.0
716 498.0
717 465.0
718 460.0
719 479.0
720 482.0
721 489.0
722 484.0
723 472.0
724 499.0
725 477.0
726 510.0
727 474.0
728 446.0
729 461.0
730 456.0
731 467.0
732 467.0
733 451.0
734 444.0
735 468.0
736 465.0
737 485.0
738 453.0
739 476.0
740 458.0
741 470.0
742 472.0
743 478.0
744 472.0
745 493.0
746 461.0
747 522.0
748 469.0
749 478.0
750 424.0
751 448.0
752 493.0
753 506.0
754 437.0
755 456.0
756 460.0
757 476.0
758 457.0
759 510.0
760 466.0
761 490.0
762 532.0
763 480.0
764 435.0
765 479.0
766 485.0
767 498.0
768 476.0
769 477.0
770 459.0
771 492.0
772 497.0
773 498.0
774 480.0
775 465.0
776 482.0
777 490.0
778 485.0
779 474.0
780 478.0
781 497.0
782 453.0
783 476.0
784 445.0
785 485.0
786 478.0
787 500.0
788 474.0
789 458.0
790 440.0
791 503.0
792 474.0
793 507.0
794 483.0
795 502.0
796 443.0
797 479.0
798 495.0
799 481.0
800 459.0
801 447.0
802 443.0
803 475.0
804 484.0
805 477.0
806 495.0
807 479.0
808 425.0
809 438.0
810 460.0
811 491.0
812 475.0
813 486.0
814 499.0
815 488.0
816 455.0
817 467.0
818 479.0
819 459.0
820 462.0
821 473.0
822 447.0
823 467.0
824 465.0
825 475.0
826 452.0
827 445.0
828 515.0
829 456.0
830 495.0
831 462.0
832 520.0
833 501.0
834 470.0
835 481.0
836 431.0
837 472.0
838 526.0
839 491.0
840 468.0
841 495.0
842 486.0
843 469.0
844 471.0
845 482.0
846 483.0
847 483.0
848 496.0
849 471.0
850 467.0
851 451.0
852 481.0
853 486.0
854 455.0
855 493.0
856 455.0
857 446.0
858 477.0
859 469.0
860 444.0
861 463.0
862 499.0
863 494.0
864 438.0
865 454.0
866 491.0
867 443.0
868 449.0
869 451.0
870 445.0
871 495.0
872 447.0
873 460.0
874 417.0
875 486.0
876 479.0
877 431.0
878 434.0
879 422.0
880 519.0
881 461.0
882 405.0
883 453.0
884 465.0
885 461.0
886 454.0
887 466.0
888 458.0
889 502.0
890 440.0
891 459.0
892 449.0
893 473.0
894 463.0
895 466.0
896 417.0
897 506.0
898 496.0
899 457.0
900 455.0
901 494.0
902 435.0
903 460.0
904 480.0
905 489.0
906 511.0
907 439.0
908 476.0
909 504.0
910 464.0
911 467.0
912 473.0
913 502.0
914 504.0
915 506.0
916 463.0
917 464.0
918 467.0
919 478.0
920 433.0
921 459.0
922 502.0
923 457.0
924 477.0
925 464.0
926 501.0
927 497.0
928 448.0
929 528.0
930 494.0
931 464.0
932 476.0
933 472.0
934 482.0
935 469.0
936 472.0
937 472.0
938 470.0
939 487.0
940 482.0
941 482.0
942 494.0
943 491.0
944 483.0
945 459.0
946 493.0
947 497.0
948 443.0
949 455.0
950 455.0
951 454.0
952 476.0
953 487.0
954 455.0
955 509.0
956 457.0
957 482.0
958 479.0
959 501.0
960 488.0
961 496.0
962 493.0
963 487.0
964 466.0
965 494.0
966 454.0
967 498.0
968 529.0
969 501.0
970 479.0
971 469.0
972 469.0
973 518.0
974 496.0
975 487.0
976 454.0
977 490.0
978 477.0
979 470.0
980 513.0
981 483.0
982 469.0
983 524.0
984 499.0
985 508.0
986 517.0
987 488.0
988 498.0
989 475.0
990 480.0
991 524.0
992 486.0
993 491.0
994 531.0
995 526.0
996 506.0
997 509.0
998 519.0
999 493.0
1000 473.0
1001 523.0
1002 532.0
1003 501.0
1004 440.0
1005 458.0
1006 495.0
1007 490.0
1008 534.0
1009 480.0
1010 553.0
1011 485.0
1012 483.0
1013 481.0
1014 470.0
1015 516.0
1016 480.0
1017 463.0
1018 478.0
1019 489.0
1020 482.0
1021 488.0
1022 551.0
1023 495.0
1024 506.0
1025 471.0
1026 476.0
1027 501.0
1028 529.0
1029 493.0
1030 467.0
1031 504.0
1032 500.0
1033 464.0
1034 468.0
1035 523.0
1036 488.0
1037 520.0
1038 442.0
1039 454.0
1040 477.0
1041 474.0
1042 506.0
1043 493.0
1044 477.0
1045 494.0
1046 521.0
1047 483.0
1048 508.0
1049 496.0
1050 461.0
1051 494.0
1052 485.0
1053 510.0
1054 522.0
1055 492.0
1056 543.0
1057 552.0
1058 483.0
1059 503.0
1060 498.0
1061 509.0
1062 466.0
1063 535.0
1064 451.0
1065 495.0
1066 504.0
1067 511.0
1068 479.0
1069 505.0
1070 473.0
1071 526.0
1072 513.0
1073 529.0
1074 494.0
1075 548.0
1076 511.0
1077 486.0
1078 470.0
1079 525.0
1080 524.0
1081 535.0
1082 525.0
1083 493.0
1084 514.0
1085 514.0
1086 513.0
1087 506.0
1088 496.0
1089 547.0
1090 523.0
1091 530.0
1092 521.0
1093 530.0
1094 471.0
1095 495.0
1096 519.0
1097 518.0
1098 525.0
1099 495.0
1100 537.0
1101 481.0
1102 461.0
1103 494.0
1104 539.0
1105 534.0
1106 526.0
1107 540.0
1108 535.0
1109 531.0
1110 541.0
1111 537.0
1112 518.0
1113 521.0
1114 529.0
1115 494.0
1116 518.0
1117 521.0
1118 518.0
1119 514.0
1120 525.0
1121 531.0
1122 528.0
1123 523.0
1124 545.0
1125 492.0
1126 497.0
1127 512.0
1128 499.0
1129 512.0
1130 538.0
1131 538.0
1132 490.0
1133 513.0
1134 534.0
1135 555.0
1136 539.0
1137 539.0
1138 492.0
1139 515.0
1140 515.0
1141 527.0
1142 503.0
1143 526.0
1144 485.0
1145 509.0
1146 497.0
1147 539.0
1148 465.0
1149 514.0
1150 524.0
1151 550.0
1152 517.0
1153 538.0
1154 485.0
1155 508.0
1156 503.0
1157 538.0
1158 517.0
1159 514.0
1160 528.0
1161 475.0
1162 535.0
1163 500.0
1164 531.0
1165 534.0
1166 473.0
1167 497.0
1168 496.0
1169 541.0
1170 519.0
1171 520.0
1172 500.0
1173 480.0
1174 512.0
1175 541.0
1176 496.0
1177 506.0
1178 486.0
1179 520.0
1180 498.0
1181 514.0
1182 533.0
1183 545.0
1184 542.0
1185 511.0
1186 511.0
1187 514.0
1188 506.0
1189 497.0
1190 485.0
1191 507.0
1192 497.0
1193 539.0
1194 486.0
1195 516.0
1196 527.0
1197 514.0
1198 531.0
1199 537.0
1200 508.0
1201 519.0
1202 575.0
1203 543.0
1204 530.0
1205 524.0
1206 491.0
1207 529.0
1208 529.0
1209 551.0
1210 510.0
1211 521.0
1212 512.0
1213 510.0
1214 495.0
1215 545.0
1216 530.0
1217 494.0
1218 551.0
1219 547.0
1220 536.0
1221 509.0
1222 545.0
1223 547.0
1224 541.0
1225 508.0
1226 538.0
1227 524.0
1228 539.0
1229 548.0
1230 534.0
1231 507.0
1232 568.0
1233 527.0
1234 520.0
1235 543.0
1236 557.0
1237 558.0
1238 559.0
1239 550.0
1240 497.0
1241 522.0
1242 513.0
1243 545.0
1244 505.0
1245 536.0
1246 491.0
1247 530.0
1248 546.0
1249 550.0
1250 544.0
1251 541.0
1252 537.0
1253 539.0
1254 527.0
1255 526.0
1256 528.0
1257 516.0
1258 493.0
1259 489.0
1260 551.0
1261 528.0
1262 544.0
1263 518.0
1264 484.0
1265 523.0
1266 532.0
1267 518.0
1268 477.0
1269 496.0
1270 541.0
1271 494.0
1272 501.0
1273 516.0
1274 520.0
1275 532.0
1276 489.0
1277 512.0
1278 520.0
1279 540.0
1280 472.0
1281 510.0
1282 500.0
1283 530.0
1284 506.0
1285 534.0
1286 531.0
1287 532.0
1288 517.0
1289 497.0
1290 497.0
1291 547.0
1292 532.0
1293 532.0
1294 518.0
1295 534.0
1296 529.0
1297 522.0
1298 534.0
1299 547.0
1300 555.0
1301 486.0
1302 515.0
1303 549.0
1304 527.0
1305 525.0
1306 547.0
1307 517.0
1308 526.0
1309 513.0
1310 512.0
1311 541.0
1312 498.0
1313 489.0
1314 514.0
1315 510.0
1316 518.0
1317 517.0
1318 570.0
1319 523.0
1320 495.0
1321 449.0
1322 518.0
1323 535.0
1324 467.0
1325 509.0
1326 486.0
1327 513.0
1328 533.0
1329 489.0
1330 548.0
1331 541.0
1332 494.0
1333 548.0
1334 460.0
1335 486.0
1336 492.0
1337 523.0
1338 492.0
1339 504.0
1340 495.0
1341 486.0
1342 505.0
1343 496.0
1344 502.0
1345 543.0
1346 501.0
1347 496.0
1348 486.0
1349 509.0
1350 535.0
1351 480.0
1352 550.0
1353 479.0
1354 532.0
1355 523.0
1356 506.0
1357 515.0
1358 531.0
1359 472.0
1360 521.0
1361 491.0
1362 551.0
1363 449.0
1364 462.0
1365 524.0
1366 523.0
1367 497.0
1368 494.0
1369 505.0
1370 530.0
1371 547.0
1372 516.0
1373 525.0
1374 516.0
1375 511.0
1376 507.0
1377 486.0
1378 542.0
1379 532.0
1380 523.0
1381 513.0
1382 545.0
1383 527.0
1384 540.0
1385 527.0
1386 542.0
1387 524.0
1388 549.0
1389 500.0
1390 525.0
1391 521.0
1392 540.0
1393 510.0
1394 566.0
1395 564.0
1396 584.0
1397 592.0
1398 549.0
1399 529.0
1400 538.0
1401 540.0
1402 554.0
1403 544.0
1404 562.0
1405 559.0
1406 570.0
1407 545.0
1408 546.0
1409 527.0
1410 521.0
1411 545.0
1412 538.0
1413 535.0
1414 567.0
1415 560.0
1416 548.0
1417 551.0
1418 549.0
1419 565.0
1420 510.0
1421 518.0
1422 541.0
1423 538.0
1424 572.0
1425 529.0
1426 585.0
1427 566.0
1428 581.0
1429 548.0
1430 538.0
1431 530.0
1432 539.0
1433 524.0
1434 514.0
1435 541.0
1436 529.0
1437 561.0
1438 548.0
1439 523.0
1440 514.0
1441 554.0
1442 546.0
1443 568.0
1444 571.0
1445 531.0
1446 513.0
1447 531.0
1448 548.0
1449 529.0
1450 555.0
1451 474.0
1452 539.0
1453 512.0
1454 564.0
1455 537.0
1456 535.0
1457 541.0
1458 510.0
1459 564.0
1460 550.0
1461 513.0
1462 524.0
1463 525.0
1464 518.0
1465 557.0
1466 546.0
1467 526.0
1468 494.0
1469 539.0
1470 524.0
1471 543.0
1472 519.0
1473 553.0
1474 537.0
1475 528.0
1476 549.0
1477 521.0
1478 520.0
1479 510.0
1480 532.0
1481 524.0
1482 556.0
1483 524.0
1484 531.0
1485 524.0
1486 524.0
1487 490.0
1488 536.0
1489 547.0
1490 532.0
1491 526.0
1492 517.0
1493 518.0
1494 515.0
1495 506.0
1496 501.0
1497 536.0
1498 539.0
1499 491.0
1500 523.0
1501 564.0
1502 514.0
1503 535.0
1504 481.0
1505 487.0
1506 512.0
1507 515.0
1508 523.0
1509 522.0
1510 563.0
1511 520.0
1512 557.0
1513 549.0
1514 545.0
1515 529.0
1516 538.0
1517 540.0
1518 492.0
1519 528.0
1520 522.0
1521 549.0
1522 512.0
1523 512.0
1524 466.0
1525 467.0
1526 518.0
1527 490.0
1528 484.0
1529 525.0
1530 523.0
1531 545.0
1532 539.0
1533 564.0
1534 540.0
1535 541.0
1536 490.0
1537 503.0
1538 556.0
1539 522.0
1540 546.0
1541 537.0
1542 521.0
1543 518.0
1544 571.0
1545 561.0
1546 536.0
1547 500.0
1548 509.0
1549 531.0
1550 532.0
1551 500.0
1552 550.0
1553 506.0
1554 509.0
1555 552.0
1556 530.0
1557 537.0
1558 513.0
1559 556.0
1560 550.0
1561 539.0
1562 530.0
1563 534.0
1564 560.0
1565 571.0
1566 509.0
1567 471.0
1568 513.0
1569 544.0
1570 527.0
1571 560.0
1572 503.0
1573 554.0
1574 538.0
1575 557.0
1576 554.0
1577 569.0
1578 523.0
1579 571.0
1580 574.0
1581 541.0
1582 560.0
1583 529.0
1584 597.0
1585 559.0
1586 528.0
1587 578.0
1588 532.0
1589 524.0
1590 553.0
1591 534.0
1592 567.0
1593 510.0
1594 536.0
1595 538.0
1596 553.0
1597 585.0
1598 519.0
1599 512.0
1600 581.0
1601 562.0
1602 520.0
1603 569.0
1604 572.0
1605 536.0
1606 531.0
1607 556.0
1608 562.0
1609 496.0
1610 556.0
1611 539.0
1612 520.0
1613 561.0
1614 564.0
1615 528.0
1616 525.0
1617 522.0
1618 528.0
1619 546.0
1620 558.0
1621 542.0
1622 535.0
1623 530.0
1624 547.0
1625 563.0
1626 553.0
1627 487.0
1628 513.0
1629 587.0
1630 553.0
1631 520.0
1632 519.0
1633 522.0
1634 487.0
1635 494.0
1636 528.0
1637 551.0
1638 499.0
1639 553.0
1640 535.0
1641 524.0
1642 523.0
1643 533.0
1644 546.0
1645 531.0
1646 506.0
1647 507.0
1648 544.0
1649 503.0
1650 509.0
1651 545.0
1652 541.0
1653 546.0
1654 495.0
1655 520.0
1656 460.0
1657 550.0
1658 501.0
1659 527.0
1660 518.0
1661 522.0
1662 519.0
1663 484.0
1664 521.0
1665 501.0
1666 513.0
1667 527.0
1668 552.0
1669 498.0
1670 532.0
1671 554.0
1672 533.0
1673 518.0
1674 553.0
1675 560.0
1676 525.0
1677 534.0
1678 533.0
1679 514.0
1680 538.0
1681 524.0
1682 531.0
1683 548.0
1684 519.0
1685 505.0
1686 540.0
1687 553.0
1688 534.0
1689 557.0
1690 550.0
1691 548.0
1692 564.0
1693 533.0
1694 548.0
1695 521.0
1696 528.0
1697 526.0
1698 536.0
1699 552.0
1700 566.0
1701 544.0
1702 547.0
1703 534.0
1704 518.0
1705 525.0
1706 516.0
1707 513.0
1708 571.0
1709 513.0
1710 524.0
1711 546.0
1712 576.0
1713 553.0
1714 486.0
1715 520.0
1716 559.0
1717 538.0
1718 582.0
1719 533.0
1720 518.0
1721 499.0
1722 535.0
1723 555.0
1724 556.0
1725 531.0
1726 521.0
1727 545.0
1728 553.0
1729 548.0
1730 509.0
1731 542.0
1732 526.0
1733 522.0
1734 582.0
1735 558.0
1736 555.0
1737 555.0
1738 601.0
1739 559.0
1740 561.0
1741 561.0
1742 535.0
1743 510.0
1744 561.0
1745 546.0
1746 544.0
1747 571.0
1748 577.0
1749 546.0
1750 577.0
1751 558.0
1752 559.0
1753 552.0
1754 541.0
1755 564.0
1756 527.0
1757 527.0
1758 578.0
1759 538.0
1760 544.0
1761 559.0
1762 581.0
1763 559.0
1764 567.0
1765 588.0
1766 567.0
1767 582.0
1768 585.0
1769 593.0
1770 584.0
1771 525.0
1772 549.0
1773 512.0
1774 542.0
1775 546.0
1776 548.0
1777 552.0
1778 556.0
1779 525.0
1780 565.0
1781 578.0
1782 564.0
1783 530.0
1784 568.0
1785 532.0
1786 511.0
1787 554.0
1788 567.0
1789 566.0
1790 538.0
1791 529.0
1792 557.0
1793 535.0
1794 571.0
1795 547.0
1796 528.0
1797 600.0
1798 563.0
1799 533.0
1800 537.0
1801 542.0
1802 526.0
1803 565.0
1804 590.0
1805 544.0
1806 517.0
1807 579.0
1808 550.0
1809 557.0
1810 540.0
1811 546.0
1812 571.0
1813 565.0
1814 548.0
1815 578.0
1816 521.0
1817 577.0
1818 516.0
1819 568.0
1820 535.0
1821 558.0
1822 534.0
1823 546.0
1824 524.0
1825 555.0
1826 587.0
1827 585.0
1828 543.0
1829 490.0
1830 537.0
1831 547.0
1832 576.0
1833 559.0
1834 561.0
1835 566.0
1836 533.0
1837 574.0
1838 547.0
1839 550.0
1840 537.0
1841 566.0
1842 581.0
1843 533.0
1844 565.0
1845 562.0
1846 557.0
1847 522.0
1848 542.0
1849 554.0
1850 571.0
1851 550.0
1852 575.0
1853 555.0
1854 577.0
1855 533.0
1856 537.0
1857 557.0
1858 553.0
1859 520.0
1860 542.0
1861 576.0
1862 520.0
1863 542.0
1864 564.0
1865 563.0
1866 544.0
1867 520.0
1868 543.0
1869 576.0
1870 547.0
1871 536.0
1872 554.0
1873 551.0
1874 562.0
1875 547.0
1876 556.0
1877 509.0
1878 561.0
1879 563.0
1880 551.0
1881 578.0
1882 524.0
1883 558.0
1884 531.0
1885 563.0
1886 527.0
1887 548.0
1888 585.0
1889 531.0
1890 575.0
1891 543.0
1892 552.0
1893 556.0
1894 541.0
1895 543.0
1896 537.0
1897 546.0
1898 560.0
1899 528.0
1900 533.0
1901 576.0
1902 533.0
1903 556.0
1904 568.0
1905 542.0
1906 530.0
1907 540.0
1908 570.0
1909 532.0
1910 549.0
1911 555.0
1912 560.0
1913 565.0
1914 556.0
1915 540.0
1916 573.0
1917 556.0
1918 574.0
1919 540.0
1920 564.0
1921 518.0
1922 548.0
1923 567.0
1924 586.0
1925 514.0
1926 555.0
1927 528.0
1928 533.0
1929 567.0
1930 567.0
1931 569.0
1932 562.0
1933 554.0
1934 519.0
1935 547.0
1936 608.0
1937 591.0
1938 555.0
1939 583.0
1940 537.0
1941 586.0
1942 575.0
1943 571.0
1944 575.0
1945 572.0
1946 555.0
1947 593.0
1948 587.0
1949 529.0
1950 512.0
1951 563.0
1952 604.0
1953 535.0
1954 578.0
1955 574.0
1956 533.0
1957 546.0
1958 573.0
1959 535.0
1960 583.0
1961 560.0
1962 581.0
1963 594.0
1964 531.0
1965 573.0
1966 566.0
1967 580.0
1968 563.0
1969 573.0
1970 540.0
1971 577.0
1972 566.0
1973 547.0
1974 578.0
1975 572.0
1976 534.0
1977 557.0
1978 553.0
1979 515.0
1980 544.0
1981 573.0
1982 550.0
1983 562.0
1984 585.0
1985 574.0
1986 556.0
1987 579.0
1988 583.0
1989 552.0
1990 525.0
1991 568.0
1992 555.0
1993 569.0
1994 576.0
1995 568.0
1996 572.0
1997 521.0
1998 570.0
1999 544.0
2000 594.0
2001 610.0
2002 570.0
2003 555.0
2004 586.0
2005 589.0
2006 563.0
2007 575.0
2008 585.0
2009 581.0
2010 582.0
2011 547.0
2012 573.0
2013 576.0
2014 612.0
2015 567.0
2016 595.0
2017 560.0
2018 622.0
2019 610.0
2020 617.0
2021 575.0
2022 596.0
2023 607.0
2024 601.0
2025 610.0
2026 575.0
2027 600.0
2028 579.0
2029 606.0
2030 631.0
2031 601.0
2032 614.0
2033 621.0
2034 599.0
2035 633.0
2036 608.0
2037 585.0
2038 636.0
2039 627.0
2040 638.0
2041 606.0
2042 646.0
2043 626.0
2044 653.0
2045 589.0
2046 621.0
2047 589.0
