0 530.0
1 550.0
2 503.0
3 480.0
4 471.0
5 501.0
6 497.0
7 529.0
8 452.0
9 495.0
10 516.0
11 536.0
12 482.0
13 472.0
14 497.0
15 482.0
16 502.0
17 481.0
18 476.0
19 504.0
20 475.0
21 493.0
22 498.0
23 472.0
24 482.0
25 465.0
26 498.0
27 465.0
28 498.0
29 525.0
30 522.0
31 545.0
32 494.0
33 519.0
34 462.0
35 451.0
36 474.0
37 507.0
38 485.0
39 491.0
40 485.0
41 465.0
42 505.0
43 470.0
44 457.0
45 468.0
46 472.0
47 456.0
48 465.0
49 452.0
50 488.0
51 492.0
52 440.0
53 504.0
54 452.0
55 478.0
56 476.0
57 458.0
58 462.0
59 470.0
60 497.0
61 462.0
62 457.0
63 451.0
64 409.0
65 476.0
66 427.0
67 490.0
68 445.0
69 462.0
70 442.0
71 459.0
72 455.0
73 462.0
74 439.0
75 439.0
76 427.0
77 469.0
78 443.0
79 433.0
80 451.0
81 429.0
82 428.0
83 471.0
84 412.0
85 441.0
86 440.0
87 474.0
88 483.0
89 424.0
90 458.0
91 454.0
92 447.0
93 445.0
94 430.0
95 443.0
96 471.0
97 455.0
98 418.0
99 449.0
100 415.0
101 437.0
102 497.0
103 449.0
104 466.0
105 443.0
106 398.0
107 482.0
108 456.0
109 433.0
110 453.0
111 447.0
112 439.0
113 446.0
114 396.0
115 480.0
116 459.0
117 435.0
118 501.0
119 422.0
120 438.0
121 465.0
122 443.0
123 432.0
124 463.0
125 457.0
126 432.0
127 485.0
128 392.0
129 463.0
130 468.0
131 444.0
132 492.0
133 448.0
134 445.0
135 460.0
136 432.0
137 468.0
138 434.0
139 444.0
140 454.0
141 478.0
142 450.0
143 443.0
144 446.0
145 461.0
146 445.0
147 509.0
148 439.0
149 441.0
150 470.0
151 460.0
152 494.0
153 439.0
154 472.0
155 439.0
156 450.0
157 471.0
158 431.0
159 462.0
160 421.0
161 455.0
162 429.0
163 451.0
164 453.0
165 494.0
166 427.0
167 476.0
168 473.0
169 436.0
170 497.0
171 471.0
172 472.0
173 456.0
174 404.0
175 466.0
176 475.0
177 478.0
178 470.0
179 428.0
180 435.0
181 423.0
182 441.0
183 443.0
184 488.0
185 437.0
186 401.0
187 424.0
188 423.0
189 442.0
190 448.0
191 444.0
192 450.0
193 449.0
194 395.0
195 442.0
196 464.0
197 461.0
198 436.0
199 445.0
200 451.0
201 436.0
202 438.0
203 462.0
204 422.0
205 439.0
206 448.0
207 435.0
208 453.0
209 451.0
210 481.0
211 420.0
212 471.0
213 460.0
214 427.0
215 482.0
216 460.0
217 415.0
218 402.0
219 441.0
220 449.0
221 454.0
222 429.0
223 503.0
224 440.0
225 466.0
226 433.0
227 434.0
228 453.0
229 434.0
230 453.0
231 468.0
232 441.0
233 434.0
234 443.0
235 446.0
236 440.0
237 454.0
238 451.0
239 455.0
240 451.0
241 422.0
242 489.0
243 463.0
244 455.0
245 485.0
246 469.0
247 436.0
248 437.0
249 433.0
250 480.0
251 468.0
252 428.0
253 470.0
254 468.0
255 480.0
256 492.0
257 424.0
258 433.0
259 430.0
260 438.0
261 476.0
262 426.0
263 486.0
264 417.0
265 491.0
266 458.0
267 427.0
268 401.0
269 448.0
270 459.0
271 443.0
272 443.0
273 442.0
274 410.0
275 461.0
276 447.0
277 487.0
278 449.0
279 503.0
280 470.0
281 473.0
282 441.0
283 470.0
284 423.0
285 467.0
286 434.0
287 410.0
288 451.0
289 449.0
290 433.0
291 409.0
292 431.0
293 465.0
294 456.0
295 450.0
296 494.0
297 409.0
298 450.0
299 422.0
300 455.0
301 459.0
302 454.0
303 455.0
304 469.0
305 435.0
306 429.0
307 445.0
308 451.0
309 466.0
310 447.0
311 436.0
312 464.0
313 481.0
314 469.0
315 439.0
316 450.0
317 502.0
318 456.0
319 434.0
320 471.0
321 499.0
322 457.0
323 422.0
324 443.0
325 463.0
326 469.0
327 434.0
328 481.0
329 499.0
330 475.0
331 444.0
332 497.0
333 500.0
334 437.0
335 457.0
336 458.0
337 452.0
338 436.0
339 436.0
340 468.0
341 483.0
342 494.0
343 476.0
344 448.0
345 470.0
346 523.0
347 457.0
348 452.0
349 498.0
350 449.0
351 517.0
352 490.0
353 478.0
354 421.0
355 476.0
356 450.0
357 435.0
358 469.0
359 466.0
360 462.0
361 489.0
362 475.0
363 468.0
364 477.0
365 443.0
366 476.0
367 515.0
368 440.0
369 426.0
370 461.0
371 498.0
372 419.0
373 442.0
374 463.0
375 468.0
376 479.0
377 461.0
378 503.0
379 481.0
380 446.0
381 479.0
382 458.0
383 463.0
384 422.0
385 509.0
386 435.0
387 439.0
388 447.0
389 441.0
390 488.0
391 469.0
392 485.0
393 453.0
394 450.0
395 452.0
396 438.0
397 468.0
398 462.0
399 441.0
400 500.0
401 469.0
402 456.0
403 443.0
404 448.0
405 418.0
406 426.0
407 460.0
408 483.0
409 426.0
410 409.0
411 493.0
412 480.0
413 465.0
414 423.0
415 458.0
416 436.0
417 446.0
418 496.0
419 441.0
420 425.0
421 488.0
422 447.0
423 448.0
424 450.0
425 452.0
426 486.0
427 469.0
428 446.0
429 479.0
430 490.0
431 447.0
432 438.0
433 457.0
434 469.0
435 439.0
436 473.0
437 473.0
438 462.0
439 474.0
440 441.0
441 478.0
442 464.0
443 475.0
444 509.0
445 454.0
446 461.0
447 500.0
448 457.0
449 484.0
450 473.0
451 494.0
452 468.0
453 474.0
454 466.0
455 444.0
456 445.0
457 494.0
458 451.0
459 483.0
460 466.0
461 476.0
462 463.0
463 451.0
464 473.0
465 469.0
466 464.0
467 501.0
468 457.0
469 482.0
470 472.0
471 446.0
472 470.0
473 504.0
474 467.0
475 468.0
476 471.0
477 503.0
478 444.0
479 467.0
480 496.0
481 473.0
482 431.0
483 476.0
484 483.0
485 430.0
486 458.0
487 501.0
488 440.0
489 459.0
490 491.0
491 457.0
492 470.0
493 452.0
494 459.0
495 403.0
496 494.0
497 457.0
498 460.0
499 503.0
500 423.0
501 467.0
502 476.0
503 454.0
504 443.0
505 455.0
506 473.0
507 474.0
508 437.0
509 469.0
510 461.0
511 474.0
512 457.0
513 438.0
514 466.0
515 460.0
516 453.0
517 418.0
518 477.0
519 469.0
520 448.0
521 498.0
522 493.0
523 416.0
524 428.0
525 450.0
526 443.0
527 424.0
528 432.0
529 442.0
530 477.0
531 451.0
532 504.0
533 440.0
534 467.0
535 440.0
536 407.0
537 482.0
538 452.0
539 443.0
540 442.0
541 467.0
542 461.0
543 468.0
544 411.0
545 447.0
546 433.0
547 464.0
548 488.0
549 459.0
550 493.0
551 446.0
552 454.0
553 448.0
554 477.0
555 418.0
556 447.0
557 495.0
558 452.0
559 446.0
560 511.0
561 451.0
562 439.0
563 448.0
564 449.0
565 473.0
566 435.0
567 465.0
568 462.0
569 452.0
570 440.0
571 493.0
572 450.0
573 473.0
574 434.0
575 510.0
576 492.0
577 419.0
578 464.0
579 401.0
580 481.0
581 430.0
582 427.0
583 440.0
584 466.0
585 488.0
586 481.0
587 469.0
588 468.0
589 447.0
590 436.0
591 452.0
592 434.0
593 456.0
594 469.0
595 434.0
596 428.0
597 495.0
598 450.0
599 450.0
600 465.0
601 478.0
602 437.0
603 477.0
604 461.0
605 474.0
606 431.0
607 488.0
608 514.0
609 468.0
610 463.0
611 489.0
612 478.0
613 459.0
614 502.0
615 463.0
616 470.0
617 499.0
618 491.0
619 501.0
620 479.0
621 501.0
622 461.0
623 483.0
624 512.0
625 455.0
626 512.0
627 436.0
628 493.0
629 494.0
630 451.0
631 464.0
632 452.0
633 484.0
634 461.0
635 467.0
636 496.0
637 538.0
638 474.0
639 482.0
640 435.0
641 496.0
642 499.0
643 445.0
644 451.0
645 479.0
646 486.0
647 505.0
648 460.0
649 439.0
650 489.0
651 501.0
652 500.0
653 474.0
654 477.0
655 448.0
656 518.0
657 488.0
658 467.0
659 488.0
660 518.0
661 493.0
662 482.0
663 505.0
664 498.0
665 505.0
666 468.0
667 475.0
668 472.0
669 485.0
670 476.0
671 478.0
672 467.0
673 462.0
674 472.0
675 460.0
676 459.0
677 431.0
678 491.0
679 470.0
680 456.0
681 497.0
682 505.0
683 437.0
684 445.0
685 472.0
686 456.0
687 456.0
688 478.0
689 462.0
690 462.0
691 450.0
692 428.0
693 457.0
694 469.0
695 469.0
696 505.0
697 476.0
698 502.0
699 468.0
700 444.0
701 474.0
702 476.0
703 493.0
704 432.0
705 438.0
706 463.0
707 462.0
708 474.0
709 450.0
710 473.0
711 485.0
712 445.0
713 471.0
714 449.0
715 464.0
716 500.0
717 474.0
718 419.0
719 442.0
720 464.0
721 486.0
722 495.0
723 475.0
724 499.0
725 514.0
726 449.0
727 477.0
728 453.0
729 449.0
730 451.0
731 442.0
732 464.0
733 484.0
734 456.0
735 489.0
736 451.0
737 466.0
738 456.0
739 496.0
740 452.0
741 497.0
742 497.0
743 482.0
744 454.0
745 476.0
746 494.0
747 478.0
748 481.0
749 485.0
750 428.0
751 463.0
752 489.0
753 472.0
754 422.0
755 484.0
756 469.0
757 478.0
758 452.0
759 485.0
760 466.0
761 480.0
762 485.0
763 490.0
764 430.0
765 493.0
766 444.0
767 498.0
768 475.0
769 475.0
770 478.0
771 484.0
772 485.0
773 469.0
774 487.0
775 443.0
776 494.0
777 462.0
778 466.0
779 475.0
780 495.0
781 483.0
782 459.0
783 491.0
784 487.0
785 523.0
786 481.0
787 507.0
788 501.0
789 495.0
790 477.0
791 476.0
792 463.0
793 508.0
794 497.0
795 500.0
796 472.0
797 493.0
798 464.0
799 458.0
800 486.0
801 426.0
802 434.0
803 454.0
804 483.0
805 459.0
806 479.0
807 455.0
808 437.0
809 427.0
810 461.0
811 493.0
812 425.0
813 478.0
814 483.0
815 478.0
816 470.0
817 464.0
818 483.0
819 495.0
820 459.0
821 457.0
822 460.0
823 465.0
824 507.0
825 491.0
826 474.0
827 470.0
828 510.0
829 447.0
830 485.0
831 479.0
832 497.0
833 511.0
834 517.0
835 468.0
836 481.0
837 496.0
838 507.0
839 496.0
840 510.0
841 478.0
842 516.0
843 477.0
844 492.0
845 461.0
846 453.0
847 504.0
848 500.0
849 474.0
850 470.0
851 462.0
852 472.0
853 474.0
854 485.0
855 457.0
856 481.0
857 458.0
858 489.0
859 450.0
860 496.0
861 486.0
862 501.0
863 482.0
864 467.0
865 476.0
866 473.0
867 450.0
868 451.0
869 451.0
870 450.0
871 500.0
872 465.0
873 457.0
874 441.0
875 451.0
876 452.0
877 466.0
878 432.0
879 436.0
880 503.0
881 472.0
882 425.0
883 472.0
884 472.0
885 457.0
886 438.0
887 410.0
888 476.0
889 478.0
890 464.0
891 469.0
892 463.0
893 456.0
894 457.0
895 464.0
896 446.0
897 473.0
898 474.0
899 436.0
900 460.0
901 495.0
902 462.0
903 443.0
904 474.0
905 492.0
906 515.0
907 463.0
908 493.0
909 501.0
910 462.0
911 451.0
912 497.0
913 478.0
914 498.0
915 475.0
916 459.0
917 456.0
918 481.0
919 475.0
920 485.0
921 445.0
922 478.0
923 478.0
924 493.0
925 472.0
926 470.0
927 497.0
928 507.0
929 494.0
930 498.0
931 421.0
932 474.0
933 473.0
934 483.0
935 487.0
936 450.0
937 513.0
938 486.0
939 477.0
940 437.0
941 443.0
942 410.0
943 467.0
944 502.0
945 528.0
946 479.0
947 501.0
948 471.0
949 479.0
950 508.0
951 511.0
952 444.0
953 485.0
954 463.0
955 512.0
956 477.0
957 478.0
958 444.0
959 461.0
960 486.0
961 488.0
962 495.0
963 486.0
964 456.0
965 489.0
966 458.0
967 469.0
968 499.0
969 484.0
970 504.0
971 463.0
972 490.0
973 491.0
974 508.0
975 474.0
976 491.0
977 455.0
978 467.0
979 498.0
980 499.0
981 491.0
982 531.0
983 531.0
984 473.0
985 487.0
986 479.0
987 493.0
988 511.0
989 482.0
990 481.0
991 505.0
992 502.0
993 487.0
994 485.0
995 536.0
996 492.0
997 503.0
998 499.0
999 484.0
1000 458.0
1001 466.0
1002 487.0
1003 527.0
1004 458.0
1005 467.0
1006 453.0
1007 511.0
1008 503.0
1009 459.0
1010 511.0
1011 498.0
1012 527.0
1013 493.0
1014 495.0
1015 513.0
1016 463.0
1017 501.0
1018 492.0
1019 529.0
1020 476.0
1021 467.0
1022 494.0
1023 502.0
1024 464.0
1025 486.0
1026 475.0
1027 471.0
1028 509.0
1029 494.0
1030 427.0
1031 489.0
1032 499.0
1033 486.0
1034 475.0
1035 489.0
1036 494.0
1037 501.0
1038 445.0
1039 477.0
1040 494.0
1041 473.0
1042 502.0
1043 496.0
1044 468.0
1045 493.0
1046 516.0
1047 467.0
1048 490.0
1049 504.0
1050 476.0
1051 502.0
1052 527.0
1053 539.0
1054 506.0
1055 518.0
1056 513.0
1057 513.0
1058 483.0
1059 477.0
1060 503.0
1061 464.0
1062 524.0
1063 511.0
1064 484.0
1065 477.0
1066 518.0
1067 532.0
1068 507.0
1069 488.0
1070 488.0
1071 511.0
1072 508.0
1073 515.0
1074 504.0
1075 524.0
1076 527.0
1077 530.0
1078 509.0
1079 528.0
1080 522.0
1081 507.0
1082 505.0
1083 504.0
1084 530.0
1085 475.0
1086 503.0
1087 454.0
1088 494.0
1089 527.0
1090 509.0
1091 513.0
1092 471.0
1093 539.0
1094 483.0
1095 520.0
1096 500.0
1097 515.0
1098 503.0
1099 505.0
1100 542.0
1101 500.0
1102 515.0
1103 485.0
1104 538.0
1105 517.0
1106 494.0
1107 549.0
1108 532.0
1109 507.0
1110 522.0
1111 535.0
1112 532.0
1113 520.0
1114 507.0
1115 513.0
1116 517.0
1117 548.0
1118 548.0
1119 567.0
1120 516.0
1121 526.0
1122 534.0
1123 552.0
1124 545.0
1125 488.0
1126 469.0
1127 513.0
1128 556.0
1129 516.0
1130 534.0
1131 530.0
1132 520.0
1133 508.0
1134 532.0
1135 529.0
1136 535.0
1137 530.0
1138 478.0
1139 496.0
1140 518.0
1141 529.0
1142 503.0
1143 501.0
1144 530.0
1145 547.0
1146 516.0
1147 517.0
1148 462.0
1149 547.0
1150 519.0
1151 530.0
1152 532.0
1153 505.0
1154 471.0
1155 505.0
1156 533.0
1157 550.0
1158 512.0
1159 505.0
1160 508.0
1161 480.0
1162 519.0
1163 472.0
1164 508.0
1165 528.0
1166 512.0
1167 523.0
1168 474.0
1169 536.0
1170 526.0
1171 520.0
1172 517.0
1173 511.0
1174 500.0
1175 537.0
1176 490.0
1177 518.0
1178 483.0
1179 518.0
1180 482.0
1181 507.0
1182 545.0
1183 491.0
1184 549.0
1185 499.0
1186 479.0
1187 500.0
1188 527.0
1189 504.0
1190 481.0
1191 515.0
1192 514.0
1193 557.0
1194 514.0
1195 482.0
1196 559.0
1197 503.0
1198 534.0
1199 517.0
1200 533.0
1201 491.0
1202 527.0
1203 559.0
1204 508.0
1205 510.0
1206 489.0
1207 533.0
1208 507.0
1209 522.0
1210 491.0
1211 508.0
1212 478.0
1213 503.0
1214 517.0
1215 511.0
1216 566.0
1217 511.0
1218 541.0
1219 526.0
1220 523.0
1221 517.0
1222 545.0
1223 494.0
1224 533.0
1225 509.0
1226 504.0
1227 514.0
1228 493.0
1229 566.0
1230 546.0
1231 540.0
1232 537.0
1233 512.0
1234 543.0
1235 511.0
1236 546.0
1237 526.0
1238 550.0
1239 541.0
1240 521.0
1241 551.0
1242 507.0
1243 511.0
1244 528.0
1245 498.0
1246 527.0
1247 515.0
1248 505.0
1249 488.0
1250 551.0
1251 557.0
1252 527.0
1253 526.0
1254 488.0
1255 557.0
1256 524.0
1257 501.0
1258 501.0
1259 522.0
1260 594.0
1261 516.0
1262 540.0
1263 546.0
1264 485.0
1265 521.0
1266 528.0
1267 522.0
1268 491.0
1269 524.0
1270 496.0
1271 496.0
1272 535.0
1273 527.0
1274 532.0
1275 522.0
1276 466.0
1277 501.0
1278 521.0
1279 530.0
1280 499.0
1281 521.0
1282 508.0
1283 522.0
1284 505.0
1285 499.0
1286 502.0
1287 550.0
1288 493.0
1289 500.0
1290 505.0
1291 551.0
1292 509.0
1293 528.0
1294 520.0
1295 500.0
1296 523.0
1297 506.0
1298 526.0
1299 538.0
1300 544.0
1301 535.0
1302 477.0
1303 551.0
1304 509.0
1305 522.0
1306 571.0
1307 544.0
1308 515.0
1309 536.0
1310 553.0
1311 517.0
1312 508.0
1313 493.0
1314 546.0
1315 486.0
1316 492.0
1317 510.0
1318 540.0
1319 525.0
1320 521.0
1321 502.0
1322 517.0
1323 518.0
1324 504.0
1325 524.0
1326 513.0
1327 508.0
1328 531.0
1329 482.0
1330 522.0
1331 516.0
1332 502.0
1333 537.0
1334 471.0
1335 507.0
1336 504.0
1337 441.0
1338 550.0
1339 511.0
1340 485.0
1341 490.0
1342 508.0
1343 513.0
1344 507.0
1345 548.0
1346 525.0
1347 514.0
1348 492.0
1349 519.0
1350 524.0
1351 484.0
1352 513.0
1353 492.0
1354 487.0
1355 544.0
1356 508.0
1357 514.0
1358 534.0
1359 461.0
1360 530.0
1361 464.0
1362 499.0
1363 503.0
1364 508.0
1365 523.0
1366 494.0
1367 451.0
1368 507.0
1369 522.0
1370 539.0
1371 553.0
1372 521.0
1373 507.0
1374 473.0
1375 519.0
1376 532.0
1377 490.0
1378 519.0
1379 526.0
1380 521.0
1381 510.0
1382 507.0
1383 549.0
1384 525.0
1385 538.0
1386 535.0
1387 547.0
1388 526.0
1389 504.0
1390 511.0
1391 539.0
1392 535.0
1393 533.0
1394 540.0
1395 559.0
1396 567.0
1397 565.0
1398 532.0
1399 520.0
1400 539.0
1401 553.0
1402 540.0
1403 558.0
1404 538.0
1405 587.0
1406 532.0
1407 534.0
1408 545.0
1409 549.0
1410 543.0
1411 524.0
1412 539.0
1413 482.0
1414 572.0
1415 533.0
1416 536.0
1417 535.0
1418 573.0
1419 518.0
1420 536.0
1421 504.0
1422 557.0
1423 522.0
1424 563.0
1425 538.0
1426 572.0
1427 556.0
1428 549.0
1429 567.0
1430 525.0
1431 570.0
1432 514.0
1433 562.0
1434 517.0
1435 518.0
1436 523.0
1437 557.0
1438 525.0
1439 524.0
1440 535.0
1441 537.0
1442 524.0
1443 558.0
1444 564.0
1445 537.0
1446 492.0
1447 536.0
1448 549.0
1449 540.0
1450 556.0
1451 512.0
1452 494.0
1453 492.0
1454 566.0
1455 540.0
1456 548.0
1457 531.0
1458 514.0
1459 523.0
1460 528.0
1461 504.0
1462 517.0
1463 551.0
1464 515.0
1465 550.0
1466 550.0
1467 510.0
1468 501.0
1469 567.0
1470 531.0
1471 543.0
1472 491.0
1473 566.0
1474 525.0
1475 531.0
1476 529.0
1477 529.0
1478 523.0
1479 554.0
1480 553.0
1481 540.0
1482 532.0
1483 545.0
1484 513.0
1485 560.0
1486 524.0
1487 508.0
1488 510.0
1489 566.0
1490 536.0
1491 506.0
1492 514.0
1493 521.0
1494 535.0
1495 546.0
1496 513.0
1497 519.0
1498 512.0
1499 487.0
1500 515.0
1501 552.0
1502 499.0
1503 516.0
1504 517.0
1505 519.0
1506 498.0
1507 515.0
1508 470.0
1509 546.0
1510 565.0
1511 485.0
1512 547.0
1513 523.0
1514 495.0
1515 522.0
1516 546.0
1517 527.0
1518 515.0
1519 535.0
1520 509.0
1521 529.0
1522 523.0
1523 527.0
1524 531.0
1525 508.0
1526 522.0
1527 531.0
1528 497.0
1529 513.0
1530 530.0
1531 547.0
1532 517.0
1533 544.0
1534 546.0
1535 541.0
1536 529.0
1537 526.0
1538 542.0
1539 515.0
1540 570.0
1541 502.0
1542 549.0
1543 505.0
1544 543.0
1545 537.0
1546 541.0
1547 524.0
1548 538.0
1549 503.0
1550 530.0
1551 532.0
1552 538.0
1553 541.0
1554 523.0
1555 569.0
1556 498.0
1557 515.0
1558 502.0
1559 515.0
1560 532.0
1561 529.0
1562 551.0
1563 539.0
1564 573.0
1565 552.0
1566 526.0
1567 523.0
1568 519.0
1569 552.0
1570 536.0
1571 565.0
1572 561.0
1573 509.0
1574 558.0
1575 536.0
1576 540.0
1577 544.0
1578 528.0
1579 539.0
1580 556.0
1581 530.0
1582 536.0
1583 512.0
1584 567.0
1585 492.0
1586 555.0
1587 532.0
1588 498.0
1589 525.0
1590 536.0
1591 521.0
1592 540.0
1593 513.0
1594 498.0
1595 502.0
1596 560.0
1597 550.0
1598 510.0
1599 517.0
1600 535.0
1601 540.0
1602 491.0
1603 581.0
1604 564.0
1605 511.0
1606 562.0
1607 539.0
1608 524.0
1609 484.0
1610 489.0
1611 521.0
1612 527.0
1613 532.0
1614 542.0
1615 558.0
1616 512.0
1617 525.0
1618 526.0
1619 551.0
1620 523.0
1621 534.0
1622 542.0
1623 517.0
1624 529.0
1625 525.0
1626 535.0
1627 499.0
1628 536.0
1629 556.0
1630 536.0
1631 505.0
1632 525.0
1633 518.0
1634 520.0
1635 482.0
1636 504.0
1637 546.0
1638 515.0
1639 528.0
1640 527.0
1641 516.0
1642 517.0
1643 515.0
1644 522.0
1645 501.0
1646 472.0
1647 524.0
1648 525.0
1649 521.0
1650 522.0
1651 516.0
1652 536.0
1653 550.0
1654 506.0
1655 501.0
1656 494.0
1657 540.0
1658 489.0
1659 513.0
1660 526.0
1661 527.0
1662 514.0
1663 500.0
1664 498.0
1665 527.0
1666 565.0
1667 475.0
1668 552.0
1669 509.0
1670 515.0
1671 546.0
1672 509.0
1673 534.0
1674 506.0
1675 515.0
1676 513.0
1677 542.0
1678 551.0
1679 485.0
1680 535.0
1681 548.0
1682 521.0
1683 533.0
1684 540.0
1685 509.0
1686 538.0
1687 538.0
1688 562.0
1689 550.0
1690 504.0
1691 495.0
1692 539.0
1693 545.0
1694 499.0
1695 506.0
1696 519.0
1697 565.0
1698 548.0
1699 567.0
1700 515.0
1701 563.0
1702 554.0
1703 552.0
1704 523.0
1705 513.0
1706 531.0
1707 511.0
1708 576.0
1709 541.0
1710 552.0
1711 535.0
1712 581.0
1713 534.0
1714 506.0
1715 526.0
1716 551.0
1717 542.0
1718 561.0
1719 473.0
1720 529.0
1721 543.0
1722 565.0
1723 532.0
1724 558.0
1725 520.0
1726 543.0
1727 588.0
1728 560.0
1729 527.0
1730 514.0
1731 549.0
1732 548.0
1733 540.0
1734 595.0
1735 553.0
1736 518.0
1737 560.0
1738 570.0
1739 543.0
1740 564.0
1741 573.0
1742 588.0
1743 537.0
1744 539.0
1745 570.0
1746 578.0
1747 558.0
1748 600.0
1749 553.0
1750 563.0
1751 531.0
1752 561.0
1753 582.0
1754 588.0
1755 581.0
1756 577.0
1757 506.0
1758 537.0
1759 540.0
1760 528.0
1761 566.0
1762 535.0
1763 552.0
1764 580.0
1765 558.0
1766 545.0
1767 585.0
1768 584.0
1769 570.0
1770 593.0
1771 560.0
1772 582.0
1773 532.0
1774 543.0
1775 538.0
1776 564.0
1777 567.0
1778 536.0
1779 497.0
1780 563.0
1781 550.0
1782 537.0
1783 556.0
1784 560.0
1785 531.0
1786 533.0
1787 582.0
1788 570.0
1789 554.0
1790 541.0
1791 548.0
1792 531.0
1793 531.0
1794 551.0
1795 558.0
1796 532.0
1797 543.0
1798 551.0
1799 567.0
1800 529.0
1801 546.0
1802 487.0
1803 545.0
1804 559.0
1805 564.0
1806 541.0
1807 525.0
1808 546.0
1809 521.0
1810 534.0
1811 540.0
1812 552.0
1813 529.0
1814 574.0
1815 549.0
1816 500.0
1817 582.0
1818 532.0
1819 563.0
1820 550.0
1821 548.0
1822 521.0
1823 498.0
1824 515.0
1825 559.0
1826 566.0
1827 552.0
1828 515.0
1829 549.0
1830 541.0
1831 551.0
1832 564.0
1833 537.0
1834 542.0
1835 536.0
1836 557.0
1837 578.0
1838 506.0
1839 559.0
1840 542.0
1841 552.0
1842 515.0
1843 547.0
1844 561.0
1845 551.0
1846 580.0
1847 561.0
1848 527.0
1849 532.0
1850 555.0
1851 552.0
1852 518.0
1853 555.0
1854 546.0
1855 515.0
1856 534.0
1857 547.0
1858 535.0
1859 523.0
1860 541.0
1861 533.0
1862 523.0
1863 513.0
1864 587.0
1865 582.0
1866 538.0
1867 507.0
1868 508.0
1869 551.0
1870 547.0
1871 499.0
1872 561.0
1873 552.0
1874 513.0
1875 503.0
1876 541.0
1877 546.0
1878 514.0
1879 538.0
1880 531.0
1881 542.0
1882 545.0
1883 505.0
1884 551.0
1885 583.0
1886 537.0
1887 542.0
1888 504.0
1889 519.0
1890 497.0
1891 526.0
1892 527.0
1893 568.0
1894 541.0
1895 540.0
1896 541.0
1897 545.0
1898 530.0
1899 536.0
1900 502.0
1901 544.0
1902 522.0
1903 547.0
1904 536.0
1905 493.0
1906 534.0
1907 545.0
1908 547.0
1909 554.0
1910 552.0
1911 521.0
1912 596.0
1913 549.0
1914 527.0
1915 534.0
1916 552.0
1917 500.0
1918 546.0
1919 567.0
1920 529.0
1921 498.0
1922 548.0
1923 565.0
1924 569.0
1925 498.0
1926 591.0
1927 520.0
1928 522.0
1929 546.0
1930 545.0
1931 547.0
1932 566.0
1933 569.0
1934 525.0
1935 558.0
1936 549.0
1937 557.0
1938 546.0
1939 556.0
1940 523.0
1941 540.0
1942 578.0
1943 579.0
1944 560.0
1945 547.0
1946 540.0
1947 577.0
1948 549.0
1949 486.0
1950 559.0
1951 558.0
1952 570.0
1953 566.0
1954 587.0
1955 551.0
1956 537.0
1957 563.0
1958 535.0
1959 531.0
1960 555.0
1961 558.0
1962 581.0
1963 565.0
1964 553.0
1965 539.0
1966 551.0
1967 546.0
1968 548.0
1969 622.0
1970 553.0
1971 569.0
1972 573.0
1973 536.0
1974 575.0
1975 530.0
1976 566.0
1977 566.0
1978 576.0
1979 495.0
1980 543.0
1981 557.0
1982 563.0
1983 574.0
1984 573.0
1985 553.0
1986 548.0
1987 589.0
1988 585.0
1989 548.0
1990 568.0
1991 554.0
1992 516.0
1993 562.0
1994 564.0
1995 578.0
1996 557.0
1997 560.0
1998 545.0
1999 558.0
2000 581.0
2001 574.0
2002 578.0
2003 542.0
2004 599.0
2005 570.0
2006 579.0
2007 573.0
2008 589.0
2009 575.0
2010 591.0
2011 543.0
2012 542.0
2013 564.0
2014 591.0
2015 577.0
2016 565.0
2017 581.0
2018 624.0
2019 643.0
2020 612.0
2021 600.0
2022 602.0
2023 592.0
2024 603.0
2025 604.0
2026 586.0
2027 619.0
2028 622.0
2029 605.0
2030 628.0
2031 627.0
2032 605.0
2033 617.0
2034 570.0
2035 624.0
2036 599.0
2037 600.0
2038 642.0
2039 601.0
2040 594.0
2041 617.0
2042 598.0
2043 599.0
2044 638.0
2045 607.0
2046 612.0
2047 585.0
