
Integration time [ms]:   0.300
Averaging Nr. [scans]: 1
Smoothing Nr. [pixels]: 0
Data measured with spectrometer [name]: UV2
Wave   ;Sample   ;Dark     ;Reference
[nm]   ;[counts] ;[counts] ;[counts] 

353.533;  244.750;  178.050;    0.000
353.597;  221.750;  251.050;    0.000
353.660;  222.750;  213.050;    0.000
353.723;  202.750;  185.050;    0.000
353.786;  224.750;  191.050;    0.000
353.850;  205.750;  238.050;    0.000
353.913;  213.750;  181.050;    0.000
353.976;  198.750;  190.050;    0.000
354.039;  182.750;  184.050;    0.000
354.102;  253.750;  231.050;    0.000
354.166;  215.750;  188.050;    0.000
354.229;  193.750;  224.050;    0.000
354.292;  174.750;  186.050;    0.000
354.355;  232.750;  175.050;    0.000
354.418;  187.750;  191.050;    0.000
354.481;  206.750;  181.050;    0.000
354.545;  773.750;  193.050;    0.000
354.608;  806.750;  210.050;    0.000
354.671;  749.750;  183.050;    0.000
354.734;  872.750;  189.050;    0.000
354.797;  836.750;  168.050;    0.000
354.860;  879.750;  178.050;    0.000
354.923;  854.750;  236.050;    0.000
354.986;  831.750;  181.050;    0.000
355.050;  873.750;  168.050;    0.000
355.113;  959.750;  201.050;    0.000
355.176;  848.750;  206.050;    0.000
355.239;  890.750;  213.050;    0.000
355.302;  910.750;  198.050;    0.000
355.365;  927.750;  199.050;    0.000
355.428;  934.750;  200.050;    0.000
355.491;  969.750;  232.050;    0.000
355.554;  920.750;  184.050;    0.000
355.617; 1038.750;  214.050;    0.000
355.680;  986.750;  191.050;    0.000
355.743;  982.750;  161.050;    0.000
355.806;  947.750;  153.050;    0.000
355.869;  997.750;  221.050;    0.000
355.932; 1044.750;  152.050;    0.000
355.995; 1036.750;  195.050;    0.000
356.058; 1054.750;  172.050;    0.000
356.121; 1084.750;  186.050;    0.000
356.184; 1075.750;  196.050;    0.000
356.247; 1043.750;  183.050;    0.000
356.310; 1059.750;  159.050;    0.000
356.373; 1106.750;  183.050;    0.000
356.436; 1127.750;  176.050;    0.000
356.498; 1048.750;  191.050;    0.000
356.561; 1066.750;  145.050;    0.000
356.624; 1106.750;  187.050;    0.000
356.687; 1136.750;  181.050;    0.000
356.750; 1138.750;  227.050;    0.000
356.813; 1069.750;  147.050;    0.000
356.876; 1126.750;  184.050;    0.000
356.939; 1126.750;  141.050;    0.000
357.001; 1169.750;  188.050;    0.000
357.064; 1134.750;  173.050;    0.000
357.127; 1095.750;  159.050;    0.000
357.190; 1176.750;  185.050;    0.000
357.253; 1170.750;  180.050;    0.000
357.316; 1143.750;  199.050;    0.000
357.378; 1186.750;  196.050;    0.000
357.441; 1122.750;  175.050;    0.000
357.504; 1137.750;  164.050;    0.000
357.567; 1022.750;  145.050;    0.000
357.629; 1184.750;  205.050;    0.000
357.692; 1114.750;  175.050;    0.000
357.755; 1104.750;  205.050;    0.000
357.818; 1081.750;  141.050;    0.000
357.880; 1146.750;  170.050;    0.000
357.943; 1105.750;  152.050;    0.000
358.006; 1176.750;  145.050;    0.000
358.069; 1193.750;  164.050;    0.000
358.131; 1237.750;  148.050;    0.000
358.194; 1154.750;  122.050;    0.000
358.257; 1231.750;  147.050;    0.000
358.319; 1225.750;  156.050;    0.000
358.382; 1257.750;  193.050;    0.000
358.445; 1197.750;  155.050;    0.000
358.507; 1200.750;  160.050;    0.000
358.570; 1200.750;  159.050;    0.000
358.633; 1189.750;  163.050;    0.000
358.695; 1229.750;  174.050;    0.000
358.758; 1163.750;  127.050;    0.000
358.821; 1249.750;  165.050;    0.000
358.883; 1215.750;  145.050;    0.000
358.946; 1277.750;  127.050;    0.000
359.008; 1231.750;  180.050;    0.000
359.071; 1234.750;  173.050;    0.000
359.134; 1207.750;  150.050;    0.000
359.196; 1208.750;  158.050;    0.000
359.259; 1237.750;  159.050;    0.000
359.321; 1188.750;  159.050;    0.000
359.384; 1272.750;  182.050;    0.000
359.446; 1182.750;  140.050;    0.000
359.509; 1273.750;  146.050;    0.000
359.571; 1283.750;  133.050;    0.000
359.634; 1259.750;   93.050;    0.000
359.696; 1245.750;  142.050;    0.000
359.759; 1302.750;  161.050;    0.000
359.821; 1231.750;  110.050;    0.000
359.884; 1280.750;  114.050;    0.000
359.946; 1276.750;  180.050;    0.000
360.009; 1265.750;  158.050;    0.000
360.071; 1260.750;  116.050;    0.000
360.134; 1270.750;  170.050;    0.000
360.196; 1237.750;  128.050;    0.000
360.259; 1295.750;  157.050;    0.000
360.321; 1263.750;  122.050;    0.000
360.384; 1255.750;  119.050;    0.000
360.446; 1256.750;  122.050;    0.000
360.508; 1263.750;  195.050;    0.000
360.571; 1262.750;  128.050;    0.000
360.633; 1330.750;  172.050;    0.000
360.696; 1298.750;  115.050;    0.000
360.758; 1277.750;  162.050;    0.000
360.820; 1338.750;  149.050;    0.000
360.883; 1252.750;  151.050;    0.000
360.945; 1298.750;  149.050;    0.000
361.007; 1284.750;  135.050;    0.000
361.070; 1309.750;  162.050;    0.000
361.132; 1312.750;  198.050;    0.000
361.194; 1385.750;  141.050;    0.000
361.257; 1292.750;  154.050;    0.000
361.319; 1351.750;  147.050;    0.000
361.381; 1335.750;  154.050;    0.000
361.443; 1281.750;  144.050;    0.000
361.506; 1411.750;  164.050;    0.000
361.568; 1273.750;  148.050;    0.000
361.630; 1314.750;  127.050;    0.000
361.693; 1356.750;  158.050;    0.000
361.755; 1423.750;  161.050;    0.000
361.817; 1442.750;  173.050;    0.000
361.879; 1309.750;  159.050;    0.000
361.941; 1352.750;  153.050;    0.000
362.004; 1335.750;  148.050;    0.000
362.066; 1408.750;  150.050;    0.000
362.128; 1338.750;  132.050;    0.000
362.190; 1405.750;  207.050;    0.000
362.252; 1399.750;  142.050;    0.000
362.315; 1314.750;  153.050;    0.000
362.377; 1351.750;  164.050;    0.000
362.439; 1380.750;  155.050;    0.000
362.501; 1455.750;  157.050;    0.000
362.563; 1380.750;  188.050;    0.000
362.625; 1388.750;  194.050;    0.000
362.688; 1418.750;  159.050;    0.000
362.750; 1451.750;  205.050;    0.000
362.812; 1440.750;  148.050;    0.000
362.874; 1389.750;  173.050;    0.000
362.936; 1387.750;  152.050;    0.000
362.998; 1374.750;  145.050;    0.000
363.060; 1370.750;  184.050;    0.000
363.122; 1455.750;  147.050;    0.000
363.184; 1521.750;  136.050;    0.000
363.246; 1436.750;  171.050;    0.000
363.308; 1446.750;  154.050;    0.000
363.370; 1472.750;  175.050;    0.000
363.432; 1412.750;  139.050;    0.000
363.494; 1447.750;  163.050;    0.000
363.556; 1435.750;  117.050;    0.000
363.618; 1438.750;  126.050;    0.000
363.680; 1425.750;  147.050;    0.000
363.742; 1443.750;  161.050;    0.000
363.804; 1442.750;  159.050;    0.000
363.866; 1428.750;  170.050;    0.000
363.928; 1446.750;  122.050;    0.000
363.990; 1373.750;  167.050;    0.000
364.052; 1444.750;  180.050;    0.000
364.114; 1518.750;  119.050;    0.000
364.176; 1405.750;  184.050;    0.000
364.238; 1410.750;  180.050;    0.000
364.300; 1525.750;  159.050;    0.000
364.362; 1415.750;  163.050;    0.000
364.424; 1350.750;  139.050;    0.000
364.486; 1489.750;  189.050;    0.000
364.548; 1450.750;  167.050;    0.000
364.609; 1467.750;  165.050;    0.000
364.671; 1440.750;  171.050;    0.000
364.733; 1432.750;  165.050;    0.000
364.795; 1485.750;  122.050;    0.000
364.857; 1480.750;  147.050;    0.000
364.919; 1442.750;  104.050;    0.000
364.981; 1503.750;  143.050;    0.000
365.042; 1455.750;  166.050;    0.000
365.104; 1513.750;  162.050;    0.000
365.166; 1497.750;  155.050;    0.000
365.228; 1532.750;  179.050;    0.000
365.290; 1464.750;  133.050;    0.000
365.351; 1466.750;  142.050;    0.000
365.413; 1437.750;  144.050;    0.000
365.475; 1453.750;  139.050;    0.000
365.537; 1437.750;  181.050;    0.000
365.598; 1419.750;  166.050;    0.000
365.660; 1498.750;  130.050;    0.000
365.722; 1399.750;  177.050;    0.000
365.784; 1489.750;  149.050;    0.000
365.845; 1497.750;  156.050;    0.000
365.907; 1480.750;  122.050;    0.000
365.969; 1536.750;  140.050;    0.000
366.030; 1564.750;  156.050;    0.000
366.092; 1487.750;  140.050;    0.000
366.154; 1483.750;  169.050;    0.000
366.215; 1465.750;  170.050;    0.000
366.277; 1527.750;  143.050;    0.000
366.339; 1519.750;  139.050;    0.000
366.400; 1458.750;  139.050;    0.000
366.462; 1514.750;  140.050;    0.000
366.524; 1499.750;  150.050;    0.000
366.585; 1482.750;  163.050;    0.000
366.647; 1584.750;  193.050;    0.000
366.708; 1434.750;  135.050;    0.000
366.770; 1552.750;  165.050;    0.000
366.832; 1536.750;  168.050;    0.000
366.893; 1514.750;  157.050;    0.000
366.955; 1547.750;  132.050;    0.000
367.016; 1522.750;  127.050;    0.000
367.078; 1547.750;  146.050;    0.000
367.139; 1523.750;  129.050;    0.000
367.201; 1518.750;  148.050;    0.000
367.262; 1530.750;  165.050;    0.000
367.324; 1544.750;  171.050;    0.000
367.385; 1532.750;  118.050;    0.000
367.447; 1566.750;  144.050;    0.000
367.508; 1522.750;  135.050;    0.000
367.570; 1572.750;  160.050;    0.000
367.631; 1497.750;  157.050;    0.000
367.693; 1545.750;  168.050;    0.000
367.754; 1550.750;  139.050;    0.000
367.816; 1560.750;  141.050;    0.000
367.877; 1517.750;  195.050;    0.000
367.939; 1613.750;  166.050;    0.000
368.000; 1599.750;  127.050;    0.000
368.062; 1548.750;  143.050;    0.000
368.123; 1639.750;  156.050;    0.000
368.184; 1581.750;  179.050;    0.000
368.246; 1553.750;  168.050;    0.000
368.307; 1514.750;  203.050;    0.000
368.369; 1531.750;  149.050;    0.000
368.430; 1532.750;  121.050;    0.000
368.491; 1517.750;  131.050;    0.000
368.553; 1589.750;  161.050;    0.000
368.614; 1560.750;  157.050;    0.000
368.675; 1466.750;  152.050;    0.000
368.737; 1559.750;  168.050;    0.000
368.798; 1617.750;  147.050;    0.000
368.859; 1603.750;  174.050;    0.000
368.921; 1601.750;  168.050;    0.000
368.982; 1614.750;  151.050;    0.000
369.043; 1598.750;  169.050;    0.000
369.104; 1587.750;  149.050;    0.000
369.166; 1560.750;  178.050;    0.000
369.227; 1569.750;  149.050;    0.000
369.288; 1586.750;  131.050;    0.000
369.349; 1646.750;  128.050;    0.000
369.411; 1584.750;  198.050;    0.000
369.472; 1643.750;  156.050;    0.000
369.533; 1547.750;  142.050;    0.000
369.594; 1588.750;  125.050;    0.000
369.656; 1528.750;  153.050;    0.000
369.717; 1595.750;  124.050;    0.000
369.778; 1528.750;  163.050;    0.000
369.839; 1590.750;  130.050;    0.000
369.900; 1663.750;  170.050;    0.000
369.961; 1533.750;  142.050;    0.000
370.023; 1694.750;  197.050;    0.000
370.084; 1631.750;  151.050;    0.000
370.145; 1572.750;  128.050;    0.000
370.206; 1692.750;  152.050;    0.000
370.267; 1579.750;  154.050;    0.000
370.328; 1666.750;  154.050;    0.000
370.389; 1596.750;  173.050;    0.000
370.451; 1667.750;  191.050;    0.000
370.512; 1623.750;  155.050;    0.000
370.573; 1690.750;  134.050;    0.000
370.634; 1620.750;  160.050;    0.000
370.695; 1615.750;  124.050;    0.000
370.756; 1636.750;  169.050;    0.000
370.817; 1644.750;  169.050;    0.000
370.878; 1688.750;  200.050;    0.000
370.939; 1593.750;  157.050;    0.000
371.000; 1618.750;  131.050;    0.000
371.061; 1621.750;  136.050;    0.000
371.122; 1645.750;  176.050;    0.000
371.183; 1615.750;   81.050;    0.000
371.244; 1657.750;  156.050;    0.000
371.305; 1684.750;  131.050;    0.000
371.366; 1701.750;  161.050;    0.000
371.427; 1665.750;  127.050;    0.000
371.488; 1676.750;  184.050;    0.000
371.549; 1667.750;  159.050;    0.000
371.610; 1673.750;  147.050;    0.000
371.671; 1667.750;  132.050;    0.000
371.732; 1657.750;  163.050;    0.000
371.793; 1629.750;  179.050;    0.000
371.853; 1620.750;  179.050;    0.000
371.914; 1655.750;  149.050;    0.000
371.975; 1646.750;  117.050;    0.000
372.036; 1657.750;  141.050;    0.000
372.097; 1643.750;  101.050;    0.000
372.158; 1657.750;  115.050;    0.000
372.219; 1658.750;  174.050;    0.000
372.280; 1688.750;  134.050;    0.000
372.340; 1635.750;  180.050;    0.000
372.401; 1680.750;  166.050;    0.000
372.462; 1733.750;  171.050;    0.000
372.523; 1728.750;  132.050;    0.000
372.584; 1665.750;  182.050;    0.000
372.645; 1704.750;  149.050;    0.000
372.705; 1739.750;  182.050;    0.000
372.766; 1725.750;  145.050;    0.000
372.827; 1709.750;  161.050;    0.000
372.888; 1671.750;  156.050;    0.000
372.948; 1697.750;  158.050;    0.000
373.009; 1710.750;  178.050;    0.000
373.070; 1639.750;  166.050;    0.000
373.131; 1681.750;  154.050;    0.000
373.191; 1830.750;  193.050;    0.000
373.252; 1695.750;  148.050;    0.000
373.313; 1686.750;  152.050;    0.000
373.373; 1664.750;  156.050;    0.000
373.434; 1797.750;  166.050;    0.000
373.495; 1726.750;  152.050;    0.000
373.555; 1674.750;  145.050;    0.000
373.616; 1730.750;  141.050;    0.000
373.677; 1683.750;  169.050;    0.000
373.737; 1751.750;  166.050;    0.000
373.798; 1724.750;  151.050;    0.000
373.859; 1658.750;  170.050;    0.000
373.919; 1780.750;  206.050;    0.000
373.980; 1692.750;  140.050;    0.000
374.041; 1678.750;  148.050;    0.000
374.101; 1737.750;  165.050;    0.000
374.162; 1720.750;  166.050;    0.000
374.222; 1677.750;  156.050;    0.000
374.283; 1765.750;  161.050;    0.000
374.343; 1770.750;  185.050;    0.000
374.404; 1789.750;  148.050;    0.000
374.465; 1729.750;  162.050;    0.000
374.525; 1745.750;  177.050;    0.000
374.586; 1809.750;  164.050;    0.000
374.646; 1814.750;  180.050;    0.000
374.707; 1883.750;  203.050;    0.000
374.767; 1779.750;  148.050;    0.000
374.828; 1781.750;  142.050;    0.000
374.888; 1831.750;  187.050;    0.000
374.949; 1814.750;  137.050;    0.000
375.009; 1764.750;  155.050;    0.000
375.070; 1820.750;  165.050;    0.000
375.130; 1823.750;  168.050;    0.000
375.190; 1860.750;  157.050;    0.000
375.251; 1806.750;  206.050;    0.000
375.311; 1805.750;  141.050;    0.000
375.372; 1785.750;  144.050;    0.000
375.432; 1772.750;  153.050;    0.000
375.493; 1841.750;  168.050;    0.000
375.553; 1798.750;  146.050;    0.000
375.613; 1785.750;  142.050;    0.000
375.674; 1835.750;  153.050;    0.000
375.734; 1793.750;  166.050;    0.000
375.794; 1817.750;  145.050;    0.000
375.855; 1846.750;  162.050;    0.000
375.915; 1797.750;  162.050;    0.000
375.975; 1774.750;  144.050;    0.000
376.036; 1735.750;  128.050;    0.000
376.096; 1843.750;  122.050;    0.000
376.156; 1766.750;  140.050;    0.000
376.217; 1781.750;  158.050;    0.000
376.277; 1820.750;  163.050;    0.000
376.337; 1800.750;  139.050;    0.000
376.398; 1774.750;  176.050;    0.000
376.458; 1756.750;  143.050;    0.000
376.518; 1753.750;  136.050;    0.000
376.578; 1827.750;  177.050;    0.000
376.639; 1747.750;  163.050;    0.000
376.699; 1808.750;  183.050;    0.000
376.759; 1863.750;  169.050;    0.000
376.819; 1821.750;  147.050;    0.000
376.880; 1794.750;  188.050;    0.000
376.940; 1740.750;  185.050;    0.000
377.000; 1775.750;  131.050;    0.000
377.060; 1854.750;  182.050;    0.000
377.120; 1817.750;  165.050;    0.000
377.180; 1856.750;  169.050;    0.000
377.241; 1889.750;  146.050;    0.000
377.301; 1902.750;  183.050;    0.000
377.361; 1828.750;  124.050;    0.000
377.421; 1863.750;  186.050;    0.000
377.481; 1845.750;  178.050;    0.000
377.541; 1847.750;  140.050;    0.000
377.601; 1806.750;  175.050;    0.000
377.661; 1919.750;  169.050;    0.000
377.722; 1894.750;  144.050;    0.000
377.782; 1813.750;  182.050;    0.000
377.842; 1876.750;  161.050;    0.000
377.902; 1820.750;  151.050;    0.000
377.962; 1814.750;  134.050;    0.000
378.022; 1872.750;  153.050;    0.000
378.082; 1897.750;  178.050;    0.000
378.142; 1799.750;  118.050;    0.000
378.202; 1871.750;  153.050;    0.000
378.262; 1906.750;  166.050;    0.000
378.322; 1923.750;  174.050;    0.000
378.382; 1845.750;  148.050;    0.000
378.442; 1892.750;  190.050;    0.000
378.502; 1918.750;  136.050;    0.000
378.562; 1910.750;  130.050;    0.000
378.622; 1962.750;  188.050;    0.000
378.682; 1945.750;  163.050;    0.000
378.742; 1979.750;  150.050;    0.000
378.802; 1846.750;  127.050;    0.000
378.862; 2018.750;  186.050;    0.000
378.921; 1904.750;  203.050;    0.000
378.981; 1983.750;  177.050;    0.000
379.041; 1932.750;  134.050;    0.000
379.101; 1986.750;  167.050;    0.000
379.161; 1906.750;  130.050;    0.000
379.221; 1935.750;  169.050;    0.000
379.281; 1970.750;  162.050;    0.000
379.341; 2049.750;  134.050;    0.000
379.401; 1928.750;  151.050;    0.000
379.460; 2004.750;  190.050;    0.000
379.520; 2010.750;  158.050;    0.000
379.580; 2066.750;  162.050;    0.000
379.640; 2045.750;  146.050;    0.000
379.700; 1999.750;  167.050;    0.000
379.759; 2131.750;  194.050;    0.000
379.819; 1992.750;  176.050;    0.000
379.879; 2006.750;  140.050;    0.000
379.939; 2019.750;  184.050;    0.000
379.999; 2050.750;  165.050;    0.000
380.058; 2060.750;  194.050;    0.000
380.118; 2117.750;  137.050;    0.000
380.178; 2086.750;  139.050;    0.000
380.237; 2106.750;  139.050;    0.000
380.297; 2092.750;  160.050;    0.000
380.357; 2147.750;  194.050;    0.000
380.417; 2143.750;  174.050;    0.000
380.476; 2112.750;  153.050;    0.000
380.536; 2102.750;  169.050;    0.000
380.596; 2137.750;  159.050;    0.000
380.655; 2186.750;  178.050;    0.000
380.715; 2150.750;  196.050;    0.000
380.775; 2131.750;  202.050;    0.000
380.834; 2118.750;  186.050;    0.000
380.894; 2183.750;  167.050;    0.000
380.954; 2080.750;  150.050;    0.000
381.013; 2276.750;  187.050;    0.000
381.073; 2088.750;  114.050;    0.000
381.132; 2240.750;  176.050;    0.000
381.192; 2268.750;  197.050;    0.000
381.252; 2273.750;  172.050;    0.000
381.311; 2195.750;  155.050;    0.000
381.371; 2239.750;  172.050;    0.000
381.430; 2175.750;  143.050;    0.000
381.490; 2189.750;  136.050;    0.000
381.549; 2223.750;  131.050;    0.000
381.609; 2248.750;  203.050;    0.000
381.668; 2292.750;  135.050;    0.000
381.728; 2300.750;  163.050;    0.000
381.787; 2317.750;  195.050;    0.000
381.847; 2364.750;  185.050;    0.000
381.906; 2323.750;  187.050;    0.000
381.966; 2375.750;  153.050;    0.000
382.025; 2361.750;  175.050;    0.000
382.085; 2439.750;  195.050;    0.000
382.144; 2461.750;  210.050;    0.000
382.204; 2528.750;  201.050;    0.000
382.263; 2522.750;  178.050;    0.000
382.323; 2519.750;  151.050;    0.000
382.382; 2606.750;  147.050;    0.000
382.441; 2533.750;  144.050;    0.000
382.501; 2673.750;  156.050;    0.000
382.560; 2716.750;  160.050;    0.000
382.619; 2738.750;  173.050;    0.000
382.679; 2846.750;  167.050;    0.000
382.738; 2915.750;  189.050;    0.000
382.798; 3063.750;  181.050;    0.000
382.857; 3421.750;  161.050;    0.000
382.916; 3590.750;  162.050;    0.000
382.976; 3648.750;  169.050;    0.000
383.035; 3562.750;  174.050;    0.000
383.094; 3632.750;  178.050;    0.000
383.154; 4213.750;  188.050;    0.000
383.213; 4670.750;  162.050;    0.000
383.272; 4375.750;  144.050;    0.000
383.331; 3648.750;  144.050;    0.000
383.391; 3553.750;  198.050;    0.000
383.450; 3451.750;  185.050;    0.000
383.509; 3452.750;  132.050;    0.000
383.568; 3564.750;  171.050;    0.000
383.628; 3711.750;  171.050;    0.000
383.687; 3971.750;  172.050;    0.000
383.746; 4494.750;  144.050;    0.000
383.805; 5255.750;  177.050;    0.000
383.864; 5227.750;  145.050;    0.000
383.924; 4170.750;  203.050;    0.000
383.983; 3490.750;  153.050;    0.000
384.042; 3206.750;  171.050;    0.000
384.101; 3000.750;  186.050;    0.000
384.160; 2830.750;  132.050;    0.000
384.219; 2812.750;  157.050;    0.000
384.279; 2686.750;  166.050;    0.000
384.338; 2662.750;  141.050;    0.000
384.397; 2699.750;  142.050;    0.000
384.456; 2588.750;  155.050;    0.000
384.515; 2629.750;  158.050;    0.000
384.574; 2558.750;  208.050;    0.000
384.633; 2472.750;  158.050;    0.000
384.692; 2474.750;  162.050;    0.000
384.751; 2533.750;  179.050;    0.000
384.810; 2521.750;  150.050;    0.000
384.869; 2472.750;  147.050;    0.000
384.929; 2461.750;  132.050;    0.000
384.988; 2498.750;  166.050;    0.000
385.047; 2459.750;  161.050;    0.000
385.106; 2437.750;  180.050;    0.000
385.165; 2353.750;  123.050;    0.000
385.224; 2453.750;  153.050;    0.000
385.283; 2424.750;  158.050;    0.000
385.342; 2400.750;  184.050;    0.000
385.401; 2479.750;  191.050;    0.000
385.459; 2369.750;  143.050;    0.000
385.518; 2395.750;  152.050;    0.000
385.577; 2431.750;  134.050;    0.000
385.636; 2477.750;  187.050;    0.000
385.695; 2422.750;  141.050;    0.000
385.754; 2391.750;  143.050;    0.000
385.813; 2470.750;  145.050;    0.000
385.872; 2516.750;  116.050;    0.000
385.931; 2417.750;  147.050;    0.000
385.990; 2362.750;  170.050;    0.000
386.049; 2490.750;  189.050;    0.000
386.107; 2364.750;  122.050;    0.000
386.166; 2427.750;  155.050;    0.000
386.225; 2489.750;  173.050;    0.000
386.284; 2394.750;  138.050;    0.000
386.343; 2430.750;  216.050;    0.000
386.402; 2345.750;  162.050;    0.000
386.460; 2414.750;  131.050;    0.000
386.519; 2391.750;  122.050;    0.000
386.578; 2380.750;  140.050;    0.000
386.637; 2424.750;  169.050;    0.000
386.696; 2455.750;  176.050;    0.000
386.754; 2392.750;  127.050;    0.000
386.813; 2410.750;  138.050;    0.000
386.872; 2357.750;  135.050;    0.000
386.931; 2441.750;  170.050;    0.000
386.989; 2348.750;  167.050;    0.000
387.048; 2477.750;  131.050;    0.000
387.107; 2462.750;  176.050;    0.000
387.165; 2383.750;  139.050;    0.000
387.224; 2371.750;  150.050;    0.000
387.283; 2397.750;  169.050;    0.000
387.342; 2363.750;  191.050;    0.000
387.400; 2356.750;  131.050;    0.000
387.459; 2368.750;  139.050;    0.000
387.517; 2434.750;  214.050;    0.000
387.576; 2323.750;  146.050;    0.000
387.635; 2268.750;  161.050;    0.000
387.693; 2377.750;  197.050;    0.000
387.752; 2369.750;  159.050;    0.000
387.811; 2416.750;  144.050;    0.000
387.869; 2368.750;  172.050;    0.000
387.928; 2395.750;  160.050;    0.000
387.986; 2349.750;  192.050;    0.000
388.045; 2401.750;  121.050;    0.000
388.103; 2327.750;  129.050;    0.000
388.162; 2299.750;  169.050;    0.000
388.221; 2420.750;  171.050;    0.000
388.279; 2383.750;  135.050;    0.000
388.338; 2329.750;  222.050;    0.000
388.396; 2274.750;  168.050;    0.000
388.455; 2382.750;  178.050;    0.000
388.513; 2355.750;  151.050;    0.000
388.572; 2366.750;  147.050;    0.000
388.630; 2317.750;  158.050;    0.000
388.689; 2358.750;  163.050;    0.000
388.747; 2356.750;  180.050;    0.000
388.806; 2340.750;  119.050;    0.000
388.864; 2386.750;  159.050;    0.000
388.922; 2425.750;  152.050;    0.000
388.981; 2390.750;  125.050;    0.000
389.039; 2335.750;  151.050;    0.000
389.098; 2445.750;  151.050;    0.000
389.156; 2384.750;  175.050;    0.000
389.214; 2407.750;  133.050;    0.000
389.273; 2392.750;  142.050;    0.000
389.331; 2352.750;  179.050;    0.000
389.390; 2349.750;  179.050;    0.000
389.448; 2379.750;  159.050;    0.000
389.506; 2364.750;  140.050;    0.000
389.565; 2385.750;  160.050;    0.000
389.623; 2391.750;  181.050;    0.000
389.681; 2391.750;  181.050;    0.000
389.740; 2332.750;  187.050;    0.000
389.798; 2431.750;  163.050;    0.000
389.856; 2389.750;  185.050;    0.000
389.914; 2362.750;  170.050;    0.000
389.973; 2312.750;  150.050;    0.000
390.031; 2379.750;  149.050;    0.000
390.089; 2356.750;  191.050;    0.000
390.147; 2413.750;  126.050;    0.000
390.206; 2372.750;  174.050;    0.000
390.264; 2367.750;  164.050;    0.000
390.322; 2340.750;  150.050;    0.000
390.380; 2401.750;  137.050;    0.000
390.439; 2291.750;  176.050;    0.000
390.497; 2417.750;  188.050;    0.000
390.555; 2352.750;  143.050;    0.000
390.613; 2345.750;  174.050;    0.000
390.671; 2363.750;  208.050;    0.000
390.729; 2290.750;  135.050;    0.000
390.788; 2345.750;  169.050;    0.000
390.846; 2289.750;  173.050;    0.000
390.904; 2369.750;  176.050;    0.000
390.962; 2390.750;  179.050;    0.000
391.020; 2392.750;  201.050;    0.000
391.078; 2377.750;  192.050;    0.000
391.136; 2455.750;  170.050;    0.000
391.194; 2379.750;  163.050;    0.000
391.253; 2434.750;  203.050;    0.000
391.311; 2367.750;  170.050;    0.000
391.369; 2399.750;  191.050;    0.000
391.427; 2500.750;  226.050;    0.000
391.485; 2406.750;  181.050;    0.000
391.543; 2486.750;  177.050;    0.000
391.601; 2452.750;  150.050;    0.000
391.659; 2424.750;  201.050;    0.000
391.717; 2465.750;  166.050;    0.000
391.775; 2428.750;  200.050;    0.000
391.833; 2480.750;  180.050;    0.000
391.891; 2491.750;  172.050;    0.000
391.949; 2499.750;  174.050;    0.000
392.007; 2523.750;  194.050;    0.000
392.065; 2501.750;  161.050;    0.000
392.123; 2519.750;  159.050;    0.000
392.180; 2482.750;  193.050;    0.000
392.238; 2462.750;  188.050;    0.000
392.296; 2480.750;  206.050;    0.000
392.354; 2465.750;  170.050;    0.000
392.412; 2444.750;  207.050;    0.000
392.470; 2506.750;  168.050;    0.000
392.528; 2578.750;  185.050;    0.000
392.586; 2481.750;  154.050;    0.000
392.644; 2473.750;  190.050;    0.000
392.701; 2463.750;  195.050;    0.000
392.759; 2460.750;  229.050;    0.000
392.817; 2460.750;  176.050;    0.000
392.875; 2477.750;  198.050;    0.000
392.933; 2583.750;  174.050;    0.000
392.991; 2562.750;  237.050;    0.000
393.048; 2461.750;  212.050;    0.000
393.106; 2581.750;  191.050;    0.000
393.164; 2555.750;  136.050;    0.000
393.222; 2550.750;  164.050;    0.000
393.279; 2562.750;  208.050;    0.000
393.337; 2659.750;  203.050;    0.000
393.395; 2601.750;  191.050;    0.000
393.453; 2512.750;  153.050;    0.000
393.510; 2522.750;  171.050;    0.000
393.568; 2642.750;  203.050;    0.000
393.626; 2606.750;  169.050;    0.000
393.684; 2531.750;  201.050;    0.000
393.741; 2483.750;  172.050;    0.000
393.799; 2586.750;  149.050;    0.000
393.857; 2512.750;  151.050;    0.000
393.914; 2610.750;  192.050;    0.000
393.972; 2544.750;  176.050;    0.000
394.030; 2536.750;  165.050;    0.000
394.087; 2612.750;  192.050;    0.000
394.145; 2539.750;  183.050;    0.000
394.202; 2530.750;  161.050;    0.000
394.260; 2563.750;  135.050;    0.000
394.318; 2541.750;  188.050;    0.000
394.375; 2523.750;  163.050;    0.000
394.433; 2620.750;  151.050;    0.000
394.490; 2594.750;  190.050;    0.000
394.548; 2582.750;  157.050;    0.000
394.605; 2653.750;  205.050;    0.000
394.663; 2602.750;  173.050;    0.000
394.720; 2631.750;  171.050;    0.000
394.778; 2576.750;  190.050;    0.000
394.836; 2602.750;  134.050;    0.000
394.893; 2595.750;  142.050;    0.000
394.951; 2620.750;  192.050;    0.000
395.008; 2648.750;  149.050;    0.000
395.065; 2609.750;  194.050;    0.000
395.123; 2658.750;  160.050;    0.000
395.180; 2604.750;  178.050;    0.000
395.238; 2683.750;  191.050;    0.000
395.295; 2653.750;  160.050;    0.000
395.353; 2719.750;  162.050;    0.000
395.410; 2686.750;  165.050;    0.000
395.468; 2699.750;  190.050;    0.000
395.525; 2614.750;  173.050;    0.000
395.582; 2643.750;  161.050;    0.000
395.640; 2792.750;  200.050;    0.000
395.697; 2710.750;  198.050;    0.000
395.754; 2650.750;  136.050;    0.000
395.812; 2696.750;  172.050;    0.000
395.869; 2708.750;  172.050;    0.000
395.927; 2725.750;  145.050;    0.000
395.984; 2744.750;  220.050;    0.000
396.041; 2692.750;  137.050;    0.000
396.098; 2661.750;  161.050;    0.000
396.156; 2741.750;  159.050;    0.000
396.213; 2673.750;  200.050;    0.000
396.270; 2807.750;  209.050;    0.000
396.328; 2779.750;  162.050;    0.000
396.385; 2735.750;  186.050;    0.000
396.442; 2701.750;  177.050;    0.000
396.499; 2743.750;  183.050;    0.000
396.557; 2750.750;  182.050;    0.000
396.614; 2742.750;  186.050;    0.000
396.671; 2660.750;  144.050;    0.000
396.728; 2779.750;  176.050;    0.000
396.785; 2760.750;  169.050;    0.000
396.843; 2812.750;  134.050;    0.000
396.900; 2854.750;  184.050;    0.000
396.957; 2725.750;  197.050;    0.000
397.014; 2844.750;  187.050;    0.000
397.071; 2773.750;  186.050;    0.000
397.128; 2763.750;  200.050;    0.000
397.186; 2746.750;  175.050;    0.000
397.243; 2797.750;  154.050;    0.000
397.300; 2725.750;  191.050;    0.000
397.357; 2853.750;  238.050;    0.000
397.414; 2844.750;  161.050;    0.000
397.471; 2844.750;  135.050;    0.000
397.528; 2771.750;  158.050;    0.000
397.585; 2843.750;  159.050;    0.000
397.642; 2855.750;  180.050;    0.000
397.699; 2927.750;  170.050;    0.000
397.756; 2805.750;  175.050;    0.000
397.814; 2728.750;  182.050;    0.000
397.871; 2806.750;  173.050;    0.000
397.928; 2866.750;  173.050;    0.000
397.985; 2892.750;  176.050;    0.000
398.042; 2843.750;  189.050;    0.000
398.099; 2865.750;  160.050;    0.000
398.156; 2856.750;  218.050;    0.000
398.212; 2972.750;  194.050;    0.000
398.269; 2901.750;  199.050;    0.000
398.326; 2950.750;  188.050;    0.000
398.383; 3011.750;  187.050;    0.000
398.440; 2915.750;  174.050;    0.000
398.497; 2937.750;  214.050;    0.000
398.554; 3023.750;  181.050;    0.000
398.611; 2954.750;  195.050;    0.000
398.668; 2956.750;  145.050;    0.000
398.725; 3032.750;  178.050;    0.000
398.782; 3011.750;  210.050;    0.000
398.839; 2962.750;  216.050;    0.000
398.895; 2966.750;  189.050;    0.000
398.952; 3037.750;  206.050;    0.000
399.009; 3135.750;  142.050;    0.000
399.066; 3150.750;  192.050;    0.000
399.123; 3012.750;  181.050;    0.000
399.180; 3142.750;  200.050;    0.000
399.236; 3169.750;  156.050;    0.000
399.293; 3272.750;  194.050;    0.000
399.350; 3230.750;  167.050;    0.000
399.407; 3313.750;  192.050;    0.000
399.463; 3366.750;  161.050;    0.000
399.520; 3341.750;  149.050;    0.000
399.577; 3383.750;  156.050;    0.000
399.634; 3398.750;  195.050;    0.000
399.690; 3415.750;  163.050;    0.000
399.747; 3454.750;  192.050;    0.000
399.804; 3509.750;  212.050;    0.000
399.861; 3384.750;  203.050;    0.000
399.917; 3352.750;  221.050;    0.000
399.974; 3374.750;  221.050;    0.000
400.031; 3388.750;  195.050;    0.000
400.087; 3239.750;  159.050;    0.000
400.144; 3347.750;  201.050;    0.000
400.201; 3347.750;  206.050;    0.000
400.257; 3264.750;  168.050;    0.000
400.314; 3185.750;  183.050;    0.000
400.370; 3284.750;  209.050;    0.000
400.427; 3248.750;  192.050;    0.000
400.484; 3254.750;  150.050;    0.000
400.540; 3201.750;  213.050;    0.000
400.597; 3217.750;  161.050;    0.000
400.653; 3253.750;  170.050;    0.000
400.710; 3283.750;  173.050;    0.000
400.766; 3206.750;  204.050;    0.000
400.823; 3187.750;  194.050;    0.000
400.879; 3133.750;  188.050;    0.000
400.936; 3195.750;  172.050;    0.000
400.993; 3232.750;  154.050;    0.000
401.049; 3158.750;  157.050;    0.000
401.105; 3126.750;  214.050;    0.000
401.162; 3271.750;  195.050;    0.000
401.218; 3086.750;  195.050;    0.000
401.275; 3109.750;  182.050;    0.000
401.331; 3106.750;  188.050;    0.000
401.388; 3172.750;  194.050;    0.000
401.444; 3130.750;  175.050;    0.000
401.501; 3130.750;  169.050;    0.000
401.557; 3119.750;  176.050;    0.000
401.614; 3082.750;  153.050;    0.000
401.670; 3169.750;  178.050;    0.000
401.726; 3146.750;  179.050;    0.000
401.783; 3112.750;  198.050;    0.000
401.839; 3180.750;  179.050;    0.000
401.895; 3258.750;  154.050;    0.000
401.952; 3207.750;  138.050;    0.000
402.008; 3182.750;  135.050;    0.000
402.064; 3239.750;  154.050;    0.000
402.121; 3227.750;  199.050;    0.000
402.177; 3160.750;  126.050;    0.000
402.233; 3158.750;  190.050;    0.000
402.290; 3186.750;  175.050;    0.000
402.346; 3124.750;  200.050;    0.000
402.402; 3162.750;  191.050;    0.000
402.458; 3229.750;  172.050;    0.000
402.515; 3106.750;  186.050;    0.000
402.571; 3212.750;  189.050;    0.000
402.627; 3251.750;  151.050;    0.000
402.683; 3166.750;  187.050;    0.000
402.740; 3073.750;  147.050;    0.000
402.796; 3158.750;  176.050;    0.000
402.852; 3217.750;  200.050;    0.000
402.908; 3302.750;  201.050;    0.000
402.964; 3268.750;  153.050;    0.000
403.021; 3247.750;  165.050;    0.000
403.077; 3176.750;  195.050;    0.000
403.133; 3173.750;  139.050;    0.000
403.189; 3242.750;  166.050;    0.000
403.245; 3327.750;  194.050;    0.000
403.301; 3420.750;  210.050;    0.000
403.357; 3385.750;  187.050;    0.000
403.414; 3315.750;  195.050;    0.000
403.470; 3412.750;  150.050;    0.000
403.526; 3336.750;  158.050;    0.000
403.582; 3385.750;  184.050;    0.000
403.638; 3321.750;  171.050;    0.000
403.694; 3426.750;  197.050;    0.000
403.750; 3343.750;  196.050;    0.000
403.806; 3347.750;  192.050;    0.000
403.862; 3259.750;  169.050;    0.000
403.918; 3329.750;  199.050;    0.000
403.974; 3376.750;  156.050;    0.000
404.030; 3368.750;  193.050;    0.000
404.086; 3286.750;  161.050;    0.000
404.142; 3310.750;  172.050;    0.000
404.198; 3359.750;  195.050;    0.000
404.254; 3435.750;  167.050;    0.000
404.310; 3371.750;  156.050;    0.000
404.366; 3376.750;  144.050;    0.000
404.422; 3360.750;  161.050;    0.000
404.478; 3350.750;  179.050;    0.000
404.534; 3436.750;  163.050;    0.000
404.590; 3314.750;  183.050;    0.000
404.646; 3321.750;  155.050;    0.000
404.701; 3369.750;  142.050;    0.000
404.757; 3400.750;  175.050;    0.000
404.813; 3355.750;  153.050;    0.000
404.869; 3436.750;  199.050;    0.000
404.925; 3371.750;  153.050;    0.000
404.981; 3463.750;  174.050;    0.000
405.037; 3391.750;  185.050;    0.000
405.092; 3384.750;  166.050;    0.000
405.148; 3403.750;  161.050;    0.000
405.204; 3390.750;  170.050;    0.000
405.260; 3402.750;  154.050;    0.000
405.316; 3386.750;  128.050;    0.000
405.371; 3331.750;  142.050;    0.000
405.427; 3434.750;  196.050;    0.000
405.483; 3424.750;  172.050;    0.000
405.539; 3392.750;  182.050;    0.000
405.594; 3410.750;  153.050;    0.000
405.650; 3434.750;  124.050;    0.000
405.706; 3456.750;  189.050;    0.000
405.761; 3469.750;  165.050;    0.000
405.817; 3455.750;  152.050;    0.000
405.873; 3474.750;  174.050;    0.000
405.928; 3376.750;  167.050;    0.000
405.984; 3571.750;  210.050;    0.000
406.040; 3331.750;  160.050;    0.000
406.095; 3428.750;  163.050;    0.000
406.151; 3478.750;  208.050;    0.000
406.207; 3473.750;  177.050;    0.000
406.262; 3434.750;  176.050;    0.000
406.318; 3450.750;  157.050;    0.000
406.374; 3497.750;  141.050;    0.000
406.429; 3492.750;  189.050;    0.000
406.485; 3559.750;  190.050;    0.000
406.540; 3524.750;  155.050;    0.000
406.596; 3548.750;  182.050;    0.000
406.651; 3529.750;  200.050;    0.000
406.707; 3531.750;  130.050;    0.000
406.763; 3662.750;  174.050;    0.000
406.818; 3589.750;  151.050;    0.000
406.874; 3619.750;  122.050;    0.000
406.929; 3781.750;  153.050;    0.000
406.985; 3642.750;  198.050;    0.000
407.040; 3708.750;  174.050;    0.000
407.095; 3771.750;  161.050;    0.000
407.151; 3768.750;  184.050;    0.000
407.206; 3793.750;  188.050;    0.000
407.262; 3732.750;  180.050;    0.000
407.317; 3877.750;  186.050;    0.000
407.373; 3884.750;  200.050;    0.000
407.428; 3895.750;  211.050;    0.000
407.484; 3899.750;  193.050;    0.000
407.539; 3845.750;  167.050;    0.000
407.594; 3917.750;  178.050;    0.000
407.650; 3875.750;  171.050;    0.000
407.705; 3844.750;  153.050;    0.000
407.760; 3904.750;  196.050;    0.000
407.816; 3969.750;  205.050;    0.000
407.871; 3979.750;  232.050;    0.000
407.926; 3946.750;  215.050;    0.000
407.982; 3859.750;  154.050;    0.000
408.037; 3921.750;  217.050;    0.000
408.092; 3781.750;  190.050;    0.000
408.148; 3806.750;  181.050;    0.000
408.203; 3710.750;  203.050;    0.000
408.258; 3822.750;  154.050;    0.000
408.314; 3855.750;  198.050;    0.000
408.369; 3759.750;  156.050;    0.000
408.424; 3724.750;  216.050;    0.000
408.479; 3770.750;  191.050;    0.000
408.534; 3776.750;  200.050;    0.000
408.590; 3816.750;  182.050;    0.000
408.645; 3726.750;  141.050;    0.000
408.700; 3751.750;  209.050;    0.000
408.755; 3672.750;  205.050;    0.000
408.810; 3755.750;  171.050;    0.000
408.866; 3713.750;  200.050;    0.000
408.921; 3804.750;  188.050;    0.000
408.976; 3700.750;  156.050;    0.000
409.031; 3751.750;  164.050;    0.000
409.086; 3730.750;  155.050;    0.000
409.141; 3751.750;  205.050;    0.000
409.196; 3779.750;  173.050;    0.000
409.252; 3783.750;  179.050;    0.000
409.307; 3666.750;  131.050;    0.000
409.362; 3664.750;  173.050;    0.000
409.417; 3690.750;  120.050;    0.000
409.472; 3758.750;  198.050;    0.000
409.527; 3880.750;  153.050;    0.000
409.582; 3816.750;  177.050;    0.000
409.637; 3683.750;  184.050;    0.000
409.692; 3724.750;  203.050;    0.000
409.747; 3650.750;  158.050;    0.000
409.802; 3713.750;  212.050;    0.000
409.857; 3721.750;  192.050;    0.000
409.912; 3782.750;  179.050;    0.000
409.967; 3689.750;  177.050;    0.000
410.022; 3688.750;  204.050;    0.000
410.077; 3767.750;  175.050;    0.000
410.132; 3657.750;  207.050;    0.000
410.187; 3674.750;  169.050;    0.000
410.242; 3735.750;  186.050;    0.000
410.297; 3659.750;  185.050;    0.000
410.351; 3698.750;  191.050;    0.000
410.406; 3737.750;  215.050;    0.000
410.461; 3708.750;  190.050;    0.000
410.516; 3696.750;  172.050;    0.000
410.571; 3618.750;  190.050;    0.000
410.626; 3744.750;  189.050;    0.000
410.681; 3769.750;  191.050;    0.000
410.736; 3725.750;  166.050;    0.000
410.790; 3635.750;  179.050;    0.000
410.845; 3836.750;  196.050;    0.000
410.900; 3721.750;  168.050;    0.000
410.955; 3671.750;  173.050;    0.000
411.010; 3671.750;  162.050;    0.000
411.064; 3692.750;  205.050;    0.000
411.119; 3797.750;  203.050;    0.000
411.174; 3593.750;  207.050;    0.000
411.229; 3668.750;  218.050;    0.000
411.283; 3780.750;  218.050;    0.000
411.338; 3681.750;  180.050;    0.000
411.393; 3687.750;  191.050;    0.000
411.447; 3745.750;  207.050;    0.000
411.502; 3759.750;  204.050;    0.000
411.557; 3701.750;  208.050;    0.000
411.612; 3767.750;  191.050;    0.000
411.666; 3738.750;  233.050;    0.000
411.721; 3615.750;  193.050;    0.000
411.776; 3766.750;  195.050;    0.000
411.830; 3713.750;  229.050;    0.000
411.885; 3716.750;  181.050;    0.000
411.939; 3770.750;  214.050;    0.000
411.994; 3702.750;  140.050;    0.000
412.049; 3752.750;  205.050;    0.000
412.103; 3773.750;  232.050;    0.000
412.158; 3817.750;  228.050;    0.000
412.212; 3798.750;  204.050;    0.000
412.267; 3708.750;  203.050;    0.000
412.322; 3883.750;  212.050;    0.000
412.376; 3843.750;  195.050;    0.000
412.431; 3785.750;  197.050;    0.000
412.485; 3740.750;  235.050;    0.000
412.540; 3709.750;  197.050;    0.000
412.594; 3814.750;  199.050;    0.000
412.649; 3836.750;  195.050;    0.000
412.703; 3831.750;  214.050;    0.000
412.758; 3743.750;  213.050;    0.000
412.812; 3743.750;  154.050;    0.000
412.866; 3780.750;  159.050;    0.000
412.921; 3703.750;  207.050;    0.000
412.975; 3732.750;  194.050;    0.000
413.030; 3646.750;  214.050;    0.000
413.084; 3630.750;  174.050;    0.000
413.139; 3813.750;  211.050;    0.000
413.193; 3618.750;  223.050;    0.000
413.247; 3833.750;  198.050;    0.000
413.302; 3630.750;  184.050;    0.000
413.356; 3646.750;  194.050;    0.000
413.410; 3723.750;  219.050;    0.000
413.465; 3700.750;  209.050;    0.000
413.519; 3683.750;  178.050;    0.000
413.573; 3692.750;  189.050;    0.000
413.628; 3676.750;  184.050;    0.000
413.682; 3586.750;  189.050;    0.000
413.736; 3623.750;  196.050;    0.000
413.791; 3822.750;  208.050;    0.000
413.845; 3677.750;  206.050;    0.000
413.899; 3699.750;  193.050;    0.000
413.953; 3728.750;  176.050;    0.000
414.008; 3650.750;  163.050;    0.000
414.062; 3762.750;  195.050;    0.000
414.116; 3761.750;  176.050;    0.000
414.170; 3730.750;  218.050;    0.000
414.225; 3679.750;  183.050;    0.000
414.279; 3776.750;  191.050;    0.000
414.333; 3836.750;  215.050;    0.000
414.387; 3733.750;  187.050;    0.000
414.441; 3798.750;  182.050;    0.000
414.496; 3754.750;  205.050;    0.000
414.550; 3725.750;  203.050;    0.000
414.604; 3779.750;  223.050;    0.000
414.658; 3739.750;  159.050;    0.000
414.712; 3752.750;  194.050;    0.000
414.766; 3742.750;  232.050;    0.000
414.820; 3725.750;  235.050;    0.000
414.874; 3712.750;  169.050;    0.000
414.928; 3714.750;  207.050;    0.000
414.982; 3759.750;  174.050;    0.000
415.037; 3730.750;  173.050;    0.000
415.091; 3649.750;  219.050;    0.000
415.145; 3755.750;  174.050;    0.000
415.199; 3670.750;  207.050;    0.000
415.253; 3800.750;  228.050;    0.000
415.307; 3752.750;  182.050;    0.000
415.361; 3841.750;  219.050;    0.000
415.415; 3756.750;  218.050;    0.000
415.469; 3824.750;  233.050;    0.000
415.523; 3739.750;  203.050;    0.000
415.577; 3727.750;  186.050;    0.000
415.631; 3779.750;  215.050;    0.000
415.684; 3727.750;  212.050;    0.000
415.738; 3665.750;  206.050;    0.000
415.792; 3620.750;  219.050;    0.000
415.846; 3708.750;  208.050;    0.000
415.900; 3832.750;  203.050;    0.000
415.954; 3788.750;  237.050;    0.000
416.008; 3767.750;  242.050;    0.000
416.062; 3725.750;  197.050;    0.000
416.116; 3677.750;  189.050;    0.000
416.169; 3695.750;  199.050;    0.000
416.223; 3703.750;  230.050;    0.000
416.277; 3622.750;  226.050;    0.000
416.331; 3753.750;  254.050;    0.000
416.385; 3725.750;  204.050;    0.000
416.439; 3696.750;  201.050;    0.000
416.492; 3782.750;  238.050;    0.000
416.546; 3770.750;  234.050;    0.000
416.600; 3681.750;  244.050;    0.000
416.654; 3741.750;  233.050;    0.000
416.707; 3679.750;  214.050;    0.000
416.761; 3750.750;  214.050;    0.000
416.815; 3794.750;  192.050;    0.000
416.869; 3665.750;  225.050;    0.000
416.922; 3739.750;  214.050;    0.000
416.976; 3614.750;  206.050;    0.000
417.030; 3802.750;  226.050;    0.000
417.083; 3620.750;  207.050;    0.000
417.137; 3773.750;  236.050;    0.000
417.191; 3726.750;  208.050;    0.000
417.244; 3760.750;  260.050;    0.000
417.298; 3596.750;  222.050;    0.000
417.352; 3701.750;  191.050;    0.000
417.405; 3615.750;  229.050;    0.000
417.459; 3774.750;  249.050;    0.000
417.512; 3755.750;  259.050;    0.000
417.566; 3751.750;  220.050;    0.000
417.620; 3695.750;  229.050;    0.000
417.673; 3606.750;  190.050;    0.000
417.727; 3658.750;  204.050;    0.000
417.780; 3704.750;  223.050;    0.000
417.834; 3702.750;  213.050;    0.000
417.887; 3756.750;  238.050;    0.000
417.941; 3750.750;  244.050;    0.000
417.994; 3646.750;  247.050;    0.000
418.048; 3623.750;  225.050;    0.000
418.101; 3604.750;  210.050;    0.000
418.155; 3673.750;  224.050;    0.000
418.208; 3710.750;  229.050;    0.000
418.262; 3730.750;  255.050;    0.000
418.315; 3598.750;  248.050;    0.000
418.369; 3717.750;  212.050;    0.000
418.422; 3705.750;  241.050;    0.000
418.476; 3732.750;  220.050;    0.000
418.529; 3678.750;  257.050;    0.000
418.582; 3686.750;  203.050;    0.000
418.636; 3647.750;  221.050;    0.000
418.689; 3631.750;  202.050;    0.000
418.743; 3761.750;  227.050;    0.000
418.796; 3680.750;  226.050;    0.000
418.849; 3744.750;  199.050;    0.000
418.903; 3788.750;  234.050;    0.000
418.956; 3742.750;  236.050;    0.000
419.009; 3689.750;  305.050;    0.000
419.063; 3699.750;  216.050;    0.000
419.116; 3783.750;  245.050;    0.000
419.169; 3745.750;  208.050;    0.000
419.222; 3730.750;  233.050;    0.000
419.276; 3643.750;  244.050;    0.000
419.329; 3702.750;  197.050;    0.000
419.382; 3704.750;  222.050;    0.000
419.435; 3671.750;  199.050;    0.000
419.489; 3674.750;  226.050;    0.000
419.542; 3622.750;  223.050;    0.000
419.595; 3614.750;  204.050;    0.000
419.648; 3747.750;  234.050;    0.000
419.701; 3590.750;  211.050;    0.000
419.755; 3586.750;  184.050;    0.000
419.808; 3534.750;  223.050;    0.000
419.861; 3620.750;  197.050;    0.000
419.914; 3682.750;  258.050;    0.000
419.967; 3566.750;  205.050;    0.000
420.020; 3570.750;  195.050;    0.000
420.073; 3624.750;  191.050;    0.000
420.127; 3663.750;  256.050;    0.000
420.180; 3544.750;  232.050;    0.000
420.233; 3458.750;  200.050;    0.000
420.286; 3556.750;  207.050;    0.000
420.339; 3597.750;  223.050;    0.000
420.392; 3572.750;  243.050;    0.000
420.445; 3449.750;  195.050;    0.000
420.498; 3566.750;  239.050;    0.000
420.551; 3443.750;  201.050;    0.000
420.604; 3545.750;  245.050;    0.000
420.657; 3513.750;  221.050;    0.000
420.710; 3599.750;  223.050;    0.000
420.763; 3524.750;  241.050;    0.000
420.816; 3512.750;  198.050;    0.000
420.869; 3597.750;  210.050;    0.000
420.922; 3489.750;  206.050;    0.000
420.975; 3516.750;  239.050;    0.000
421.028; 3559.750;  248.050;    0.000
421.081; 3425.750;  236.050;    0.000
421.134; 3489.750;  208.050;    0.000
421.187; 3507.750;  216.050;    0.000
421.239; 3619.750;  199.050;    0.000
421.292; 3464.750;  255.050;    0.000
421.345; 3415.750;  241.050;    0.000
421.398; 3487.750;  221.050;    0.000
421.451; 3486.750;  237.050;    0.000
421.504; 3412.750;  225.050;    0.000
421.557; 3475.750;  213.050;    0.000
421.609; 3480.750;  178.050;    0.000
421.662; 3442.750;  206.050;    0.000
421.715; 3426.750;  212.050;    0.000
421.768; 3481.750;  236.050;    0.000
421.821; 3426.750;  228.050;    0.000
421.873; 3465.750;  200.050;    0.000
421.926; 3436.750;  226.050;    0.000
421.979; 3484.750;  221.050;    0.000
422.032; 3459.750;  219.050;    0.000
422.084; 3488.750;  253.050;    0.000
422.137; 3385.750;  195.050;    0.000
422.190; 3463.750;  192.050;    0.000
422.243; 3369.750;  236.050;    0.000
422.295; 3404.750;  205.050;    0.000
422.348; 3433.750;  198.050;    0.000
422.401; 3439.750;  245.050;    0.000
422.453; 3492.750;  241.050;    0.000
422.506; 3453.750;  255.050;    0.000
422.559; 3373.750;  188.050;    0.000
422.611; 3395.750;  236.050;    0.000
422.664; 3366.750;  218.050;    0.000
422.716; 3337.750;  210.050;    0.000
422.769; 3295.750;  209.050;    0.000
422.822; 3315.750;  213.050;    0.000
422.874; 3472.750;  227.050;    0.000
422.927; 3472.750;  272.050;    0.000
422.979; 3321.750;  204.050;    0.000
423.032; 3386.750;  210.050;    0.000
423.084; 3396.750;  236.050;    0.000
423.137; 3347.750;  223.050;    0.000
423.189; 3339.750;  253.050;    0.000
423.242; 3405.750;  185.050;    0.000
423.294; 3400.750;  232.050;    0.000
423.347; 3345.750;  213.050;    0.000
423.399; 3412.750;  227.050;    0.000
423.452; 3408.750;  236.050;    0.000
423.504; 3339.750;  232.050;    0.000
423.557; 3231.750;  195.050;    0.000
423.609; 3301.750;  238.050;    0.000
423.662; 3405.750;  207.050;    0.000
423.714; 3351.750;  231.050;    0.000
423.766; 3314.750;  211.050;    0.000
423.819; 3294.750;  207.050;    0.000
423.871; 3229.750;  228.050;    0.000
423.923; 3357.750;  223.050;    0.000
423.976; 3264.750;  217.050;    0.000
424.028; 3380.750;  231.050;    0.000
424.081; 3386.750;  219.050;    0.000
424.133; 3263.750;  255.050;    0.000
424.185; 3303.750;  199.050;    0.000
424.238; 3325.750;  238.050;    0.000
424.290; 3327.750;  209.050;    0.000
424.342; 3328.750;  213.050;    0.000
424.394; 3400.750;  215.050;    0.000
424.447; 3370.750;  265.050;    0.000
424.499; 3319.750;  238.050;    0.000
424.551; 3396.750;  256.050;    0.000
424.603; 3405.750;  222.050;    0.000
424.656; 3299.750;  227.050;    0.000
424.708; 3338.750;  250.050;    0.000
424.760; 3260.750;  228.050;    0.000
424.812; 3227.750;  249.050;    0.000
424.864; 3293.750;  222.050;    0.000
424.917; 3274.750;  235.050;    0.000
424.969; 3290.750;  266.050;    0.000
425.021; 3263.750;  233.050;    0.000
425.073; 3334.750;  194.050;    0.000
425.125; 3307.750;  256.050;    0.000
425.177; 3296.750;  225.050;    0.000
425.229; 3314.750;  242.050;    0.000
425.282; 3270.750;  236.050;    0.000
425.334; 3266.750;  250.050;    0.000
425.386; 3318.750;  231.050;    0.000
425.438; 3161.750;  216.050;    0.000
425.490; 3238.750;  240.050;    0.000
425.542; 3280.750;  231.050;    0.000
425.594; 3168.750;  206.050;    0.000
425.646; 3210.750;  201.050;    0.000
425.698; 3229.750;  193.050;    0.000
425.750; 3218.750;  241.050;    0.000
425.802; 3141.750;  199.050;    0.000
425.854; 3231.750;  216.050;    0.000
425.906; 3192.750;  220.050;    0.000
425.958; 3213.750;  200.050;    0.000
426.010; 3158.750;  214.050;    0.000
426.062; 3167.750;  245.050;    0.000
426.114; 3172.750;  241.050;    0.000
426.166; 3159.750;  241.050;    0.000
426.218; 3205.750;  255.050;    0.000
426.270; 3176.750;  228.050;    0.000
426.321; 3190.750;  222.050;    0.000
426.373; 3153.750;  218.050;    0.000
426.425; 3200.750;  258.050;    0.000
426.477; 3227.750;  225.050;    0.000
426.529; 3137.750;  223.050;    0.000
426.581; 3114.750;  198.050;    0.000
426.633; 3109.750;  228.050;    0.000
426.684; 3207.750;  210.050;    0.000
426.736; 3176.750;  208.050;    0.000
426.788; 3173.750;  231.050;    0.000
426.840; 3032.750;  212.050;    0.000
426.892; 3123.750;  221.050;    0.000
426.943; 3158.750;  240.050;    0.000
426.995; 3171.750;  243.050;    0.000
427.047; 3059.750;  231.050;    0.000
427.099; 3093.750;  189.050;    0.000
427.150; 3024.750;  212.050;    0.000
427.202; 3070.750;  219.050;    0.000
427.254; 3096.750;  203.050;    0.000
427.306; 3052.750;  217.050;    0.000
427.357; 3087.750;  232.050;    0.000
427.409; 3137.750;  251.050;    0.000
427.461; 3052.750;  185.050;    0.000
427.512; 3037.750;  239.050;    0.000
427.564; 3093.750;  208.050;    0.000
427.616; 3080.750;  233.050;    0.000
427.667; 3045.750;  223.050;    0.000
427.719; 2971.750;  206.050;    0.000
427.770; 3039.750;  195.050;    0.000
427.822; 3055.750;  223.050;    0.000
427.874; 3027.750;  232.050;    0.000
427.925; 3069.750;  209.050;    0.000
427.977; 3054.750;  208.050;    0.000
428.028; 2962.750;  187.050;    0.000
428.080; 2982.750;  209.050;    0.000
428.131; 3050.750;  237.050;    0.000
428.183; 3061.750;  200.050;    0.000
428.234; 3034.750;  215.050;    0.000
428.286; 3046.750;  229.050;    0.000
428.337; 3032.750;  206.050;    0.000
428.389; 3104.750;  216.050;    0.000
428.440; 2997.750;  287.050;    0.000
428.492; 3044.750;  269.050;    0.000
428.543; 2944.750;  234.050;    0.000
428.595; 2953.750;  214.050;    0.000
428.646; 3023.750;  229.050;    0.000
428.697; 3049.750;  249.050;    0.000
428.749; 3069.750;  250.050;    0.000
428.800; 3001.750;  242.050;    0.000
428.852; 2971.750;  232.050;    0.000
428.903; 3098.750;  196.050;    0.000
428.954; 2987.750;  226.050;    0.000
429.006; 2957.750;  232.050;    0.000
429.057; 3031.750;  188.050;    0.000
429.108; 2952.750;  237.050;    0.000
429.160; 3048.750;  221.050;    0.000
429.211; 2958.750;  222.050;    0.000
429.262; 2997.750;  215.050;    0.000
429.314; 2942.750;  225.050;    0.000
429.365; 2969.750;  220.050;    0.000
429.416; 3069.750;  242.050;    0.000
429.467; 2928.750;  220.050;    0.000
429.519; 2963.750;  217.050;    0.000
429.570; 2950.750;  248.050;    0.000
429.621; 2997.750;  233.050;    0.000
429.672; 3013.750;  220.050;    0.000
429.724; 2885.750;  179.050;    0.000
429.775; 2934.750;  218.050;    0.000
429.826; 2872.750;  197.050;    0.000
429.877; 2869.750;  206.050;    0.000
429.928; 2923.750;  229.050;    0.000
429.980; 2971.750;  207.050;    0.000
430.031; 2978.750;  264.050;    0.000
430.082; 3031.750;  210.050;    0.000
430.133; 2915.750;  218.050;    0.000
430.184; 2948.750;  246.050;    0.000
430.235; 2882.750;  201.050;    0.000
430.286; 3028.750;  207.050;    0.000
430.337; 2936.750;  224.050;    0.000
430.388; 2948.750;  216.050;    0.000
430.439; 2827.750;  210.050;    0.000
430.490; 2890.750;  208.050;    0.000
430.542; 2897.750;  211.050;    0.000
430.593; 3043.750;  203.050;    0.000
430.644; 2887.750;  235.050;    0.000
430.695; 2930.750;  200.050;    0.000
430.746; 2996.750;  215.050;    0.000
430.797; 2939.750;  235.050;    0.000
430.848; 3022.750;  197.050;    0.000
430.898; 2926.750;  209.050;    0.000
430.949; 2928.750;  231.050;    0.000
431.000; 2893.750;  227.050;    0.000
431.051; 2976.750;  225.050;    0.000
431.102; 2814.750;  180.050;    0.000
431.153; 2810.750;  248.050;    0.000
431.204; 2877.750;  185.050;    0.000
431.255; 2865.750;  199.050;    0.000
431.306; 2943.750;  228.050;    0.000
431.357; 2888.750;  237.050;    0.000
431.408; 2862.750;  223.050;    0.000
431.458; 2877.750;  240.050;    0.000
431.509; 2759.750;  207.050;    0.000
431.560; 2966.750;  219.050;    0.000
431.611; 2815.750;  206.050;    0.000
431.662; 2924.750;  253.050;    0.000
431.713; 2897.750;  199.050;    0.000
431.763; 2856.750;  197.050;    0.000
431.814; 2914.750;  205.050;    0.000
431.865; 2978.750;  218.050;    0.000
431.916; 2873.750;  202.050;    0.000
431.966; 2865.750;  203.050;    0.000
432.017; 2863.750;  244.050;    0.000
432.068; 2910.750;  246.050;    0.000
432.118; 2898.750;  212.050;    0.000
432.169; 2883.750;  214.050;    0.000
432.220; 2839.750;  241.050;    0.000
432.271; 2982.750;  237.050;    0.000
432.321; 2876.750;  246.050;    0.000
432.372; 2874.750;  257.050;    0.000
432.423; 2860.750;  198.050;    0.000
432.473; 2892.750;  202.050;    0.000
432.524; 2754.750;  242.050;    0.000
432.574; 2863.750;  202.050;    0.000
432.625; 2850.750;  212.050;    0.000
432.676; 2857.750;  242.050;    0.000
432.726; 2823.750;  268.050;    0.000
432.777; 2866.750;  228.050;    0.000
432.827; 2898.750;  230.050;    0.000
432.878; 2802.750;  221.050;    0.000
432.928; 2847.750;  218.050;    0.000
432.979; 2918.750;  243.050;    0.000
433.029; 2804.750;  217.050;    0.000
433.080; 2870.750;  208.050;    0.000
433.130; 2772.750;  236.050;    0.000
433.181; 2870.750;  282.050;    0.000
433.231; 2826.750;  257.050;    0.000
433.282; 2769.750;  268.050;    0.000
433.332; 2844.750;  241.050;    0.000
433.383; 2933.750;  271.050;    0.000
433.433; 2878.750;  262.050;    0.000
433.484; 2936.750;  266.050;    0.000
433.534; 2951.750;  217.050;    0.000
433.585; 2853.750;  230.050;    0.000
433.635; 2833.750;  245.050;    0.000
433.685; 2838.750;  250.050;    0.000
433.736; 2843.750;  308.050;    0.000
433.786; 2866.750;  242.050;    0.000
433.836; 2889.750;  256.050;    0.000
433.887; 2865.750;  250.050;    0.000
433.937; 2934.750;  250.050;    0.000
433.987; 2784.750;  219.050;    0.000
434.038; 2840.750;  248.050;    0.000
434.088; 2881.750;  231.050;    0.000
434.138; 2851.750;  266.050;    0.000
434.189; 2896.750;  240.050;    0.000
434.239; 2935.750;  245.050;    0.000
434.289; 2975.750;  285.050;    0.000
434.339; 2921.750;  255.050;    0.000
434.389; 2876.750;  242.050;    0.000
434.440; 2979.750;  273.050;    0.000
434.490; 2926.750;  272.050;    0.000
434.540; 2918.750;  264.050;    0.000
434.590; 3021.750;  233.050;    0.000
434.640; 2915.750;  244.050;    0.000
434.691; 2950.750;  226.050;    0.000
434.741; 2912.750;  253.050;    0.000
434.791; 2980.750;  269.050;    0.000
434.841; 3039.750;  252.050;    0.000
434.891; 2886.750;  281.050;    0.000
434.941; 3026.750;  296.050;    0.000
434.991; 2987.750;  264.050;    0.000
435.042; 2953.750;  262.050;    0.000
435.092; 2860.750;  237.050;    0.000
435.142; 2972.750;  232.050;    0.000
435.192; 2910.750;  251.050;    0.000
435.242; 2918.750;  251.050;    0.000
435.292; 2829.750;  246.050;    0.000
435.342; 2811.750;  236.050;    0.000
435.392; 2825.750;  273.050;    0.000
435.442; 2888.750;  273.050;    0.000
435.492; 2814.750;  273.050;    0.000
435.542; 2861.750;  242.050;    0.000
435.592; 2802.750;  213.050;    0.000
435.642; 2847.750;  248.050;    0.000
435.692; 2771.750;  242.050;    0.000
435.742; 2796.750;  222.050;    0.000
435.792; 2837.750;  260.050;    0.000
435.842; 2856.750;  266.050;    0.000
435.891; 2842.750;  227.050;    0.000
435.941; 2816.750;  228.050;    0.000
435.991; 2735.750;  282.050;    0.000
436.041; 2767.750;  231.050;    0.000
436.091; 2685.750;  250.050;    0.000
436.141; 2698.750;  221.050;    0.000
436.191; 2743.750;  223.050;    0.000
436.241; 2630.750;  250.050;    0.000
436.290; 2778.750;  243.050;    0.000
436.340; 2739.750;  236.050;    0.000
436.390; 2676.750;  260.050;    0.000
436.440; 2684.750;  253.050;    0.000
436.490; 2742.750;  236.050;    0.000
436.539; 2680.750;  249.050;    0.000
436.589; 2660.750;  231.050;    0.000
436.639; 2737.750;  237.050;    0.000
436.689; 2655.750;  222.050;    0.000
436.738; 2724.750;  263.050;    0.000
436.788; 2679.750;  230.050;    0.000
436.838; 2675.750;  281.050;    0.000
436.887; 2631.750;  230.050;    0.000
436.937; 2642.750;  250.050;    0.000
436.987; 2707.750;  251.050;    0.000
437.036; 2696.750;  238.050;    0.000
437.086; 2714.750;  234.050;    0.000
437.136; 2656.750;  250.050;    0.000
437.185; 2596.750;  228.050;    0.000
437.235; 2652.750;  309.050;    0.000
437.285; 2693.750;  246.050;    0.000
437.334; 2642.750;  262.050;    0.000
437.384; 2645.750;  228.050;    0.000
437.433; 2685.750;  241.050;    0.000
437.483; 2659.750;  220.050;    0.000
437.532; 2647.750;  252.050;    0.000
437.582; 2616.750;  270.050;    0.000
437.631; 2701.750;  251.050;    0.000
437.681; 2673.750;  284.050;    0.000
437.730; 2738.750;  239.050;    0.000
437.780; 2606.750;  221.050;    0.000
437.829; 2665.750;  254.050;    0.000
437.879; 2591.750;  221.050;    0.000
437.928; 2621.750;  205.050;    0.000
437.978; 2586.750;  223.050;    0.000
438.027; 2620.750;  262.050;    0.000
438.077; 2657.750;  280.050;    0.000
438.126; 2614.750;  254.050;    0.000
438.176; 2613.750;  230.050;    0.000
438.225; 2498.750;  227.050;    0.000
438.274; 2557.750;  264.050;    0.000
438.324; 2579.750;  233.050;    0.000
438.373; 2592.750;  238.050;    0.000
438.422; 2635.750;  260.050;    0.000
438.472; 2588.750;  223.050;    0.000
438.521; 2545.750;  213.050;    0.000
438.570; 2576.750;  236.050;    0.000
438.620; 2615.750;  282.050;    0.000
438.669; 2560.750;  209.050;    0.000
438.718; 2523.750;  245.050;    0.000
438.768; 2571.750;  238.050;    0.000
438.817; 2547.750;  259.050;    0.000
438.866; 2574.750;  232.050;    0.000
438.915; 2609.750;  288.050;    0.000
438.965; 2504.750;  228.050;    0.000
439.014; 2622.750;  246.050;    0.000
439.063; 2598.750;  287.050;    0.000
439.112; 2550.750;  217.050;    0.000
439.162; 2597.750;  275.050;    0.000
439.211; 2557.750;  287.050;    0.000
439.260; 2584.750;  238.050;    0.000
439.309; 2562.750;  225.050;    0.000
439.358; 2550.750;  248.050;    0.000
439.407; 2491.750;  237.050;    0.000
439.456; 2527.750;  223.050;    0.000
439.506; 2527.750;  266.050;    0.000
439.555; 2594.750;  260.050;    0.000
439.604; 2556.750;  233.050;    0.000
439.653; 2562.750;  242.050;    0.000
439.702; 2574.750;  255.050;    0.000
439.751; 2548.750;  202.050;    0.000
439.800; 2570.750;  247.050;    0.000
439.849; 2553.750;  250.050;    0.000
439.898; 2506.750;  216.050;    0.000
439.947; 2568.750;  231.050;    0.000
439.996; 2651.750;  272.050;    0.000
440.045; 2606.750;  217.050;    0.000
440.094; 2581.750;  220.050;    0.000
440.143; 2614.750;  245.050;    0.000
440.192; 2599.750;  267.050;    0.000
440.241; 2602.750;  263.050;    0.000
440.290; 2702.750;  246.050;    0.000
440.339; 2543.750;  225.050;    0.000
440.388; 2690.750;  256.050;    0.000
440.437; 2586.750;  253.050;    0.000
440.486; 2550.750;  249.050;    0.000
440.535; 2616.750;  232.050;    0.000
440.583; 2588.750;  220.050;    0.000
440.632; 2616.750;  239.050;    0.000
440.681; 2650.750;  236.050;    0.000
440.730; 2620.750;  282.050;    0.000
440.779; 2661.750;  245.050;    0.000
440.828; 2693.750;  213.050;    0.000
440.876; 2689.750;  231.050;    0.000
440.925; 2622.750;  271.050;    0.000
440.974; 2727.750;  240.050;    0.000
441.023; 2655.750;  214.050;    0.000
441.072; 2631.750;  236.050;    0.000
441.120; 2629.750;  271.050;    0.000
441.169; 2668.750;  281.050;    0.000
441.218; 2644.750;  255.050;    0.000
441.267; 2720.750;  272.050;    0.000
441.315; 2630.750;  229.050;    0.000
441.364; 2725.750;  241.050;    0.000
441.413; 2741.750;  224.050;    0.000
441.461; 2789.750;  241.050;    0.000
441.510; 2713.750;  289.050;    0.000
441.559; 2724.750;  222.050;    0.000
441.607; 2707.750;  242.050;    0.000
441.656; 2719.750;  255.050;    0.000
441.705; 2747.750;  260.050;    0.000
441.753; 2843.750;  290.050;    0.000
441.802; 2697.750;  264.050;    0.000
441.850; 2700.750;  224.050;    0.000
441.899; 2758.750;  275.050;    0.000
441.948; 2716.750;  227.050;    0.000
441.996; 2686.750;  216.050;    0.000
442.045; 2687.750;  271.050;    0.000
442.093; 2699.750;  227.050;    0.000
442.142; 2672.750;  273.050;    0.000
442.190; 2667.750;  257.050;    0.000
442.239; 2694.750;  269.050;    0.000
442.287; 2750.750;  257.050;    0.000
442.336; 2692.750;  237.050;    0.000
442.384; 2603.750;  214.050;    0.000
442.433; 2712.750;  272.050;    0.000
442.481; 2780.750;  258.050;    0.000
442.529; 2742.750;  242.050;    0.000
442.578; 2689.750;  278.050;    0.000
442.626; 2744.750;  264.050;    0.000
442.675; 2707.750;  293.050;    0.000
442.723; 2667.750;  244.050;    0.000
442.771; 2606.750;  232.050;    0.000
442.820; 2705.750;  266.050;    0.000
442.868; 2791.750;  253.050;    0.000
442.917; 2658.750;  250.050;    0.000
442.965; 2676.750;  279.050;    0.000
443.013; 2760.750;  253.050;    0.000
443.062; 2699.750;  282.050;    0.000
443.110; 2736.750;  258.050;    0.000
443.158; 2810.750;  246.050;    0.000
443.206; 2667.750;  255.050;    0.000
443.255; 2729.750;  296.050;    0.000
443.303; 2696.750;  272.050;    0.000
443.351; 2675.750;  270.050;    0.000
443.399; 2606.750;  258.050;    0.000
443.448; 2784.750;  265.050;    0.000
443.496; 2711.750;  219.050;    0.000
443.544; 2677.750;  205.050;    0.000
443.592; 2740.750;  266.050;    0.000
443.640; 2756.750;  260.050;    0.000
443.689; 2685.750;  232.050;    0.000
443.737; 2724.750;  281.050;    0.000
443.785; 2807.750;  248.050;    0.000
443.833; 2815.750;  286.050;    0.000
443.881; 2739.750;  225.050;    0.000
443.929; 2749.750;  255.050;    0.000
443.977; 2817.750;  248.050;    0.000
444.025; 2816.750;  255.050;    0.000
444.074; 2754.750;  266.050;    0.000
444.122; 2784.750;  266.050;    0.000
444.170; 2769.750;  207.050;    0.000
444.218; 2823.750;  253.050;    0.000
444.266; 2821.750;  263.050;    0.000
444.314; 2884.750;  272.050;    0.000
444.362; 2763.750;  272.050;    0.000
444.410; 2829.750;  255.050;    0.000
444.458; 2818.750;  288.050;    0.000
444.506; 2909.750;  263.050;    0.000
444.554; 2865.750;  243.050;    0.000
444.602; 2926.750;  285.050;    0.000
444.650; 2853.750;  273.050;    0.000
444.698; 2858.750;  221.050;    0.000
444.746; 2845.750;  243.050;    0.000
444.793; 2829.750;  217.050;    0.000
444.841; 2834.750;  262.050;    0.000
444.889; 2835.750;  264.050;    0.000
444.937; 2866.750;  226.050;    0.000
444.985; 2827.750;  257.050;    0.000
445.033; 2875.750;  264.050;    0.000
445.081; 2942.750;  264.050;    0.000
445.129; 2786.750;  187.050;    0.000
445.176; 2816.750;  212.050;    0.000
445.224; 2840.750;  198.050;    0.000
445.272; 2844.750;  265.050;    0.000
445.320; 2860.750;  239.050;    0.000
445.368; 2736.750;  245.050;    0.000
445.415; 2749.750;  215.050;    0.000
445.463; 2713.750;  202.050;    0.000
445.511; 2867.750;  234.050;    0.000
445.559; 2783.750;  269.050;    0.000
445.606; 2761.750;  214.050;    0.000
445.654; 2805.750;  227.050;    0.000
445.702; 2873.750;  276.050;    0.000
445.749; 2810.750;  256.050;    0.000
445.797; 2790.750;  236.050;    0.000
445.845; 2805.750;  230.050;    0.000
445.892; 2829.750;  233.050;    0.000
445.940; 2779.750;  257.050;    0.000
445.988; 2754.750;  253.050;    0.000
446.035; 2768.750;  265.050;    0.000
446.083; 2845.750;  254.050;    0.000
446.130; 2797.750;  228.050;    0.000
446.178; 2856.750;  256.050;    0.000
446.226; 2846.750;  238.050;    0.000
446.273; 2831.750;  228.050;    0.000
446.321; 2859.750;  220.050;    0.000
446.368; 2817.750;  249.050;    0.000
446.416; 2757.750;  221.050;    0.000
446.463; 2736.750;  232.050;    0.000
446.511; 2816.750;  243.050;    0.000
446.558; 2870.750;  217.050;    0.000
446.606; 2879.750;  256.050;    0.000
446.653; 2809.750;  238.050;    0.000
446.701; 2767.750;  259.050;    0.000
446.748; 2907.750;  227.050;    0.000
446.796; 2934.750;  236.050;    0.000
446.843; 2898.750;  241.050;    0.000
446.891; 2969.750;  292.050;    0.000
446.938; 2966.750;  219.050;    0.000
446.985; 3036.750;  255.050;    0.000
447.033; 3010.750;  237.050;    0.000
447.080; 2948.750;  278.050;    0.000
447.128; 2871.750;  237.050;    0.000
447.175; 3006.750;  247.050;    0.000
447.222; 3037.750;  235.050;    0.000
447.270; 3046.750;  274.050;    0.000
447.317; 2943.750;  222.050;    0.000
447.364; 2938.750;  230.050;    0.000
447.411; 3026.750;  297.050;    0.000
447.459; 2983.750;  243.050;    0.000
447.506; 3030.750;  202.050;    0.000
447.553; 3044.750;  232.050;    0.000
447.601; 3190.750;  262.050;    0.000
447.648; 3102.750;  254.050;    0.000
447.695; 3196.750;  287.050;    0.000
447.742; 3104.750;  232.050;    0.000
447.789; 3069.750;  257.050;    0.000
447.837; 3234.750;  260.050;    0.000
447.884; 3356.750;  272.050;    0.000
447.931; 3363.750;  241.050;    0.000
447.978; 3329.750;  241.050;    0.000
448.025; 3375.750;  264.050;    0.000
448.072; 3430.750;  279.050;    0.000
448.120; 3451.750;  263.050;    0.000
448.167; 3462.750;  284.050;    0.000
448.214; 3245.750;  252.050;    0.000
448.261; 3340.750;  247.050;    0.000
448.308; 3336.750;  249.050;    0.000
448.355; 3280.750;  263.050;    0.000
448.402; 3242.750;  251.050;    0.000
448.449; 3201.750;  257.050;    0.000
448.496; 3125.750;  243.050;    0.000
448.543; 3065.750;  274.050;    0.000
448.590; 3079.750;  299.050;    0.000
448.637; 3120.750;  259.050;    0.000
448.684; 3009.750;  266.050;    0.000
448.731; 2953.750;  261.050;    0.000
448.778; 3035.750;  292.050;    0.000
448.825; 2986.750;  253.050;    0.000
448.872; 2891.750;  253.050;    0.000
448.919; 2913.750;  218.050;    0.000
448.966; 2883.750;  254.050;    0.000
449.013; 2854.750;  263.050;    0.000
449.060; 2890.750;  282.050;    0.000
449.107; 2900.750;  244.050;    0.000
449.154; 2803.750;  236.050;    0.000
449.200; 2768.750;  226.050;    0.000
449.247; 2790.750;  273.050;    0.000
449.294; 2838.750;  270.050;    0.000
449.341; 2787.750;  283.050;    0.000
449.388; 2752.750;  261.050;    0.000
449.435; 2747.750;  254.050;    0.000
449.481; 2800.750;  318.050;    0.000
449.528; 2816.750;  274.050;    0.000
449.575; 2678.750;  251.050;    0.000
449.622; 2767.750;  276.050;    0.000
449.668; 2816.750;  242.050;    0.000
449.715; 2757.750;  286.050;    0.000
449.762; 2679.750;  268.050;    0.000
449.809; 2742.750;  285.050;    0.000
449.855; 2686.750;  277.050;    0.000
449.902; 2679.750;  246.050;    0.000
449.949; 2635.750;  268.050;    0.000
449.995; 2768.750;  289.050;    0.000
450.042; 2680.750;  256.050;    0.000
450.089; 2686.750;  290.050;    0.000
450.135; 2690.750;  300.050;    0.000
450.182; 2508.750;  317.050;    0.000
450.229; 2631.750;  282.050;    0.000
450.275; 2571.750;  307.050;    0.000
450.322; 2600.750;  260.050;    0.000
450.368; 2670.750;  315.050;    0.000
450.415; 2679.750;  306.050;    0.000
450.462; 2636.750;  314.050;    0.000
450.508; 2590.750;  303.050;    0.000
450.555; 2661.750;  281.050;    0.000
450.601; 2640.750;  291.050;    0.000
450.648; 2658.750;  288.050;    0.000
450.694; 2597.750;  290.050;    0.000
450.741; 2638.750;  303.050;    0.000
450.787; 2609.750;  298.050;    0.000
450.834; 2631.750;  265.050;    0.000
450.880; 2586.750;  273.050;    0.000
450.927; 2621.750;  312.050;    0.000
450.973; 2628.750;  303.050;    0.000
451.019; 2567.750;  222.050;    0.000
451.066; 2594.750;  284.050;    0.000
451.112; 2556.750;  296.050;    0.000
451.159; 2543.750;  299.050;    0.000
451.205; 2565.750;  311.050;    0.000
451.251; 2572.750;  306.050;    0.000
451.298; 2484.750;  281.050;    0.000
451.344; 2537.750;  311.050;    0.000
451.390; 2612.750;  331.050;    0.000
451.437; 2525.750;  303.050;    0.000
451.483; 2573.750;  284.050;    0.000
451.529; 2497.750;  310.050;    0.000
451.576; 2639.750;  301.050;    0.000
451.622; 2469.750;  275.050;    0.000
451.668; 2601.750;  269.050;    0.000
451.714; 2597.750;  277.050;    0.000
451.761; 2535.750;  298.050;    0.000
451.807; 2538.750;  316.050;    0.000
451.853; 2583.750;  301.050;    0.000
451.899; 2529.750;  292.050;    0.000
451.945; 2561.750;  324.050;    0.000
451.992; 2578.750;  292.050;    0.000
452.038; 2428.750;  261.050;    0.000
452.084; 2598.750;  286.050;    0.000
452.130; 2469.750;  301.050;    0.000
452.176; 2469.750;  287.050;    0.000
452.222; 2554.750;  265.050;    0.000
452.268; 2529.750;  268.050;    0.000
452.315; 2490.750;  272.050;    0.000
452.361; 2509.750;  258.050;    0.000
452.407; 2457.750;  279.050;    0.000
452.453; 2480.750;  252.050;    0.000
452.499; 2465.750;  305.050;    0.000
452.545; 2444.750;  263.050;    0.000
452.591; 2443.750;  284.050;    0.000
452.637; 2417.750;  289.050;    0.000
452.683; 2461.750;  249.050;    0.000
452.729; 2459.750;  290.050;    0.000
452.775; 2535.750;  315.050;    0.000
452.821; 2522.750;  271.050;    0.000
452.867; 2435.750;  258.050;    0.000
452.913; 2399.750;  256.050;    0.000
452.959; 2438.750;  266.050;    0.000
453.005; 2504.750;  299.050;    0.000
453.051; 2436.750;  299.050;    0.000
453.097; 2458.750;  268.050;    0.000
453.142; 2430.750;  251.050;    0.000
453.188; 2448.750;  284.050;    0.000
453.234; 2445.750;  285.050;    0.000
453.280; 2449.750;  263.050;    0.000
453.326; 2482.750;  273.050;    0.000
453.372; 2374.750;  253.050;    0.000
453.418; 2465.750;  269.050;    0.000
453.463; 2415.750;  250.050;    0.000
453.509; 2429.750;  289.050;    0.000
453.555; 2552.750;  262.050;    0.000
453.601; 2438.750;  274.050;    0.000
453.647; 2401.750;  306.050;    0.000
453.692; 2444.750;  264.050;    0.000
453.738; 2413.750;  312.050;    0.000
453.784; 2383.750;  300.050;    0.000
453.829; 2414.750;  284.050;    0.000
453.875; 2357.750;  270.050;    0.000
453.921; 2397.750;  237.050;    0.000
453.967; 2365.750;  263.050;    0.000
454.012; 2426.750;  295.050;    0.000
454.058; 2370.750;  293.050;    0.000
454.104; 2445.750;  264.050;    0.000
454.149; 2411.750;  282.050;    0.000
454.195; 2389.750;  277.050;    0.000
454.240; 2438.750;  307.050;    0.000
454.286; 2510.750;  282.050;    0.000
454.332; 2403.750;  291.050;    0.000
454.377; 2458.750;  302.050;    0.000
454.423; 2461.750;  276.050;    0.000
454.468; 2384.750;  281.050;    0.000
454.514; 2394.750;  290.050;    0.000
454.559; 2396.750;  289.050;    0.000
454.605; 2368.750;  258.050;    0.000
454.650; 2389.750;  281.050;    0.000
454.696; 2537.750;  308.050;    0.000
454.741; 2406.750;  288.050;    0.000
454.787; 2419.750;  284.050;    0.000
454.832; 2423.750;  306.050;    0.000
454.878; 2349.750;  288.050;    0.000
454.923; 2395.750;  287.050;    0.000
454.969; 2470.750;  325.050;    0.000
455.014; 2430.750;  323.050;    0.000
455.060; 2394.750;  290.050;    0.000
455.105; 2445.750;  285.050;    0.000
455.150; 2464.750;  303.050;    0.000
455.196; 2410.750;  282.050;    0.000
455.241; 2422.750;  281.050;    0.000
455.286; 2368.750;  290.050;    0.000
455.332; 2371.750;  280.050;    0.000
455.377; 2353.750;  243.050;    0.000
455.422; 2410.750;  308.050;    0.000
455.468; 2442.750;  308.050;    0.000
455.513; 2397.750;  290.050;    0.000
455.558; 2412.750;  211.050;    0.000
455.604; 2505.750;  289.050;    0.000
455.649; 2414.750;  297.050;    0.000
455.694; 2488.750;  287.050;    0.000
455.739; 2423.750;  296.050;    0.000
455.785; 2495.750;  315.050;    0.000
455.830; 2351.750;  328.050;    0.000
455.875; 2454.750;  310.050;    0.000
455.920; 2309.750;  261.050;    0.000
455.965; 2328.750;  277.050;    0.000
456.010; 2402.750;  317.050;    0.000
456.056; 2428.750;  299.050;    0.000
456.101; 2370.750;  262.050;    0.000
456.146; 2443.750;  318.050;    0.000
456.191; 2397.750;  274.050;    0.000
456.236; 2418.750;  274.050;    0.000
456.281; 2417.750;  275.050;    0.000
456.326; 2316.750;  256.050;    0.000
456.371; 2510.750;  260.050;    0.000
456.416; 2407.750;  304.050;    0.000
456.461; 2416.750;  278.050;    0.000
456.507; 2373.750;  299.050;    0.000
456.552; 2447.750;  305.050;    0.000
456.597; 2374.750;  271.050;    0.000
456.642; 2410.750;  273.050;    0.000
456.687; 2425.750;  290.050;    0.000
456.732; 2467.750;  327.050;    0.000
456.776; 2364.750;  284.050;    0.000
456.821; 2486.750;  321.050;    0.000
456.866; 2408.750;  272.050;    0.000
456.911; 2391.750;  232.050;    0.000
456.956; 2426.750;  263.050;    0.000
457.001; 2441.750;  277.050;    0.000
457.046; 2464.750;  284.050;    0.000
457.091; 2391.750;  269.050;    0.000
457.136; 2348.750;  269.050;    0.000
457.181; 2460.750;  275.050;    0.000
457.225; 2381.750;  310.050;    0.000
457.270; 2403.750;  295.050;    0.000
457.315; 2388.750;  284.050;    0.000
457.360; 2361.750;  264.050;    0.000
457.405; 2439.750;  273.050;    0.000
457.450; 2417.750;  284.050;    0.000
457.494; 2390.750;  273.050;    0.000
457.539; 2433.750;  287.050;    0.000
457.584; 2395.750;  279.050;    0.000
457.629; 2342.750;  288.050;    0.000
457.673; 2463.750;  297.050;    0.000
457.718; 2432.750;  270.050;    0.000
457.763; 2431.750;  295.050;    0.000
457.807; 2414.750;  321.050;    0.000
457.852; 2462.750;  293.050;    0.000
457.897; 2450.750;  282.050;    0.000
457.941; 2421.750;  320.050;    0.000
457.986; 2488.750;  295.050;    0.000
458.031; 2446.750;  314.050;    0.000
458.075; 2420.750;  280.050;    0.000
458.120; 2520.750;  314.050;    0.000
458.165; 2481.750;  289.050;    0.000
458.209; 2455.750;  289.050;    0.000
458.254; 2474.750;  272.050;    0.000
458.298; 2457.750;  305.050;    0.000
458.343; 2449.750;  284.050;    0.000
458.387; 2497.750;  340.050;    0.000
458.432; 2492.750;  306.050;    0.000
458.476; 2622.750;  311.050;    0.000
458.521; 2499.750;  304.050;    0.000
458.565; 2467.750;  329.050;    0.000
458.610; 2457.750;  287.050;    0.000
458.654; 2547.750;  300.050;    0.000
458.699; 2562.750;  295.050;    0.000
458.743; 2476.750;  269.050;    0.000
458.788; 2576.750;  294.050;    0.000
458.832; 2623.750;  301.050;    0.000
458.877; 2600.750;  303.050;    0.000
458.921; 2658.750;  259.050;    0.000
458.965; 2615.750;  308.050;    0.000
459.010; 2657.750;  330.050;    0.000
459.054; 2576.750;  298.050;    0.000
459.099; 2609.750;  303.050;    0.000
459.143; 2642.750;  333.050;    0.000
459.187; 2578.750;  291.050;    0.000
459.231; 2551.750;  316.050;    0.000
459.276; 2701.750;  294.050;    0.000
459.320; 2675.750;  291.050;    0.000
459.364; 2666.750;  318.050;    0.000
459.409; 2724.750;  325.050;    0.000
459.453; 2646.750;  293.050;    0.000
459.497; 2731.750;  354.050;    0.000
459.541; 2698.750;  313.050;    0.000
459.586; 2738.750;  282.050;    0.000
459.630; 2693.750;  286.050;    0.000
459.674; 2648.750;  292.050;    0.000
459.718; 2700.750;  280.050;    0.000
459.762; 2682.750;  304.050;    0.000
459.807; 2736.750;  352.050;    0.000
459.851; 2753.750;  300.050;    0.000
459.895; 2747.750;  311.050;    0.000
459.939; 2713.750;  303.050;    0.000
459.983; 2708.750;  299.050;    0.000
460.027; 2667.750;  307.050;    0.000
460.071; 2727.750;  313.050;    0.000
460.115; 2686.750;  325.050;    0.000
460.159; 2807.750;  331.050;    0.000
460.204; 2715.750;  301.050;    0.000
460.248; 2766.750;  329.050;    0.000
460.292; 2700.750;  310.050;    0.000
460.336; 2784.750;  304.050;    0.000
460.380; 2732.750;  313.050;    0.000
460.424; 2732.750;  300.050;    0.000
460.468; 2772.750;  338.050;    0.000
460.512; 2731.750;  310.050;    0.000
460.556; 2765.750;  337.050;    0.000
460.599; 2719.750;  310.050;    0.000
460.643; 2775.750;  303.050;    0.000
460.687; 2767.750;  316.050;    0.000
460.731; 2742.750;  292.050;    0.000
460.775; 2829.750;  294.050;    0.000
460.819; 2736.750;  310.050;    0.000
460.863; 2884.750;  349.050;    0.000
460.907; 2708.750;  265.050;    0.000
460.951; 2788.750;  325.050;    0.000
460.995; 2701.750;  338.050;    0.000
461.038; 2731.750;  304.050;    0.000
461.082; 2851.750;  312.050;    0.000
461.126; 2769.750;  358.050;    0.000
461.170; 2841.750;  306.050;    0.000
461.214; 2725.750;  330.050;    0.000
461.257; 2898.750;  311.050;    0.000
461.301; 2846.750;  303.050;    0.000
461.345; 2831.750;  310.050;    0.000
461.389; 2837.750;  296.050;    0.000
461.432; 2849.750;  304.050;    0.000
461.476; 2738.750;  305.050;    0.000
461.520; 2816.750;  319.050;    0.000
461.563; 2794.750;  294.050;    0.000
461.607; 2729.750;  295.050;    0.000
461.651; 2775.750;  335.050;    0.000
461.694; 2804.750;  276.050;    0.000
461.738; 2751.750;  327.050;    0.000
461.782; 2858.750;  288.050;    0.000
461.825; 2755.750;  319.050;    0.000
461.869; 2852.750;  305.050;    0.000
461.913; 2889.750;  281.050;    0.000
461.956; 2860.750;  281.050;    0.000
462.000; 2838.750;  339.050;    0.000
462.043; 2910.750;  347.050;    0.000
462.087; 2893.750;  314.050;    0.000
462.130; 2931.750;  332.050;    0.000
462.174; 2843.750;  332.050;    0.000
462.217; 2914.750;  299.050;    0.000
462.261; 2938.750;  323.050;    0.000
462.304; 2855.750;  286.050;    0.000
462.348; 2934.750;  305.050;    0.000
462.391; 2922.750;  293.050;    0.000
462.435; 3036.750;  365.050;    0.000
462.478; 2892.750;  329.050;    0.000
462.522; 3030.750;  316.050;    0.000
462.565; 2998.750;  328.050;    0.000
462.608; 3050.750;  350.050;    0.000
462.652; 2907.750;  328.050;    0.000
462.695; 3055.750;  358.050;    0.000
462.739; 3024.750;  317.050;    0.000
462.782; 3010.750;  329.050;    0.000
462.825; 3018.750;  368.050;    0.000
462.869; 3154.750;  343.050;    0.000
462.912; 3186.750;  404.050;    0.000
462.955; 3091.750;  328.050;    0.000
462.998; 3098.750;  340.050;    0.000
463.042; 3084.750;  361.050;    0.000
463.085; 3176.750;  337.050;    0.000
463.128; 3120.750;  373.050;    0.000
463.172; 3110.750;  347.050;    0.000
463.215;  396.750;  305.050;    0.000
463.258;  329.750;  324.050;    0.000
463.301;  345.750;  296.050;    0.000
463.344;  325.750;  332.050;    0.000
463.388;  310.750;  309.050;    0.000
463.431;  307.750;  298.050;    0.000
463.474;  309.750;  351.050;    0.000
463.517;  311.750;  319.050;    0.000
463.560;  327.750;  325.050;    0.000
463.603;  332.750;  330.050;    0.000
463.646;  340.750;  332.050;    0.000
463.690;  343.750;  325.050;    0.000
463.733;  324.750;  323.050;    0.000
463.776;  292.750;  276.050;    0.000
463.819;  343.750;  320.050;    0.000
463.862;  285.750;  275.050;    0.000

