0 377.0
1 402.0
2 360.0
3 394.0
4 377.0
5 412.0
6 375.0
7 398.0
8 361.0
9 392.0
10 370.0
11 375.0
12 393.0
13 364.0
14 380.0
15 409.0
16 387.0
17 370.0
18 342.0
19 384.0
20 356.0
21 393.0
22 355.0
23 409.0
24 372.0
25 360.0
26 376.0
27 399.0
28 370.0
29 388.0
30 318.0
31 380.0
32 383.0
33 373.0
34 386.0
35 389.0
36 360.0
37 379.0
38 348.0
39 369.0
40 340.0
41 376.0
42 365.0
43 368.0
44 316.0
45 358.0
46 322.0
47 400.0
48 382.0
49 352.0
50 341.0
51 371.0
52 362.0
53 341.0
54 356.0
55 392.0
56 353.0
57 369.0
58 382.0
59 322.0
60 410.0
61 378.0
62 356.0
63 327.0
64 431.0
65 363.0
66 339.0
67 356.0
68 333.0
69 351.0
70 291.0
71 373.0
72 354.0
73 358.0
74 337.0
75 339.0
76 328.0
77 337.0
78 379.0
79 322.0
80 373.0
81 344.0
82 340.0
83 327.0
84 345.0
85 370.0
86 314.0
87 360.0
88 335.0
89 344.0
90 317.0
91 347.0
92 340.0
93 331.0
94 338.0
95 374.0
96 315.0
97 326.0
98 309.0
99 327.0
100 343.0
101 349.0
102 319.0
103 340.0
104 309.0
105 357.0
106 350.0
107 337.0
108 302.0
109 318.0
110 302.0
111 353.0
112 370.0
113 359.0
114 347.0
115 349.0
116 298.0
117 349.0
118 327.0
119 307.0
120 376.0
121 307.0
122 346.0
123 307.0
124 327.0
125 380.0
126 351.0
127 349.0
128 309.0
129 295.0
130 352.0
131 351.0
132 340.0
133 368.0
134 335.0
135 318.0
136 329.0
137 352.0
138 354.0
139 341.0
140 337.0
141 338.0
142 322.0
143 323.0
144 338.0
145 316.0
146 335.0
147 369.0
148 335.0
149 349.0
150 338.0
151 339.0
152 290.0
153 333.0
154 300.0
155 339.0
156 327.0
157 337.0
158 314.0
159 352.0
160 343.0
161 335.0
162 294.0
163 343.0
164 364.0
165 329.0
166 319.0
167 385.0
168 347.0
169 356.0
170 312.0
171 341.0
172 284.0
173 371.0
174 312.0
175 312.0
176 336.0
177 326.0
178 293.0
179 346.0
180 318.0
181 336.0
182 333.0
183 370.0
184 337.0
185 359.0
186 316.0
187 312.0
188 291.0
189 322.0
190 317.0
191 348.0
192 334.0
193 333.0
194 327.0
195 364.0
196 322.0
197 351.0
198 336.0
199 305.0
200 326.0
201 313.0
202 331.0
203 342.0
204 324.0
205 359.0
206 294.0
207 305.0
208 337.0
209 354.0
210 335.0
211 317.0
212 322.0
213 344.0
214 315.0
215 295.0
216 324.0
217 353.0
218 332.0
219 295.0
220 315.0
221 328.0
222 306.0
223 314.0
224 321.0
225 315.0
226 322.0
227 335.0
228 343.0
229 362.0
230 357.0
231 351.0
232 277.0
233 351.0
234 339.0
235 324.0
236 337.0
237 326.0
238 307.0
239 277.0
240 324.0
241 352.0
242 409.0
243 347.0
244 326.0
245 338.0
246 302.0
247 322.0
248 359.0
249 381.0
250 327.0
251 335.0
252 309.0
253 339.0
254 336.0
255 341.0
256 339.0
257 310.0
258 361.0
259 378.0
260 312.0
261 339.0
262 301.0
263 364.0
264 351.0
265 352.0
266 333.0
267 352.0
268 338.0
269 363.0
270 354.0
271 324.0
272 378.0
273 343.0
274 367.0
275 347.0
276 332.0
277 379.0
278 355.0
279 389.0
280 299.0
281 302.0
282 369.0
283 317.0
284 324.0
285 355.0
286 319.0
287 362.0
288 306.0
289 372.0
290 341.0
291 349.0
292 321.0
293 361.0
294 330.0
295 338.0
296 368.0
297 334.0
298 340.0
299 383.0
300 367.0
301 342.0
302 299.0
303 366.0
304 347.0
305 369.0
306 337.0
307 345.0
308 317.0
309 381.0
310 374.0
311 328.0
312 340.0
313 364.0
314 366.0
315 359.0
316 356.0
317 340.0
318 318.0
319 343.0
320 305.0
321 360.0
322 358.0
323 377.0
324 327.0
325 334.0
326 350.0
327 377.0
328 344.0
329 417.0
330 323.0
331 343.0
332 336.0
333 314.0
334 346.0
335 373.0
336 369.0
337 352.0
338 387.0
339 377.0
340 378.0
341 376.0
342 350.0
343 333.0
344 346.0
345 343.0
346 364.0
347 347.0
348 380.0
349 369.0
350 341.0
351 384.0
352 305.0
353 380.0
354 354.0
355 354.0
356 358.0
357 338.0
358 392.0
359 369.0
360 317.0
361 363.0
362 373.0
363 360.0
364 316.0
365 344.0
366 349.0
367 342.0
368 350.0
369 330.0
370 368.0
371 338.0
372 341.0
373 387.0
374 335.0
375 390.0
376 321.0
377 328.0
378 341.0
379 375.0
380 345.0
381 356.0
382 328.0
383 396.0
384 379.0
385 358.0
386 352.0
387 354.0
388 326.0
389 341.0
390 377.0
391 332.0
392 377.0
393 335.0
394 388.0
395 368.0
396 354.0
397 376.0
398 329.0
399 380.0
400 352.0
401 345.0
402 390.0
403 346.0
404 348.0
405 342.0
406 368.0
407 377.0
408 375.0
409 378.0
410 355.0
411 370.0
412 348.0
413 417.0
414 331.0
415 349.0
416 343.0
417 398.0
418 330.0
419 371.0
420 366.0
421 369.0
422 359.0
423 363.0
424 349.0
425 373.0
426 346.0
427 419.0
428 385.0
429 354.0
430 346.0
431 397.0
432 361.0
433 378.0
434 377.0
435 365.0
436 358.0
437 354.0
438 361.0
439 346.0
440 348.0
441 379.0
442 383.0
443 368.0
444 335.0
445 350.0
446 411.0
447 385.0
448 334.0
449 397.0
450 407.0
451 375.0
452 378.0
453 391.0
454 376.0
455 375.0
456 359.0
457 387.0
458 367.0
459 368.0
460 371.0
461 383.0
462 393.0
463 393.0
464 394.0
465 391.0
466 367.0
467 382.0
468 364.0
469 373.0
470 359.0
471 365.0
472 377.0
473 354.0
474 376.0
475 391.0
476 400.0
477 394.0
478 359.0
479 396.0
480 395.0
481 344.0
482 383.0
483 387.0
484 354.0
485 341.0
486 326.0
487 361.0
488 377.0
489 363.0
490 348.0
491 381.0
492 366.0
493 366.0
494 395.0
495 382.0
496 386.0
497 349.0
498 345.0
499 365.0
500 335.0
501 331.0
502 342.0
503 388.0
504 368.0
505 371.0
506 349.0
507 373.0
508 318.0
509 396.0
510 427.0
511 346.0
512 350.0
513 327.0
514 346.0
515 321.0
516 345.0
517 355.0
518 371.0
519 377.0
520 360.0
521 348.0
522 313.0
523 357.0
524 380.0
525 336.0
526 352.0
527 370.0
528 382.0
529 382.0
530 374.0
531 354.0
532 345.0
533 355.0
534 345.0
535 379.0
536 339.0
537 392.0
538 409.0
539 354.0
540 365.0
541 395.0
542 332.0
543 376.0
544 311.0
545 326.0
546 383.0
547 346.0
548 354.0
549 373.0
550 385.0
551 341.0
552 343.0
553 371.0
554 364.0
555 382.0
556 360.0
557 365.0
558 359.0
559 362.0
560 377.0
561 362.0
562 390.0
563 361.0
564 337.0
565 422.0
566 335.0
567 373.0
568 364.0
569 366.0
570 363.0
571 385.0
572 352.0
573 356.0
574 349.0
575 385.0
576 366.0
577 346.0
578 356.0
579 358.0
580 382.0
581 373.0
582 335.0
583 330.0
584 395.0
585 391.0
586 336.0
587 391.0
588 377.0
589 347.0
590 325.0
591 370.0
592 385.0
593 378.0
594 357.0
595 388.0
596 379.0
597 334.0
598 365.0
599 380.0
600 322.0
601 415.0
602 371.0
603 354.0
604 370.0
605 391.0
606 365.0
607 399.0
608 349.0
609 407.0
610 353.0
611 364.0
612 385.0
613 344.0
614 377.0
615 368.0
616 356.0
617 402.0
618 374.0
619 404.0
620 366.0
621 428.0
622 351.0
623 397.0
624 440.0
625 371.0
626 394.0
627 395.0
628 380.0
629 402.0
630 369.0
631 389.0
632 385.0
633 370.0
634 397.0
635 394.0
636 382.0
637 402.0
638 407.0
639 372.0
640 341.0
641 375.0
642 351.0
643 389.0
644 372.0
645 360.0
646 399.0
647 351.0
648 380.0
649 408.0
650 388.0
651 379.0
652 409.0
653 370.0
654 408.0
655 360.0
656 387.0
657 424.0
658 371.0
659 388.0
660 334.0
661 397.0
662 356.0
663 419.0
664 380.0
665 375.0
666 368.0
667 384.0
668 365.0
669 360.0
670 363.0
671 384.0
672 352.0
673 360.0
674 366.0
675 393.0
676 356.0
677 350.0
678 418.0
679 375.0
680 364.0
681 364.0
682 349.0
683 397.0
684 363.0
685 366.0
686 314.0
687 392.0
688 368.0
689 383.0
690 349.0
691 395.0
692 336.0
693 338.0
694 347.0
695 376.0
696 397.0
697 398.0
698 375.0
699 355.0
700 376.0
701 364.0
702 389.0
703 369.0
704 385.0
705 378.0
706 376.0
707 404.0
708 396.0
709 340.0
710 377.0
711 410.0
712 390.0
713 388.0
714 412.0
715 408.0
716 387.0
717 367.0
718 404.0
719 386.0
720 380.0
721 369.0
722 389.0
723 400.0
724 397.0
725 390.0
726 394.0
727 364.0
728 382.0
729 374.0
730 405.0
731 379.0
732 362.0
733 353.0
734 377.0
735 398.0
736 393.0
737 345.0
738 372.0
739 372.0
740 391.0
741 414.0
742 380.0
743 398.0
744 328.0
745 411.0
746 351.0
747 360.0
748 409.0
749 414.0
750 343.0
751 371.0
752 374.0
753 406.0
754 379.0
755 371.0
756 385.0
757 367.0
758 391.0
759 403.0
760 373.0
761 390.0
762 377.0
763 457.0
764 375.0
765 354.0
766 401.0
767 376.0
768 362.0
769 391.0
770 385.0
771 378.0
772 384.0
773 393.0
774 395.0
775 382.0
776 363.0
777 390.0
778 392.0
779 403.0
780 355.0
781 373.0
782 369.0
783 378.0
784 353.0
785 367.0
786 390.0
787 372.0
788 347.0
789 364.0
790 379.0
791 357.0
792 394.0
793 403.0
794 424.0
795 407.0
796 386.0
797 373.0
798 417.0
799 370.0
800 369.0
801 379.0
802 414.0
803 366.0
804 409.0
805 410.0
806 367.0
807 405.0
808 395.0
809 422.0
810 347.0
811 397.0
812 380.0
813 357.0
814 377.0
815 327.0
816 358.0
817 406.0
818 382.0
819 378.0
820 401.0
821 411.0
822 403.0
823 397.0
824 411.0
825 408.0
826 373.0
827 379.0
828 398.0
829 363.0
830 398.0
831 366.0
832 405.0
833 405.0
834 409.0
835 397.0
836 395.0
837 420.0
838 384.0
839 420.0
840 430.0
841 391.0
842 400.0
843 406.0
844 378.0
845 375.0
846 399.0
847 400.0
848 375.0
849 399.0
850 397.0
851 421.0
852 374.0
853 447.0
854 357.0
855 392.0
856 420.0
857 431.0
858 365.0
859 398.0
860 370.0
861 376.0
862 413.0
863 404.0
864 375.0
865 399.0
866 402.0
867 368.0
868 370.0
869 349.0
870 367.0
871 391.0
872 366.0
873 393.0
874 346.0
875 377.0
876 399.0
877 357.0
878 356.0
879 357.0
880 406.0
881 341.0
882 398.0
883 418.0
884 388.0
885 329.0
886 364.0
887 385.0
888 381.0
889 396.0
890 390.0
891 340.0
892 372.0
893 390.0
894 332.0
895 373.0
896 410.0
897 392.0
898 385.0
899 392.0
900 374.0
901 377.0
902 400.0
903 406.0
904 416.0
905 391.0
906 378.0
907 384.0
908 389.0
909 402.0
910 395.0
911 411.0
912 408.0
913 402.0
914 363.0
915 403.0
916 367.0
917 406.0
918 363.0
919 383.0
920 379.0
921 417.0
922 361.0
923 367.0
924 363.0
925 423.0
926 398.0
927 360.0
928 391.0
929 387.0
930 377.0
931 403.0
932 372.0
933 413.0
934 377.0
935 378.0
936 347.0
937 396.0
938 378.0
939 402.0
940 391.0
941 367.0
942 410.0
943 413.0
944 405.0
945 391.0
946 393.0
947 373.0
948 394.0
949 400.0
950 399.0
951 378.0
952 366.0
953 375.0
954 416.0
955 379.0
956 353.0
957 361.0
958 397.0
959 410.0
960 375.0
961 386.0
962 372.0
963 406.0
964 419.0
965 381.0
966 397.0
967 410.0
968 395.0
969 407.0
970 410.0
971 406.0
972 425.0
973 411.0
974 405.0
975 415.0
976 429.0
977 374.0
978 421.0
979 374.0
980 393.0
981 432.0
982 365.0
983 384.0
984 401.0
985 430.0
986 370.0
987 374.0
988 384.0
989 386.0
990 385.0
991 437.0
992 399.0
993 406.0
994 405.0
995 382.0
996 396.0
997 405.0
998 369.0
999 376.0
1000 393.0
1001 432.0
1002 400.0
1003 394.0
1004 388.0
1005 402.0
1006 366.0
1007 424.0
1008 437.0
1009 376.0
1010 365.0
1011 375.0
1012 388.0
1013 410.0
1014 426.0
1015 388.0
1016 415.0
1017 410.0
1018 405.0
1019 415.0
1020 388.0
1021 383.0
1022 395.0
1023 394.0
1024 387.0
1025 380.0
1026 371.0
1027 393.0
1028 391.0
1029 415.0
1030 396.0
1031 413.0
1032 406.0
1033 401.0
1034 379.0
1035 428.0
1036 418.0
1037 399.0
1038 346.0
1039 383.0
1040 402.0
1041 403.0
1042 409.0
1043 397.0
1044 335.0
1045 401.0
1046 407.0
1047 416.0
1048 390.0
1049 401.0
1050 396.0
1051 375.0
1052 390.0
1053 397.0
1054 370.0
1055 402.0
1056 397.0
1057 361.0
1058 396.0
1059 391.0
1060 369.0
1061 410.0
1062 386.0
1063 406.0
1064 373.0
1065 340.0
1066 427.0
1067 367.0
1068 385.0
1069 384.0
1070 388.0
1071 397.0
1072 423.0
1073 374.0
1074 432.0
1075 406.0
1076 406.0
1077 451.0
1078 411.0
1079 456.0
1080 413.0
1081 409.0
1082 435.0
1083 385.0
1084 406.0
1085 392.0
1086 452.0
1087 421.0
1088 386.0
1089 433.0
1090 414.0
1091 440.0
1092 428.0
1093 459.0
1094 408.0
1095 401.0
1096 426.0
1097 454.0
1098 367.0
1099 440.0
1100 426.0
1101 405.0
1102 397.0
1103 413.0
1104 440.0
1105 395.0
1106 428.0
1107 420.0
1108 414.0
1109 424.0
1110 397.0
1111 390.0
1112 444.0
1113 393.0
1114 414.0
1115 386.0
1116 443.0
1117 446.0
1118 394.0
1119 413.0
1120 381.0
1121 453.0
1122 411.0
1123 441.0
1124 430.0
1125 432.0
1126 418.0
1127 417.0
1128 426.0
1129 399.0
1130 394.0
1131 451.0
1132 422.0
1133 395.0
1134 407.0
1135 367.0
1136 427.0
1137 409.0
1138 401.0
1139 427.0
1140 443.0
1141 381.0
1142 420.0
1143 412.0
1144 413.0
1145 467.0
1146 436.0
1147 416.0
1148 448.0
1149 392.0
1150 413.0
1151 430.0
1152 432.0
1153 434.0
1154 434.0
1155 406.0
1156 395.0
1157 422.0
1158 415.0
1159 441.0
1160 417.0
1161 403.0
1162 409.0
1163 451.0
1164 400.0
1165 444.0
1166 403.0
1167 388.0
1168 403.0
1169 434.0
1170 416.0
1171 415.0
1172 370.0
1173 401.0
1174 423.0
1175 432.0
1176 415.0
1177 421.0
1178 410.0
1179 407.0
1180 426.0
1181 445.0
1182 392.0
1183 427.0
1184 415.0
1185 417.0
1186 372.0
1187 406.0
1188 399.0
1189 459.0
1190 412.0
1191 438.0
1192 439.0
1193 419.0
1194 423.0
1195 406.0
1196 423.0
1197 373.0
1198 409.0
1199 441.0
1200 441.0
1201 403.0
1202 408.0
1203 408.0
1204 432.0
1205 430.0
1206 389.0
1207 422.0
1208 360.0
1209 434.0
1210 429.0
1211 416.0
1212 397.0
1213 446.0
1214 447.0
1215 436.0
1216 442.0
1217 426.0
1218 427.0
1219 449.0
1220 408.0
1221 405.0
1222 431.0
1223 389.0
1224 406.0
1225 458.0
1226 432.0
1227 421.0
1228 442.0
1229 449.0
1230 405.0
1231 412.0
1232 428.0
1233 455.0
1234 488.0
1235 440.0
1236 420.0
1237 410.0
1238 435.0
1239 418.0
1240 484.0
1241 408.0
1242 409.0
1243 425.0
1244 421.0
1245 406.0
1246 412.0
1247 442.0
1248 430.0
1249 464.0
1250 387.0
1251 434.0
1252 395.0
1253 441.0
1254 410.0
1255 433.0
1256 439.0
1257 439.0
1258 396.0
1259 393.0
1260 388.0
1261 457.0
1262 357.0
1263 384.0
1264 440.0
1265 398.0
1266 418.0
1267 396.0
1268 402.0
1269 424.0
1270 395.0
1271 411.0
1272 410.0
1273 419.0
1274 428.0
1275 425.0
1276 411.0
1277 425.0
1278 385.0
1279 466.0
1280 402.0
1281 421.0
1282 384.0
1283 418.0
1284 399.0
1285 427.0
1286 382.0
1287 452.0
1288 445.0
1289 443.0
1290 415.0
1291 461.0
1292 420.0
1293 462.0
1294 401.0
1295 391.0
1296 420.0
1297 432.0
1298 363.0
1299 406.0
1300 435.0
1301 434.0
1302 424.0
1303 427.0
1304 393.0
1305 427.0
1306 441.0
1307 464.0
1308 431.0
1309 420.0
1310 405.0
1311 470.0
1312 416.0
1313 419.0
1314 428.0
1315 402.0
1316 431.0
1317 408.0
1318 405.0
1319 442.0
1320 435.0
1321 441.0
1322 392.0
1323 406.0
1324 409.0
1325 395.0
1326 376.0
1327 380.0
1328 433.0
1329 370.0
1330 423.0
1331 442.0
1332 390.0
1333 402.0
1334 403.0
1335 421.0
1336 389.0
1337 393.0
1338 379.0
1339 407.0
1340 388.0
1341 414.0
1342 412.0
1343 447.0
1344 389.0
1345 414.0
1346 415.0
1347 384.0
1348 409.0
1349 374.0
1350 381.0
1351 373.0
1352 416.0
1353 412.0
1354 379.0
1355 418.0
1356 362.0
1357 420.0
1358 412.0
1359 369.0
1360 473.0
1361 377.0
1362 410.0
1363 422.0
1364 388.0
1365 404.0
1366 388.0
1367 445.0
1368 407.0
1369 410.0
1370 384.0
1371 414.0
1372 414.0
1373 407.0
1374 397.0
1375 418.0
1376 409.0
1377 413.0
1378 393.0
1379 408.0
1380 437.0
1381 408.0
1382 442.0
1383 446.0
1384 400.0
1385 428.0
1386 414.0
1387 409.0
1388 425.0
1389 418.0
1390 408.0
1391 433.0
1392 462.0
1393 462.0
1394 395.0
1395 440.0
1396 416.0
1397 411.0
1398 385.0
1399 463.0
1400 416.0
1401 466.0
1402 467.0
1403 414.0
1404 421.0
1405 488.0
1406 427.0
1407 433.0
1408 411.0
1409 438.0
1410 458.0
1411 439.0
1412 430.0
1413 447.0
1414 471.0
1415 433.0
1416 457.0
1417 417.0
1418 445.0
1419 451.0
1420 466.0
1421 464.0
1422 456.0
1423 436.0
1424 471.0
1425 405.0
1426 448.0
1427 464.0
1428 458.0
1429 467.0
1430 472.0
1431 466.0
1432 428.0
1433 475.0
1434 467.0
1435 442.0
1436 391.0
1437 428.0
1438 493.0
1439 425.0
1440 467.0
1441 433.0
1442 424.0
1443 434.0
1444 480.0
1445 425.0
1446 468.0
1447 426.0
1448 463.0
1449 404.0
1450 440.0
1451 392.0
1452 443.0
1453 407.0
1454 420.0
1455 428.0
1456 430.0
1457 437.0
1458 455.0
1459 448.0
1460 432.0
1461 433.0
1462 456.0
1463 431.0
1464 414.0
1465 434.0
1466 414.0
1467 430.0
1468 425.0
1469 425.0
1470 421.0
1471 423.0
1472 409.0
1473 436.0
1474 396.0
1475 408.0
1476 427.0
1477 404.0
1478 434.0
1479 414.0
1480 452.0
1481 433.0
1482 406.0
1483 433.0
1484 423.0
1485 428.0
1486 384.0
1487 421.0
1488 446.0
1489 443.0
1490 452.0
1491 452.0
1492 432.0
1493 445.0
1494 427.0
1495 446.0
1496 396.0
1497 438.0
1498 416.0
1499 415.0
1500 449.0
1501 410.0
1502 435.0
1503 408.0
1504 431.0
1505 406.0
1506 453.0
1507 509.0
1508 434.0
1509 433.0
1510 417.0
1511 408.0
1512 418.0
1513 421.0
1514 424.0
1515 446.0
1516 432.0
1517 413.0
1518 438.0
1519 406.0
1520 469.0
1521 440.0
1522 384.0
1523 401.0
1524 443.0
1525 434.0
1526 394.0
1527 450.0
1528 418.0
1529 477.0
1530 443.0
1531 407.0
1532 471.0
1533 413.0
1534 440.0
1535 443.0
1536 399.0
1537 443.0
1538 418.0
1539 462.0
1540 407.0
1541 453.0
1542 427.0
1543 421.0
1544 425.0
1545 447.0
1546 464.0
1547 461.0
1548 436.0
1549 446.0
1550 399.0
1551 408.0
1552 474.0
1553 446.0
1554 417.0
1555 453.0
1556 432.0
1557 439.0
1558 441.0
1559 452.0
1560 418.0
1561 410.0
1562 435.0
1563 472.0
1564 446.0
1565 445.0
1566 415.0
1567 447.0
1568 410.0
1569 439.0
1570 464.0
1571 457.0
1572 421.0
1573 459.0
1574 451.0
1575 442.0
1576 434.0
1577 440.0
1578 457.0
1579 497.0
1580 435.0
1581 463.0
1582 466.0
1583 440.0
1584 456.0
1585 445.0
1586 399.0
1587 437.0
1588 392.0
1589 414.0
1590 468.0
1591 435.0
1592 444.0
1593 448.0
1594 457.0
1595 448.0
1596 405.0
1597 468.0
1598 430.0
1599 452.0
1600 440.0
1601 436.0
1602 464.0
1603 421.0
1604 448.0
1605 420.0
1606 444.0
1607 428.0
1608 492.0
1609 450.0
1610 394.0
1611 486.0
1612 434.0
1613 440.0
1614 453.0
1615 427.0
1616 449.0
1617 435.0
1618 434.0
1619 438.0
1620 441.0
1621 454.0
1622 459.0
1623 433.0
1624 423.0
1625 446.0
1626 455.0
1627 419.0
1628 402.0
1629 467.0
1630 447.0
1631 461.0
1632 453.0
1633 413.0
1634 447.0
1635 445.0
1636 396.0
1637 414.0
1638 462.0
1639 433.0
1640 434.0
1641 420.0
1642 421.0
1643 451.0
1644 370.0
1645 443.0
1646 438.0
1647 398.0
1648 409.0
1649 415.0
1650 423.0
1651 451.0
1652 411.0
1653 408.0
1654 417.0
1655 445.0
1656 437.0
1657 443.0
1658 430.0
1659 438.0
1660 400.0
1661 462.0
1662 447.0
1663 445.0
1664 423.0
1665 466.0
1666 429.0
1667 445.0
1668 422.0
1669 395.0
1670 449.0
1671 430.0
1672 434.0
1673 433.0
1674 423.0
1675 420.0
1676 433.0
1677 425.0
1678 466.0
1679 425.0
1680 420.0
1681 456.0
1682 436.0
1683 431.0
1684 454.0
1685 422.0
1686 406.0
1687 430.0
1688 439.0
1689 425.0
1690 451.0
1691 445.0
1692 443.0
1693 451.0
1694 426.0
1695 467.0
1696 422.0
1697 437.0
1698 419.0
1699 449.0
1700 457.0
1701 435.0
1702 458.0
1703 449.0
1704 398.0
1705 440.0
1706 461.0
1707 445.0
1708 454.0
1709 463.0
1710 442.0
1711 380.0
1712 446.0
1713 429.0
1714 461.0
1715 439.0
1716 460.0
1717 447.0
1718 442.0
1719 388.0
1720 459.0
1721 412.0
1722 411.0
1723 451.0
1724 476.0
1725 431.0
1726 430.0
1727 461.0
1728 415.0
1729 436.0
1730 421.0
1731 445.0
1732 436.0
1733 433.0
1734 474.0
1735 488.0
1736 470.0
1737 470.0
1738 450.0
1739 469.0
1740 430.0
1741 459.0
1742 399.0
1743 457.0
1744 464.0
1745 483.0
1746 447.0
1747 455.0
1748 450.0
1749 430.0
1750 415.0
1751 449.0
1752 491.0
1753 449.0
1754 491.0
1755 439.0
1756 464.0
1757 467.0
1758 468.0
1759 467.0
1760 425.0
1761 448.0
1762 427.0
1763 406.0
1764 477.0
1765 476.0
1766 448.0
1767 439.0
1768 457.0
1769 448.0
1770 462.0
1771 430.0
1772 467.0
1773 436.0
1774 442.0
1775 449.0
1776 445.0
1777 455.0
1778 458.0
1779 427.0
1780 456.0
1781 420.0
1782 433.0
1783 435.0
1784 431.0
1785 444.0
1786 426.0
1787 460.0
1788 453.0
1789 433.0
1790 458.0
1791 447.0
1792 434.0
1793 456.0
1794 472.0
1795 453.0
1796 447.0
1797 437.0
1798 422.0
1799 470.0
1800 468.0
1801 457.0
1802 472.0
1803 449.0
1804 449.0
1805 456.0
1806 456.0
1807 478.0
1808 478.0
1809 480.0
1810 454.0
1811 428.0
1812 413.0
1813 449.0
1814 432.0
1815 473.0
1816 440.0
1817 484.0
1818 428.0
1819 450.0
1820 460.0
1821 450.0
1822 442.0
1823 440.0
1824 417.0
1825 430.0
1826 443.0
1827 447.0
1828 430.0
1829 472.0
1830 441.0
1831 431.0
1832 463.0
1833 477.0
1834 478.0
1835 420.0
1836 447.0
1837 439.0
1838 450.0
1839 459.0
1840 474.0
1841 493.0
1842 467.0
1843 461.0
1844 443.0
1845 447.0
1846 464.0
1847 427.0
1848 428.0
1849 485.0
1850 439.0
1851 444.0
1852 505.0
1853 482.0
1854 472.0
1855 447.0
1856 442.0
1857 460.0
1858 473.0
1859 466.0
1860 477.0
1861 495.0
1862 470.0
1863 468.0
1864 495.0
1865 484.0
1866 477.0
1867 447.0
1868 454.0
1869 443.0
1870 444.0
1871 450.0
1872 515.0
1873 443.0
1874 443.0
1875 466.0
1876 459.0
1877 497.0
1878 499.0
1879 447.0
1880 437.0
1881 431.0
1882 426.0
1883 457.0
1884 459.0
1885 466.0
1886 479.0
1887 457.0
1888 434.0
1889 423.0
1890 437.0
1891 449.0
1892 456.0
1893 459.0
1894 423.0
1895 460.0
1896 446.0
1897 442.0
1898 415.0
1899 457.0
1900 438.0
1901 459.0
1902 451.0
1903 459.0
1904 478.0
1905 471.0
1906 427.0
1907 467.0
1908 477.0
1909 501.0
1910 483.0
1911 463.0
1912 439.0
1913 496.0
1914 420.0
1915 445.0
1916 441.0
1917 459.0
1918 462.0
1919 466.0
1920 468.0
1921 420.0
1922 459.0
1923 443.0
1924 453.0
1925 458.0
1926 470.0
1927 483.0
1928 451.0
1929 474.0
1930 477.0
1931 457.0
1932 451.0
1933 449.0
1934 421.0
1935 476.0
1936 496.0
1937 449.0
1938 446.0
1939 456.0
1940 464.0
1941 456.0
1942 460.0
1943 449.0
1944 430.0
1945 444.0
1946 454.0
1947 434.0
1948 418.0
1949 465.0
1950 478.0
1951 475.0
1952 425.0
1953 469.0
1954 474.0
1955 471.0
1956 435.0
1957 464.0
1958 458.0
1959 467.0
1960 461.0
1961 459.0
1962 474.0
1963 433.0
1964 471.0
1965 458.0
1966 445.0
1967 447.0
1968 496.0
1969 495.0
1970 449.0
1971 448.0
1972 447.0
1973 482.0
1974 463.0
1975 476.0
1976 442.0
1977 425.0
1978 477.0
1979 489.0
1980 450.0
1981 483.0
1982 470.0
1983 474.0
1984 430.0
1985 463.0
1986 475.0
1987 479.0
1988 471.0
1989 483.0
1990 465.0
1991 461.0
1992 481.0
1993 463.0
1994 487.0
1995 440.0
1996 456.0
1997 440.0
1998 431.0
1999 445.0
2000 510.0
2001 488.0
2002 452.0
2003 477.0
2004 480.0
2005 491.0
2006 482.0
2007 470.0
2008 466.0
2009 458.0
2010 431.0
2011 467.0
2012 473.0
2013 477.0
2014 477.0
2015 469.0
2016 453.0
2017 494.0
2018 508.0
2019 528.0
2020 488.0
2021 490.0
2022 529.0
2023 540.0
2024 518.0
2025 504.0
2026 511.0
2027 548.0
2028 508.0
2029 521.0
2030 522.0
2031 531.0
2032 534.0
2033 514.0
2034 548.0
2035 505.0
2036 505.0
2037 531.0
2038 503.0
2039 548.0
2040 566.0
2041 526.0
2042 541.0
2043 545.0
2044 538.0
2045 523.0
2046 547.0
2047 538.0
