0 385.0
1 437.0
2 366.0
3 390.0
4 352.0
5 386.0
6 374.0
7 429.0
8 373.0
9 434.0
10 403.0
11 413.0
12 390.0
13 396.0
14 411.0
15 393.0
16 364.0
17 385.0
18 352.0
19 403.0
20 380.0
21 368.0
22 374.0
23 454.0
24 393.0
25 384.0
26 390.0
27 383.0
28 363.0
29 406.0
30 372.0
31 395.0
32 373.0
33 379.0
34 363.0
35 388.0
36 381.0
37 364.0
38 379.0
39 413.0
40 370.0
41 368.0
42 366.0
43 411.0
44 354.0
45 405.0
46 370.0
47 385.0
48 427.0
49 397.0
50 384.0
51 339.0
52 348.0
53 367.0
54 352.0
55 372.0
56 327.0
57 390.0
58 413.0
59 364.0
60 376.0
61 359.0
62 409.0
63 344.0
64 340.0
65 358.0
66 369.0
67 344.0
68 306.0
69 364.0
70 333.0
71 400.0
72 354.0
73 399.0
74 350.0
75 340.0
76 340.0
77 355.0
78 371.0
79 337.0
80 342.0
81 376.0
82 365.0
83 369.0
84 354.0
85 367.0
86 332.0
87 356.0
88 362.0
89 355.0
90 371.0
91 346.0
92 346.0
93 369.0
94 377.0
95 369.0
96 341.0
97 337.0
98 308.0
99 346.0
100 360.0
101 334.0
102 338.0
103 336.0
104 319.0
105 324.0
106 329.0
107 345.0
108 338.0
109 349.0
110 338.0
111 348.0
112 356.0
113 355.0
114 322.0
115 329.0
116 320.0
117 340.0
118 319.0
119 331.0
120 390.0
121 312.0
122 374.0
123 345.0
124 399.0
125 367.0
126 370.0
127 317.0
128 318.0
129 297.0
130 353.0
131 343.0
132 328.0
133 385.0
134 374.0
135 338.0
136 349.0
137 414.0
138 340.0
139 345.0
140 373.0
141 364.0
142 349.0
143 364.0
144 326.0
145 356.0
146 352.0
147 358.0
148 356.0
149 373.0
150 338.0
151 368.0
152 351.0
153 354.0
154 314.0
155 347.0
156 346.0
157 357.0
158 347.0
159 355.0
160 325.0
161 351.0
162 312.0
163 343.0
164 359.0
165 362.0
166 317.0
167 346.0
168 363.0
169 375.0
170 379.0
171 358.0
172 351.0
173 371.0
174 317.0
175 351.0
176 333.0
177 367.0
178 363.0
179 380.0
180 327.0
181 334.0
182 347.0
183 363.0
184 324.0
185 345.0
186 315.0
187 321.0
188 305.0
189 346.0
190 350.0
191 357.0
192 370.0
193 366.0
194 331.0
195 391.0
196 356.0
197 339.0
198 341.0
199 329.0
200 343.0
201 322.0
202 299.0
203 322.0
204 360.0
205 351.0
206 317.0
207 337.0
208 367.0
209 350.0
210 343.0
211 350.0
212 372.0
213 363.0
214 323.0
215 319.0
216 353.0
217 354.0
218 377.0
219 315.0
220 329.0
221 350.0
222 355.0
223 336.0
224 313.0
225 350.0
226 301.0
227 295.0
228 328.0
229 318.0
230 347.0
231 356.0
232 325.0
233 374.0
234 345.0
235 347.0
236 350.0
237 336.0
238 309.0
239 298.0
240 377.0
241 317.0
242 360.0
243 360.0
244 375.0
245 330.0
246 344.0
247 338.0
248 366.0
249 385.0
250 329.0
251 356.0
252 327.0
253 327.0
254 344.0
255 350.0
256 334.0
257 345.0
258 343.0
259 346.0
260 297.0
261 371.0
262 330.0
263 363.0
264 353.0
265 362.0
266 361.0
267 325.0
268 351.0
269 358.0
270 343.0
271 330.0
272 396.0
273 357.0
274 353.0
275 353.0
276 343.0
277 358.0
278 322.0
279 402.0
280 322.0
281 327.0
282 339.0
283 383.0
284 303.0
285 345.0
286 325.0
287 375.0
288 313.0
289 403.0
290 338.0
291 348.0
292 365.0
293 354.0
294 373.0
295 353.0
296 332.0
297 346.0
298 357.0
299 332.0
300 328.0
301 386.0
302 355.0
303 362.0
304 334.0
305 374.0
306 331.0
307 369.0
308 357.0
309 379.0
310 383.0
311 321.0
312 346.0
313 366.0
314 321.0
315 339.0
316 370.0
317 379.0
318 349.0
319 360.0
320 347.0
321 343.0
322 397.0
323 392.0
324 348.0
325 341.0
326 323.0
327 398.0
328 366.0
329 380.0
330 352.0
331 371.0
332 365.0
333 327.0
334 374.0
335 378.0
336 379.0
337 338.0
338 355.0
339 345.0
340 401.0
341 361.0
342 363.0
343 381.0
344 330.0
345 336.0
346 348.0
347 351.0
348 336.0
349 401.0
350 324.0
351 368.0
352 341.0
353 386.0
354 362.0
355 336.0
356 366.0
357 372.0
358 375.0
359 379.0
360 330.0
361 381.0
362 356.0
363 393.0
364 369.0
365 347.0
366 364.0
367 376.0
368 386.0
369 346.0
370 359.0
371 386.0
372 332.0
373 387.0
374 363.0
375 381.0
376 317.0
377 378.0
378 347.0
379 377.0
380 352.0
381 410.0
382 389.0
383 377.0
384 376.0
385 416.0
386 359.0
387 392.0
388 362.0
389 338.0
390 390.0
391 373.0
392 384.0
393 363.0
394 381.0
395 387.0
396 350.0
397 398.0
398 337.0
399 370.0
400 357.0
401 347.0
402 405.0
403 382.0
404 355.0
405 334.0
406 361.0
407 374.0
408 377.0
409 391.0
410 377.0
411 390.0
412 357.0
413 368.0
414 349.0
415 386.0
416 363.0
417 388.0
418 350.0
419 372.0
420 373.0
421 391.0
422 348.0
423 361.0
424 392.0
425 408.0
426 383.0
427 420.0
428 364.0
429 390.0
430 320.0
431 421.0
432 372.0
433 384.0
434 373.0
435 358.0
436 360.0
437 392.0
438 384.0
439 374.0
440 399.0
441 372.0
442 354.0
443 382.0
444 363.0
445 387.0
446 372.0
447 403.0
448 333.0
449 391.0
450 391.0
451 382.0
452 407.0
453 402.0
454 377.0
455 387.0
456 387.0
457 373.0
458 371.0
459 394.0
460 341.0
461 397.0
462 392.0
463 399.0
464 411.0
465 382.0
466 380.0
467 378.0
468 369.0
469 403.0
470 393.0
471 344.0
472 383.0
473 368.0
474 363.0
475 378.0
476 428.0
477 395.0
478 382.0
479 347.0
480 407.0
481 330.0
482 391.0
483 413.0
484 365.0
485 353.0
486 397.0
487 417.0
488 364.0
489 382.0
490 380.0
491 404.0
492 368.0
493 382.0
494 403.0
495 378.0
496 420.0
497 342.0
498 367.0
499 363.0
500 407.0
501 436.0
502 347.0
503 363.0
504 351.0
505 369.0
506 352.0
507 385.0
508 327.0
509 379.0
510 322.0
511 352.0
512 386.0
513 363.0
514 357.0
515 361.0
516 316.0
517 373.0
518 357.0
519 374.0
520 362.0
521 348.0
522 358.0
523 372.0
524 391.0
525 335.0
526 344.0
527 381.0
528 420.0
529 373.0
530 389.0
531 404.0
532 352.0
533 372.0
534 366.0
535 374.0
536 342.0
537 352.0
538 360.0
539 343.0
540 387.0
541 365.0
542 368.0
543 354.0
544 323.0
545 369.0
546 336.0
547 386.0
548 383.0
549 373.0
550 380.0
551 346.0
552 367.0
553 407.0
554 350.0
555 346.0
556 345.0
557 373.0
558 369.0
559 349.0
560 397.0
561 378.0
562 396.0
563 394.0
564 352.0
565 418.0
566 313.0
567 394.0
568 361.0
569 414.0
570 337.0
571 402.0
572 373.0
573 390.0
574 361.0
575 376.0
576 395.0
577 350.0
578 381.0
579 388.0
580 388.0
581 363.0
582 355.0
583 332.0
584 362.0
585 400.0
586 369.0
587 393.0
588 376.0
589 377.0
590 360.0
591 348.0
592 416.0
593 380.0
594 372.0
595 400.0
596 404.0
597 402.0
598 350.0
599 376.0
600 358.0
601 420.0
602 361.0
603 385.0
604 384.0
605 423.0
606 406.0
607 404.0
608 378.0
609 364.0
610 391.0
611 371.0
612 386.0
613 359.0
614 402.0
615 399.0
616 375.0
617 427.0
618 407.0
619 365.0
620 377.0
621 399.0
622 379.0
623 365.0
624 442.0
625 376.0
626 383.0
627 385.0
628 384.0
629 403.0
630 362.0
631 397.0
632 368.0
633 386.0
634 353.0
635 383.0
636 402.0
637 434.0
638 395.0
639 354.0
640 367.0
641 385.0
642 373.0
643 431.0
644 377.0
645 383.0
646 426.0
647 388.0
648 389.0
649 412.0
650 431.0
651 391.0
652 368.0
653 390.0
654 384.0
655 371.0
656 399.0
657 424.0
658 387.0
659 380.0
660 371.0
661 415.0
662 398.0
663 401.0
664 404.0
665 347.0
666 375.0
667 377.0
668 358.0
669 354.0
670 373.0
671 413.0
672 396.0
673 377.0
674 335.0
675 394.0
676 360.0
677 336.0
678 390.0
679 383.0
680 383.0
681 380.0
682 352.0
683 391.0
684 353.0
685 401.0
686 344.0
687 370.0
688 365.0
689 382.0
690 354.0
691 370.0
692 375.0
693 364.0
694 401.0
695 427.0
696 385.0
697 389.0
698 378.0
699 372.0
700 367.0
701 372.0
702 392.0
703 365.0
704 376.0
705 411.0
706 398.0
707 386.0
708 396.0
709 376.0
710 387.0
711 449.0
712 423.0
713 424.0
714 418.0
715 381.0
716 392.0
717 395.0
718 390.0
719 383.0
720 390.0
721 398.0
722 397.0
723 405.0
724 395.0
725 405.0
726 399.0
727 376.0
728 388.0
729 401.0
730 388.0
731 389.0
732 394.0
733 406.0
734 380.0
735 416.0
736 408.0
737 385.0
738 371.0
739 390.0
740 404.0
741 388.0
742 366.0
743 423.0
744 349.0
745 412.0
746 330.0
747 375.0
748 369.0
749 400.0
750 382.0
751 389.0
752 383.0
753 426.0
754 416.0
755 397.0
756 394.0
757 397.0
758 413.0
759 434.0
760 368.0
761 457.0
762 402.0
763 412.0
764 367.0
765 396.0
766 414.0
767 373.0
768 370.0
769 437.0
770 362.0
771 385.0
772 430.0
773 435.0
774 384.0
775 435.0
776 390.0
777 385.0
778 407.0
779 370.0
780 419.0
781 391.0
782 386.0
783 395.0
784 375.0
785 391.0
786 441.0
787 413.0
788 377.0
789 393.0
790 393.0
791 360.0
792 380.0
793 432.0
794 436.0
795 418.0
796 410.0
797 366.0
798 446.0
799 406.0
800 415.0
801 375.0
802 441.0
803 371.0
804 411.0
805 411.0
806 363.0
807 410.0
808 389.0
809 373.0
810 341.0
811 363.0
812 399.0
813 366.0
814 402.0
815 390.0
816 383.0
817 357.0
818 429.0
819 397.0
820 387.0
821 391.0
822 374.0
823 418.0
824 440.0
825 391.0
826 379.0
827 401.0
828 407.0
829 402.0
830 449.0
831 385.0
832 428.0
833 425.0
834 453.0
835 416.0
836 406.0
837 434.0
838 374.0
839 396.0
840 460.0
841 405.0
842 437.0
843 413.0
844 404.0
845 398.0
846 396.0
847 354.0
848 414.0
849 394.0
850 411.0
851 406.0
852 383.0
853 421.0
854 361.0
855 399.0
856 419.0
857 419.0
858 400.0
859 356.0
860 361.0
861 409.0
862 413.0
863 392.0
864 398.0
865 366.0
866 390.0
867 400.0
868 366.0
869 381.0
870 407.0
871 413.0
872 386.0
873 403.0
874 374.0
875 393.0
876 404.0
877 407.0
878 365.0
879 389.0
880 424.0
881 384.0
882 389.0
883 402.0
884 410.0
885 390.0
886 392.0
887 396.0
888 365.0
889 413.0
890 363.0
891 392.0
892 380.0
893 376.0
894 392.0
895 423.0
896 400.0
897 388.0
898 360.0
899 410.0
900 419.0
901 402.0
902 412.0
903 382.0
904 403.0
905 421.0
906 393.0
907 416.0
908 381.0
909 417.0
910 416.0
911 378.0
912 420.0
913 382.0
914 370.0
915 424.0
916 391.0
917 384.0
918 395.0
919 363.0
920 380.0
921 389.0
922 412.0
923 377.0
924 381.0
925 446.0
926 398.0
927 370.0
928 396.0
929 384.0
930 399.0
931 419.0
932 395.0
933 428.0
934 414.0
935 405.0
936 371.0
937 407.0
938 366.0
939 437.0
940 404.0
941 343.0
942 407.0
943 393.0
944 416.0
945 390.0
946 379.0
947 393.0
948 436.0
949 436.0
950 417.0
951 405.0
952 374.0
953 392.0
954 420.0
955 380.0
956 394.0
957 413.0
958 404.0
959 382.0
960 372.0
961 421.0
962 392.0
963 422.0
964 397.0
965 410.0
966 424.0
967 418.0
968 389.0
969 422.0
970 397.0
971 416.0
972 431.0
973 434.0
974 413.0
975 418.0
976 418.0
977 425.0
978 405.0
979 406.0
980 391.0
981 443.0
982 374.0
983 410.0
984 385.0
985 425.0
986 415.0
987 413.0
988 421.0
989 440.0
990 404.0
991 441.0
992 396.0
993 430.0
994 430.0
995 412.0
996 370.0
997 414.0
998 403.0
999 379.0
1000 364.0
1001 431.0
1002 425.0
1003 397.0
1004 423.0
1005 406.0
1006 369.0
1007 444.0
1008 450.0
1009 383.0
1010 359.0
1011 404.0
1012 418.0
1013 379.0
1014 411.0
1015 437.0
1016 432.0
1017 423.0
1018 415.0
1019 415.0
1020 380.0
1021 410.0
1022 417.0
1023 411.0
1024 369.0
1025 394.0
1026 415.0
1027 408.0
1028 363.0
1029 404.0
1030 379.0
1031 449.0
1032 452.0
1033 401.0
1034 382.0
1035 391.0
1036 404.0
1037 400.0
1038 412.0
1039 403.0
1040 429.0
1041 396.0
1042 460.0
1043 414.0
1044 377.0
1045 412.0
1046 416.0
1047 440.0
1048 415.0
1049 406.0
1050 406.0
1051 404.0
1052 388.0
1053 401.0
1054 435.0
1055 397.0
1056 416.0
1057 412.0
1058 402.0
1059 397.0
1060 412.0
1061 404.0
1062 386.0
1063 419.0
1064 412.0
1065 384.0
1066 390.0
1067 439.0
1068 385.0
1069 402.0
1070 428.0
1071 397.0
1072 441.0
1073 432.0
1074 417.0
1075 448.0
1076 428.0
1077 446.0
1078 442.0
1079 456.0
1080 404.0
1081 422.0
1082 415.0
1083 429.0
1084 432.0
1085 400.0
1086 431.0
1087 453.0
1088 402.0
1089 460.0
1090 430.0
1091 419.0
1092 424.0
1093 459.0
1094 412.0
1095 451.0
1096 403.0
1097 450.0
1098 419.0
1099 432.0
1100 453.0
1101 435.0
1102 421.0
1103 427.0
1104 456.0
1105 410.0
1106 453.0
1107 436.0
1108 453.0
1109 458.0
1110 449.0
1111 428.0
1112 424.0
1113 434.0
1114 467.0
1115 406.0
1116 408.0
1117 428.0
1118 471.0
1119 437.0
1120 471.0
1121 432.0
1122 428.0
1123 439.0
1124 434.0
1125 437.0
1126 440.0
1127 440.0
1128 433.0
1129 419.0
1130 428.0
1131 444.0
1132 438.0
1133 442.0
1134 409.0
1135 376.0
1136 432.0
1137 477.0
1138 429.0
1139 412.0
1140 490.0
1141 434.0
1142 420.0
1143 404.0
1144 418.0
1145 451.0
1146 409.0
1147 426.0
1148 452.0
1149 433.0
1150 407.0
1151 420.0
1152 427.0
1153 402.0
1154 430.0
1155 445.0
1156 422.0
1157 441.0
1158 405.0
1159 431.0
1160 422.0
1161 399.0
1162 424.0
1163 432.0
1164 443.0
1165 433.0
1166 423.0
1167 408.0
1168 410.0
1169 459.0
1170 424.0
1171 415.0
1172 422.0
1173 403.0
1174 461.0
1175 466.0
1176 381.0
1177 473.0
1178 423.0
1179 420.0
1180 455.0
1181 454.0
1182 444.0
1183 441.0
1184 476.0
1185 441.0
1186 387.0
1187 462.0
1188 408.0
1189 448.0
1190 408.0
1191 483.0
1192 415.0
1193 422.0
1194 426.0
1195 424.0
1196 433.0
1197 375.0
1198 405.0
1199 435.0
1200 442.0
1201 418.0
1202 421.0
1203 458.0
1204 419.0
1205 437.0
1206 421.0
1207 450.0
1208 389.0
1209 437.0
1210 406.0
1211 412.0
1212 413.0
1213 440.0
1214 440.0
1215 437.0
1216 450.0
1217 460.0
1218 416.0
1219 414.0
1220 426.0
1221 433.0
1222 450.0
1223 452.0
1224 425.0
1225 443.0
1226 430.0
1227 423.0
1228 440.0
1229 434.0
1230 447.0
1231 391.0
1232 455.0
1233 450.0
1234 427.0
1235 489.0
1236 415.0
1237 447.0
1238 389.0
1239 411.0
1240 430.0
1241 463.0
1242 413.0
1243 418.0
1244 419.0
1245 437.0
1246 443.0
1247 434.0
1248 429.0
1249 413.0
1250 396.0
1251 407.0
1252 443.0
1253 416.0
1254 442.0
1255 462.0
1256 435.0
1257 417.0
1258 382.0
1259 375.0
1260 367.0
1261 435.0
1262 390.0
1263 413.0
1264 417.0
1265 411.0
1266 391.0
1267 395.0
1268 390.0
1269 394.0
1270 415.0
1271 445.0
1272 437.0
1273 401.0
1274 453.0
1275 395.0
1276 434.0
1277 442.0
1278 420.0
1279 436.0
1280 427.0
1281 431.0
1282 393.0
1283 390.0
1284 386.0
1285 417.0
1286 393.0
1287 454.0
1288 425.0
1289 453.0
1290 422.0
1291 414.0
1292 411.0
1293 444.0
1294 440.0
1295 373.0
1296 431.0
1297 405.0
1298 408.0
1299 436.0
1300 436.0
1301 445.0
1302 450.0
1303 456.0
1304 406.0
1305 422.0
1306 418.0
1307 447.0
1308 424.0
1309 447.0
1310 463.0
1311 431.0
1312 407.0
1313 388.0
1314 429.0
1315 393.0
1316 373.0
1317 441.0
1318 432.0
1319 450.0
1320 434.0
1321 428.0
1322 406.0
1323 426.0
1324 433.0
1325 403.0
1326 384.0
1327 399.0
1328 441.0
1329 394.0
1330 433.0
1331 426.0
1332 411.0
1333 444.0
1334 395.0
1335 440.0
1336 369.0
1337 421.0
1338 382.0
1339 451.0
1340 414.0
1341 432.0
1342 428.0
1343 415.0
1344 407.0
1345 435.0
1346 430.0
1347 442.0
1348 421.0
1349 429.0
1350 417.0
1351 425.0
1352 397.0
1353 432.0
1354 414.0
1355 422.0
1356 390.0
1357 420.0
1358 414.0
1359 381.0
1360 429.0
1361 397.0
1362 408.0
1363 401.0
1364 440.0
1365 402.0
1366 428.0
1367 388.0
1368 406.0
1369 394.0
1370 393.0
1371 416.0
1372 428.0
1373 431.0
1374 423.0
1375 430.0
1376 388.0
1377 392.0
1378 417.0
1379 397.0
1380 435.0
1381 456.0
1382 450.0
1383 416.0
1384 434.0
1385 435.0
1386 442.0
1387 417.0
1388 434.0
1389 439.0
1390 439.0
1391 429.0
1392 458.0
1393 409.0
1394 405.0
1395 401.0
1396 416.0
1397 445.0
1398 424.0
1399 456.0
1400 460.0
1401 446.0
1402 464.0
1403 454.0
1404 424.0
1405 480.0
1406 481.0
1407 466.0
1408 449.0
1409 456.0
1410 430.0
1411 458.0
1412 401.0
1413 444.0
1414 470.0
1415 437.0
1416 507.0
1417 444.0
1418 450.0
1419 475.0
1420 478.0
1421 431.0
1422 462.0
1423 449.0
1424 499.0
1425 413.0
1426 433.0
1427 487.0
1428 452.0
1429 505.0
1430 478.0
1431 462.0
1432 439.0
1433 460.0
1434 422.0
1435 433.0
1436 435.0
1437 419.0
1438 456.0
1439 425.0
1440 444.0
1441 451.0
1442 441.0
1443 446.0
1444 470.0
1445 420.0
1446 415.0
1447 444.0
1448 479.0
1449 447.0
1450 426.0
1451 427.0
1452 430.0
1453 425.0
1454 441.0
1455 417.0
1456 435.0
1457 477.0
1458 476.0
1459 458.0
1460 434.0
1461 437.0
1462 440.0
1463 448.0
1464 447.0
1465 445.0
1466 422.0
1467 442.0
1468 438.0
1469 481.0
1470 432.0
1471 447.0
1472 401.0
1473 415.0
1474 458.0
1475 432.0
1476 425.0
1477 444.0
1478 449.0
1479 435.0
1480 458.0
1481 394.0
1482 436.0
1483 430.0
1484 461.0
1485 429.0
1486 401.0
1487 430.0
1488 425.0
1489 390.0
1490 460.0
1491 412.0
1492 441.0
1493 446.0
1494 459.0
1495 448.0
1496 454.0
1497 446.0
1498 449.0
1499 445.0
1500 446.0
1501 437.0
1502 449.0
1503 432.0
1504 416.0
1505 423.0
1506 436.0
1507 470.0
1508 440.0
1509 420.0
1510 439.0
1511 408.0
1512 425.0
1513 434.0
1514 456.0
1515 465.0
1516 460.0
1517 434.0
1518 439.0
1519 426.0
1520 486.0
1521 480.0
1522 459.0
1523 419.0
1524 427.0
1525 449.0
1526 466.0
1527 445.0
1528 431.0
1529 449.0
1530 440.0
1531 427.0
1532 438.0
1533 447.0
1534 478.0
1535 454.0
1536 423.0
1537 431.0
1538 453.0
1539 433.0
1540 429.0
1541 449.0
1542 479.0
1543 448.0
1544 446.0
1545 478.0
1546 468.0
1547 485.0
1548 434.0
1549 453.0
1550 413.0
1551 436.0
1552 482.0
1553 459.0
1554 428.0
1555 452.0
1556 442.0
1557 415.0
1558 459.0
1559 434.0
1560 460.0
1561 429.0
1562 441.0
1563 495.0
1564 437.0
1565 446.0
1566 456.0
1567 446.0
1568 407.0
1569 460.0
1570 471.0
1571 430.0
1572 427.0
1573 465.0
1574 416.0
1575 461.0
1576 439.0
1577 457.0
1578 446.0
1579 472.0
1580 456.0
1581 515.0
1582 492.0
1583 445.0
1584 456.0
1585 456.0
1586 427.0
1587 432.0
1588 416.0
1589 424.0
1590 490.0
1591 471.0
1592 470.0
1593 430.0
1594 440.0
1595 445.0
1596 485.0
1597 437.0
1598 425.0
1599 450.0
1600 440.0
1601 436.0
1602 438.0
1603 466.0
1604 487.0
1605 438.0
1606 472.0
1607 439.0
1608 481.0
1609 483.0
1610 403.0
1611 492.0
1612 485.0
1613 468.0
1614 461.0
1615 423.0
1616 476.0
1617 436.0
1618 448.0
1619 402.0
1620 431.0
1621 448.0
1622 466.0
1623 482.0
1624 455.0
1625 461.0
1626 452.0
1627 423.0
1628 449.0
1629 463.0
1630 456.0
1631 440.0
1632 471.0
1633 406.0
1634 429.0
1635 440.0
1636 418.0
1637 405.0
1638 455.0
1639 442.0
1640 456.0
1641 405.0
1642 436.0
1643 431.0
1644 447.0
1645 446.0
1646 452.0
1647 404.0
1648 421.0
1649 427.0
1650 423.0
1651 464.0
1652 428.0
1653 494.0
1654 427.0
1655 433.0
1656 450.0
1657 436.0
1658 439.0
1659 459.0
1660 408.0
1661 459.0
1662 446.0
1663 457.0
1664 437.0
1665 460.0
1666 413.0
1667 433.0
1668 412.0
1669 404.0
1670 428.0
1671 476.0
1672 416.0
1673 426.0
1674 436.0
1675 458.0
1676 428.0
1677 438.0
1678 415.0
1679 432.0
1680 417.0
1681 454.0
1682 439.0
1683 459.0
1684 482.0
1685 410.0
1686 425.0
1687 461.0
1688 439.0
1689 447.0
1690 463.0
1691 474.0
1692 466.0
1693 443.0
1694 451.0
1695 493.0
1696 439.0
1697 461.0
1698 441.0
1699 441.0
1700 446.0
1701 411.0
1702 448.0
1703 486.0
1704 428.0
1705 465.0
1706 423.0
1707 458.0
1708 473.0
1709 428.0
1710 442.0
1711 401.0
1712 457.0
1713 470.0
1714 450.0
1715 467.0
1716 442.0
1717 464.0
1718 455.0
1719 421.0
1720 427.0
1721 465.0
1722 416.0
1723 453.0
1724 458.0
1725 435.0
1726 444.0
1727 466.0
1728 454.0
1729 433.0
1730 475.0
1731 464.0
1732 475.0
1733 459.0
1734 454.0
1735 479.0
1736 456.0
1737 457.0
1738 451.0
1739 473.0
1740 435.0
1741 464.0
1742 432.0
1743 473.0
1744 502.0
1745 481.0
1746 476.0
1747 432.0
1748 470.0
1749 467.0
1750 414.0
1751 458.0
1752 450.0
1753 453.0
1754 469.0
1755 439.0
1756 489.0
1757 471.0
1758 492.0
1759 444.0
1760 443.0
1761 478.0
1762 441.0
1763 472.0
1764 458.0
1765 493.0
1766 433.0
1767 438.0
1768 494.0
1769 485.0
1770 468.0
1771 436.0
1772 473.0
1773 455.0
1774 458.0
1775 440.0
1776 452.0
1777 470.0
1778 475.0
1779 465.0
1780 468.0
1781 478.0
1782 459.0
1783 437.0
1784 466.0
1785 464.0
1786 415.0
1787 447.0
1788 442.0
1789 467.0
1790 416.0
1791 467.0
1792 441.0
1793 461.0
1794 451.0
1795 468.0
1796 453.0
1797 446.0
1798 452.0
1799 443.0
1800 456.0
1801 466.0
1802 489.0
1803 458.0
1804 465.0
1805 482.0
1806 467.0
1807 468.0
1808 473.0
1809 474.0
1810 441.0
1811 451.0
1812 460.0
1813 474.0
1814 425.0
1815 478.0
1816 427.0
1817 482.0
1818 463.0
1819 486.0
1820 463.0
1821 437.0
1822 465.0
1823 453.0
1824 473.0
1825 465.0
1826 464.0
1827 444.0
1828 430.0
1829 490.0
1830 484.0
1831 442.0
1832 458.0
1833 461.0
1834 477.0
1835 444.0
1836 449.0
1837 469.0
1838 450.0
1839 492.0
1840 442.0
1841 474.0
1842 454.0
1843 477.0
1844 428.0
1845 437.0
1846 483.0
1847 463.0
1848 442.0
1849 450.0
1850 472.0
1851 445.0
1852 511.0
1853 451.0
1854 463.0
1855 442.0
1856 452.0
1857 497.0
1858 475.0
1859 471.0
1860 493.0
1861 482.0
1862 460.0
1863 491.0
1864 485.0
1865 464.0
1866 457.0
1867 484.0
1868 481.0
1869 448.0
1870 440.0
1871 462.0
1872 480.0
1873 472.0
1874 462.0
1875 464.0
1876 421.0
1877 478.0
1878 476.0
1879 461.0
1880 478.0
1881 444.0
1882 455.0
1883 482.0
1884 460.0
1885 469.0
1886 476.0
1887 475.0
1888 469.0
1889 462.0
1890 474.0
1891 462.0
1892 455.0
1893 452.0
1894 455.0
1895 487.0
1896 459.0
1897 443.0
1898 458.0
1899 483.0
1900 423.0
1901 435.0
1902 447.0
1903 483.0
1904 513.0
1905 435.0
1906 475.0
1907 449.0
1908 489.0
1909 476.0
1910 455.0
1911 493.0
1912 466.0
1913 484.0
1914 454.0
1915 425.0
1916 438.0
1917 443.0
1918 468.0
1919 487.0
1920 458.0
1921 447.0
1922 439.0
1923 458.0
1924 479.0
1925 467.0
1926 477.0
1927 467.0
1928 443.0
1929 451.0
1930 417.0
1931 452.0
1932 461.0
1933 451.0
1934 465.0
1935 488.0
1936 464.0
1937 468.0
1938 465.0
1939 462.0
1940 442.0
1941 458.0
1942 442.0
1943 436.0
1944 475.0
1945 467.0
1946 475.0
1947 463.0
1948 452.0
1949 459.0
1950 491.0
1951 437.0
1952 425.0
1953 508.0
1954 493.0
1955 473.0
1956 458.0
1957 474.0
1958 464.0
1959 482.0
1960 474.0
1961 445.0
1962 493.0
1963 468.0
1964 499.0
1965 485.0
1966 454.0
1967 434.0
1968 472.0
1969 515.0
1970 436.0
1971 479.0
1972 467.0
1973 490.0
1974 469.0
1975 496.0
1976 479.0
1977 495.0
1978 493.0
1979 500.0
1980 446.0
1981 471.0
1982 471.0
1983 470.0
1984 480.0
1985 485.0
1986 509.0
1987 479.0
1988 481.0
1989 482.0
1990 434.0
1991 450.0
1992 497.0
1993 452.0
1994 475.0
1995 501.0
1996 481.0
1997 464.0
1998 442.0
1999 481.0
2000 490.0
2001 492.0
2002 494.0
2003 461.0
2004 496.0
2005 471.0
2006 492.0
2007 509.0
2008 480.0
2009 440.0
2010 471.0
2011 484.0
2012 518.0
2013 516.0
2014 512.0
2015 469.0
2016 482.0
2017 527.0
2018 514.0
2019 492.0
2020 508.0
2021 519.0
2022 493.0
2023 525.0
2024 512.0
2025 548.0
2026 523.0
2027 542.0
2028 526.0
2029 558.0
2030 532.0
2031 495.0
2032 513.0
2033 559.0
2034 505.0
2035 508.0
2036 531.0
2037 512.0
2038 557.0
2039 532.0
2040 548.0
2041 517.0
2042 528.0
2043 530.0
2044 546.0
2045 546.0
2046 552.0
2047 534.0
