
Integration time [ms]:   1.000
Averaging Nr. [scans]: 1
Smoothing Nr. [pixels]: 0
Data measured with spectrometer [name]: VIS
Wave   ;Sample   ;Dark     ;Reference
[nm]   ;[counts] ;[counts] ;[counts] 

450.961;  200.250;  200.375;    0.000
451.100;  228.250;  241.375;    0.000
451.239;  210.250;  201.375;    0.000
451.377;  219.250;  262.375;    0.000
451.516;  185.250;  229.375;    0.000
451.655;  193.250;  211.375;    0.000
451.794;  215.250;  225.375;    0.000
451.932;  248.250;  247.375;    0.000
452.071;  234.250;  260.375;    0.000
452.210;  213.250;  235.375;    0.000
452.348;  229.250;  276.375;    0.000
452.487;  212.250;  259.375;    0.000
452.626;  235.250;  254.375;    0.000
452.764;  226.250;  233.375;    0.000
452.903;  249.250;  202.375;    0.000
453.042;  257.250;  211.375;    0.000
453.180; 3309.250;  240.375;    0.000
453.319; 3456.250;  238.375;    0.000
453.458; 3506.250;  215.375;    0.000
453.596; 3421.250;  252.375;    0.000
453.735; 3415.250;  240.375;    0.000
453.873; 3563.250;  257.375;    0.000
454.012; 3487.250;  228.375;    0.000
454.150; 3528.250;  270.375;    0.000
454.289; 3607.250;  233.375;    0.000
454.427; 3706.250;  243.375;    0.000
454.566; 3700.250;  257.375;    0.000
454.704; 3642.250;  243.375;    0.000
454.843; 3665.250;  190.375;    0.000
454.981; 3816.250;  271.375;    0.000
455.120; 3674.250;  210.375;    0.000
455.258; 3759.250;  235.375;    0.000
455.397; 3872.250;  214.375;    0.000
455.535; 3939.250;  214.375;    0.000
455.674; 3879.250;  184.375;    0.000
455.812; 3966.250;  228.375;    0.000
455.951; 3964.250;  204.375;    0.000
456.089; 3971.250;  220.375;    0.000
456.227; 3886.250;  196.375;    0.000
456.366; 3972.250;  261.375;    0.000
456.504; 4202.250;  249.375;    0.000
456.642; 4193.250;  245.375;    0.000
456.781; 4154.250;  183.375;    0.000
456.919; 4280.250;  203.375;    0.000
457.057; 4295.250;  177.375;    0.000
457.196; 4286.250;  191.375;    0.000
457.334; 4349.250;  233.375;    0.000
457.472; 4464.250;  214.375;    0.000
457.610; 4553.250;  230.375;    0.000
457.749; 4532.250;  247.375;    0.000
457.887; 4666.250;  220.375;    0.000
458.025; 4613.250;  195.375;    0.000
458.163; 4553.250;  224.375;    0.000
458.301; 4899.250;  228.375;    0.000
458.440; 4901.250;  200.375;    0.000
458.578; 5060.250;  233.375;    0.000
458.716; 5189.250;  182.375;    0.000
458.854; 5199.250;  251.375;    0.000
458.992; 5226.250;  187.375;    0.000
459.130; 5393.250;  229.375;    0.000
459.269; 5377.250;  237.375;    0.000
459.407; 5417.250;  228.375;    0.000
459.545; 5496.250;  216.375;    0.000
459.683; 5602.250;  204.375;    0.000
459.821; 5595.250;  191.375;    0.000
459.959; 5759.250;  227.375;    0.000
460.097; 5767.250;  221.375;    0.000
460.235; 5933.250;  241.375;    0.000
460.373; 5920.250;  231.375;    0.000
460.511; 6050.250;  214.375;    0.000
460.649; 5990.250;  172.375;    0.000
460.787; 6024.250;  275.375;    0.000
460.925; 5903.250;  175.375;    0.000
461.063; 6041.250;  252.375;    0.000
461.201; 6092.250;  210.375;    0.000
461.339; 6068.250;  237.375;    0.000
461.477; 6113.250;  210.375;    0.000
461.615; 6268.250;  236.375;    0.000
461.753; 6303.250;  215.375;    0.000
461.891; 6395.250;  222.375;    0.000
462.029; 6515.250;  227.375;    0.000
462.166; 6553.250;  202.375;    0.000
462.304; 6659.250;  191.375;    0.000
462.442; 6930.250;  210.375;    0.000
462.580; 6772.250;  184.375;    0.000
462.718; 6974.250;  220.375;    0.000
462.856; 6979.250;  226.375;    0.000
462.993; 6982.250;  254.375;    0.000
463.131; 6984.250;  200.375;    0.000
463.269; 6879.250;  215.375;    0.000
463.407; 6658.250;  213.375;    0.000
463.545; 6484.250;  242.375;    0.000
463.682; 6670.250;  212.375;    0.000
463.820; 6945.250;  185.375;    0.000
463.958; 7356.250;  212.375;    0.000
464.095; 7306.250;  181.375;    0.000
464.233; 7357.250;  192.375;    0.000
464.371; 7426.250;  247.375;    0.000
464.509; 7225.250;  151.375;    0.000
464.646; 7181.250;  207.375;    0.000
464.784; 7102.250;  199.375;    0.000
464.921; 7015.250;  253.375;    0.000
465.059; 6902.250;  214.375;    0.000
465.197; 6603.250;  200.375;    0.000
465.334; 6637.250;  180.375;    0.000
465.472; 6500.250;  204.375;    0.000
465.609; 6348.250;  203.375;    0.000
465.747; 6416.250;  214.375;    0.000
465.885; 6304.250;  233.375;    0.000
466.022; 6291.250;  215.375;    0.000
466.160; 6255.250;  201.375;    0.000
466.297; 6217.250;  196.375;    0.000
466.435; 6121.250;  230.375;    0.000
466.572; 6065.250;  227.375;    0.000
466.710; 6016.250;  218.375;    0.000
466.847; 6162.250;  245.375;    0.000
466.985; 6053.250;  223.375;    0.000
467.122; 6053.250;  168.375;    0.000
467.260; 6073.250;  196.375;    0.000
467.397; 5975.250;  198.375;    0.000
467.534; 6106.250;  219.375;    0.000
467.672; 6025.250;  214.375;    0.000
467.809; 6037.250;  185.375;    0.000
467.947; 5923.250;  247.375;    0.000
468.084; 6030.250;  196.375;    0.000
468.221; 6040.250;  238.375;    0.000
468.359; 5847.250;  236.375;    0.000
468.496; 6015.250;  235.375;    0.000
468.633; 6030.250;  218.375;    0.000
468.771; 6176.250;  223.375;    0.000
468.908; 6013.250;  208.375;    0.000
469.045; 6050.250;  249.375;    0.000
469.183; 6238.250;  222.375;    0.000
469.320; 6108.250;  216.375;    0.000
469.457; 6235.250;  224.375;    0.000
469.594; 6423.250;  259.375;    0.000
469.732; 6412.250;  223.375;    0.000
469.869; 6430.250;  234.375;    0.000
470.006; 6605.250;  225.375;    0.000
470.143; 6668.250;  243.375;    0.000
470.280; 6722.250;  208.375;    0.000
470.417; 6791.250;  232.375;    0.000
470.555; 6782.250;  218.375;    0.000
470.692; 6581.250;  223.375;    0.000
470.829; 6679.250;  238.375;    0.000
470.966; 6704.250;  205.375;    0.000
471.103; 6582.250;  259.375;    0.000
471.240; 6568.250;  214.375;    0.000
471.377; 6429.250;  226.375;    0.000
471.514; 6500.250;  250.375;    0.000
471.651; 6451.250;  221.375;    0.000
471.789; 6526.250;  242.375;    0.000
471.926; 6351.250;  190.375;    0.000
472.063; 6249.250;  234.375;    0.000
472.200; 6419.250;  252.375;    0.000
472.337; 6252.250;  241.375;    0.000
472.474; 6232.250;  244.375;    0.000
472.611; 6320.250;  268.375;    0.000
472.748; 6157.250;  222.375;    0.000
472.884; 6184.250;  271.375;    0.000
473.021; 6195.250;  195.375;    0.000
473.158; 6049.250;  205.375;    0.000
473.295; 6077.250;  223.375;    0.000
473.432; 6235.250;  216.375;    0.000
473.569; 6207.250;  196.375;    0.000
473.706; 6078.250;  190.375;    0.000
473.843; 6169.250;  211.375;    0.000
473.980; 6231.250;  254.375;    0.000
474.117; 6158.250;  185.375;    0.000
474.253; 6022.250;  229.375;    0.000
474.390; 6284.250;  238.375;    0.000
474.527; 6147.250;  220.375;    0.000
474.664; 6082.250;  242.375;    0.000
474.801; 6194.250;  229.375;    0.000
474.937; 6178.250;  229.375;    0.000
475.074; 6183.250;  210.375;    0.000
475.211; 6244.250;  219.375;    0.000
475.348; 6290.250;  226.375;    0.000
475.484; 6292.250;  207.375;    0.000
475.621; 6338.250;  233.375;    0.000
475.758; 6220.250;  230.375;    0.000
475.894; 6257.250;  234.375;    0.000
476.031; 6378.250;  202.375;    0.000
476.168; 6297.250;  222.375;    0.000
476.304; 6368.250;  237.375;    0.000
476.441; 6397.250;  238.375;    0.000
476.578; 6275.250;  216.375;    0.000
476.714; 6490.250;  212.375;    0.000
476.851; 6523.250;  210.375;    0.000
476.987; 6453.250;  239.375;    0.000
477.124; 6569.250;  250.375;    0.000
477.261; 6562.250;  227.375;    0.000
477.397; 6670.250;  189.375;    0.000
477.534; 6688.250;  204.375;    0.000
477.670; 6829.250;  190.375;    0.000
477.807; 6755.250;  198.375;    0.000
477.943; 6924.250;  216.375;    0.000
478.080; 6944.250;  213.375;    0.000
478.216; 6951.250;  239.375;    0.000
478.353; 6973.250;  218.375;    0.000
478.489; 7078.250;  184.375;    0.000
478.626; 7043.250;  223.375;    0.000
478.762; 7115.250;  213.375;    0.000
478.898; 7248.250;  216.375;    0.000
479.035; 7165.250;  250.375;    0.000
479.171; 7160.250;  201.375;    0.000
479.308; 7288.250;  242.375;    0.000
479.444; 7182.250;  205.375;    0.000
479.580; 7071.250;  203.375;    0.000
479.717; 7147.250;  260.375;    0.000
479.853; 7271.250;  225.375;    0.000
479.989; 7295.250;  226.375;    0.000
480.126; 7274.250;  211.375;    0.000
480.262; 7448.250;  220.375;    0.000
480.398; 7338.250;  207.375;    0.000
480.535; 7492.250;  179.375;    0.000
480.671; 7506.250;  200.375;    0.000
480.807; 7428.250;  190.375;    0.000
480.943; 7345.250;  165.375;    0.000
481.080; 7280.250;  210.375;    0.000
481.216; 7161.250;  232.375;    0.000
481.352; 7100.250;  235.375;    0.000
481.488; 7195.250;  208.375;    0.000
481.624; 7109.250;  245.375;    0.000
481.760; 7175.250;  210.375;    0.000
481.897; 7115.250;  189.375;    0.000
482.033; 7071.250;  256.375;    0.000
482.169; 7174.250;  257.375;    0.000
482.305; 7105.250;  199.375;    0.000
482.441; 7150.250;  182.375;    0.000
482.577; 7102.250;  223.375;    0.000
482.713; 7038.250;  243.375;    0.000
482.849; 6968.250;  197.375;    0.000
482.985; 7065.250;  240.375;    0.000
483.121; 7176.250;  210.375;    0.000
483.258; 7142.250;  248.375;    0.000
483.394; 7252.250;  224.375;    0.000
483.530; 7211.250;  209.375;    0.000
483.665; 7115.250;  225.375;    0.000
483.801; 7103.250;  216.375;    0.000
483.937; 7200.250;  211.375;    0.000
484.073; 7339.250;  259.375;    0.000
484.209; 7232.250;  191.375;    0.000
484.345; 7352.250;  239.375;    0.000
484.481; 7402.250;  231.375;    0.000
484.617; 7393.250;  216.375;    0.000
484.753; 7330.250;  180.375;    0.000
484.889; 7497.250;  252.375;    0.000
485.025; 7435.250;  244.375;    0.000
485.161; 7360.250;  242.375;    0.000
485.296; 7535.250;  235.375;    0.000
485.432; 7504.250;  247.375;    0.000
485.568; 7561.250;  203.375;    0.000
485.704; 7614.250;  229.375;    0.000
485.840; 7675.250;  230.375;    0.000
485.975; 7430.250;  266.375;    0.000
486.111; 7443.250;  220.375;    0.000
486.247; 7459.250;  264.375;    0.000
486.383; 7596.250;  213.375;    0.000
486.518; 7438.250;  222.375;    0.000
486.654; 7580.250;  244.375;    0.000
486.790; 7518.250;  273.375;    0.000
486.926; 7334.250;  203.375;    0.000
487.061; 7265.250;  227.375;    0.000
487.197; 7546.250;  210.375;    0.000
487.333; 7401.250;  209.375;    0.000
487.468; 7296.250;  197.375;    0.000
487.604; 7328.250;  230.375;    0.000
487.740; 7463.250;  254.375;    0.000
487.875; 7362.250;  286.375;    0.000
488.011; 7359.250;  225.375;    0.000
488.146; 7287.250;  251.375;    0.000
488.282; 7443.250;  242.375;    0.000
488.417; 7406.250;  230.375;    0.000
488.553; 7384.250;  260.375;    0.000
488.688; 7448.250;  207.375;    0.000
488.824; 7502.250;  204.375;    0.000
488.960; 7446.250;  248.375;    0.000
489.095; 7352.250;  204.375;    0.000
489.230; 7453.250;  227.375;    0.000
489.366; 7415.250;  226.375;    0.000
489.501; 7472.250;  199.375;    0.000
489.637; 7418.250;  233.375;    0.000
489.772; 7443.250;  249.375;    0.000
489.908; 7337.250;  200.375;    0.000
490.043; 7400.250;  246.375;    0.000
490.178; 7365.250;  222.375;    0.000
490.314; 7310.250;  219.375;    0.000
490.449; 7340.250;  227.375;    0.000
490.585; 7139.250;  209.375;    0.000
490.720; 7187.250;  238.375;    0.000
490.855; 7287.250;  222.375;    0.000
490.991; 7222.250;  202.375;    0.000
491.126; 7165.250;  272.375;    0.000
491.261; 7284.250;  261.375;    0.000
491.396; 7188.250;  190.375;    0.000
491.532; 7206.250;  202.375;    0.000
491.667; 7506.250;  208.375;    0.000
491.802; 7209.250;  203.375;    0.000
491.937; 7479.250;  253.375;    0.000
492.073; 7401.250;  242.375;    0.000
492.208; 7354.250;  230.375;    0.000
492.343; 7296.250;  183.375;    0.000
492.478; 7529.250;  246.375;    0.000
492.613; 7402.250;  223.375;    0.000
492.749; 7337.250;  230.375;    0.000
492.884; 7432.250;  190.375;    0.000
493.019; 7231.250;  234.375;    0.000
493.154; 7355.250;  218.375;    0.000
493.289; 7414.250;  222.375;    0.000
493.424; 7465.250;  196.375;    0.000
493.559; 7335.250;  202.375;    0.000
493.694; 7432.250;  180.375;    0.000
493.829; 7538.250;  224.375;    0.000
493.964; 7380.250;  218.375;    0.000
494.099; 7319.250;  275.375;    0.000
494.234; 7358.250;  226.375;    0.000
494.369; 7431.250;  225.375;    0.000
494.504; 7418.250;  219.375;    0.000
494.639; 7335.250;  296.375;    0.000
494.774; 7376.250;  228.375;    0.000
494.909; 7244.250;  222.375;    0.000
495.044; 7306.250;  215.375;    0.000
495.179; 7326.250;  200.375;    0.000
495.314; 7270.250;  235.375;    0.000
495.449; 7293.250;  249.375;    0.000
495.584; 7265.250;  228.375;    0.000
495.719; 7268.250;  212.375;    0.000
495.854; 7356.250;  201.375;    0.000
495.988; 7336.250;  248.375;    0.000
496.123; 7347.250;  209.375;    0.000
496.258; 7383.250;  249.375;    0.000
496.393; 7375.250;  223.375;    0.000
496.528; 7529.250;  209.375;    0.000
496.663; 7511.250;  207.375;    0.000
496.797; 7510.250;  229.375;    0.000
496.932; 7730.250;  225.375;    0.000
497.067; 7678.250;  218.375;    0.000
497.202; 7733.250;  163.375;    0.000
497.336; 7834.250;  246.375;    0.000
497.471; 8048.250;  229.375;    0.000
497.606; 8092.250;  251.375;    0.000
497.740; 8134.250;  220.375;    0.000
497.875; 8227.250;  216.375;    0.000
498.010; 8352.250;  226.375;    0.000
498.144; 8571.250;  237.375;    0.000
498.279; 8727.250;  196.375;    0.000
498.414; 8910.250;  219.375;    0.000
498.548; 8934.250;  205.375;    0.000
498.683; 9271.250;  206.375;    0.000
498.817; 9436.250;  225.375;    0.000
498.952; 9704.250;  221.375;    0.000
499.087;10210.250;  220.375;    0.000
499.221;10330.250;  233.375;    0.000
499.356;10862.250;  230.375;    0.000
499.490;11139.250;  229.375;    0.000
499.625;11561.250;  231.375;    0.000
499.759;12132.250;  243.375;    0.000
499.894;12506.250;  241.375;    0.000
500.028;13252.250;  264.375;    0.000
500.162;13578.250;  287.375;    0.000
500.297;13969.250;  234.375;    0.000
500.431;14003.250;  230.375;    0.000
500.566;13832.250;  213.375;    0.000
500.700;13681.250;  243.375;    0.000
500.835;13282.250;  272.375;    0.000
500.969;12681.250;  188.375;    0.000
501.103;12340.250;  200.375;    0.000
501.238;11929.250;  257.375;    0.000
501.372;11243.250;  224.375;    0.000
501.506;10800.250;  225.375;    0.000
501.641;10245.250;  271.375;    0.000
501.775; 9975.250;  199.375;    0.000
501.909; 9659.250;  249.375;    0.000
502.043; 9552.250;  211.375;    0.000
502.178; 9223.250;  269.375;    0.000
502.312; 9039.250;  198.375;    0.000
502.446; 9060.250;  256.375;    0.000
502.580; 8602.250;  195.375;    0.000
502.715; 8427.250;  224.375;    0.000
502.849; 8348.250;  245.375;    0.000
502.983; 8328.250;  250.375;    0.000
503.117; 8219.250;  193.375;    0.000
503.251; 8126.250;  242.375;    0.000
503.385; 7802.250;  227.375;    0.000
503.520; 7815.250;  235.375;    0.000
503.654; 7625.250;  220.375;    0.000
503.788; 7648.250;  267.375;    0.000
503.922; 7512.250;  220.375;    0.000
504.056; 7376.250;  238.375;    0.000
504.190; 7478.250;  212.375;    0.000
504.324; 7591.250;  265.375;    0.000
504.458; 7477.250;  228.375;    0.000
504.592; 7393.250;  231.375;    0.000
504.726; 7141.250;  218.375;    0.000
504.860; 7226.250;  253.375;    0.000
504.994; 6972.250;  217.375;    0.000
505.128; 6885.250;  243.375;    0.000
505.262; 6777.250;  194.375;    0.000
505.396; 6553.250;  210.375;    0.000
505.530; 6432.250;  211.375;    0.000
505.664; 6445.250;  219.375;    0.000
505.798; 6253.250;  240.375;    0.000
505.932; 6247.250;  240.375;    0.000
506.066; 6233.250;  252.375;    0.000
506.199; 6227.250;  242.375;    0.000
506.333; 6151.250;  244.375;    0.000
506.467; 6141.250;  223.375;    0.000
506.601; 6118.250;  183.375;    0.000
506.735; 5919.250;  249.375;    0.000
506.869; 5978.250;  270.375;    0.000
507.002; 5956.250;  207.375;    0.000
507.136; 5943.250;  242.375;    0.000
507.270; 5882.250;  232.375;    0.000
507.404; 5748.250;  195.375;    0.000
507.537; 5806.250;  218.375;    0.000
507.671; 5819.250;  246.375;    0.000
507.805; 5806.250;  244.375;    0.000
507.939; 5672.250;  251.375;    0.000
508.072; 5741.250;  212.375;    0.000
508.206; 5690.250;  198.375;    0.000
508.340; 5664.250;  234.375;    0.000
508.473; 5672.250;  217.375;    0.000
508.607; 5633.250;  224.375;    0.000
508.740; 5637.250;  207.375;    0.000
508.874; 5590.250;  230.375;    0.000
509.008; 5577.250;  246.375;    0.000
509.141; 5651.250;  239.375;    0.000
509.275; 5501.250;  229.375;    0.000
509.408; 5465.250;  234.375;    0.000
509.542; 5432.250;  212.375;    0.000
509.675; 5481.250;  256.375;    0.000
509.809; 5398.250;  232.375;    0.000
509.942; 5507.250;  237.375;    0.000
510.076; 5317.250;  226.375;    0.000
510.209; 5421.250;  251.375;    0.000
510.343; 5405.250;  229.375;    0.000
510.476; 5428.250;  285.375;    0.000
510.610; 5320.250;  211.375;    0.000
510.743; 5263.250;  258.375;    0.000
510.877; 5299.250;  244.375;    0.000
511.010; 5327.250;  235.375;    0.000
511.143; 5245.250;  251.375;    0.000
511.277; 5269.250;  228.375;    0.000
511.410; 5308.250;  216.375;    0.000
511.543; 5318.250;  231.375;    0.000
511.677; 5196.250;  244.375;    0.000
511.810; 5223.250;  186.375;    0.000
511.943; 5325.250;  211.375;    0.000
512.077; 5199.250;  201.375;    0.000
512.210; 5206.250;  194.375;    0.000
512.343; 5177.250;  233.375;    0.000
512.476; 5262.250;  234.375;    0.000
512.610; 5309.250;  224.375;    0.000
512.743; 5250.250;  255.375;    0.000
512.876; 5366.250;  264.375;    0.000
513.009; 5381.250;  283.375;    0.000
513.142; 5218.250;  246.375;    0.000
513.276; 5095.250;  217.375;    0.000
513.409; 5176.250;  222.375;    0.000
513.542; 5004.250;  237.375;    0.000
513.675; 5099.250;  238.375;    0.000
513.808; 5082.250;  220.375;    0.000
513.941; 5146.250;  233.375;    0.000
514.074; 5207.250;  248.375;    0.000
514.207; 5299.250;  233.375;    0.000
514.340; 5226.250;  190.375;    0.000
514.474; 5138.250;  221.375;    0.000
514.607; 5268.250;  213.375;    0.000
514.740; 5362.250;  251.375;    0.000
514.873; 5222.250;  257.375;    0.000
515.006; 5346.250;  268.375;    0.000
515.139; 5216.250;  257.375;    0.000
515.272; 5301.250;  227.375;    0.000
515.404; 5352.250;  238.375;    0.000
515.537; 5442.250;  275.375;    0.000
515.670; 5522.250;  239.375;    0.000
515.803; 5617.250;  223.375;    0.000
515.936; 5513.250;  202.375;    0.000
516.069; 5661.250;  188.375;    0.000
516.202; 5740.250;  240.375;    0.000
516.335; 5836.250;  252.375;    0.000
516.468; 6251.250;  254.375;    0.000
516.600; 7805.250;  254.375;    0.000
516.733;10459.250;  255.375;    0.000
516.866; 9823.250;  265.375;    0.000
516.999; 8393.250;  251.375;    0.000
517.132;11076.250;  256.375;    0.000
517.264;16749.250;  202.375;    0.000
517.397;15644.250;  248.375;    0.000
517.530;10386.250;  221.375;    0.000
517.663; 8417.250;  244.375;    0.000
517.795; 7741.250;  245.375;    0.000
517.928; 7639.250;  236.375;    0.000
518.061; 7779.250;  219.375;    0.000
518.193;10994.250;  251.375;    0.000
518.326;19339.250;  271.375;    0.000
518.459;19943.250;  207.375;    0.000
518.591;13218.250;  217.375;    0.000
518.724; 9264.250;  200.375;    0.000
518.857; 7770.250;  204.375;    0.000
518.989; 7138.250;  242.375;    0.000
519.122; 6808.250;  254.375;    0.000
519.254; 6360.250;  239.375;    0.000
519.387; 6139.250;  235.375;    0.000
519.519; 5864.250;  227.375;    0.000
519.652; 5766.250;  178.375;    0.000
519.784; 5725.250;  226.375;    0.000
519.917; 5673.250;  256.375;    0.000
520.049; 5522.250;  234.375;    0.000
520.182; 5419.250;  258.375;    0.000
520.314; 5512.250;  298.375;    0.000
520.447; 5319.250;  204.375;    0.000
520.579; 5257.250;  235.375;    0.000
520.712; 5228.250;  208.375;    0.000
520.844; 5164.250;  272.375;    0.000
520.976; 5167.250;  234.375;    0.000
521.109; 4942.250;  235.375;    0.000
521.241; 4993.250;  250.375;    0.000
521.373; 4913.250;  233.375;    0.000
521.506; 4965.250;  231.375;    0.000
521.638; 4922.250;  258.375;    0.000
521.770; 4900.250;  226.375;    0.000
521.903; 4901.250;  258.375;    0.000
522.035; 4789.250;  263.375;    0.000
522.167; 4735.250;  214.375;    0.000
522.300; 4648.250;  212.375;    0.000
522.432; 4729.250;  220.375;    0.000
522.564; 4727.250;  228.375;    0.000
522.696; 4711.250;  272.375;    0.000
522.828; 4756.250;  222.375;    0.000
522.961; 4573.250;  205.375;    0.000
523.093; 4583.250;  253.375;    0.000
523.225; 4644.250;  239.375;    0.000
523.357; 4640.250;  263.375;    0.000
523.489; 4599.250;  264.375;    0.000
523.621; 4613.250;  259.375;    0.000
523.753; 4498.250;  233.375;    0.000
523.885; 4555.250;  232.375;    0.000
524.018; 4483.250;  214.375;    0.000
524.150; 4416.250;  235.375;    0.000
524.282; 4575.250;  242.375;    0.000
524.414; 4498.250;  261.375;    0.000
524.546; 4462.250;  233.375;    0.000
524.678; 4360.250;  242.375;    0.000
524.810; 4353.250;  216.375;    0.000
524.942; 4326.250;  220.375;    0.000
525.074; 4334.250;  249.375;    0.000
525.206; 4240.250;  227.375;    0.000
525.338; 4393.250;  250.375;    0.000
525.469; 4269.250;  231.375;    0.000
525.601; 4322.250;  245.375;    0.000
525.733; 4256.250;  187.375;    0.000
525.865; 4331.250;  280.375;    0.000
525.997; 4253.250;  216.375;    0.000
526.129; 4221.250;  228.375;    0.000
526.261; 4296.250;  187.375;    0.000
526.393; 4309.250;  228.375;    0.000
526.524; 4160.250;  201.375;    0.000
526.656; 4159.250;  199.375;    0.000
526.788; 4313.250;  233.375;    0.000
526.920; 4179.250;  256.375;    0.000
527.052; 4215.250;  219.375;    0.000
527.183; 4241.250;  227.375;    0.000
527.315; 4220.250;  266.375;    0.000
527.447; 4191.250;  239.375;    0.000
527.578; 4182.250;  213.375;    0.000
527.710; 4210.250;  216.375;    0.000
527.842; 4185.250;  240.375;    0.000
527.973; 4179.250;  286.375;    0.000
528.105; 4164.250;  222.375;    0.000
528.237; 4074.250;  223.375;    0.000
528.368; 4074.250;  211.375;    0.000
528.500; 4179.250;  215.375;    0.000
528.632; 4104.250;  216.375;    0.000
528.763; 4223.250;  234.375;    0.000
528.895; 4050.250;  196.375;    0.000
529.026; 4132.250;  202.375;    0.000
529.158; 4122.250;  226.375;    0.000
529.289; 4153.250;  229.375;    0.000
529.421; 4152.250;  264.375;    0.000
529.552; 4058.250;  265.375;    0.000
529.684; 4149.250;  260.375;    0.000
529.815; 4118.250;  284.375;    0.000
529.947; 4109.250;  237.375;    0.000
530.078; 4129.250;  223.375;    0.000
530.210; 4070.250;  223.375;    0.000
530.341; 4077.250;  209.375;    0.000
530.472; 4046.250;  203.375;    0.000
530.604; 4099.250;  223.375;    0.000
530.735; 4115.250;  218.375;    0.000
530.867; 4036.250;  222.375;    0.000
530.998; 4195.250;  239.375;    0.000
531.129; 4078.250;  250.375;    0.000
531.260; 4120.250;  224.375;    0.000
531.392; 4070.250;  216.375;    0.000
531.523; 4107.250;  234.375;    0.000
531.654; 4212.250;  256.375;    0.000
531.786; 4220.250;  226.375;    0.000
531.917; 4265.250;  239.375;    0.000
532.048; 4108.250;  205.375;    0.000
532.179; 4138.250;  244.375;    0.000
532.311; 4197.250;  235.375;    0.000
532.442; 4145.250;  258.375;    0.000
532.573; 4193.250;  220.375;    0.000
532.704; 4191.250;  213.375;    0.000
532.835; 4162.250;  249.375;    0.000
532.966; 4069.250;  226.375;    0.000
533.097; 4017.250;  246.375;    0.000
533.229; 4177.250;  237.375;    0.000
533.360; 4174.250;  225.375;    0.000
533.491; 4036.250;  241.375;    0.000
533.622; 4083.250;  242.375;    0.000
533.753; 4151.250;  264.375;    0.000
533.884; 4129.250;  245.375;    0.000
534.015; 4184.250;  269.375;    0.000
534.146; 4173.250;  267.375;    0.000
534.277; 4176.250;  282.375;    0.000
534.408; 4184.250;  229.375;    0.000
534.539; 4249.250;  269.375;    0.000
534.670; 4195.250;  231.375;    0.000
534.801; 4147.250;  260.375;    0.000
534.932; 4073.250;  232.375;    0.000
535.063; 4139.250;  227.375;    0.000
535.194; 4093.250;  281.375;    0.000
535.324; 4048.250;  206.375;    0.000
535.455; 4018.250;  257.375;    0.000
535.586; 4143.250;  275.375;    0.000
535.717; 4018.250;  206.375;    0.000
535.848; 4117.250;  271.375;    0.000
535.979; 4011.250;  250.375;    0.000
536.109; 4082.250;  253.375;    0.000
536.240; 4026.250;  234.375;    0.000
536.371; 4060.250;  230.375;    0.000
536.502; 3967.250;  270.375;    0.000
536.632; 3976.250;  228.375;    0.000
536.763; 3944.250;  249.375;    0.000
536.894; 3994.250;  262.375;    0.000
537.025; 3999.250;  258.375;    0.000
537.155; 3948.250;  278.375;    0.000
537.286; 3905.250;  209.375;    0.000
537.417; 4041.250;  255.375;    0.000
537.547; 3930.250;  208.375;    0.000
537.678; 3942.250;  224.375;    0.000
537.808; 3977.250;  224.375;    0.000
537.939; 3917.250;  257.375;    0.000
538.070; 4007.250;  240.375;    0.000
538.200; 3952.250;  259.375;    0.000
538.331; 3936.250;  235.375;    0.000
538.461; 3903.250;  251.375;    0.000
538.592; 3995.250;  245.375;    0.000
538.722; 3954.250;  239.375;    0.000
538.853; 3969.250;  216.375;    0.000
538.983; 3961.250;  226.375;    0.000
539.114; 3866.250;  240.375;    0.000
539.244; 3818.250;  237.375;    0.000
539.375; 4008.250;  198.375;    0.000
539.505; 3895.250;  263.375;    0.000
539.636; 3961.250;  226.375;    0.000
539.766; 3964.250;  229.375;    0.000
539.896; 3894.250;  219.375;    0.000
540.027; 3893.250;  246.375;    0.000
540.157; 3946.250;  218.375;    0.000
540.287; 3955.250;  216.375;    0.000
540.418; 3967.250;  267.375;    0.000
540.548; 3858.250;  260.375;    0.000
540.678; 3905.250;  242.375;    0.000
540.809; 3990.250;  260.375;    0.000
540.939; 3976.250;  257.375;    0.000
541.069; 3980.250;  226.375;    0.000
541.200; 3900.250;  227.375;    0.000
541.330; 3941.250;  218.375;    0.000
541.460; 4026.250;  223.375;    0.000
541.590; 3975.250;  237.375;    0.000
541.720; 3963.250;  222.375;    0.000
541.851; 3935.250;  250.375;    0.000
541.981; 3945.250;  222.375;    0.000
542.111; 3942.250;  212.375;    0.000
542.241; 3964.250;  205.375;    0.000
542.371; 4004.250;  202.375;    0.000
542.501; 4066.250;  218.375;    0.000
542.631; 4005.250;  222.375;    0.000
542.761; 4164.250;  249.375;    0.000
542.891; 4081.250;  173.375;    0.000
543.021; 4163.250;  218.375;    0.000
543.151; 4208.250;  222.375;    0.000
543.281; 4131.250;  188.375;    0.000
543.411; 4137.250;  239.375;    0.000
543.542; 3987.250;  215.375;    0.000
543.671; 4088.250;  250.375;    0.000
543.801; 4091.250;  212.375;    0.000
543.931; 4016.250;  233.375;    0.000
544.061; 4139.250;  194.375;    0.000
544.191; 4060.250;  218.375;    0.000
544.321; 4083.250;  220.375;    0.000
544.451; 4022.250;  183.375;    0.000
544.581; 4107.250;  221.375;    0.000
544.711; 4228.250;  224.375;    0.000
544.841; 4299.250;  214.375;    0.000
544.970; 4224.250;  227.375;    0.000
545.100; 4382.250;  186.375;    0.000
545.230; 4288.250;  205.375;    0.000
545.360; 4285.250;  211.375;    0.000
545.490; 4300.250;  202.375;    0.000
545.619; 4269.250;  182.375;    0.000
545.749; 4062.250;  174.375;    0.000
545.879; 4191.250;  169.375;    0.000
546.009; 3997.250;  182.375;    0.000
546.138; 4163.250;  200.375;    0.000
546.268; 4039.250;  204.375;    0.000
546.398; 3982.250;  200.375;    0.000
546.527; 4062.250;  179.375;    0.000
546.657; 4115.250;  162.375;    0.000
546.786; 4090.250;  179.375;    0.000
546.916; 4062.250;  221.375;    0.000
547.046; 4166.250;  179.375;    0.000
547.175; 4070.250;  168.375;    0.000
547.305; 4152.250;  200.375;    0.000
547.434; 4130.250;  166.375;    0.000
547.564; 4174.250;  177.375;    0.000
547.693; 4188.250;  152.375;    0.000
547.823; 4138.250;  171.375;    0.000
547.953; 4167.250;  195.375;    0.000
548.082; 4178.250;  214.375;    0.000
548.211; 4156.250;  177.375;    0.000
548.341; 4255.250;  189.375;    0.000
548.470; 4124.250;  194.375;    0.000
548.600; 4102.250;  172.375;    0.000
548.729; 4050.250;  158.375;    0.000
548.859; 4221.250;  193.375;    0.000
548.988; 4160.250;  131.375;    0.000
549.117; 4241.250;  204.375;    0.000
549.247; 4258.250;  191.375;    0.000
549.376; 4172.250;  202.375;    0.000
549.505; 4233.250;  187.375;    0.000
549.635; 4229.250;  198.375;    0.000
549.764; 4117.250;  155.375;    0.000
549.893; 4208.250;  176.375;    0.000
550.023; 4193.250;  202.375;    0.000
550.152; 4279.250;  168.375;    0.000
550.281; 4213.250;  180.375;    0.000
550.410; 4237.250;  180.375;    0.000
550.539; 4333.250;  181.375;    0.000
550.669; 4321.250;  168.375;    0.000
550.798; 4284.250;  223.375;    0.000
550.927; 4267.250;  179.375;    0.000
551.056; 4219.250;  159.375;    0.000
551.185; 4241.250;  199.375;    0.000
551.314; 4315.250;  185.375;    0.000
551.443; 4235.250;  172.375;    0.000
551.573; 4288.250;  158.375;    0.000
551.702; 4308.250;  210.375;    0.000
551.831; 4363.250;  238.375;    0.000
551.960; 4310.250;  191.375;    0.000
552.089; 4402.250;  195.375;    0.000
552.218; 4313.250;  196.375;    0.000
552.347; 4397.250;  194.375;    0.000
552.476; 4414.250;  192.375;    0.000
552.605; 4584.250;  172.375;    0.000
552.734; 4716.250;  214.375;    0.000
552.863; 5005.250;  177.375;    0.000
552.992; 5039.250;  190.375;    0.000
553.121; 4796.250;  185.375;    0.000
553.249; 4713.250;  175.375;    0.000
553.378; 4867.250;  192.375;    0.000
553.507; 4625.250;  193.375;    0.000
553.636; 4596.250;  182.375;    0.000
553.765; 4619.250;  187.375;    0.000
553.894; 4519.250;  214.375;    0.000
554.023; 4512.250;  217.375;    0.000
554.151; 4409.250;  223.375;    0.000
554.280; 4397.250;  170.375;    0.000
554.409; 4388.250;  172.375;    0.000
554.538; 4430.250;  182.375;    0.000
554.666; 4381.250;  195.375;    0.000
554.795; 4331.250;  176.375;    0.000
554.924; 4323.250;  164.375;    0.000
555.052; 4251.250;  171.375;    0.000
555.181; 4330.250;  208.375;    0.000
555.310; 4281.250;  214.375;    0.000
555.439; 4260.250;  193.375;    0.000
555.567; 4248.250;  189.375;    0.000
555.696; 4198.250;  196.375;    0.000
555.824; 4194.250;  183.375;    0.000
555.953; 4209.250;  234.375;    0.000
556.082; 4133.250;  183.375;    0.000
556.210; 4205.250;  199.375;    0.000
556.339; 4180.250;  201.375;    0.000
556.467; 4212.250;  208.375;    0.000
556.596; 4101.250;  194.375;    0.000
556.724; 4103.250;  170.375;    0.000
556.853; 4105.250;  166.375;    0.000
556.981; 4151.250;  185.375;    0.000
557.110; 4079.250;  213.375;    0.000
557.238; 3985.250;  188.375;    0.000
557.367; 4046.250;  176.375;    0.000
557.495; 4133.250;  180.375;    0.000
557.623; 4050.250;  193.375;    0.000
557.752; 3972.250;  207.375;    0.000
557.880; 4035.250;  189.375;    0.000
558.008; 4056.250;  169.375;    0.000
558.137; 4151.250;  203.375;    0.000
558.265; 4090.250;  167.375;    0.000
558.393; 4171.250;  204.375;    0.000
558.522; 4066.250;  203.375;    0.000
558.650; 4055.250;  215.375;    0.000
558.778; 4104.250;  190.375;    0.000
558.906; 4190.250;  186.375;    0.000
559.035; 4174.250;  193.375;    0.000
559.163; 4064.250;  198.375;    0.000
559.291; 4044.250;  222.375;    0.000
559.419; 4025.250;  192.375;    0.000
559.548; 4018.250;  186.375;    0.000
559.676; 4204.250;  199.375;    0.000
559.804; 4127.250;  186.375;    0.000
559.932; 4121.250;  202.375;    0.000
560.060; 4157.250;  183.375;    0.000
560.188; 4164.250;  212.375;    0.000
560.316; 4219.250;  192.375;    0.000
560.444; 4102.250;  180.375;    0.000
560.572; 4063.250;  206.375;    0.000
560.700; 4231.250;  184.375;    0.000
560.828; 4199.250;  177.375;    0.000
560.956; 4274.250;  221.375;    0.000
561.085; 4288.250;  227.375;    0.000
561.212; 4254.250;  208.375;    0.000
561.340; 4220.250;  189.375;    0.000
561.468; 4284.250;  189.375;    0.000
561.596; 4274.250;  183.375;    0.000
561.724; 4201.250;  188.375;    0.000
561.852; 4192.250;  183.375;    0.000
561.980; 4257.250;  209.375;    0.000
562.108; 4239.250;  165.375;    0.000
562.236; 4294.250;  188.375;    0.000
562.364; 4271.250;  177.375;    0.000
562.492; 4249.250;  192.375;    0.000
562.619; 4255.250;  187.375;    0.000
562.747; 4402.250;  217.375;    0.000
562.875; 4352.250;  221.375;    0.000
563.003; 4330.250;  199.375;    0.000
563.130; 4347.250;  191.375;    0.000
563.258; 4422.250;  186.375;    0.000
563.386; 4510.250;  191.375;    0.000
563.514; 4529.250;  217.375;    0.000
563.641; 4564.250;  220.375;    0.000
563.769; 4600.250;  186.375;    0.000
563.897; 4702.250;  158.375;    0.000
564.024; 4732.250;  192.375;    0.000
564.152; 4783.250;  217.375;    0.000
564.280; 4773.250;  203.375;    0.000
564.407; 4849.250;  190.375;    0.000
564.535; 4812.250;  188.375;    0.000
564.662; 4881.250;  199.375;    0.000
564.790; 4790.250;  227.375;    0.000
564.917; 5015.250;  160.375;    0.000
565.045; 5011.250;  222.375;    0.000
565.173; 4843.250;  169.375;    0.000
565.300; 5067.250;  208.375;    0.000
565.428; 5032.250;  174.375;    0.000
565.555; 5228.250;  201.375;    0.000
565.682; 5148.250;  180.375;    0.000
565.810; 5316.250;  165.375;    0.000
565.937; 5464.250;  167.375;    0.000
566.065; 5579.250;  190.375;    0.000
566.192; 5705.250;  169.375;    0.000
566.320; 5875.250;  167.375;    0.000
566.447; 5975.250;  151.375;    0.000
566.574; 6099.250;  176.375;    0.000
566.702; 6246.250;  198.375;    0.000
566.829; 6337.250;  209.375;    0.000
566.956; 6322.250;  186.375;    0.000
567.083; 6278.250;  188.375;    0.000
567.211; 6480.250;  159.375;    0.000
567.338; 6554.250;  204.375;    0.000
567.465; 6477.250;  141.375;    0.000
567.593; 6646.250;  168.375;    0.000
567.720; 6662.250;  177.375;    0.000
567.847; 6863.250;  160.375;    0.000
567.974; 6800.250;  139.375;    0.000
568.101; 6593.250;  153.375;    0.000
568.228; 6570.250;  173.375;    0.000
568.356; 6398.250;  149.375;    0.000
568.483; 6086.250;  185.375;    0.000
568.610; 5989.250;  170.375;    0.000
568.737; 6037.250;  223.375;    0.000
568.864; 6206.250;  167.375;    0.000
568.991; 5824.250;  177.375;    0.000
569.118; 5530.250;  169.375;    0.000
569.245; 5245.250;  128.375;    0.000
569.372; 5231.250;  160.375;    0.000
569.499; 5016.250;  156.375;    0.000
569.626; 5011.250;  191.375;    0.000
569.753; 4988.250;  163.375;    0.000
569.880; 4945.250;  167.375;    0.000
570.007; 4868.250;  143.375;    0.000
570.134; 4761.250;  191.375;    0.000
570.261; 4790.250;  164.375;    0.000
570.388; 4719.250;  162.375;    0.000
570.515; 4881.250;  220.375;    0.000
570.642; 4631.250;  184.375;    0.000
570.768; 4627.250;  174.375;    0.000
570.895; 4694.250;  177.375;    0.000
571.022; 4832.250;  152.375;    0.000
571.149; 4663.250;  183.375;    0.000
571.276; 4698.250;  153.375;    0.000
571.402; 4618.250;  190.375;    0.000
571.529; 4578.250;  187.375;    0.000
571.656; 4329.250;  167.375;    0.000
571.783; 4500.250;  186.375;    0.000
571.909; 4398.250;  183.375;    0.000
572.036; 4350.250;  162.375;    0.000
572.163; 4346.250;  196.375;    0.000
572.289; 4327.250;  180.375;    0.000
572.416; 4315.250;  190.375;    0.000
572.543; 4270.250;  174.375;    0.000
572.669; 4276.250;  186.375;    0.000
572.796; 4242.250;  205.375;    0.000
572.922; 4288.250;  185.375;    0.000
573.049; 4174.250;  178.375;    0.000
573.176; 4254.250;  196.375;    0.000
573.302; 4245.250;  202.375;    0.000
573.429; 4200.250;  189.375;    0.000
573.555; 4133.250;  145.375;    0.000
573.682; 4250.250;  228.375;    0.000
573.808; 4142.250;  197.375;    0.000
573.935; 4137.250;  216.375;    0.000
574.061; 4173.250;  173.375;    0.000
574.188; 4223.250;  151.375;    0.000
574.314; 4172.250;  181.375;    0.000
574.440; 4182.250;  167.375;    0.000
574.567; 4147.250;  185.375;    0.000
574.693; 4205.250;  173.375;    0.000
574.820; 4134.250;  164.375;    0.000
574.946; 4107.250;  199.375;    0.000
575.072; 4156.250;  162.375;    0.000
575.198; 4164.250;  225.375;    0.000
575.325; 4233.250;  171.375;    0.000
575.451; 4170.250;  183.375;    0.000
575.577; 4008.250;  190.375;    0.000
575.704; 4087.250;  210.375;    0.000
575.830; 4115.250;  185.375;    0.000
575.956; 4049.250;  168.375;    0.000
576.082; 4024.250;  158.375;    0.000
576.208; 4111.250;  158.375;    0.000
576.335; 4106.250;  196.375;    0.000
576.461; 4066.250;  187.375;    0.000
576.587; 4043.250;  157.375;    0.000
576.713; 4093.250;  156.375;    0.000
576.839; 4090.250;  196.375;    0.000
576.965; 4048.250;  187.375;    0.000
577.091; 3996.250;  204.375;    0.000
577.217; 4118.250;  207.375;    0.000
577.343; 4057.250;  175.375;    0.000
577.469; 4124.250;  197.375;    0.000
577.596; 3949.250;  182.375;    0.000
577.722; 4049.250;  159.375;    0.000
577.848; 4044.250;  162.375;    0.000
577.974; 4023.250;  180.375;    0.000
578.099; 4051.250;  161.375;    0.000
578.225; 3975.250;  180.375;    0.000
578.351; 3977.250;  190.375;    0.000
578.477; 3967.250;  212.375;    0.000
578.603; 3988.250;  179.375;    0.000
578.729; 4036.250;  195.375;    0.000
578.855; 3954.250;  153.375;    0.000
578.981; 3949.250;  162.375;    0.000
579.107; 4038.250;  149.375;    0.000
579.232; 3959.250;  164.375;    0.000
579.358; 4025.250;  162.375;    0.000
579.484; 3958.250;  181.375;    0.000
579.610; 3965.250;  190.375;    0.000
579.735; 3942.250;  191.375;    0.000
579.861; 3860.250;  189.375;    0.000
579.987; 4021.250;  202.375;    0.000
580.113; 4008.250;  197.375;    0.000
580.238; 4037.250;  228.375;    0.000
580.364; 4042.250;  212.375;    0.000
580.490; 4029.250;  225.375;    0.000
580.615; 4009.250;  218.375;    0.000
580.741; 3975.250;  167.375;    0.000
580.867; 4075.250;  215.375;    0.000
580.992; 3954.250;  191.375;    0.000
581.118; 3903.250;  171.375;    0.000
581.243; 3949.250;  204.375;    0.000
581.369; 3970.250;  186.375;    0.000
581.494; 3948.250;  184.375;    0.000
581.620; 4024.250;  212.375;    0.000
581.745; 3916.250;  192.375;    0.000
581.871; 3979.250;  195.375;    0.000
581.996; 3968.250;  160.375;    0.000
582.122; 4017.250;  217.375;    0.000
582.247; 3893.250;  213.375;    0.000
582.373; 4043.250;  187.375;    0.000
582.498; 3986.250;  208.375;    0.000
582.624; 4143.250;  189.375;    0.000
582.749; 4097.250;  185.375;    0.000
582.874; 3963.250;  195.375;    0.000
583.000; 3996.250;  208.375;    0.000
583.125; 3982.250;  147.375;    0.000
583.250; 3948.250;  201.375;    0.000
583.376; 4081.250;  191.375;    0.000
583.501; 3984.250;  206.375;    0.000
583.626; 3987.250;  167.375;    0.000
583.751; 3958.250;  180.375;    0.000
583.877; 4037.250;  185.375;    0.000
584.002; 3947.250;  186.375;    0.000
584.127; 3941.250;  176.375;    0.000
584.252; 3986.250;  214.375;    0.000
584.377; 3988.250;  225.375;    0.000
584.503; 4067.250;  195.375;    0.000
584.628; 4042.250;  206.375;    0.000
584.753; 3937.250;  181.375;    0.000
584.878; 4152.250;  136.375;    0.000
585.003; 4115.250;  215.375;    0.000
585.128; 4186.250;  206.375;    0.000
585.253; 4094.250;  200.375;    0.000
585.378; 4055.250;  169.375;    0.000
585.503; 4111.250;  191.375;    0.000
585.628; 4048.250;  182.375;    0.000
585.753; 4098.250;  164.375;    0.000
585.878; 4074.250;  123.375;    0.000
586.003; 4170.250;  187.375;    0.000
586.128; 4200.250;  198.375;    0.000
586.253; 4191.250;  172.375;    0.000
586.378; 4218.250;  191.375;    0.000
586.503; 4326.250;  190.375;    0.000
586.628; 4188.250;  178.375;    0.000
586.753; 4137.250;  184.375;    0.000
586.878; 4282.250;  169.375;    0.000
587.003; 4274.250;  186.375;    0.000
587.127; 4362.250;  170.375;    0.000
587.252; 4303.250;  170.375;    0.000
587.377; 4385.250;  181.375;    0.000
587.502; 4408.250;  209.375;    0.000
587.627; 4582.250;  210.375;    0.000
587.751; 4540.250;  212.375;    0.000
587.876; 4706.250;  198.375;    0.000
588.001; 4723.250;  161.375;    0.000
588.125; 4949.250;  191.375;    0.000
588.250; 5152.250;  132.375;    0.000
588.375; 5607.250;  183.375;    0.000
588.499; 6128.250;  176.375;    0.000
588.624; 7224.250;  173.375;    0.000
588.749;10683.250;  204.375;    0.000
588.873;23423.250;  179.375;    0.000
588.998;37912.250;  182.375;    0.000
589.122;30337.250;  165.375;    0.000
589.247;16235.250;  185.375;    0.000
589.372;12802.250;  199.375;    0.000
589.496;22402.250;  182.375;    0.000
589.621;29929.250;  158.375;    0.000
589.745;20363.250;  213.375;    0.000
589.870;10606.250;  175.375;    0.000
589.994; 7496.250;  194.375;    0.000
590.118; 6518.250;  218.375;    0.000
590.243; 5915.250;  170.375;    0.000
590.367; 5544.250;  189.375;    0.000
590.492; 5392.250;  196.375;    0.000
590.616; 5215.250;  182.375;    0.000
590.740; 4984.250;  210.375;    0.000
590.865; 4940.250;  242.375;    0.000
590.989; 4839.250;  191.375;    0.000
591.114; 4837.250;  167.375;    0.000
591.238; 4668.250;  194.375;    0.000
591.362; 4841.250;  236.375;    0.000
591.486; 4669.250;  194.375;    0.000
591.611; 4670.250;  154.375;    0.000
591.735; 4765.250;  186.375;    0.000
591.859; 4751.250;  148.375;    0.000
591.983; 4725.250;  211.375;    0.000
592.107; 4747.250;  204.375;    0.000
592.232; 4886.250;  194.375;    0.000
592.356; 4863.250;  238.375;    0.000
592.480; 4972.250;  179.375;    0.000
592.604; 4877.250;  192.375;    0.000
592.728; 4788.250;  201.375;    0.000
592.852; 4772.250;  158.375;    0.000
592.976; 4840.250;  152.375;    0.000
593.100; 4965.250;  194.375;    0.000
593.224; 5063.250;  235.375;    0.000
593.349; 5041.250;  233.375;    0.000
593.473; 4961.250;  194.375;    0.000
593.597; 4905.250;  215.375;    0.000
593.721; 5005.250;  212.375;    0.000
593.844; 4920.250;  220.375;    0.000
593.968; 5029.250;  221.375;    0.000
594.092; 4907.250;  150.375;    0.000
594.216; 4989.250;  212.375;    0.000
594.340; 4895.250;  209.375;    0.000
594.464; 4769.250;  207.375;    0.000
594.588; 4799.250;  195.375;    0.000
594.712; 4794.250;  176.375;    0.000
594.836; 4751.250;  219.375;    0.000
594.959; 4732.250;  215.375;    0.000
595.083; 4535.250;  200.375;    0.000
595.207; 4622.250;  206.375;    0.000
595.331; 4482.250;  207.375;    0.000
595.455; 4398.250;  206.375;    0.000
595.578; 4413.250;  204.375;    0.000
595.702; 4456.250;  225.375;    0.000
595.826; 4352.250;  186.375;    0.000
595.949; 4298.250;  196.375;    0.000
596.073; 4248.250;  188.375;    0.000
596.197; 4257.250;  217.375;    0.000
596.320; 4339.250;  225.375;    0.000
596.444; 4245.250;  220.375;    0.000
596.568; 4064.250;  155.375;    0.000
596.691; 4145.250;  195.375;    0.000
596.815; 4179.250;  163.375;    0.000
596.938; 4176.250;  181.375;    0.000
597.062; 4143.250;  201.375;    0.000
597.186; 4075.250;  200.375;    0.000
597.309; 4047.250;  214.375;    0.000
597.433; 4148.250;  176.375;    0.000
597.556; 3963.250;  193.375;    0.000
597.680; 3930.250;  241.375;    0.000
597.803; 3956.250;  185.375;    0.000
597.926; 4000.250;  200.375;    0.000
598.050; 3939.250;  193.375;    0.000
598.173; 3896.250;  219.375;    0.000
598.297; 3926.250;  223.375;    0.000
598.420; 4003.250;  187.375;    0.000
598.543; 3943.250;  205.375;    0.000
598.667; 3830.250;  177.375;    0.000
598.790; 3969.250;  208.375;    0.000
598.913; 3924.250;  170.375;    0.000
599.037; 3936.250;  212.375;    0.000
599.160; 3940.250;  165.375;    0.000
599.283; 3896.250;  211.375;    0.000
599.406; 3871.250;  207.375;    0.000
599.530; 3847.250;  182.375;    0.000
599.653; 3785.250;  215.375;    0.000
599.776; 3851.250;  167.375;    0.000
599.899; 3901.250;  190.375;    0.000
600.022; 3822.250;  182.375;    0.000
600.145; 3858.250;  180.375;    0.000
600.269; 3921.250;  208.375;    0.000
600.392; 3784.250;  214.375;    0.000
600.515; 3865.250;  196.375;    0.000
600.638; 3750.250;  204.375;    0.000
600.761; 3880.250;  209.375;    0.000
600.884; 3725.250;  207.375;    0.000
601.007; 3747.250;  234.375;    0.000
601.130; 3765.250;  183.375;    0.000
601.253; 3766.250;  211.375;    0.000
601.376; 3721.250;  199.375;    0.000
601.499; 3595.250;  190.375;    0.000
601.622; 3706.250;  210.375;    0.000
601.745; 3851.250;  180.375;    0.000
601.868; 3852.250;  204.375;    0.000
601.991; 3797.250;  188.375;    0.000
602.113; 3778.250;  210.375;    0.000
602.236; 3658.250;  194.375;    0.000
602.359; 3736.250;  213.375;    0.000
602.482; 3741.250;  169.375;    0.000
602.605; 3695.250;  189.375;    0.000
602.728; 3806.250;  236.375;    0.000
602.850; 3736.250;  230.375;    0.000
602.973; 3725.250;  187.375;    0.000
603.096; 3743.250;  201.375;    0.000
603.219; 3738.250;  209.375;    0.000
603.341; 3714.250;  209.375;    0.000
603.464; 3817.250;  194.375;    0.000
603.587; 3745.250;  166.375;    0.000
603.709; 3720.250;  175.375;    0.000
603.832; 3632.250;  239.375;    0.000
603.955; 3742.250;  205.375;    0.000
604.077; 3735.250;  196.375;    0.000
604.200; 3803.250;  188.375;    0.000
604.323; 3753.250;  224.375;    0.000
604.445; 3675.250;  182.375;    0.000
604.568; 3610.250;  199.375;    0.000
604.690; 3642.250;  175.375;    0.000
604.813; 3760.250;  211.375;    0.000
604.935; 3703.250;  171.375;    0.000
605.058; 3584.250;  196.375;    0.000
605.180; 3670.250;  194.375;    0.000
605.303; 3656.250;  198.375;    0.000
605.425; 3651.250;  212.375;    0.000
605.547; 3680.250;  238.375;    0.000
605.670; 3631.250;  207.375;    0.000
605.792; 3636.250;  204.375;    0.000
605.915; 3655.250;  198.375;    0.000
606.037; 3554.250;  215.375;    0.000
606.159; 3687.250;  170.375;    0.000
606.282; 3590.250;  194.375;    0.000
606.404; 3599.250;  207.375;    0.000
606.526; 3668.250;  208.375;    0.000
606.648; 3594.250;  174.375;    0.000
606.771; 3686.250;  170.375;    0.000
606.893; 3534.250;  182.375;    0.000
607.015; 3574.250;  180.375;    0.000
607.137; 3557.250;  187.375;    0.000
607.260; 3640.250;  202.375;    0.000
607.382; 3514.250;  226.375;    0.000
607.504; 3702.250;  208.375;    0.000
607.626; 3568.250;  229.375;    0.000
607.748; 3575.250;  170.375;    0.000
607.870; 3599.250;  208.375;    0.000
607.992; 3674.250;  184.375;    0.000
608.114; 3642.250;  213.375;    0.000
608.237; 3559.250;  237.375;    0.000
608.359; 3570.250;  176.375;    0.000
608.481; 3498.250;  173.375;    0.000
608.603; 3586.250;  189.375;    0.000
608.725; 3512.250;  185.375;    0.000
608.847; 3542.250;  239.375;    0.000
608.969; 3572.250;  237.375;    0.000
609.090; 3592.250;  189.375;    0.000
609.212; 3562.250;  147.375;    0.000
609.334; 3641.250;  177.375;    0.000
609.456; 3624.250;  196.375;    0.000
609.578; 3571.250;  199.375;    0.000
609.700; 3581.250;  167.375;    0.000
609.822; 3502.250;  140.375;    0.000
609.944; 3607.250;  225.375;    0.000
610.065; 3637.250;  183.375;    0.000
610.187; 3542.250;  170.375;    0.000
610.309; 3581.250;  210.375;    0.000
610.431; 3604.250;  185.375;    0.000
610.552; 3548.250;  197.375;    0.000
610.674; 3527.250;  188.375;    0.000
610.796; 3468.250;  162.375;    0.000
610.918; 3537.250;  200.375;    0.000
611.039; 3545.250;  209.375;    0.000
611.161; 3509.250;  201.375;    0.000
611.282; 3516.250;  197.375;    0.000
611.404; 3611.250;  220.375;    0.000
611.526; 3481.250;  159.375;    0.000
611.647; 3567.250;  205.375;    0.000
611.769; 3485.250;  161.375;    0.000
611.890; 3493.250;  173.375;    0.000
612.012; 3572.250;  225.375;    0.000
612.133; 3641.250;  188.375;    0.000
612.255; 3640.250;  217.375;    0.000
612.377; 3549.250;  219.375;    0.000
612.498; 3555.250;  177.375;    0.000
612.619; 3489.250;  211.375;    0.000
612.741; 3593.250;  185.375;    0.000
612.862; 3533.250;  191.375;    0.000
612.984; 3515.250;  190.375;    0.000
613.105; 3500.250;  211.375;    0.000
613.226; 3491.250;  174.375;    0.000
613.348; 3543.250;  235.375;    0.000
613.469; 3477.250;  230.375;    0.000
613.590; 3556.250;  208.375;    0.000
613.712; 3519.250;  244.375;    0.000
613.833; 3528.250;  202.375;    0.000
613.954; 3436.250;  228.375;    0.000
614.076; 3439.250;  220.375;    0.000
614.197; 3505.250;  191.375;    0.000
614.318; 3418.250;  201.375;    0.000
614.439; 3451.250;  212.375;    0.000
614.560; 3501.250;  219.375;    0.000
614.682; 3490.250;  189.375;    0.000
614.803; 3449.250;  188.375;    0.000
614.924; 3484.250;  225.375;    0.000
615.045; 3532.250;  227.375;    0.000
615.166; 3531.250;  200.375;    0.000
615.287; 3544.250;  195.375;    0.000
615.408; 3569.250;  199.375;    0.000
615.529; 3739.250;  227.375;    0.000
615.650; 3495.250;  176.375;    0.000
615.771; 3496.250;  211.375;    0.000
615.892; 3587.250;  212.375;    0.000
616.013; 3649.250;  172.375;    0.000
616.134; 3752.250;  220.375;    0.000
616.255; 3754.250;  251.375;    0.000
616.376; 3709.250;  186.375;    0.000
616.497; 3600.250;  201.375;    0.000
616.618; 3641.250;  149.375;    0.000
616.739; 3561.250;  213.375;    0.000
616.860; 3504.250;  224.375;    0.000
616.981; 3519.250;  224.375;    0.000
617.102; 3553.250;  217.375;    0.000
617.222; 3609.250;  237.375;    0.000
617.343; 3573.250;  205.375;    0.000
617.464; 3507.250;  229.375;    0.000
617.585; 3504.250;  227.375;    0.000
617.705; 3543.250;  191.375;    0.000
617.826; 3559.250;  237.375;    0.000
617.947; 3477.250;  223.375;    0.000
618.068; 3460.250;  189.375;    0.000
618.188; 3421.250;  194.375;    0.000
618.309; 3562.250;  206.375;    0.000
618.430; 3556.250;  229.375;    0.000
618.550; 3465.250;  250.375;    0.000
618.671; 3575.250;  201.375;    0.000
618.791; 3409.250;  226.375;    0.000
618.912; 3472.250;  246.375;    0.000
619.033; 3565.250;  243.375;    0.000
619.153; 3469.250;  208.375;    0.000
619.274; 3530.250;  223.375;    0.000
619.394; 3505.250;  226.375;    0.000
619.515; 3429.250;  188.375;    0.000
619.635; 3435.250;  216.375;    0.000
619.756; 3529.250;  229.375;    0.000
619.876; 3524.250;  216.375;    0.000
619.996; 3515.250;  244.375;    0.000
620.117; 3467.250;  225.375;    0.000
620.237; 3448.250;  207.375;    0.000
620.358; 3467.250;  239.375;    0.000
620.478; 3437.250;  237.375;    0.000
620.598; 3436.250;  237.375;    0.000
620.719; 3434.250;  223.375;    0.000
620.839; 3435.250;  254.375;    0.000
620.959; 3406.250;  244.375;    0.000
621.079; 3385.250;  193.375;    0.000
621.200; 3321.250;  233.375;    0.000
621.320; 3480.250;  270.375;    0.000
621.440; 3412.250;  206.375;    0.000
621.560; 3396.250;  241.375;    0.000
621.681; 3371.250;  231.375;    0.000
621.801; 3329.250;  235.375;    0.000
621.921; 3511.250;  240.375;    0.000
622.041; 3369.250;  244.375;    0.000
622.161; 3465.250;  225.375;    0.000
622.281; 3424.250;  222.375;    0.000
622.401; 3357.250;  238.375;    0.000
622.521; 3532.250;  233.375;    0.000
622.641; 3273.250;  241.375;    0.000
622.761; 3419.250;  233.375;    0.000
622.882; 3409.250;  230.375;    0.000
623.002; 3385.250;  206.375;    0.000
623.121; 3299.250;  217.375;    0.000
623.241; 3397.250;  263.375;    0.000
623.361; 3388.250;  245.375;    0.000
623.481; 3239.250;  194.375;    0.000
623.601; 3455.250;  228.375;    0.000
623.721; 3338.250;  219.375;    0.000
623.841; 3259.250;  234.375;    0.000
623.961; 3367.250;  235.375;    0.000
624.081; 3244.250;  166.375;    0.000
624.201; 3316.250;  229.375;    0.000
624.320; 3266.250;  224.375;    0.000
624.440; 3300.250;  200.375;    0.000
624.560; 3330.250;  220.375;    0.000
624.680; 3359.250;  214.375;    0.000
624.799; 3281.250;  179.375;    0.000
624.919; 3274.250;  199.375;    0.000
625.039; 3357.250;  211.375;    0.000
625.159; 3364.250;  213.375;    0.000
625.278; 3264.250;  178.375;    0.000
625.398; 3331.250;  206.375;    0.000
625.518; 3312.250;  182.375;    0.000
625.637; 3361.250;  206.375;    0.000
625.757; 3297.250;  197.375;    0.000
625.876; 3297.250;  204.375;    0.000
625.996; 3224.250;  222.375;    0.000
626.115; 3217.250;  222.375;    0.000
626.235; 3279.250;  222.375;    0.000
626.354; 3311.250;  211.375;    0.000
626.474; 3205.250;  217.375;    0.000
626.594; 3245.250;  190.375;    0.000
626.713; 3243.250;  200.375;    0.000
626.832; 3330.250;  234.375;    0.000
626.952; 3292.250;  214.375;    0.000
627.071; 3241.250;  243.375;    0.000
627.191; 3323.250;  192.375;    0.000
627.310; 3192.250;  211.375;    0.000
627.429; 3220.250;  218.375;    0.000
627.549; 3281.250;  214.375;    0.000
627.668; 3295.250;  208.375;    0.000
627.787; 3276.250;  199.375;    0.000
627.907; 3219.250;  208.375;    0.000
628.026; 3207.250;  216.375;    0.000
628.145; 3241.250;  170.375;    0.000
628.264; 3292.250;  217.375;    0.000
628.384; 3271.250;  190.375;    0.000
628.503; 3236.250;  203.375;    0.000
628.622; 3244.250;  197.375;    0.000
628.741; 3209.250;  186.375;    0.000
628.860; 3223.250;  191.375;    0.000
628.980; 3230.250;  196.375;    0.000
629.099; 3289.250;  190.375;    0.000
629.218; 3131.250;  165.375;    0.000
629.337; 3201.250;  190.375;    0.000
629.456; 3258.250;  222.375;    0.000
629.575; 3208.250;  197.375;    0.000
629.694; 3199.250;  210.375;    0.000
629.813; 3156.250;  187.375;    0.000
629.932; 3217.250;  224.375;    0.000
630.051; 3196.250;  216.375;    0.000
630.170; 3175.250;  203.375;    0.000
630.289; 3266.250;  178.375;    0.000
630.408; 3121.250;  192.375;    0.000
630.527; 3143.250;  223.375;    0.000
630.646; 3181.250;  177.375;    0.000
630.764; 3228.250;  224.375;    0.000
630.883; 3234.250;  220.375;    0.000
631.002; 3165.250;  187.375;    0.000
631.121; 3152.250;  208.375;    0.000
631.240; 3193.250;  217.375;    0.000
631.359; 3175.250;  241.375;    0.000
631.477; 3222.250;  189.375;    0.000
631.596; 3251.250;  244.375;    0.000
631.715; 3237.250;  241.375;    0.000
631.834; 3273.250;  219.375;    0.000
631.952; 3222.250;  231.375;    0.000
632.071; 3206.250;  197.375;    0.000
632.190; 3190.250;  193.375;    0.000
632.308; 3207.250;  185.375;    0.000
632.427; 3163.250;  188.375;    0.000
632.546; 3164.250;  208.375;    0.000
632.664; 3182.250;  191.375;    0.000
632.783; 3294.250;  201.375;    0.000
632.901; 3170.250;  239.375;    0.000
633.020; 3112.250;  197.375;    0.000
633.138; 3173.250;  189.375;    0.000
633.257; 3094.250;  210.375;    0.000
633.375; 3160.250;  213.375;    0.000
633.494; 3216.250;  206.375;    0.000
633.612; 3233.250;  231.375;    0.000
633.731; 3225.250;  213.375;    0.000
633.849; 3186.250;  244.375;    0.000
633.968; 3147.250;  251.375;    0.000
634.086; 3127.250;  224.375;    0.000
634.204; 3179.250;  212.375;    0.000
634.323; 3143.250;  213.375;    0.000
634.441; 3150.250;  219.375;    0.000
634.559; 3220.250;  198.375;    0.000
634.678; 3210.250;  201.375;    0.000
634.796; 3150.250;  179.375;    0.000
634.914; 3104.250;  255.375;    0.000
635.032; 3212.250;  264.375;    0.000
635.151; 3103.250;  228.375;    0.000
635.269; 3172.250;  223.375;    0.000
635.387; 3192.250;  228.375;    0.000
635.505; 3091.250;  214.375;    0.000
635.623; 3191.250;  279.375;    0.000
635.742; 3078.250;  237.375;    0.000
635.860; 3105.250;  244.375;    0.000
635.978; 3205.250;  213.375;    0.000
636.096; 3124.250;  230.375;    0.000
636.214; 3162.250;  252.375;    0.000
636.332; 3120.250;  221.375;    0.000
636.450; 3223.250;  227.375;    0.000
636.568; 3219.250;  193.375;    0.000
636.686; 3107.250;  208.375;    0.000
636.804; 3132.250;  213.375;    0.000
636.922; 3057.250;  199.375;    0.000
637.040; 3120.250;  202.375;    0.000
637.158; 3122.250;  239.375;    0.000
637.276; 3160.250;  225.375;    0.000
637.394; 3101.250;  217.375;    0.000
637.512; 3093.250;  192.375;    0.000
637.629; 3183.250;  216.375;    0.000
637.747; 3176.250;  198.375;    0.000
637.865; 3185.250;  265.375;    0.000
637.983; 3109.250;  245.375;    0.000
638.101; 3129.250;  199.375;    0.000
638.218; 3058.250;  197.375;    0.000
638.336; 3131.250;  212.375;    0.000
638.454; 3219.250;  227.375;    0.000
638.572; 3207.250;  215.375;    0.000
638.689; 3159.250;  214.375;    0.000
638.807; 3098.250;  233.375;    0.000
638.925; 3120.250;  217.375;    0.000
639.042; 3110.250;  180.375;    0.000
639.160; 3180.250;  220.375;    0.000
639.278; 3126.250;  180.375;    0.000
639.395; 3066.250;  243.375;    0.000
639.513; 3159.250;  207.375;    0.000
639.630; 3138.250;  183.375;    0.000
639.748; 3063.250;  231.375;    0.000
639.865; 3092.250;  215.375;    0.000
639.983; 3048.250;  182.375;    0.000
640.100; 3086.250;  190.375;    0.000
640.218; 2994.250;  224.375;    0.000
640.335; 3144.250;  214.375;    0.000
640.453; 3125.250;  212.375;    0.000
640.570; 3079.250;  224.375;    0.000
640.688; 3072.250;  220.375;    0.000
640.805; 3018.250;  189.375;    0.000
640.922; 3143.250;  256.375;    0.000
641.040; 3051.250;  209.375;    0.000
641.157; 3148.250;  195.375;    0.000
641.274; 3005.250;  195.375;    0.000
641.391; 3204.250;  231.375;    0.000
641.509; 3074.250;  207.375;    0.000
641.626; 3056.250;  227.375;    0.000
641.743; 3131.250;  188.375;    0.000
641.860; 3175.250;  208.375;    0.000
641.978; 3157.250;  222.375;    0.000
642.095; 3158.250;  194.375;    0.000
642.212; 3109.250;  202.375;    0.000
642.329; 3116.250;  241.375;    0.000
642.446; 3102.250;  261.375;    0.000
642.563; 3111.250;  236.375;    0.000
642.681; 3076.250;  228.375;    0.000
642.798; 3063.250;  242.375;    0.000
642.915; 3137.250;  197.375;    0.000
643.032; 3226.250;  239.375;    0.000
643.149; 3216.250;  241.375;    0.000
643.266; 3149.250;  199.375;    0.000
643.383; 3158.250;  200.375;    0.000
643.500; 3157.250;  221.375;    0.000
643.617; 3150.250;  196.375;    0.000
643.734; 3175.250;  207.375;    0.000
643.850; 3215.250;  222.375;    0.000
643.967; 3206.250;  235.375;    0.000
644.084; 3263.250;  233.375;    0.000
644.201; 3240.250;  229.375;    0.000
644.318; 3202.250;  210.375;    0.000
644.435; 3220.250;  234.375;    0.000
644.552; 3224.250;  220.375;    0.000
644.668; 3188.250;  231.375;    0.000
644.785; 3287.250;  231.375;    0.000
644.902; 3284.250;  238.375;    0.000
645.019; 3257.250;  226.375;    0.000
645.135; 3247.250;  179.375;    0.000
645.252; 3281.250;  224.375;    0.000
645.369; 3264.250;  206.375;    0.000
645.485; 3291.250;  200.375;    0.000
645.602; 3367.250;  210.375;    0.000
645.719; 3362.250;  206.375;    0.000
645.835; 3449.250;  247.375;    0.000
645.952; 3501.250;  222.375;    0.000
646.068; 3368.250;  205.375;    0.000
646.185; 3438.250;  230.375;    0.000
646.302; 3496.250;  254.375;    0.000
646.418; 3399.250;  230.375;    0.000
646.535; 3413.250;  214.375;    0.000
646.651; 3417.250;  179.375;    0.000
646.768; 3390.250;  190.375;    0.000
646.884; 3401.250;  208.375;    0.000
647.000; 3510.250;  262.375;    0.000
647.117; 3473.250;  212.375;    0.000
647.233; 3503.250;  228.375;    0.000
647.350; 3534.250;  208.375;    0.000
647.466; 3577.250;  211.375;    0.000
647.582; 3536.250;  196.375;    0.000
647.699; 3569.250;  217.375;    0.000
647.815; 3644.250;  203.375;    0.000
647.931; 3640.250;  201.375;    0.000
648.047; 3685.250;  182.375;    0.000
648.164; 3675.250;  219.375;    0.000
648.280; 3699.250;  213.375;    0.000
648.396; 3751.250;  202.375;    0.000
648.512; 3851.250;  233.375;    0.000
648.629; 3639.250;  206.375;    0.000
648.745; 3762.250;  188.375;    0.000
648.861; 3716.250;  209.375;    0.000
648.977; 3718.250;  218.375;    0.000
649.093; 3690.250;  225.375;    0.000
649.209; 3652.250;  240.375;    0.000
649.325; 3796.250;  253.375;    0.000
649.441; 3745.250;  263.375;    0.000
649.557; 3806.250;  256.375;    0.000
649.673; 3786.250;  211.375;    0.000
649.789; 3903.250;  237.375;    0.000
649.905; 3729.250;  183.375;    0.000
650.021; 3845.250;  238.375;    0.000
650.137; 3802.250;  241.375;    0.000
650.253; 3786.250;  228.375;    0.000
650.369; 3920.250;  221.375;    0.000
650.485; 3885.250;  240.375;    0.000
650.601; 3905.250;  254.375;    0.000
650.717; 3974.250;  201.375;    0.000
650.833; 3958.250;  257.375;    0.000
650.948; 4011.250;  213.375;    0.000
651.064; 4089.250;  223.375;    0.000
651.180; 4073.250;  230.375;    0.000
651.296; 4048.250;  235.375;    0.000
651.411; 4082.250;  221.375;    0.000
651.527; 4132.250;  233.375;    0.000
651.643; 4213.250;  236.375;    0.000
651.759; 4181.250;  268.375;    0.000
651.874; 4219.250;  214.375;    0.000
651.990; 4238.250;  251.375;    0.000
652.105; 4331.250;  217.375;    0.000
652.221; 4339.250;  243.375;    0.000
652.337; 4371.250;  231.375;    0.000
652.452; 4494.250;  238.375;    0.000
652.568; 4570.250;  188.375;    0.000
652.683; 4712.250;  197.375;    0.000
652.799; 4546.250;  194.375;    0.000
652.914; 4656.250;  222.375;    0.000
653.030; 4734.250;  200.375;    0.000
653.145; 4722.250;  235.375;    0.000
653.261; 4839.250;  261.375;    0.000
653.376; 4822.250;  228.375;    0.000
653.492; 5067.250;  222.375;    0.000
653.607; 5150.250;  227.375;    0.000
653.722; 5246.250;  250.375;    0.000
653.838; 5218.250;  255.375;    0.000
653.953; 5410.250;  235.375;    0.000
654.068; 5632.250;  266.375;    0.000
654.184; 5572.250;  210.375;    0.000
654.299; 5750.250;  240.375;    0.000
654.414; 5922.250;  222.375;    0.000
654.530; 6086.250;  222.375;    0.000
654.645; 6363.250;  256.375;    0.000
654.760; 6325.250;  244.375;    0.000
654.875; 6668.250;  229.375;    0.000
654.990; 6904.250;  226.375;    0.000
655.106; 7032.250;  254.375;    0.000
655.221; 7426.250;  251.375;    0.000
655.336; 7601.250;  245.375;    0.000
655.451; 8083.250;  199.375;    0.000
655.566; 8251.250;  228.375;    0.000
655.681; 8913.250;  208.375;    0.000
655.796; 9358.250;  218.375;    0.000
655.911; 9841.250;  233.375;    0.000
656.026;10352.250;  232.375;    0.000
656.141;11100.250;  223.375;    0.000
656.256;11785.250;  247.375;    0.000
656.371;11932.250;  220.375;    0.000
656.486;11649.250;  225.375;    0.000
656.601;11375.250;  257.375;    0.000
656.716;10919.250;  248.375;    0.000
656.831;10401.250;  262.375;    0.000
656.946; 9995.250;  249.375;    0.000
657.060; 9483.250;  245.375;    0.000
657.175; 9116.250;  245.375;    0.000
657.290; 8930.250;  219.375;    0.000
657.405; 8515.250;  286.375;    0.000
657.520; 8142.250;  259.375;    0.000
657.634; 7884.250;  239.375;    0.000
657.749; 7727.250;  227.375;    0.000
657.864; 7552.250;  210.375;    0.000
657.979; 7238.250;  236.375;    0.000
658.093; 7016.250;  210.375;    0.000
658.208; 7021.250;  248.375;    0.000
658.323; 6644.250;  216.375;    0.000
658.437; 6443.250;  248.375;    0.000
658.552; 6480.250;  249.375;    0.000
658.666; 6215.250;  256.375;    0.000
658.781; 6141.250;  247.375;    0.000
658.895; 6041.250;  209.375;    0.000
659.010; 5844.250;  219.375;    0.000
659.125; 5807.250;  215.375;    0.000
659.239; 5702.250;  205.375;    0.000
659.353; 5493.250;  246.375;    0.000
659.468; 5413.250;  245.375;    0.000
659.582; 5477.250;  244.375;    0.000
659.697; 5276.250;  242.375;    0.000
659.811; 5224.250;  239.375;    0.000
659.926; 5149.250;  226.375;    0.000
660.040; 4979.250;  255.375;    0.000
660.154; 5055.250;  225.375;    0.000
660.269; 4925.250;  200.375;    0.000
660.383; 4907.250;  192.375;    0.000
660.497; 4867.250;  218.375;    0.000
660.612; 4838.250;  236.375;    0.000
660.726; 4800.250;  263.375;    0.000
660.840; 4631.250;  205.375;    0.000
660.954; 4594.250;  219.375;    0.000
661.068; 4440.250;  240.375;    0.000
661.183; 4398.250;  221.375;    0.000
661.297; 4319.250;  194.375;    0.000
661.411; 4360.250;  253.375;    0.000
661.525; 4386.250;  246.375;    0.000
661.639; 4279.250;  217.375;    0.000
661.753; 4154.250;  241.375;    0.000
661.867; 4160.250;  276.375;    0.000
661.981; 4071.250;  203.375;    0.000
662.095; 4126.250;  224.375;    0.000
662.209; 3988.250;  217.375;    0.000
662.323; 4012.250;  251.375;    0.000
662.437; 3869.250;  243.375;    0.000
662.551; 3814.250;  244.375;    0.000
662.665; 3802.250;  247.375;    0.000
662.779; 3849.250;  251.375;    0.000
662.893; 3637.250;  254.375;    0.000
663.007; 3705.250;  222.375;    0.000
663.121; 3714.250;  253.375;    0.000
663.235; 3626.250;  270.375;    0.000
663.349; 3561.250;  242.375;    0.000
663.462; 3589.250;  230.375;    0.000
663.576; 3581.250;  230.375;    0.000
663.690; 3544.250;  249.375;    0.000
663.804; 3464.250;  200.375;    0.000
663.917; 3421.250;  204.375;    0.000
664.031; 3437.250;  206.375;    0.000
664.145; 3461.250;  202.375;    0.000
664.258; 3371.250;  221.375;    0.000
664.372; 3287.250;  215.375;    0.000
664.486; 3313.250;  179.375;    0.000
664.599; 3257.250;  208.375;    0.000
664.713; 3305.250;  268.375;    0.000
664.827; 3178.250;  225.375;    0.000
664.940; 3286.250;  222.375;    0.000
665.054; 3307.250;  208.375;    0.000
665.167; 3311.250;  253.375;    0.000
665.281; 3233.250;  237.375;    0.000
665.394; 3282.250;  227.375;    0.000
665.508; 3110.250;  192.375;    0.000
665.621; 3258.250;  175.375;    0.000
665.735; 3166.250;  249.375;    0.000
665.848; 3129.250;  197.375;    0.000
665.961; 3130.250;  206.375;    0.000
666.075; 3014.250;  245.375;    0.000
666.188; 3064.250;  230.375;    0.000
666.301; 3056.250;  219.375;    0.000
666.415; 3049.250;  231.375;    0.000
666.528; 3096.250;  258.375;    0.000
666.641; 2984.250;  243.375;    0.000
666.755; 2959.250;  208.375;    0.000
666.868; 2967.250;  228.375;    0.000
666.981; 3025.250;  244.375;    0.000
667.094; 2951.250;  244.375;    0.000
667.207; 2931.250;  226.375;    0.000
667.321; 2934.250;  175.375;    0.000
667.434; 2862.250;  211.375;    0.000
667.547; 2947.250;  249.375;    0.000
667.660; 2948.250;  225.375;    0.000
667.773; 2746.250;  242.375;    0.000
667.886; 2860.250;  246.375;    0.000
667.999; 2908.250;  244.375;    0.000
668.112; 2882.250;  227.375;    0.000
668.225; 2769.250;  231.375;    0.000
668.338; 2842.250;  256.375;    0.000
668.451; 2761.250;  216.375;    0.000
668.564; 2809.250;  261.375;    0.000
668.677; 2692.250;  230.375;    0.000
668.790; 2719.250;  192.375;    0.000
668.903; 2734.250;  243.375;    0.000
669.016; 2705.250;  201.375;    0.000
669.129; 2745.250;  249.375;    0.000
669.242; 2607.250;  190.375;    0.000
669.354; 2678.250;  219.375;    0.000
669.467; 2688.250;  242.375;    0.000
669.580; 2617.250;  237.375;    0.000
669.693; 2669.250;  243.375;    0.000
669.806; 2630.250;  234.375;    0.000
669.918; 2656.250;  206.375;    0.000
670.031; 2661.250;  258.375;    0.000
670.144; 2603.250;  231.375;    0.000
670.256; 2625.250;  244.375;    0.000
670.369; 2638.250;  262.375;    0.000
670.482; 2593.250;  264.375;    0.000
670.594; 2677.250;  256.375;    0.000
670.707; 2668.250;  224.375;    0.000
670.820; 2679.250;  261.375;    0.000
670.932; 2594.250;  226.375;    0.000
671.045; 2601.250;  243.375;    0.000
671.157; 2567.250;  235.375;    0.000
671.270; 2539.250;  217.375;    0.000
671.382; 2534.250;  267.375;    0.000
671.495; 2540.250;  258.375;    0.000
671.607; 2567.250;  236.375;    0.000
671.720; 2464.250;  200.375;    0.000
671.832; 2558.250;  219.375;    0.000
671.944; 2584.250;  234.375;    0.000
672.057; 2563.250;  226.375;    0.000
672.169; 2630.250;  225.375;    0.000
672.281; 2455.250;  253.375;    0.000
672.394; 2528.250;  238.375;    0.000
672.506; 2501.250;  244.375;    0.000
672.618; 2532.250;  272.375;    0.000
672.731; 2480.250;  247.375;    0.000
672.843; 2502.250;  261.375;    0.000
672.955; 2511.250;  262.375;    0.000
673.067; 2441.250;  253.375;    0.000
673.180; 2519.250;  239.375;    0.000
673.292; 2475.250;  240.375;    0.000
673.404; 2506.250;  243.375;    0.000
673.516; 2440.250;  258.375;    0.000
673.628; 2497.250;  263.375;    0.000
673.740; 2496.250;  250.375;    0.000
673.852; 2426.250;  285.375;    0.000
673.964; 2458.250;  264.375;    0.000
674.076; 2393.250;  260.375;    0.000
674.188; 2391.250;  226.375;    0.000
674.300; 2387.250;  272.375;    0.000
674.412; 2434.250;  259.375;    0.000
674.524; 2370.250;  283.375;    0.000
674.636; 2305.250;  259.375;    0.000
674.748; 2390.250;  238.375;    0.000
674.860; 2374.250;  277.375;    0.000
674.972; 2422.250;  272.375;    0.000
675.084; 2354.250;  244.375;    0.000
675.196; 2373.250;  272.375;    0.000
675.307; 2390.250;  244.375;    0.000
675.419; 2394.250;  219.375;    0.000
675.531; 2432.250;  275.375;    0.000
675.643; 2308.250;  215.375;    0.000
675.755; 2417.250;  243.375;    0.000
675.866; 2374.250;  223.375;    0.000
675.978; 2378.250;  216.375;    0.000
676.090; 2323.250;  242.375;    0.000
676.201; 2307.250;  276.375;    0.000
676.313; 2295.250;  226.375;    0.000
676.425; 2350.250;  234.375;    0.000
676.536; 2288.250;  231.375;    0.000
676.648; 2304.250;  254.375;    0.000
676.759; 2292.250;  273.375;    0.000
676.871; 2298.250;  250.375;    0.000
676.983; 2328.250;  256.375;    0.000
677.094; 2255.250;  210.375;    0.000
677.206; 2297.250;  248.375;    0.000
677.317; 2201.250;  263.375;    0.000
677.429; 2278.250;  238.375;    0.000
677.540; 2309.250;  247.375;    0.000
677.651; 2290.250;  224.375;    0.000
677.763; 2189.250;  217.375;    0.000
677.874; 2237.250;  234.375;    0.000
677.986; 2316.250;  238.375;    0.000
678.097; 2263.250;  226.375;    0.000
678.208; 2294.250;  253.375;    0.000
678.320; 2267.250;  217.375;    0.000
678.431; 2255.250;  238.375;    0.000
678.542; 2175.250;  236.375;    0.000
678.653; 2204.250;  218.375;    0.000
678.765; 2252.250;  275.375;    0.000
678.876; 2236.250;  213.375;    0.000
678.987; 2166.250;  182.375;    0.000
679.098; 2222.250;  221.375;    0.000
679.209; 2187.250;  238.375;    0.000
679.320; 2207.250;  212.375;    0.000
679.432; 2125.250;  231.375;    0.000
679.543; 2202.250;  198.375;    0.000
679.654; 2142.250;  191.375;    0.000
679.765; 2164.250;  214.375;    0.000
679.876; 2136.250;  221.375;    0.000
679.987; 2153.250;  162.375;    0.000
680.098; 2126.250;  230.375;    0.000
680.209; 2206.250;  206.375;    0.000
680.320; 2149.250;  196.375;    0.000
680.431; 2127.250;  191.375;    0.000
680.542; 2203.250;  214.375;    0.000
680.653; 2146.250;  238.375;    0.000
680.763; 2054.250;  182.375;    0.000
680.874; 2109.250;  213.375;    0.000
680.985; 2032.250;  224.375;    0.000
681.096; 2098.250;  222.375;    0.000
681.207; 2142.250;  220.375;    0.000
681.318; 2138.250;  216.375;    0.000
681.428; 2103.250;  229.375;    0.000
681.539; 2063.250;  183.375;    0.000
681.650; 2142.250;  202.375;    0.000
681.760; 2112.250;  223.375;    0.000
681.871; 2118.250;  211.375;    0.000
681.982; 2108.250;  189.375;    0.000
682.093; 2144.250;  222.375;    0.000
682.203; 2160.250;  220.375;    0.000
682.314; 2087.250;  214.375;    0.000
682.424; 2082.250;  208.375;    0.000
682.535; 2055.250;  213.375;    0.000
682.646; 2191.250;  302.375;    0.000
682.756; 2133.250;  255.375;    0.000
682.867; 2120.250;  244.375;    0.000
682.977; 2144.250;  221.375;    0.000
683.088; 2066.250;  259.375;    0.000
683.198; 2076.250;  212.375;    0.000
683.308; 2043.250;  202.375;    0.000
683.419; 2031.250;  255.375;    0.000
683.529; 2065.250;  217.375;    0.000
683.640; 2138.250;  240.375;    0.000
683.750; 2127.250;  181.375;    0.000
683.860; 2076.250;  246.375;    0.000
683.971; 2004.250;  254.375;    0.000
684.081; 2073.250;  235.375;    0.000
684.191; 2054.250;  251.375;    0.000
684.301; 2016.250;  233.375;    0.000
684.412; 2103.250;  202.375;    0.000
684.522; 2053.250;  232.375;    0.000
684.632; 2031.250;  202.375;    0.000
684.742; 2006.250;  254.375;    0.000
684.852; 1947.250;  219.375;    0.000
684.963; 2098.250;  256.375;    0.000
685.073; 2029.250;  253.375;    0.000
685.183; 2102.250;  254.375;    0.000
685.293; 2086.250;  232.375;    0.000
685.403; 2154.250;  242.375;    0.000
685.513; 2058.250;  261.375;    0.000
685.623; 2073.250;  245.375;    0.000
685.733; 2014.250;  254.375;    0.000
685.843; 2072.250;  249.375;    0.000
685.953; 2032.250;  252.375;    0.000
686.063; 2056.250;  227.375;    0.000
686.173; 2077.250;  223.375;    0.000
686.283; 2044.250;  234.375;    0.000
686.393; 2015.250;  239.375;    0.000
686.503; 1963.250;  231.375;    0.000
686.612; 2003.250;  232.375;    0.000
686.722; 2033.250;  258.375;    0.000
686.832; 2031.250;  256.375;    0.000
686.942; 2066.250;  230.375;    0.000
687.052; 2030.250;  274.375;    0.000
687.161; 2048.250;  269.375;    0.000
687.271; 2051.250;  218.375;    0.000
687.381; 1972.250;  235.375;    0.000
687.491; 1986.250;  262.375;    0.000
687.600; 2056.250;  256.375;    0.000
687.710; 2029.250;  225.375;    0.000
687.820; 1986.250;  230.375;    0.000
687.929; 1969.250;  226.375;    0.000
688.039; 2046.250;  228.375;    0.000
688.148; 2033.250;  249.375;    0.000
688.258; 1959.250;  237.375;    0.000
688.367; 2020.250;  260.375;    0.000
688.477; 2015.250;  200.375;    0.000
688.586; 2016.250;  223.375;    0.000
688.696; 1997.250;  223.375;    0.000
688.805; 2062.250;  257.375;    0.000
688.915; 2043.250;  185.375;    0.000
689.024; 1966.250;  227.375;    0.000
689.134; 1939.250;  224.375;    0.000
689.243; 1897.250;  206.375;    0.000
689.352; 2048.250;  275.375;    0.000
689.462; 1978.250;  233.375;    0.000
689.571; 1990.250;  244.375;    0.000
689.680; 1972.250;  261.375;    0.000
689.790; 1971.250;  192.375;    0.000
689.899; 1991.250;  214.375;    0.000
690.008; 1938.250;  255.375;    0.000
690.117; 1936.250;  219.375;    0.000
690.227; 2093.250;  241.375;    0.000
690.336; 1944.250;  231.375;    0.000
690.445; 1918.250;  212.375;    0.000
690.554; 1974.250;  234.375;    0.000
690.663; 1899.250;  210.375;    0.000
690.772; 1943.250;  221.375;    0.000
690.881; 2067.250;  244.375;    0.000
690.990; 1966.250;  247.375;    0.000
691.099; 1940.250;  222.375;    0.000
691.209; 1944.250;  240.375;    0.000
691.318; 1938.250;  223.375;    0.000
691.427; 1902.250;  217.375;    0.000
691.536; 1980.250;  216.375;    0.000
691.644; 1967.250;  194.375;    0.000
691.753; 2055.250;  221.375;    0.000
691.862; 1932.250;  224.375;    0.000
691.971; 1898.250;  191.375;    0.000
692.080; 1953.250;  247.375;    0.000
692.189; 1948.250;  208.375;    0.000
692.298; 1888.250;  203.375;    0.000
692.406; 1931.250;  239.375;    0.000
692.515; 2034.250;  250.375;    0.000
692.624; 1871.250;  226.375;    0.000
692.733; 1927.250;  229.375;    0.000
692.842; 1919.250;  254.375;    0.000
692.950; 1950.250;  242.375;    0.000
693.059; 1986.250;  204.375;    0.000
693.168; 1980.250;  252.375;    0.000
693.276; 1956.250;  195.375;    0.000
693.385; 1932.250;  228.375;    0.000
693.494; 1950.250;  282.375;    0.000
693.602; 1906.250;  221.375;    0.000
693.711; 1937.250;  225.375;    0.000
693.819; 1911.250;  234.375;    0.000
693.928; 1941.250;  229.375;    0.000
694.036; 1924.250;  192.375;    0.000
694.145; 2020.250;  233.375;    0.000
694.253; 1965.250;  277.375;    0.000
694.362; 1900.250;  188.375;    0.000
694.470; 2011.250;  263.375;    0.000
694.579; 1881.250;  253.375;    0.000
694.687; 1943.250;  281.375;    0.000
694.795; 1919.250;  233.375;    0.000
694.904; 1991.250;  223.375;    0.000
695.012; 1962.250;  296.375;    0.000
695.120; 2005.250;  227.375;    0.000
695.229; 2008.250;  269.375;    0.000
695.337; 1936.250;  229.375;    0.000
695.445; 2016.250;  244.375;    0.000
695.553; 1958.250;  259.375;    0.000
695.662; 2003.250;  208.375;    0.000
695.770; 1927.250;  241.375;    0.000
695.878; 1915.250;  239.375;    0.000
695.986; 1951.250;  247.375;    0.000
696.094; 1880.250;  224.375;    0.000
696.202; 1868.250;  205.375;    0.000
696.310; 1926.250;  217.375;    0.000
696.419; 1896.250;  228.375;    0.000
696.527; 1910.250;  246.375;    0.000
696.635; 1873.250;  245.375;    0.000
696.743; 1969.250;  233.375;    0.000
696.851; 1894.250;  251.375;    0.000
696.959; 1929.250;  257.375;    0.000
697.067; 1910.250;  260.375;    0.000
697.174; 1857.250;  223.375;    0.000
697.282; 1927.250;  239.375;    0.000
697.390; 1876.250;  264.375;    0.000
697.498; 1811.250;  227.375;    0.000
697.606; 1886.250;  243.375;    0.000
697.714; 1879.250;  256.375;    0.000
697.822; 1940.250;  278.375;    0.000
697.929; 1951.250;  227.375;    0.000
698.037; 1930.250;  232.375;    0.000
698.145; 1882.250;  256.375;    0.000
698.253; 1896.250;  245.375;    0.000
698.360; 1973.250;  282.375;    0.000
698.468; 1954.250;  244.375;    0.000
698.576; 1942.250;  279.375;    0.000
698.683; 1936.250;  259.375;    0.000
698.791; 1885.250;  265.375;    0.000
698.899; 1935.250;  250.375;    0.000
699.006; 1890.250;  245.375;    0.000
699.114; 1900.250;  280.375;    0.000
699.221; 1881.250;  240.375;    0.000
699.329; 1885.250;  293.375;    0.000
699.436; 1934.250;  216.375;    0.000
699.544; 1942.250;  269.375;    0.000
699.651; 1883.250;  219.375;    0.000
699.759; 1947.250;  245.375;    0.000
699.866; 1983.250;  261.375;    0.000
699.974; 1828.250;  245.375;    0.000
700.081; 1878.250;  257.375;    0.000
700.188; 1902.250;  268.375;    0.000
700.296; 1812.250;  225.375;    0.000
700.403; 1904.250;  257.375;    0.000
700.510; 1927.250;  267.375;    0.000
700.618; 1906.250;  299.375;    0.000
700.725; 1806.250;  223.375;    0.000
700.832; 1821.250;  233.375;    0.000
700.940; 1891.250;  255.375;    0.000
701.047; 1864.250;  244.375;    0.000
701.154; 1842.250;  248.375;    0.000
701.261; 1844.250;  264.375;    0.000
701.368; 1931.250;  299.375;    0.000
701.475; 1872.250;  264.375;    0.000
701.582; 1847.250;  275.375;    0.000
701.690; 1850.250;  261.375;    0.000
701.797; 1911.250;  273.375;    0.000
701.904; 1906.250;  320.375;    0.000
702.011; 1947.250;  299.375;    0.000
702.118; 1920.250;  292.375;    0.000
702.225; 1828.250;  317.375;    0.000
702.332; 1970.250;  307.375;    0.000
702.439; 1936.250;  313.375;    0.000
702.546; 1948.250;  312.375;    0.000
702.652; 1877.250;  297.375;    0.000
702.759; 1903.250;  345.375;    0.000
702.866; 1924.250;  330.375;    0.000
702.973; 1907.250;  303.375;    0.000
703.080; 1975.250;  303.375;    0.000
703.187; 1883.250;  327.375;    0.000
703.294; 1948.250;  325.375;    0.000
703.400; 1799.250;  302.375;    0.000
703.507;  490.250;  344.375;    0.000
703.614;  358.250;  294.375;    0.000
703.720;  306.250;  322.375;    0.000
703.827;  327.250;  329.375;    0.000
703.934;  302.250;  318.375;    0.000
704.040;  276.250;  299.375;    0.000
704.147;  334.250;  352.375;    0.000
704.254;  328.250;  350.375;    0.000
704.360;  340.250;  347.375;    0.000
704.467;  338.250;  336.375;    0.000
704.573;  307.250;  344.375;    0.000
704.680;  348.250;  365.375;    0.000
704.786;  333.250;  332.375;    0.000
704.893;  325.250;  304.375;    0.000
704.999;  314.250;  299.375;    0.000
705.106;  358.250;  365.375;    0.000

