
Integration time [ms]:   1.000
Averaging Nr. [scans]: 1
Smoothing Nr. [pixels]: 0
Data measured with spectrometer [name]: UV2
Wave   ;Sample   ;Dark     ;Reference
[nm]   ;[counts] ;[counts] ;[counts] 

353.533;  212.725;  216.475;    0.000
353.597;  205.725;  244.475;    0.000
353.660;  212.725;  181.475;    0.000
353.723;  180.725;  203.475;    0.000
353.786;  201.725;  180.475;    0.000
353.850;  251.725;  213.475;    0.000
353.913;  187.725;  191.475;    0.000
353.976;  179.725;  195.475;    0.000
354.039;  209.725;  158.475;    0.000
354.102;  231.725;  199.475;    0.000
354.166;  162.725;  185.475;    0.000
354.229;  192.725;  188.475;    0.000
354.292;  170.725;  188.475;    0.000
354.355;  209.725;  226.475;    0.000
354.418;  194.725;  158.475;    0.000
354.481;  194.725;  185.475;    0.000
354.545;  481.725;  191.475;    0.000
354.608;  568.725;  247.475;    0.000
354.671;  545.725;  176.475;    0.000
354.734;  544.725;  198.475;    0.000
354.797;  552.725;  195.475;    0.000
354.860;  589.725;  212.475;    0.000
354.923;  571.725;  184.475;    0.000
354.986;  583.725;  169.475;    0.000
355.050;  585.725;  206.475;    0.000
355.113;  573.725;  210.475;    0.000
355.176;  605.725;  217.475;    0.000
355.239;  614.725;  201.475;    0.000
355.302;  606.725;  193.475;    0.000
355.365;  631.725;  234.475;    0.000
355.428;  675.725;  182.475;    0.000
355.491;  721.725;  233.475;    0.000
355.554;  616.725;  167.475;    0.000
355.617;  656.725;  195.475;    0.000
355.680;  624.725;  198.475;    0.000
355.743;  646.725;  186.475;    0.000
355.806;  647.725;  171.475;    0.000
355.869;  673.725;  244.475;    0.000
355.932;  685.725;  164.475;    0.000
355.995;  695.725;  220.475;    0.000
356.058;  690.725;  172.475;    0.000
356.121;  692.725;  228.475;    0.000
356.184;  777.725;  225.475;    0.000
356.247;  737.725;  161.475;    0.000
356.310;  734.725;  195.475;    0.000
356.373;  770.725;  191.475;    0.000
356.436;  761.725;  147.475;    0.000
356.498;  735.725;  183.475;    0.000
356.561;  711.725;  137.475;    0.000
356.624;  734.725;  186.475;    0.000
356.687;  718.725;  158.475;    0.000
356.750;  751.725;  194.475;    0.000
356.813;  760.725;  186.475;    0.000
356.876;  710.725;  161.475;    0.000
356.939;  762.725;  188.475;    0.000
357.001;  754.725;  200.475;    0.000
357.064;  768.725;  182.475;    0.000
357.127;  787.725;  168.475;    0.000
357.190;  778.725;  157.475;    0.000
357.253;  748.725;  199.475;    0.000
357.316;  742.725;  187.475;    0.000
357.378;  765.725;  174.475;    0.000
357.441;  750.725;  165.475;    0.000
357.504;  724.725;  189.475;    0.000
357.567;  703.725;  116.475;    0.000
357.629;  750.725;  176.475;    0.000
357.692;  743.725;  134.475;    0.000
357.755;  810.725;  175.475;    0.000
357.818;  757.725;  159.475;    0.000
357.880;  736.725;  185.475;    0.000
357.943;  804.725;  159.475;    0.000
358.006;  798.725;  176.475;    0.000
358.069;  796.725;  156.475;    0.000
358.131;  773.725;  170.475;    0.000
358.194;  783.725;  125.475;    0.000
358.257;  745.725;  186.475;    0.000
358.319;  764.725;  139.475;    0.000
358.382;  771.725;  175.475;    0.000
358.445;  815.725;  170.475;    0.000
358.507;  800.725;  129.475;    0.000
358.570;  785.725;  168.475;    0.000
358.633;  773.725;  152.475;    0.000
358.695;  756.725;  194.475;    0.000
358.758;  794.725;  154.475;    0.000
358.821;  763.725;  147.475;    0.000
358.883;  835.725;  163.475;    0.000
358.946;  795.725;  155.475;    0.000
359.008;  781.725;  208.475;    0.000
359.071;  802.725;  182.475;    0.000
359.134;  748.725;  126.475;    0.000
359.196;  810.725;  142.475;    0.000
359.259;  790.725;  138.475;    0.000
359.321;  799.725;  153.475;    0.000
359.384;  798.725;  186.475;    0.000
359.446;  785.725;  152.475;    0.000
359.509;  804.725;  144.475;    0.000
359.571;  824.725;  164.475;    0.000
359.634;  800.725;  171.475;    0.000
359.696;  852.725;  144.475;    0.000
359.759;  789.725;  171.475;    0.000
359.821;  827.725;  161.475;    0.000
359.884;  769.725;  159.475;    0.000
359.946;  851.725;  186.475;    0.000
360.009;  839.725;  171.475;    0.000
360.071;  805.725;  166.475;    0.000
360.134;  846.725;  215.475;    0.000
360.196;  839.725;  138.475;    0.000
360.259;  846.725;  196.475;    0.000
360.321;  812.725;  148.475;    0.000
360.384;  847.725;  150.475;    0.000
360.446;  764.725;  148.475;    0.000
360.508;  870.725;  172.475;    0.000
360.571;  826.725;  155.475;    0.000
360.633;  833.725;  153.475;    0.000
360.696;  830.725;  142.475;    0.000
360.758;  809.725;  165.475;    0.000
360.820;  826.725;  155.475;    0.000
360.883;  802.725;  156.475;    0.000
360.945;  871.725;  171.475;    0.000
361.007;  848.725;  138.475;    0.000
361.070;  829.725;  129.475;    0.000
361.132;  876.725;  166.475;    0.000
361.194;  794.725;  143.475;    0.000
361.257;  796.725;  154.475;    0.000
361.319;  823.725;  176.475;    0.000
361.381;  841.725;  143.475;    0.000
361.443;  849.725;  136.475;    0.000
361.506;  868.725;  160.475;    0.000
361.568;  913.725;  140.475;    0.000
361.630;  858.725;  159.475;    0.000
361.693;  891.725;  162.475;    0.000
361.755;  877.725;  185.475;    0.000
361.817;  935.725;  209.475;    0.000
361.879;  883.725;  161.475;    0.000
361.941;  856.725;  152.475;    0.000
362.004;  880.725;  132.475;    0.000
362.066;  873.725;  159.475;    0.000
362.128;  846.725;  143.475;    0.000
362.190;  902.725;  131.475;    0.000
362.252;  885.725;  131.475;    0.000
362.315;  891.725;  175.475;    0.000
362.377;  879.725;  140.475;    0.000
362.439;  862.725;  140.475;    0.000
362.501;  858.725;  140.475;    0.000
362.563;  871.725;  152.475;    0.000
362.625;  880.725;  174.475;    0.000
362.688;  870.725;  195.475;    0.000
362.750;  926.725;  221.475;    0.000
362.812;  876.725;  171.475;    0.000
362.874;  938.725;  117.475;    0.000
362.936;  945.725;  162.475;    0.000
362.998;  914.725;  142.475;    0.000
363.060;  898.725;  143.475;    0.000
363.122;  893.725;  148.475;    0.000
363.184;  892.725;  179.475;    0.000
363.246;  917.725;  186.475;    0.000
363.308;  892.725;  180.475;    0.000
363.370;  922.725;  200.475;    0.000
363.432;  903.725;  139.475;    0.000
363.494;  939.725;  138.475;    0.000
363.556;  911.725;  114.475;    0.000
363.618;  881.725;  153.475;    0.000
363.680;  944.725;  153.475;    0.000
363.742;  888.725;  178.475;    0.000
363.804;  910.725;  214.475;    0.000
363.866;  948.725;  170.475;    0.000
363.928;  897.725;  145.475;    0.000
363.990;  875.725;  215.475;    0.000
364.052;  933.725;  166.475;    0.000
364.114;  896.725;  168.475;    0.000
364.176;  977.725;  176.475;    0.000
364.238;  933.725;  203.475;    0.000
364.300;  966.725;  158.475;    0.000
364.362;  891.725;  152.475;    0.000
364.424;  885.725;  119.475;    0.000
364.486;  969.725;  187.475;    0.000
364.548;  995.725;  180.475;    0.000
364.609;  962.725;  212.475;    0.000
364.671;  940.725;  165.475;    0.000
364.733;  991.725;  190.475;    0.000
364.795;  907.725;  148.475;    0.000
364.857;  922.725;  159.475;    0.000
364.919;  908.725;  159.475;    0.000
364.981;  979.725;  191.475;    0.000
365.042;  966.725;  170.475;    0.000
365.104;  958.725;  145.475;    0.000
365.166;  898.725;  134.475;    0.000
365.228;  957.725;  150.475;    0.000
365.290;  900.725;  158.475;    0.000
365.351;  912.725;  168.475;    0.000
365.413;  944.725;  173.475;    0.000
365.475; 1004.725;  172.475;    0.000
365.537;  947.725;  126.475;    0.000
365.598;  953.725;  160.475;    0.000
365.660;  923.725;  127.475;    0.000
365.722;  899.725;  189.475;    0.000
365.784;  961.725;  161.475;    0.000
365.845;  882.725;  152.475;    0.000
365.907;  933.725;  117.475;    0.000
365.969;  974.725;  146.475;    0.000
366.030;  984.725;  171.475;    0.000
366.092;  909.725;  155.475;    0.000
366.154;  988.725;  137.475;    0.000
366.215;  947.725;  147.475;    0.000
366.277;  986.725;  148.475;    0.000
366.339;  977.725;  158.475;    0.000
366.400;  953.725;  140.475;    0.000
366.462;  975.725;  159.475;    0.000
366.524;  996.725;  160.475;    0.000
366.585;  978.725;  157.475;    0.000
366.647;  999.725;  170.475;    0.000
366.708;  947.725;  123.475;    0.000
366.770;  992.725;  194.475;    0.000
366.832;  929.725;  191.475;    0.000
366.893;  958.725;  155.475;    0.000
366.955;  920.725;  132.475;    0.000
367.016;  958.725;  126.475;    0.000
367.078;  953.725;  202.475;    0.000
367.139;  953.725;  116.475;    0.000
367.201;  928.725;  134.475;    0.000
367.262;  979.725;  157.475;    0.000
367.324;  990.725;  202.475;    0.000
367.385;  931.725;  118.475;    0.000
367.447;  989.725;  155.475;    0.000
367.508; 1015.725;  134.475;    0.000
367.570;  906.725;  165.475;    0.000
367.631;  970.725;  118.475;    0.000
367.693; 1036.725;  170.475;    0.000
367.754;  971.725;  154.475;    0.000
367.816;  964.725;  146.475;    0.000
367.877; 1028.725;  175.475;    0.000
367.939; 1018.725;  200.475;    0.000
368.000;  961.725;  168.475;    0.000
368.062;  998.725;  138.475;    0.000
368.123;  995.725;  170.475;    0.000
368.184; 1047.725;  188.475;    0.000
368.246;  960.725;  145.475;    0.000
368.307; 1021.725;  163.475;    0.000
368.369;  982.725;  144.475;    0.000
368.430;  970.725;  140.475;    0.000
368.491; 1040.725;  133.475;    0.000
368.553;  931.725;  145.475;    0.000
368.614;  951.725;  158.475;    0.000
368.675;  982.725;  147.475;    0.000
368.737; 1030.725;  157.475;    0.000
368.798;  995.725;  163.475;    0.000
368.859; 1012.725;  173.475;    0.000
368.921; 1020.725;  122.475;    0.000
368.982; 1018.725;  184.475;    0.000
369.043; 1014.725;  169.475;    0.000
369.104;  960.725;  142.475;    0.000
369.166; 1007.725;  169.475;    0.000
369.227;  981.725;  156.475;    0.000
369.288; 1004.725;  151.475;    0.000
369.349;  948.725;  191.475;    0.000
369.411;  975.725;  168.475;    0.000
369.472;  980.725;  155.475;    0.000
369.533;  971.725;  149.475;    0.000
369.594;  959.725;  174.475;    0.000
369.656; 1043.725;  188.475;    0.000
369.717;  948.725;  113.475;    0.000
369.778; 1039.725;  184.475;    0.000
369.839;  996.725;  151.475;    0.000
369.900; 1056.725;  180.475;    0.000
369.961; 1008.725;  171.475;    0.000
370.023; 1067.725;  143.475;    0.000
370.084; 1032.725;  137.475;    0.000
370.145;  989.725;  152.475;    0.000
370.206; 1007.725;  151.475;    0.000
370.267;  987.725;  134.475;    0.000
370.328; 1028.725;  178.475;    0.000
370.389; 1039.725;  181.475;    0.000
370.451;  997.725;  169.475;    0.000
370.512; 1040.725;  172.475;    0.000
370.573; 1062.725;  148.475;    0.000
370.634; 1069.725;  156.475;    0.000
370.695; 1090.725;  151.475;    0.000
370.756; 1123.725;  185.475;    0.000
370.817; 1041.725;  185.475;    0.000
370.878; 1010.725;  191.475;    0.000
370.939; 1057.725;  147.475;    0.000
371.000; 1054.725;  162.475;    0.000
371.061; 1070.725;  145.475;    0.000
371.122; 1153.725;  179.475;    0.000
371.183; 1018.725;  114.475;    0.000
371.244; 1061.725;  180.475;    0.000
371.305; 1094.725;  138.475;    0.000
371.366; 1078.725;  157.475;    0.000
371.427; 1073.725;  148.475;    0.000
371.488; 1136.725;  138.475;    0.000
371.549; 1033.725;  193.475;    0.000
371.610; 1062.725;  158.475;    0.000
371.671; 1048.725;  119.475;    0.000
371.732; 1053.725;  159.475;    0.000
371.793; 1099.725;  178.475;    0.000
371.853; 1037.725;  155.475;    0.000
371.914; 1092.725;  148.475;    0.000
371.975; 1041.725;  124.475;    0.000
372.036; 1091.725;  158.475;    0.000
372.097; 1072.725;  136.475;    0.000
372.158; 1077.725;  116.475;    0.000
372.219; 1065.725;  157.475;    0.000
372.280; 1047.725;  151.475;    0.000
372.340; 1038.725;  190.475;    0.000
372.401; 1065.725;  151.475;    0.000
372.462; 1041.725;  129.475;    0.000
372.523; 1065.725;  121.475;    0.000
372.584; 1074.725;  152.475;    0.000
372.645; 1010.725;  132.475;    0.000
372.705; 1045.725;  190.475;    0.000
372.766; 1073.725;  153.475;    0.000
372.827; 1107.725;  133.475;    0.000
372.888; 1098.725;  161.475;    0.000
372.948; 1102.725;  159.475;    0.000
373.009; 1113.725;  164.475;    0.000
373.070; 1085.725;  139.475;    0.000
373.131; 1052.725;  137.475;    0.000
373.191; 1128.725;  181.475;    0.000
373.252; 1044.725;  154.475;    0.000
373.313; 1075.725;  179.475;    0.000
373.373; 1051.725;  136.475;    0.000
373.434; 1121.725;  169.475;    0.000
373.495; 1097.725;   97.475;    0.000
373.555; 1103.725;  142.475;    0.000
373.616; 1054.725;  178.475;    0.000
373.677; 1114.725;  167.475;    0.000
373.737; 1125.725;  139.475;    0.000
373.798; 1055.725;  155.475;    0.000
373.859; 1166.725;  162.475;    0.000
373.919; 1146.725;  174.475;    0.000
373.980; 1090.725;  172.475;    0.000
374.041; 1093.725;  166.475;    0.000
374.101; 1074.725;  172.475;    0.000
374.162; 1164.725;  188.475;    0.000
374.222; 1046.725;  186.475;    0.000
374.283; 1122.725;  195.475;    0.000
374.343; 1095.725;  204.475;    0.000
374.404; 1142.725;  187.475;    0.000
374.465; 1175.725;  183.475;    0.000
374.525; 1172.725;  136.475;    0.000
374.586; 1100.725;  140.475;    0.000
374.646; 1182.725;  191.475;    0.000
374.707; 1170.725;  208.475;    0.000
374.767; 1204.725;  178.475;    0.000
374.828; 1127.725;  159.475;    0.000
374.888; 1149.725;  143.475;    0.000
374.949; 1182.725;  202.475;    0.000
375.009; 1150.725;  151.475;    0.000
375.070; 1159.725;  160.475;    0.000
375.130; 1184.725;  160.475;    0.000
375.190; 1233.725;  164.475;    0.000
375.251; 1198.725;  196.475;    0.000
375.311; 1196.725;  154.475;    0.000
375.372; 1198.725;  197.475;    0.000
375.432; 1177.725;  159.475;    0.000
375.493; 1103.725;  197.475;    0.000
375.553; 1142.725;  165.475;    0.000
375.613; 1157.725;  174.475;    0.000
375.674; 1178.725;  165.475;    0.000
375.734; 1189.725;  128.475;    0.000
375.794; 1112.725;  169.475;    0.000
375.855; 1214.725;  193.475;    0.000
375.915; 1227.725;  162.475;    0.000
375.975; 1112.725;  181.475;    0.000
376.036; 1123.725;  161.475;    0.000
376.096; 1065.725;  131.475;    0.000
376.156; 1208.725;  165.475;    0.000
376.217; 1154.725;  182.475;    0.000
376.277; 1179.725;  185.475;    0.000
376.337; 1220.725;  177.475;    0.000
376.398; 1183.725;  162.475;    0.000
376.458; 1183.725;  179.475;    0.000
376.518; 1110.725;  150.475;    0.000
376.578; 1196.725;  165.475;    0.000
376.639; 1125.725;  159.475;    0.000
376.699; 1090.725;  180.475;    0.000
376.759; 1270.725;  206.475;    0.000
376.819; 1214.725;  146.475;    0.000
376.880; 1201.725;  177.475;    0.000
376.940; 1169.725;  160.475;    0.000
377.000; 1116.725;  149.475;    0.000
377.060; 1146.725;  180.475;    0.000
377.120; 1160.725;  146.475;    0.000
377.180; 1177.725;  137.475;    0.000
377.241; 1135.725;  163.475;    0.000
377.301; 1205.725;  169.475;    0.000
377.361; 1180.725;  137.475;    0.000
377.421; 1211.725;  184.475;    0.000
377.481; 1169.725;  185.475;    0.000
377.541; 1212.725;  146.475;    0.000
377.601; 1191.725;  179.475;    0.000
377.661; 1173.725;  181.475;    0.000
377.722; 1228.725;  185.475;    0.000
377.782; 1157.725;  147.475;    0.000
377.842; 1207.725;  190.475;    0.000
377.902; 1234.725;  166.475;    0.000
377.962; 1199.725;  153.475;    0.000
378.022; 1137.725;  163.475;    0.000
378.082; 1259.725;  146.475;    0.000
378.142; 1226.725;  152.475;    0.000
378.202; 1238.725;  164.475;    0.000
378.262; 1298.725;  195.475;    0.000
378.322; 1191.725;  190.475;    0.000
378.382; 1270.725;  152.475;    0.000
378.442; 1296.725;  175.475;    0.000
378.502; 1220.725;  153.475;    0.000
378.562; 1232.725;  142.475;    0.000
378.622; 1284.725;  166.475;    0.000
378.682; 1260.725;  173.475;    0.000
378.742; 1265.725;  182.475;    0.000
378.802; 1265.725;  145.475;    0.000
378.862; 1345.725;  210.475;    0.000
378.921; 1269.725;  182.475;    0.000
378.981; 1273.725;  185.475;    0.000
379.041; 1313.725;  130.475;    0.000
379.101; 1263.725;  177.475;    0.000
379.161; 1275.725;  166.475;    0.000
379.221; 1315.725;  162.475;    0.000
379.281; 1323.725;  167.475;    0.000
379.341; 1327.725;  136.475;    0.000
379.401; 1328.725;  145.475;    0.000
379.460; 1392.725;  176.475;    0.000
379.520; 1334.725;  162.475;    0.000
379.580; 1296.725;  144.475;    0.000
379.640; 1356.725;  163.475;    0.000
379.700; 1389.725;  157.475;    0.000
379.759; 1407.725;  165.475;    0.000
379.819; 1318.725;  190.475;    0.000
379.879; 1383.725;  143.475;    0.000
379.939; 1337.725;  188.475;    0.000
379.999; 1309.725;  141.475;    0.000
380.058; 1464.725;  169.475;    0.000
380.118; 1384.725;  158.475;    0.000
380.178; 1400.725;  114.475;    0.000
380.237; 1377.725;  157.475;    0.000
380.297; 1381.725;  177.475;    0.000
380.357; 1361.725;  189.475;    0.000
380.417; 1451.725;  182.475;    0.000
380.476; 1367.725;  178.475;    0.000
380.536; 1427.725;  189.475;    0.000
380.596; 1453.725;  183.475;    0.000
380.655; 1389.725;  195.475;    0.000
380.715; 1386.725;  170.475;    0.000
380.775; 1418.725;  170.475;    0.000
380.834; 1368.725;  179.475;    0.000
380.894; 1445.725;  188.475;    0.000
380.954; 1361.725;  142.475;    0.000
381.013; 1486.725;  178.475;    0.000
381.073; 1418.725;  164.475;    0.000
381.132; 1475.725;  192.475;    0.000
381.192; 1475.725;  187.475;    0.000
381.252; 1495.725;  176.475;    0.000
381.311; 1466.725;  206.475;    0.000
381.371; 1466.725;  167.475;    0.000
381.430; 1428.725;  131.475;    0.000
381.490; 1544.725;  150.475;    0.000
381.549; 1484.725;  129.475;    0.000
381.609; 1496.725;  178.475;    0.000
381.668; 1468.725;  194.475;    0.000
381.728; 1519.725;  210.475;    0.000
381.787; 1527.725;  190.475;    0.000
381.847; 1559.725;  181.475;    0.000
381.906; 1535.725;  156.475;    0.000
381.966; 1499.725;  176.475;    0.000
382.025; 1568.725;  186.475;    0.000
382.085; 1546.725;  192.475;    0.000
382.144; 1624.725;  173.475;    0.000
382.204; 1690.725;  207.475;    0.000
382.263; 1654.725;  193.475;    0.000
382.323; 1659.725;  164.475;    0.000
382.382; 1638.725;  161.475;    0.000
382.441; 1739.725;  199.475;    0.000
382.501; 1800.725;  208.475;    0.000
382.560; 1920.725;  173.475;    0.000
382.619; 1892.725;  179.475;    0.000
382.679; 1964.725;  177.475;    0.000
382.738; 2130.725;  190.475;    0.000
382.798; 2171.725;  213.475;    0.000
382.857; 2511.725;  195.475;    0.000
382.916; 2917.725;  184.475;    0.000
382.976; 3021.725;  169.475;    0.000
383.035; 2706.725;  194.475;    0.000
383.094; 2690.725;  185.475;    0.000
383.154; 3158.725;  198.475;    0.000
383.213; 4041.725;  147.475;    0.000
383.272; 3961.725;  175.475;    0.000
383.331; 2930.725;  122.475;    0.000
383.391; 2516.725;  185.475;    0.000
383.450; 2398.725;  160.475;    0.000
383.509; 2495.725;  168.475;    0.000
383.568; 2561.725;  196.475;    0.000
383.628; 2734.725;  156.475;    0.000
383.687; 3089.725;  171.475;    0.000
383.746; 3600.725;  155.475;    0.000
383.805; 4646.725;  201.475;    0.000
383.864; 4683.725;  125.475;    0.000
383.924; 3346.725;  213.475;    0.000
383.983; 2517.725;  188.475;    0.000
384.042; 2235.725;  162.475;    0.000
384.101; 2126.725;  183.475;    0.000
384.160; 1974.725;  155.475;    0.000
384.219; 1878.725;  155.475;    0.000
384.279; 1847.725;  189.475;    0.000
384.338; 1880.725;  156.475;    0.000
384.397; 1666.725;  148.475;    0.000
384.456; 1734.725;  154.475;    0.000
384.515; 1682.725;  160.475;    0.000
384.574; 1758.725;  223.475;    0.000
384.633; 1689.725;  133.475;    0.000
384.692; 1660.725;  163.475;    0.000
384.751; 1650.725;  186.475;    0.000
384.810; 1652.725;  187.475;    0.000
384.869; 1672.725;  172.475;    0.000
384.929; 1657.725;  153.475;    0.000
384.988; 1635.725;  174.475;    0.000
385.047; 1636.725;  154.475;    0.000
385.106; 1649.725;  164.475;    0.000
385.165; 1603.725;  151.475;    0.000
385.224; 1683.725;  147.475;    0.000
385.283; 1594.725;  176.475;    0.000
385.342; 1637.725;  142.475;    0.000
385.401; 1601.725;  175.475;    0.000
385.459; 1658.725;  150.475;    0.000
385.518; 1624.725;  124.475;    0.000
385.577; 1656.725;  115.475;    0.000
385.636; 1607.725;  174.475;    0.000
385.695; 1625.725;  158.475;    0.000
385.754; 1628.725;  150.475;    0.000
385.813; 1611.725;  129.475;    0.000
385.872; 1561.725;  146.475;    0.000
385.931; 1614.725;  194.475;    0.000
385.990; 1591.725;  174.475;    0.000
386.049; 1697.725;  176.475;    0.000
386.107; 1544.725;  151.475;    0.000
386.166; 1613.725;  178.475;    0.000
386.225; 1658.725;  162.475;    0.000
386.284; 1602.725;  180.475;    0.000
386.343; 1677.725;  171.475;    0.000
386.402; 1581.725;  176.475;    0.000
386.460; 1573.725;  144.475;    0.000
386.519; 1582.725;  140.475;    0.000
386.578; 1554.725;  145.475;    0.000
386.637; 1655.725;  164.475;    0.000
386.696; 1631.725;  189.475;    0.000
386.754; 1581.725;  135.475;    0.000
386.813; 1616.725;  139.475;    0.000
386.872; 1544.725;  121.475;    0.000
386.931; 1576.725;  153.475;    0.000
386.989; 1616.725;  211.475;    0.000
387.048; 1617.725;  156.475;    0.000
387.107; 1625.725;  210.475;    0.000
387.165; 1549.725;  129.475;    0.000
387.224; 1631.725;  205.475;    0.000
387.283; 1521.725;  130.475;    0.000
387.342; 1609.725;  171.475;    0.000
387.400; 1643.725;  156.475;    0.000
387.459; 1567.725;  141.475;    0.000
387.517; 1630.725;  219.475;    0.000
387.576; 1551.725;  166.475;    0.000
387.635; 1593.725;  136.475;    0.000
387.693; 1650.725;  191.475;    0.000
387.752; 1630.725;  165.475;    0.000
387.811; 1626.725;  158.475;    0.000
387.869; 1598.725;  204.475;    0.000
387.928; 1575.725;  149.475;    0.000
387.986; 1556.725;  156.475;    0.000
388.045; 1570.725;  123.475;    0.000
388.103; 1562.725;  150.475;    0.000
388.162; 1594.725;  173.475;    0.000
388.221; 1556.725;  143.475;    0.000
388.279; 1581.725;  129.475;    0.000
388.338; 1616.725;  212.475;    0.000
388.396; 1600.725;  150.475;    0.000
388.455; 1652.725;  167.475;    0.000
388.513; 1511.725;  116.475;    0.000
388.572; 1613.725;  181.475;    0.000
388.630; 1537.725;  187.475;    0.000
388.689; 1593.725;  180.475;    0.000
388.747; 1539.725;  154.475;    0.000
388.806; 1570.725;  161.475;    0.000
388.864; 1621.725;  167.475;    0.000
388.922; 1591.725;  184.475;    0.000
388.981; 1565.725;  169.475;    0.000
389.039; 1596.725;  102.475;    0.000
389.098; 1578.725;  183.475;    0.000
389.156; 1593.725;  182.475;    0.000
389.214; 1592.725;  173.475;    0.000
389.273; 1551.725;  167.475;    0.000
389.331; 1569.725;  170.475;    0.000
389.390; 1576.725;  150.475;    0.000
389.448; 1587.725;  156.475;    0.000
389.506; 1619.725;  149.475;    0.000
389.565; 1594.725;  162.475;    0.000
389.623; 1623.725;  188.475;    0.000
389.681; 1653.725;  204.475;    0.000
389.740; 1640.725;  187.475;    0.000
389.798; 1554.725;  153.475;    0.000
389.856; 1672.725;  214.475;    0.000
389.914; 1628.725;  177.475;    0.000
389.973; 1575.725;  189.475;    0.000
390.031; 1571.725;  178.475;    0.000
390.089; 1566.725;  163.475;    0.000
390.147; 1533.725;  170.475;    0.000
390.206; 1577.725;  183.475;    0.000
390.264; 1546.725;  161.475;    0.000
390.322; 1544.725;  148.475;    0.000
390.380; 1580.725;  138.475;    0.000
390.439; 1549.725;  194.475;    0.000
390.497; 1489.725;  170.475;    0.000
390.555; 1568.725;  165.475;    0.000
390.613; 1541.725;  177.475;    0.000
390.671; 1613.725;  170.475;    0.000
390.729; 1525.725;  158.475;    0.000
390.788; 1603.725;  162.475;    0.000
390.846; 1539.725;  161.475;    0.000
390.904; 1581.725;  197.475;    0.000
390.962; 1603.725;  212.475;    0.000
391.020; 1583.725;  224.475;    0.000
391.078; 1608.725;  184.475;    0.000
391.136; 1564.725;  191.475;    0.000
391.194; 1629.725;  187.475;    0.000
391.253; 1652.725;  197.475;    0.000
391.311; 1610.725;  185.475;    0.000
391.369; 1607.725;  207.475;    0.000
391.427; 1627.725;  222.475;    0.000
391.485; 1687.725;  184.475;    0.000
391.543; 1661.725;  203.475;    0.000
391.601; 1576.725;  151.475;    0.000
391.659; 1688.725;  176.475;    0.000
391.717; 1598.725;  190.475;    0.000
391.775; 1628.725;  159.475;    0.000
391.833; 1597.725;  186.475;    0.000
391.891; 1629.725;  154.475;    0.000
391.949; 1645.725;  181.475;    0.000
392.007; 1696.725;  190.475;    0.000
392.065; 1683.725;  182.475;    0.000
392.123; 1695.725;  158.475;    0.000
392.180; 1657.725;  198.475;    0.000
392.238; 1673.725;  191.475;    0.000
392.296; 1725.725;  164.475;    0.000
392.354; 1640.725;  172.475;    0.000
392.412; 1678.725;  194.475;    0.000
392.470; 1655.725;  154.475;    0.000
392.528; 1645.725;  172.475;    0.000
392.586; 1587.725;  179.475;    0.000
392.644; 1599.725;  173.475;    0.000
392.701; 1674.725;  202.475;    0.000
392.759; 1652.725;  180.475;    0.000
392.817; 1743.725;  181.475;    0.000
392.875; 1730.725;  168.475;    0.000
392.933; 1726.725;  161.475;    0.000
392.991; 1754.725;  216.475;    0.000
393.048; 1697.725;  197.475;    0.000
393.106; 1716.725;  199.475;    0.000
393.164; 1786.725;  173.475;    0.000
393.222; 1964.725;  179.475;    0.000
393.279; 2152.725;  209.475;    0.000
393.337; 2743.725;  185.475;    0.000
393.395; 2979.725;  174.475;    0.000
393.453; 2284.725;  181.475;    0.000
393.510; 1815.725;  188.475;    0.000
393.568; 1843.725;  191.475;    0.000
393.626; 1812.725;  151.475;    0.000
393.684; 1810.725;  208.475;    0.000
393.741; 1731.725;  179.475;    0.000
393.799; 1708.725;  149.475;    0.000
393.857; 1648.725;  136.475;    0.000
393.914; 1721.725;  190.475;    0.000
393.972; 1674.725;  155.475;    0.000
394.030; 1686.725;  170.475;    0.000
394.087; 1833.725;  213.475;    0.000
394.145; 1709.725;  191.475;    0.000
394.202; 1711.725;  188.475;    0.000
394.260; 1704.725;  168.475;    0.000
394.318; 1754.725;  176.475;    0.000
394.375; 1707.725;  159.475;    0.000
394.433; 1833.725;  168.475;    0.000
394.490; 1700.725;  163.475;    0.000
394.548; 1733.725;  163.475;    0.000
394.605; 1704.725;  181.475;    0.000
394.663; 1738.725;  180.475;    0.000
394.720; 1705.725;  193.475;    0.000
394.778; 1813.725;  168.475;    0.000
394.836; 1789.725;  128.475;    0.000
394.893; 1793.725;  151.475;    0.000
394.951; 1748.725;  173.475;    0.000
395.008; 1813.725;  201.475;    0.000
395.065; 1769.725;  139.475;    0.000
395.123; 1783.725;  173.475;    0.000
395.180; 1767.725;  144.475;    0.000
395.238; 1799.725;  135.475;    0.000
395.295; 1707.725;  167.475;    0.000
395.353; 1801.725;  150.475;    0.000
395.410; 1754.725;  165.475;    0.000
395.468; 1808.725;  223.475;    0.000
395.525; 1776.725;  156.475;    0.000
395.582; 1786.725;  178.475;    0.000
395.640; 1841.725;  178.475;    0.000
395.697; 1860.725;  173.475;    0.000
395.754; 1767.725;  154.475;    0.000
395.812; 1803.725;  169.475;    0.000
395.869; 1884.725;  196.475;    0.000
395.927; 1879.725;  190.475;    0.000
395.984; 1825.725;  195.475;    0.000
396.041; 1772.725;  160.475;    0.000
396.098; 1850.725;  161.475;    0.000
396.156; 1889.725;  187.475;    0.000
396.213; 1964.725;  200.475;    0.000
396.270; 1845.725;  160.475;    0.000
396.328; 1861.725;  113.475;    0.000
396.385; 1858.725;  165.475;    0.000
396.442; 1807.725;  168.475;    0.000
396.499; 1843.725;  117.475;    0.000
396.557; 1845.725;  203.475;    0.000
396.614; 1931.725;  155.475;    0.000
396.671; 1920.725;  187.475;    0.000
396.728; 1998.725;  169.475;    0.000
396.785; 2220.725;  167.475;    0.000
396.843; 2573.725;  154.475;    0.000
396.900; 2468.725;  172.475;    0.000
396.957; 2033.725;  176.475;    0.000
397.014; 1924.725;  193.475;    0.000
397.071; 1879.725;  170.475;    0.000
397.128; 1905.725;  172.475;    0.000
397.186; 1917.725;  205.475;    0.000
397.243; 1927.725;  163.475;    0.000
397.300; 1889.725;  193.475;    0.000
397.357; 1864.725;  166.475;    0.000
397.414; 1865.725;  149.475;    0.000
397.471; 1913.725;  157.475;    0.000
397.528; 1834.725;  180.475;    0.000
397.585; 1901.725;  203.475;    0.000
397.642; 1903.725;  156.475;    0.000
397.699; 1879.725;  229.475;    0.000
397.756; 1951.725;  185.475;    0.000
397.814; 1822.725;  191.475;    0.000
397.871; 1881.725;  170.475;    0.000
397.928; 1986.725;  191.475;    0.000
397.985; 1958.725;  183.475;    0.000
398.042; 1946.725;  161.475;    0.000
398.099; 1908.725;  192.475;    0.000
398.156; 2015.725;  176.475;    0.000
398.212; 1852.725;  170.475;    0.000
398.269; 2032.725;  158.475;    0.000
398.326; 1994.725;  175.475;    0.000
398.383; 2013.725;  177.475;    0.000
398.440; 1972.725;  169.475;    0.000
398.497; 1981.725;  184.475;    0.000
398.554; 2025.725;  196.475;    0.000
398.611; 1944.725;  198.475;    0.000
398.668; 1971.725;  135.475;    0.000
398.725; 2025.725;  181.475;    0.000
398.782; 2023.725;  195.475;    0.000
398.839; 2041.725;  179.475;    0.000
398.895; 2043.725;  188.475;    0.000
398.952; 1980.725;  176.475;    0.000
399.009; 2099.725;  183.475;    0.000
399.066; 2060.725;  190.475;    0.000
399.123; 2127.725;  174.475;    0.000
399.180; 2120.725;  191.475;    0.000
399.236; 2149.725;  217.475;    0.000
399.293; 2186.725;  154.475;    0.000
399.350; 2203.725;  210.475;    0.000
399.407; 2300.725;  202.475;    0.000
399.463; 2339.725;  162.475;    0.000
399.520; 2289.725;  207.475;    0.000
399.577; 2348.725;  174.475;    0.000
399.634; 2328.725;  170.475;    0.000
399.690; 2325.725;  186.475;    0.000
399.747; 2354.725;  218.475;    0.000
399.804; 2341.725;  200.475;    0.000
399.861; 2245.725;  190.475;    0.000
399.917; 2303.725;  218.475;    0.000
399.974; 2317.725;  200.475;    0.000
400.031; 2242.725;  200.475;    0.000
400.087; 2227.725;  153.475;    0.000
400.144; 2259.725;  188.475;    0.000
400.201; 2198.725;  198.475;    0.000
400.257; 2187.725;  205.475;    0.000
400.314; 2114.725;  183.475;    0.000
400.370; 2226.725;  227.475;    0.000
400.427; 2250.725;  177.475;    0.000
400.484; 2228.725;  202.475;    0.000
400.540; 2152.725;  173.475;    0.000
400.597; 2166.725;  212.475;    0.000
400.653; 2136.725;  182.475;    0.000
400.710; 2196.725;  201.475;    0.000
400.766; 2127.725;  188.475;    0.000
400.823; 2165.725;  205.475;    0.000
400.879; 2146.725;  165.475;    0.000
400.936; 2093.725;  180.475;    0.000
400.993; 2155.725;  181.475;    0.000
401.049; 2144.725;  147.475;    0.000
401.105; 2261.725;  205.475;    0.000
401.162; 2136.725;  197.475;    0.000
401.218; 2137.725;  177.475;    0.000
401.275; 2110.725;  183.475;    0.000
401.331; 2093.725;  198.475;    0.000
401.388; 2099.725;  209.475;    0.000
401.444; 2105.725;  211.475;    0.000
401.501; 2157.725;  185.475;    0.000
401.557; 2076.725;  190.475;    0.000
401.614; 2017.725;  172.475;    0.000
401.670; 2076.725;  185.475;    0.000
401.726; 2115.725;  196.475;    0.000
401.783; 2119.725;  187.475;    0.000
401.839; 2169.725;  192.475;    0.000
401.895; 2165.725;  173.475;    0.000
401.952; 2109.725;  145.475;    0.000
402.008; 2116.725;  197.475;    0.000
402.064; 2096.725;  146.475;    0.000
402.121; 2191.725;  197.475;    0.000
402.177; 2135.725;  173.475;    0.000
402.233; 2151.725;  185.475;    0.000
402.290; 2223.725;  175.475;    0.000
402.346; 2153.725;  164.475;    0.000
402.402; 2114.725;  173.475;    0.000
402.458; 2148.725;  183.475;    0.000
402.515; 2214.725;  147.475;    0.000
402.571; 2144.725;  210.475;    0.000
402.627; 2155.725;  181.475;    0.000
402.683; 2082.725;  177.475;    0.000
402.740; 2177.725;  162.475;    0.000
402.796; 2154.725;  178.475;    0.000
402.852; 2113.725;  138.475;    0.000
402.908; 2216.725;  181.475;    0.000
402.964; 2190.725;  151.475;    0.000
403.021; 2227.725;  170.475;    0.000
403.077; 2272.725;  204.475;    0.000
403.133; 2135.725;  144.475;    0.000
403.189; 2255.725;  207.475;    0.000
403.245; 2180.725;  184.475;    0.000
403.301; 2224.725;  170.475;    0.000
403.357; 2315.725;  201.475;    0.000
403.414; 2262.725;  205.475;    0.000
403.470; 2258.725;  170.475;    0.000
403.526; 2169.725;  135.475;    0.000
403.582; 2271.725;  180.475;    0.000
403.638; 2252.725;  185.475;    0.000
403.694; 2254.725;  169.475;    0.000
403.750; 2246.725;  210.475;    0.000
403.806; 2315.725;  210.475;    0.000
403.862; 2214.725;  219.475;    0.000
403.918; 2337.725;  191.475;    0.000
403.974; 2264.725;  193.475;    0.000
404.030; 2260.725;  154.475;    0.000
404.086; 2306.725;  170.475;    0.000
404.142; 2272.725;  194.475;    0.000
404.198; 2289.725;  224.475;    0.000
404.254; 2239.725;  177.475;    0.000
404.310; 2321.725;  204.475;    0.000
404.366; 2228.725;  170.475;    0.000
404.422; 2201.725;  172.475;    0.000
404.478; 2273.725;  153.475;    0.000
404.534; 2218.725;  159.475;    0.000
404.590; 2269.725;  203.475;    0.000
404.646; 2287.725;  164.475;    0.000
404.701; 2259.725;  141.475;    0.000
404.757; 2303.725;  195.475;    0.000
404.813; 2208.725;  152.475;    0.000
404.869; 2263.725;  174.475;    0.000
404.925; 2238.725;  167.475;    0.000
404.981; 2264.725;  175.475;    0.000
405.037; 2262.725;  170.475;    0.000
405.092; 2241.725;  155.475;    0.000
405.148; 2278.725;  160.475;    0.000
405.204; 2330.725;  158.475;    0.000
405.260; 2235.725;  128.475;    0.000
405.316; 2182.725;  168.475;    0.000
405.371; 2333.725;  162.475;    0.000
405.427; 2280.725;  187.475;    0.000
405.483; 2300.725;  214.475;    0.000
405.539; 2212.725;  163.475;    0.000
405.594; 2256.725;  191.475;    0.000
405.650; 2251.725;  124.475;    0.000
405.706; 2313.725;  188.475;    0.000
405.761; 2315.725;  204.475;    0.000
405.817; 2217.725;  150.475;    0.000
405.873; 2339.725;  152.475;    0.000
405.928; 2296.725;  135.475;    0.000
405.984; 2359.725;  209.475;    0.000
406.040; 2254.725;  165.475;    0.000
406.095; 2221.725;  146.475;    0.000
406.151; 2396.725;  169.475;    0.000
406.207; 2345.725;  174.475;    0.000
406.262; 2364.725;  189.475;    0.000
406.318; 2394.725;  141.475;    0.000
406.374; 2339.725;  178.475;    0.000
406.429; 2473.725;  197.475;    0.000
406.485; 2391.725;  194.475;    0.000
406.540; 2365.725;  149.475;    0.000
406.596; 2458.725;  173.475;    0.000
406.651; 2426.725;  154.475;    0.000
406.707; 2367.725;  183.475;    0.000
406.763; 2412.725;  156.475;    0.000
406.818; 2409.725;  181.475;    0.000
406.874; 2542.725;  135.475;    0.000
406.929; 2572.725;  194.475;    0.000
406.985; 2442.725;  166.475;    0.000
407.040; 2515.725;  207.475;    0.000
407.095; 2567.725;  213.475;    0.000
407.151; 2566.725;  198.475;    0.000
407.206; 2583.725;  186.475;    0.000
407.262; 2600.725;  148.475;    0.000
407.317; 2660.725;  212.475;    0.000
407.373; 2626.725;  209.475;    0.000
407.428; 2670.725;  218.475;    0.000
407.484; 2620.725;  158.475;    0.000
407.539; 2715.725;  165.475;    0.000
407.594; 2707.725;  197.475;    0.000
407.650; 2624.725;  177.475;    0.000
407.705; 2564.725;  154.475;    0.000
407.760; 2611.725;  198.475;    0.000
407.816; 2642.725;  181.475;    0.000
407.871; 2592.725;  185.475;    0.000
407.926; 2619.725;  167.475;    0.000
407.982; 2675.725;  172.475;    0.000
408.037; 2574.725;  202.475;    0.000
408.092; 2624.725;  201.475;    0.000
408.148; 2557.725;  199.475;    0.000
408.203; 2574.725;  174.475;    0.000
408.258; 2432.725;  157.475;    0.000
408.314; 2570.725;  194.475;    0.000
408.369; 2569.725;  189.475;    0.000
408.424; 2557.725;  204.475;    0.000
408.479; 2482.725;  192.475;    0.000
408.534; 2555.725;  215.475;    0.000
408.590; 2476.725;  190.475;    0.000
408.645; 2611.725;  159.475;    0.000
408.700; 2609.725;  191.475;    0.000
408.755; 2496.725;  217.475;    0.000
408.810; 2452.725;  158.475;    0.000
408.866; 2457.725;  166.475;    0.000
408.921; 2606.725;  214.475;    0.000
408.976; 2493.725;  158.475;    0.000
409.031; 2539.725;  185.475;    0.000
409.086; 2485.725;  158.475;    0.000
409.141; 2509.725;  180.475;    0.000
409.196; 2524.725;  188.475;    0.000
409.252; 2487.725;  186.475;    0.000
409.307; 2462.725;  135.475;    0.000
409.362; 2459.725;  162.475;    0.000
409.417; 2385.725;  149.475;    0.000
409.472; 2497.725;  205.475;    0.000
409.527; 2586.725;  184.475;    0.000
409.582; 2546.725;  174.475;    0.000
409.637; 2476.725;  188.475;    0.000
409.692; 2501.725;  211.475;    0.000
409.747; 2531.725;  159.475;    0.000
409.802; 2592.725;  199.475;    0.000
409.857; 2408.725;  118.475;    0.000
409.912; 2487.725;  177.475;    0.000
409.967; 2525.725;  182.475;    0.000
410.022; 2566.725;  188.475;    0.000
410.077; 2437.725;  204.475;    0.000
410.132; 2511.725;  174.475;    0.000
410.187; 2556.725;  169.475;    0.000
410.242; 2495.725;  178.475;    0.000
410.297; 2542.725;  185.475;    0.000
410.351; 2537.725;  203.475;    0.000
410.406; 2538.725;  180.475;    0.000
410.461; 2395.725;  213.475;    0.000
410.516; 2454.725;  198.475;    0.000
410.571; 2558.725;  171.475;    0.000
410.626; 2519.725;  186.475;    0.000
410.681; 2482.725;  187.475;    0.000
410.736; 2492.725;  147.475;    0.000
410.790; 2526.725;  186.475;    0.000
410.845; 2484.725;  152.475;    0.000
410.900; 2566.725;  202.475;    0.000
410.955; 2584.725;  196.475;    0.000
411.010; 2473.725;  150.475;    0.000
411.064; 2468.725;  200.475;    0.000
411.119; 2541.725;  203.475;    0.000
411.174; 2560.725;  176.475;    0.000
411.229; 2471.725;  203.475;    0.000
411.283; 2443.725;  176.475;    0.000
411.338; 2491.725;  153.475;    0.000
411.393; 2475.725;  168.475;    0.000
411.447; 2587.725;  223.475;    0.000
411.502; 2580.725;  238.475;    0.000
411.557; 2468.725;  179.475;    0.000
411.612; 2512.725;  159.475;    0.000
411.666; 2580.725;  189.475;    0.000
411.721; 2526.725;  212.475;    0.000
411.776; 2541.725;  242.475;    0.000
411.830; 2505.725;  194.475;    0.000
411.885; 2509.725;  188.475;    0.000
411.939; 2519.725;  245.475;    0.000
411.994; 2548.725;  177.475;    0.000
412.049; 2559.725;  170.475;    0.000
412.103; 2531.725;  196.475;    0.000
412.158; 2551.725;  215.475;    0.000
412.212; 2436.725;  199.475;    0.000
412.267; 2555.725;  191.475;    0.000
412.322; 2528.725;  238.475;    0.000
412.376; 2556.725;  243.475;    0.000
412.431; 2630.725;  214.475;    0.000
412.485; 2507.725;  210.475;    0.000
412.540; 2478.725;  200.475;    0.000
412.594; 2485.725;  174.475;    0.000
412.649; 2513.725;  246.475;    0.000
412.703; 2530.725;  182.475;    0.000
412.758; 2494.725;  222.475;    0.000
412.812; 2490.725;  201.475;    0.000
412.866; 2429.725;  162.475;    0.000
412.921; 2463.725;  202.475;    0.000
412.975; 2472.725;  212.475;    0.000
413.030; 2476.725;  238.475;    0.000
413.084; 2494.725;  201.475;    0.000
413.139; 2471.725;  210.475;    0.000
413.193; 2496.725;  218.475;    0.000
413.247; 2479.725;  203.475;    0.000
413.302; 2553.725;  176.475;    0.000
413.356; 2474.725;  215.475;    0.000
413.410; 2470.725;  204.475;    0.000
413.465; 2509.725;  186.475;    0.000
413.519; 2422.725;  196.475;    0.000
413.573; 2601.725;  181.475;    0.000
413.628; 2564.725;  200.475;    0.000
413.682; 2458.725;  157.475;    0.000
413.736; 2443.725;  194.475;    0.000
413.791; 2478.725;  193.475;    0.000
413.845; 2563.725;  225.475;    0.000
413.899; 2473.725;  195.475;    0.000
413.953; 2614.725;  173.475;    0.000
414.008; 2466.725;  186.475;    0.000
414.062; 2462.725;  217.475;    0.000
414.116; 2536.725;  169.475;    0.000
414.170; 2571.725;  228.475;    0.000
414.225; 2408.725;  177.475;    0.000
414.279; 2472.725;  210.475;    0.000
414.333; 2430.725;  207.475;    0.000
414.387; 2521.725;  217.475;    0.000
414.441; 2528.725;  187.475;    0.000
414.496; 2499.725;  215.475;    0.000
414.550; 2511.725;  204.475;    0.000
414.604; 2548.725;  206.475;    0.000
414.658; 2569.725;  139.475;    0.000
414.712; 2469.725;  198.475;    0.000
414.766; 2506.725;  208.475;    0.000
414.820; 2584.725;  199.475;    0.000
414.874; 2505.725;  216.475;    0.000
414.928; 2523.725;  186.475;    0.000
414.982; 2479.725;  176.475;    0.000
415.037; 2508.725;  181.475;    0.000
415.091; 2491.725;  208.475;    0.000
415.145; 2513.725;  209.475;    0.000
415.199; 2488.725;  186.475;    0.000
415.253; 2470.725;  203.475;    0.000
415.307; 2463.725;  197.475;    0.000
415.361; 2448.725;  223.475;    0.000
415.415; 2499.725;  213.475;    0.000
415.469; 2457.725;  226.475;    0.000
415.523; 2504.725;  222.475;    0.000
415.577; 2516.725;  205.475;    0.000
415.631; 2541.725;  224.475;    0.000
415.684; 2472.725;  193.475;    0.000
415.738; 2511.725;  224.475;    0.000
415.792; 2401.725;  204.475;    0.000
415.846; 2559.725;  189.475;    0.000
415.900; 2507.725;  223.475;    0.000
415.954; 2451.725;  187.475;    0.000
416.008; 2472.725;  237.475;    0.000
416.062; 2493.725;  195.475;    0.000
416.116; 2408.725;  223.475;    0.000
416.169; 2458.725;  210.475;    0.000
416.223; 2520.725;  232.475;    0.000
416.277; 2405.725;  227.475;    0.000
416.331; 2439.725;  216.475;    0.000
416.385; 2465.725;  186.475;    0.000
416.439; 2488.725;  226.475;    0.000
416.492; 2503.725;  229.475;    0.000
416.546; 2497.725;  216.475;    0.000
416.600; 2432.725;  211.475;    0.000
416.654; 2479.725;  226.475;    0.000
416.707; 2413.725;  248.475;    0.000
416.761; 2466.725;  217.475;    0.000
416.815; 2421.725;  207.475;    0.000
416.869; 2493.725;  226.475;    0.000
416.922; 2394.725;  192.475;    0.000
416.976; 2461.725;  205.475;    0.000
417.030; 2522.725;  233.475;    0.000
417.083; 2441.725;  226.475;    0.000
417.137; 2475.725;  222.475;    0.000
417.191; 2402.725;  217.475;    0.000
417.244; 2515.725;  221.475;    0.000
417.298; 2474.725;  201.475;    0.000
417.352; 2383.725;  170.475;    0.000
417.405; 2544.725;  234.475;    0.000
417.459; 2452.725;  241.475;    0.000
417.512; 2412.725;  247.475;    0.000
417.566; 2464.725;  219.475;    0.000
417.620; 2592.725;  228.475;    0.000
417.673; 2409.725;  192.475;    0.000
417.727; 2521.725;  203.475;    0.000
417.780; 2353.725;  204.475;    0.000
417.834; 2393.725;  234.475;    0.000
417.887; 2445.725;  245.475;    0.000
417.941; 2503.725;  211.475;    0.000
417.994; 2483.725;  244.475;    0.000
418.048; 2457.725;  203.475;    0.000
418.101; 2453.725;  212.475;    0.000
418.155; 2465.725;  251.475;    0.000
418.208; 2462.725;  286.475;    0.000
418.262; 2514.725;  243.475;    0.000
418.315; 2475.725;  214.475;    0.000
418.369; 2557.725;  269.475;    0.000
418.422; 2495.725;  222.475;    0.000
418.476; 2564.725;  226.475;    0.000
418.529; 2456.725;  238.475;    0.000
418.582; 2498.725;  210.475;    0.000
418.636; 2535.725;  221.475;    0.000
418.689; 2502.725;  224.475;    0.000
418.743; 2381.725;  228.475;    0.000
418.796; 2509.725;  192.475;    0.000
418.849; 2472.725;  230.475;    0.000
418.903; 2520.725;  257.475;    0.000
418.956; 2528.725;  241.475;    0.000
419.009; 2541.725;  247.475;    0.000
419.063; 2473.725;  235.475;    0.000
419.116; 2591.725;  218.475;    0.000
419.169; 2519.725;  219.475;    0.000
419.222; 2461.725;  215.475;    0.000
419.276; 2523.725;  202.475;    0.000
419.329; 2539.725;  210.475;    0.000
419.382; 2450.725;  188.475;    0.000
419.435; 2574.725;  222.475;    0.000
419.489; 2531.725;  232.475;    0.000
419.542; 2466.725;  250.475;    0.000
419.595; 2480.725;  240.475;    0.000
419.648; 2458.725;  261.475;    0.000
419.701; 2376.725;  222.475;    0.000
419.755; 2448.725;  233.475;    0.000
419.808; 2374.725;  178.475;    0.000
419.861; 2455.725;  207.475;    0.000
419.914; 2530.725;  223.475;    0.000
419.967; 2443.725;  216.475;    0.000
420.020; 2427.725;  211.475;    0.000
420.073; 2404.725;  200.475;    0.000
420.127; 2444.725;  248.475;    0.000
420.180; 2416.725;  220.475;    0.000
420.233; 2388.725;  215.475;    0.000
420.286; 2366.725;  222.475;    0.000
420.339; 2403.725;  229.475;    0.000
420.392; 2385.725;  245.475;    0.000
420.445; 2417.725;  221.475;    0.000
420.498; 2353.725;  224.475;    0.000
420.551; 2402.725;  170.475;    0.000
420.604; 2408.725;  237.475;    0.000
420.657; 2373.725;  235.475;    0.000
420.710; 2433.725;  223.475;    0.000
420.763; 2347.725;  219.475;    0.000
420.816; 2356.725;  200.475;    0.000
420.869; 2391.725;  197.475;    0.000
420.922; 2369.725;  212.475;    0.000
420.975; 2405.725;  274.475;    0.000
421.028; 2358.725;  228.475;    0.000
421.081; 2407.725;  243.475;    0.000
421.134; 2252.725;  227.475;    0.000
421.187; 2353.725;  245.475;    0.000
421.239; 2351.725;  210.475;    0.000
421.292; 2370.725;  193.475;    0.000
421.345; 2302.725;  226.475;    0.000
421.398; 2309.725;  226.475;    0.000
421.451; 2347.725;  259.475;    0.000
421.504; 2370.725;  204.475;    0.000
421.557; 2352.725;  215.475;    0.000
421.609; 2242.725;  194.475;    0.000
421.662; 2311.725;  216.475;    0.000
421.715; 2258.725;  226.475;    0.000
421.768; 2236.725;  177.475;    0.000
421.821; 2317.725;  210.475;    0.000
421.873; 2350.725;  208.475;    0.000
421.926; 2366.725;  223.475;    0.000
421.979; 2352.725;  230.475;    0.000
422.032; 2363.725;  227.475;    0.000
422.084; 2371.725;  234.475;    0.000
422.137; 2320.725;  207.475;    0.000
422.190; 2368.725;  228.475;    0.000
422.243; 2247.725;  206.475;    0.000
422.295; 2288.725;  236.475;    0.000
422.348; 2362.725;  232.475;    0.000
422.401; 2285.725;  228.475;    0.000
422.453; 2335.725;  239.475;    0.000
422.506; 2266.725;  226.475;    0.000
422.559; 2371.725;  205.475;    0.000
422.611; 2400.725;  235.475;    0.000
422.664; 2621.725;  231.475;    0.000
422.716; 2684.725;  228.475;    0.000
422.769; 2428.725;  204.475;    0.000
422.822; 2296.725;  205.475;    0.000
422.874; 2307.725;  228.475;    0.000
422.927; 2255.725;  266.475;    0.000
422.979; 2271.725;  223.475;    0.000
423.032; 2313.725;  207.475;    0.000
423.084; 2307.725;  211.475;    0.000
423.137; 2380.725;  205.475;    0.000
423.189; 2352.725;  254.475;    0.000
423.242; 2316.725;  208.475;    0.000
423.294; 2381.725;  240.475;    0.000
423.347; 2282.725;  218.475;    0.000
423.399; 2293.725;  237.475;    0.000
423.452; 2297.725;  242.475;    0.000
423.504; 2335.725;  225.475;    0.000
423.557; 2275.725;  195.475;    0.000
423.609; 2286.725;  206.475;    0.000
423.662; 2249.725;  211.475;    0.000
423.714; 2307.725;  252.475;    0.000
423.766; 2306.725;  181.475;    0.000
423.819; 2226.725;  216.475;    0.000
423.871; 2306.725;  216.475;    0.000
423.923; 2221.725;  222.475;    0.000
423.976; 2352.725;  223.475;    0.000
424.028; 2198.725;  229.475;    0.000
424.081; 2266.725;  267.475;    0.000
424.133; 2206.725;  251.475;    0.000
424.185; 2315.725;  238.475;    0.000
424.238; 2325.725;  220.475;    0.000
424.290; 2318.725;  259.475;    0.000
424.342; 2244.725;  248.475;    0.000
424.394; 2214.725;  234.475;    0.000
424.447; 2252.725;  248.475;    0.000
424.499; 2231.725;  233.475;    0.000
424.551; 2248.725;  236.475;    0.000
424.603; 2313.725;  207.475;    0.000
424.656; 2228.725;  210.475;    0.000
424.708; 2259.725;  251.475;    0.000
424.760; 2246.725;  221.475;    0.000
424.812; 2311.725;  275.475;    0.000
424.864; 2217.725;  206.475;    0.000
424.917; 2221.725;  198.475;    0.000
424.969; 2270.725;  246.475;    0.000
425.021; 2196.725;  209.475;    0.000
425.073; 2166.725;  242.475;    0.000
425.125; 2263.725;  254.475;    0.000
425.177; 2233.725;  224.475;    0.000
425.229; 2230.725;  256.475;    0.000
425.282; 2307.725;  265.475;    0.000
425.334; 2328.725;  266.475;    0.000
425.386; 2186.725;  242.475;    0.000
425.438; 2237.725;  205.475;    0.000
425.490; 2230.725;  227.475;    0.000
425.542; 2198.725;  235.475;    0.000
425.594; 2219.725;  210.475;    0.000
425.646; 2254.725;  232.475;    0.000
425.698; 2215.725;  243.475;    0.000
425.750; 2232.725;  230.475;    0.000
425.802; 2150.725;  218.475;    0.000
425.854; 2306.725;  222.475;    0.000
425.906; 2262.725;  235.475;    0.000
425.958; 2210.725;  220.475;    0.000
426.010; 2211.725;  236.475;    0.000
426.062; 2194.725;  230.475;    0.000
426.114; 2136.725;  216.475;    0.000
426.166; 2124.725;  230.475;    0.000
426.218; 2202.725;  237.475;    0.000
426.270; 2180.725;  217.475;    0.000
426.321; 2152.725;  224.475;    0.000
426.373; 2165.725;  207.475;    0.000
426.425; 2185.725;  278.475;    0.000
426.477; 2224.725;  243.475;    0.000
426.529; 2209.725;  247.475;    0.000
426.581; 2083.725;  229.475;    0.000
426.633; 2211.725;  212.475;    0.000
426.684; 2081.725;  244.475;    0.000
426.736; 2131.725;  250.475;    0.000
426.788; 2181.725;  210.475;    0.000
426.840; 2120.725;  201.475;    0.000
426.892; 2178.725;  225.475;    0.000
426.943; 2237.725;  215.475;    0.000
426.995; 2088.725;  216.475;    0.000
427.047; 2051.725;  216.475;    0.000
427.099; 2153.725;  203.475;    0.000
427.150; 2120.725;  195.475;    0.000
427.202; 2125.725;  212.475;    0.000
427.254; 2031.725;  233.475;    0.000
427.306; 2130.725;  211.475;    0.000
427.357; 2117.725;  210.475;    0.000
427.409; 2121.725;  244.475;    0.000
427.461; 2065.725;  187.475;    0.000
427.512; 2166.725;  227.475;    0.000
427.564; 2092.725;  210.475;    0.000
427.616; 2173.725;  202.475;    0.000
427.667; 2097.725;  185.475;    0.000
427.719; 2071.725;  222.475;    0.000
427.770; 2006.725;  230.475;    0.000
427.822; 2085.725;  254.475;    0.000
427.874; 2097.725;  222.475;    0.000
427.925; 2087.725;  199.475;    0.000
427.977; 2072.725;  228.475;    0.000
428.028; 2008.725;  226.475;    0.000
428.080; 2041.725;  236.475;    0.000
428.131; 2141.725;  220.475;    0.000
428.183; 2152.725;  256.475;    0.000
428.234; 2069.725;  217.475;    0.000
428.286; 2077.725;  234.475;    0.000
428.337; 2075.725;  209.475;    0.000
428.389; 2091.725;  219.475;    0.000
428.440; 2127.725;  249.475;    0.000
428.492; 2101.725;  255.475;    0.000
428.543; 1963.725;  224.475;    0.000
428.595; 2050.725;  225.475;    0.000
428.646; 2050.725;  240.475;    0.000
428.697; 2040.725;  211.475;    0.000
428.749; 2021.725;  200.475;    0.000
428.800; 2086.725;  235.475;    0.000
428.852; 2062.725;  265.475;    0.000
428.903; 2046.725;  201.475;    0.000
428.954; 2129.725;  242.475;    0.000
429.006; 2027.725;  245.475;    0.000
429.057; 2036.725;  252.475;    0.000
429.108; 2068.725;  211.475;    0.000
429.160; 2020.725;  217.475;    0.000
429.211; 2035.725;  234.475;    0.000
429.262; 2072.725;  205.475;    0.000
429.314; 2033.725;  211.475;    0.000
429.365; 2005.725;  240.475;    0.000
429.416; 2049.725;  263.475;    0.000
429.467; 1974.725;  244.475;    0.000
429.519; 2079.725;  223.475;    0.000
429.570; 2027.725;  214.475;    0.000
429.621; 1979.725;  235.475;    0.000
429.672; 1989.725;  202.475;    0.000
429.724; 2036.725;  189.475;    0.000
429.775; 2046.725;  214.475;    0.000
429.826; 1962.725;  178.475;    0.000
429.877; 2050.725;  224.475;    0.000
429.928; 1973.725;  230.475;    0.000
429.980; 2011.725;  199.475;    0.000
430.031; 2010.725;  208.475;    0.000
430.082; 1950.725;  224.475;    0.000
430.133; 1972.725;  193.475;    0.000
430.184; 1967.725;  220.475;    0.000
430.235; 2072.725;  184.475;    0.000
430.286; 1970.725;  197.475;    0.000
430.337; 1994.725;  199.475;    0.000
430.388; 1973.725;  207.475;    0.000
430.439; 1944.725;  227.475;    0.000
430.490; 1975.725;  215.475;    0.000
430.542; 1960.725;  211.475;    0.000
430.593; 1974.725;  230.475;    0.000
430.644; 1999.725;  186.475;    0.000
430.695; 1991.725;  232.475;    0.000
430.746; 1972.725;  214.475;    0.000
430.797; 2023.725;  260.475;    0.000
430.848; 1990.725;  214.475;    0.000
430.898; 1968.725;  204.475;    0.000
430.949; 1990.725;  189.475;    0.000
431.000; 1903.725;  240.475;    0.000
431.051; 1998.725;  201.475;    0.000
431.102; 1972.725;  188.475;    0.000
431.153; 2005.725;  209.475;    0.000
431.204; 1978.725;  187.475;    0.000
431.255; 1914.725;  171.475;    0.000
431.306; 1968.725;  181.475;    0.000
431.357; 1923.725;  221.475;    0.000
431.408; 2023.725;  217.475;    0.000
431.458; 2000.725;  206.475;    0.000
431.509; 1992.725;  194.475;    0.000
431.560; 2035.725;  235.475;    0.000
431.611; 2036.725;  213.475;    0.000
431.662; 2016.725;  237.475;    0.000
431.713; 2031.725;  220.475;    0.000
431.763; 1977.725;  212.475;    0.000
431.814; 2002.725;  238.475;    0.000
431.865; 2011.725;  213.475;    0.000
431.916; 2037.725;  191.475;    0.000
431.966; 1936.725;  171.475;    0.000
432.017; 2009.725;  263.475;    0.000
432.068; 1940.725;  240.475;    0.000
432.118; 2036.725;  235.475;    0.000
432.169; 1987.725;  212.475;    0.000
432.220; 1999.725;  188.475;    0.000
432.271; 2031.725;  216.475;    0.000
432.321; 2005.725;  223.475;    0.000
432.372; 2011.725;  254.475;    0.000
432.423; 1932.725;  193.475;    0.000
432.473; 2008.725;  219.475;    0.000
432.524; 2012.725;  215.475;    0.000
432.574; 1917.725;  234.475;    0.000
432.625; 1910.725;  226.475;    0.000
432.676; 2013.725;  219.475;    0.000
432.726; 1985.725;  254.475;    0.000
432.777; 1925.725;  210.475;    0.000
432.827; 1985.725;  234.475;    0.000
432.878; 1960.725;  212.475;    0.000
432.928; 1939.725;  238.475;    0.000
432.979; 2065.725;  252.475;    0.000
433.029; 1973.725;  222.475;    0.000
433.080; 1971.725;  188.475;    0.000
433.130; 2035.725;  223.475;    0.000
433.181; 2076.725;  254.475;    0.000
433.231; 1993.725;  237.475;    0.000
433.282; 1995.725;  242.475;    0.000
433.332; 1962.725;  261.475;    0.000
433.383; 1974.725;  266.475;    0.000
433.433; 1935.725;  286.475;    0.000
433.484; 1969.725;  231.475;    0.000
433.534; 1978.725;  256.475;    0.000
433.585; 1964.725;  253.475;    0.000
433.635; 2054.725;  228.475;    0.000
433.685; 1948.725;  226.475;    0.000
433.736; 1995.725;  276.475;    0.000
433.786; 1980.725;  253.475;    0.000
433.836; 1989.725;  289.475;    0.000
433.887; 1994.725;  241.475;    0.000
433.937; 1969.725;  252.475;    0.000
433.987; 1920.725;  223.475;    0.000
434.038; 1995.725;  241.475;    0.000
434.088; 1993.725;  231.475;    0.000
434.138; 1964.725;  259.475;    0.000
434.189; 2017.725;  263.475;    0.000
434.239; 1935.725;  194.475;    0.000
434.289; 2076.725;  273.475;    0.000
434.339; 2031.725;  212.475;    0.000
434.389; 2025.725;  248.475;    0.000
434.440; 2035.725;  250.475;    0.000
434.490; 2074.725;  278.475;    0.000
434.540; 2117.725;  241.475;    0.000
434.590; 2062.725;  251.475;    0.000
434.640; 2013.725;  207.475;    0.000
434.691; 2042.725;  242.475;    0.000
434.741; 2066.725;  218.475;    0.000
434.791; 2027.725;  267.475;    0.000
434.841; 2090.725;  272.475;    0.000
434.891; 2095.725;  260.475;    0.000
434.941; 2116.725;  258.475;    0.000
434.991; 2084.725;  264.475;    0.000
435.042; 2028.725;  264.475;    0.000
435.092; 2088.725;  271.475;    0.000
435.142; 2072.725;  229.475;    0.000
435.192; 2017.725;  226.475;    0.000
435.242; 2085.725;  253.475;    0.000
435.292; 2015.725;  215.475;    0.000
435.342; 2059.725;  240.475;    0.000
435.392; 2029.725;  235.475;    0.000
435.442; 1947.725;  230.475;    0.000
435.492; 1987.725;  235.475;    0.000
435.542; 1966.725;  230.475;    0.000
435.592; 1928.725;  239.475;    0.000
435.642; 2001.725;  244.475;    0.000
435.692; 1944.725;  236.475;    0.000
435.742; 1990.725;  236.475;    0.000
435.792; 2006.725;  230.475;    0.000
435.842; 1913.725;  248.475;    0.000
435.891; 1939.725;  233.475;    0.000
435.941; 1969.725;  243.475;    0.000
435.991; 1948.725;  279.475;    0.000
436.041; 1942.725;  204.475;    0.000
436.091; 1935.725;  217.475;    0.000
436.141; 1918.725;  205.475;    0.000
436.191; 1905.725;  220.475;    0.000
436.241; 1857.725;  248.475;    0.000
436.290; 1900.725;  255.475;    0.000
436.340; 1936.725;  235.475;    0.000
436.390; 1998.725;  207.475;    0.000
436.440; 1903.725;  207.475;    0.000
436.490; 1913.725;  251.475;    0.000
436.539; 1929.725;  240.475;    0.000
436.589; 1889.725;  198.475;    0.000
436.639; 1946.725;  240.475;    0.000
436.689; 1906.725;  216.475;    0.000
436.738; 1907.725;  246.475;    0.000
436.788; 1903.725;  203.475;    0.000
436.838; 1907.725;  230.475;    0.000
436.887; 1922.725;  235.475;    0.000
436.937; 1888.725;  249.475;    0.000
436.987; 1896.725;  208.475;    0.000
437.036; 1958.725;  232.475;    0.000
437.086; 1896.725;  238.475;    0.000
437.136; 1876.725;  228.475;    0.000
437.185; 1855.725;  219.475;    0.000
437.235; 1919.725;  227.475;    0.000
437.285; 1882.725;  241.475;    0.000
437.334; 1895.725;  216.475;    0.000
437.384; 1819.725;  243.475;    0.000
437.433; 1844.725;  214.475;    0.000
437.483; 1846.725;  246.475;    0.000
437.532; 1798.725;  261.475;    0.000
437.582; 1852.725;  205.475;    0.000
437.631; 1882.725;  218.475;    0.000
437.681; 1831.725;  240.475;    0.000
437.730; 1842.725;  258.475;    0.000
437.780; 1834.725;  237.475;    0.000
437.829; 1895.725;  209.475;    0.000
437.879; 1820.725;  214.475;    0.000
437.928; 1780.725;  223.475;    0.000
437.978; 1872.725;  220.475;    0.000
438.027; 1834.725;  239.475;    0.000
438.077; 1874.725;  231.475;    0.000
438.126; 1721.725;  266.475;    0.000
438.176; 1829.725;  234.475;    0.000
438.225; 1813.725;  237.475;    0.000
438.274; 1852.725;  234.475;    0.000
438.324; 1874.725;  244.475;    0.000
438.373; 1811.725;  232.475;    0.000
438.422; 1725.725;  218.475;    0.000
438.472; 1797.725;  221.475;    0.000
438.521; 1735.725;  190.475;    0.000
438.570; 1860.725;  243.475;    0.000
438.620; 1820.725;  255.475;    0.000
438.669; 1777.725;  210.475;    0.000
438.718; 1793.725;  237.475;    0.000
438.768; 1700.725;  220.475;    0.000
438.817; 1827.725;  218.475;    0.000
438.866; 1817.725;  198.475;    0.000
438.915; 1841.725;  256.475;    0.000
438.965; 1779.725;  221.475;    0.000
439.014; 1875.725;  255.475;    0.000
439.063; 1790.725;  276.475;    0.000
439.112; 1855.725;  220.475;    0.000
439.162; 1883.725;  253.475;    0.000
439.211; 1832.725;  247.475;    0.000
439.260; 1814.725;  220.475;    0.000
439.309; 1794.725;  235.475;    0.000
439.358; 1844.725;  205.475;    0.000
439.407; 1822.725;  207.475;    0.000
439.456; 1755.725;  216.475;    0.000
439.506; 1884.725;  245.475;    0.000
439.555; 1786.725;  264.475;    0.000
439.604; 1817.725;  227.475;    0.000
439.653; 1848.725;  220.475;    0.000
439.702; 1852.725;  223.475;    0.000
439.751; 1831.725;  197.475;    0.000
439.800; 1908.725;  207.475;    0.000
439.849; 1833.725;  238.475;    0.000
439.898; 1831.725;  209.475;    0.000
439.947; 1777.725;  170.475;    0.000
439.996; 1860.725;  233.475;    0.000
440.045; 1877.725;  222.475;    0.000
440.094; 1859.725;  240.475;    0.000
440.143; 1906.725;  249.475;    0.000
440.192; 1913.725;  252.475;    0.000
440.241; 1925.725;  239.475;    0.000
440.290; 1815.725;  234.475;    0.000
440.339; 1896.725;  241.475;    0.000
440.388; 1872.725;  239.475;    0.000
440.437; 1861.725;  231.475;    0.000
440.486; 1809.725;  254.475;    0.000
440.535; 1944.725;  266.475;    0.000
440.583; 1793.725;  205.475;    0.000
440.632; 1845.725;  234.475;    0.000
440.681; 1835.725;  218.475;    0.000
440.730; 1841.725;  248.475;    0.000
440.779; 1883.725;  246.475;    0.000
440.828; 1863.725;  235.475;    0.000
440.876; 1845.725;  218.475;    0.000
440.925; 1928.725;  228.475;    0.000
440.974; 1897.725;  249.475;    0.000
441.023; 1976.725;  192.475;    0.000
441.072; 1896.725;  226.475;    0.000
441.120; 1887.725;  238.475;    0.000
441.169; 1891.725;  255.475;    0.000
441.218; 1983.725;  233.475;    0.000
441.267; 1937.725;  231.475;    0.000
441.315; 1951.725;  214.475;    0.000
441.364; 1920.725;  250.475;    0.000
441.413; 1912.725;  228.475;    0.000
441.461; 1980.725;  209.475;    0.000
441.510; 1975.725;  260.475;    0.000
441.559; 2004.725;  230.475;    0.000
441.607; 1929.725;  220.475;    0.000
441.656; 1861.725;  251.475;    0.000
441.705; 2089.725;  237.475;    0.000
441.753; 1946.725;  257.475;    0.000
441.802; 1961.725;  256.475;    0.000
441.850; 1967.725;  253.475;    0.000
441.899; 1933.725;  212.475;    0.000
441.948; 2017.725;  251.475;    0.000
441.996; 1874.725;  239.475;    0.000
442.045; 1959.725;  223.475;    0.000
442.093; 1920.725;  211.475;    0.000
442.142; 1977.725;  235.475;    0.000
442.190; 1959.725;  254.475;    0.000
442.239; 1978.725;  226.475;    0.000
442.287; 1902.725;  242.475;    0.000
442.336; 1991.725;  256.475;    0.000
442.384; 1893.725;  252.475;    0.000
442.433; 2038.725;  262.475;    0.000
442.481; 1928.725;  246.475;    0.000
442.529; 1914.725;  290.475;    0.000
442.578; 1834.725;  247.475;    0.000
442.626; 1973.725;  247.475;    0.000
442.675; 2000.725;  272.475;    0.000
442.723; 1891.725;  230.475;    0.000
442.771; 1952.725;  234.475;    0.000
442.820; 1938.725;  224.475;    0.000
442.868; 1977.725;  246.475;    0.000
442.917; 1967.725;  249.475;    0.000
442.965; 1970.725;  260.475;    0.000
443.013; 1929.725;  258.475;    0.000
443.062; 1940.725;  259.475;    0.000
443.110; 1915.725;  226.475;    0.000
443.158; 1948.725;  213.475;    0.000
443.206; 2022.725;  201.475;    0.000
443.255; 1913.725;  280.475;    0.000
443.303; 1959.725;  292.475;    0.000
443.351; 1950.725;  256.475;    0.000
443.399; 1881.725;  215.475;    0.000
443.448; 1910.725;  243.475;    0.000
443.496; 1969.725;  249.475;    0.000
443.544; 2110.725;  231.475;    0.000
443.592; 1982.725;  243.475;    0.000
443.640; 2021.725;  252.475;    0.000
443.689; 2048.725;  220.475;    0.000
443.737; 1955.725;  231.475;    0.000
443.785; 1992.725;  256.475;    0.000
443.833; 1988.725;  268.475;    0.000
443.881; 2011.725;  181.475;    0.000
443.929; 2063.725;  245.475;    0.000
443.977; 1994.725;  278.475;    0.000
444.025; 2013.725;  245.475;    0.000
444.074; 2013.725;  233.475;    0.000
444.122; 2058.725;  267.475;    0.000
444.170; 1996.725;  247.475;    0.000
444.218; 2064.725;  246.475;    0.000
444.266; 2083.725;  275.475;    0.000
444.314; 2023.725;  263.475;    0.000
444.362; 2098.725;  240.475;    0.000
444.410; 2061.725;  220.475;    0.000
444.458; 2109.725;  258.475;    0.000
444.506; 2104.725;  258.475;    0.000
444.554; 2090.725;  224.475;    0.000
444.602; 2106.725;  245.475;    0.000
444.650; 2061.725;  261.475;    0.000
444.698; 2157.725;  232.475;    0.000
444.746; 2047.725;  206.475;    0.000
444.793; 2068.725;  249.475;    0.000
444.841; 2216.725;  261.475;    0.000
444.889; 2145.725;  221.475;    0.000
444.937; 2081.725;  215.475;    0.000
444.985; 2130.725;  244.475;    0.000
445.033; 2115.725;  211.475;    0.000
445.081; 2075.725;  225.475;    0.000
445.129; 2031.725;  217.475;    0.000
445.176; 2061.725;  196.475;    0.000
445.224; 2092.725;  211.475;    0.000
445.272; 2056.725;  242.475;    0.000
445.320; 2080.725;  225.475;    0.000
445.368; 2010.725;  249.475;    0.000
445.415; 2063.725;  243.475;    0.000
445.463; 2071.725;  242.475;    0.000
445.511; 2059.725;  248.475;    0.000
445.559; 2111.725;  219.475;    0.000
445.606; 2106.725;  221.475;    0.000
445.654; 1986.725;  202.475;    0.000
445.702; 2112.725;  210.475;    0.000
445.749; 2098.725;  249.475;    0.000
445.797; 2060.725;  206.475;    0.000
445.845; 2116.725;  213.475;    0.000
445.892; 2052.725;  224.475;    0.000
445.940; 2043.725;  214.475;    0.000
445.988; 2100.725;  247.475;    0.000
446.035; 2143.725;  204.475;    0.000
446.083; 2135.725;  235.475;    0.000
446.130; 2063.725;  195.475;    0.000
446.178; 2128.725;  236.475;    0.000
446.226; 2087.725;  218.475;    0.000
446.273; 2154.725;  215.475;    0.000
446.321; 2154.725;  222.475;    0.000
446.368; 2092.725;  228.475;    0.000
446.416; 2095.725;  223.475;    0.000
446.463; 2026.725;  220.475;    0.000
446.511; 2170.725;  198.475;    0.000
446.558; 2124.725;  208.475;    0.000
446.606; 2181.725;  253.475;    0.000
446.653; 2196.725;  198.475;    0.000
446.701; 2308.725;  231.475;    0.000
446.748; 2254.725;  224.475;    0.000
446.796; 2249.725;  201.475;    0.000
446.843; 2247.725;  257.475;    0.000
446.891; 2313.725;  218.475;    0.000
446.938; 2283.725;  232.475;    0.000
446.985; 2270.725;  229.475;    0.000
447.033; 2373.725;  251.475;    0.000
447.080; 2310.725;  257.475;    0.000
447.128; 2297.725;  232.475;    0.000
447.175; 2358.725;  269.475;    0.000
447.222; 2318.725;  185.475;    0.000
447.270; 2353.725;  264.475;    0.000
447.317; 2400.725;  225.475;    0.000
447.364; 2431.725;  243.475;    0.000
447.411; 2454.725;  263.475;    0.000
447.459; 2496.725;  257.475;    0.000
447.506; 2481.725;  175.475;    0.000
447.553; 2483.725;  203.475;    0.000
447.601; 2502.725;  238.475;    0.000
447.648; 2542.725;  244.475;    0.000
447.695; 2551.725;  249.475;    0.000
447.742; 2709.725;  234.475;    0.000
447.789; 2714.725;  228.475;    0.000
447.837; 2776.725;  258.475;    0.000
447.884; 2838.725;  243.475;    0.000
447.931; 2930.725;  235.475;    0.000
447.978; 2947.725;  224.475;    0.000
448.025; 3036.725;  245.475;    0.000
448.072; 2973.725;  212.475;    0.000
448.120; 3008.725;  256.475;    0.000
448.167; 3018.725;  240.475;    0.000
448.214; 3046.725;  247.475;    0.000
448.261; 2857.725;  245.475;    0.000
448.308; 2837.725;  273.475;    0.000
448.355; 2775.725;  257.475;    0.000
448.402; 2672.725;  259.475;    0.000
448.449; 2582.725;  238.475;    0.000
448.496; 2665.725;  245.475;    0.000
448.543; 2583.725;  217.475;    0.000
448.590; 2600.725;  269.475;    0.000
448.637; 2447.725;  250.475;    0.000
448.684; 2454.725;  250.475;    0.000
448.731; 2457.725;  235.475;    0.000
448.778; 2374.725;  265.475;    0.000
448.825; 2269.725;  257.475;    0.000
448.872; 2262.725;  234.475;    0.000
448.919; 2234.725;  216.475;    0.000
448.966; 2297.725;  274.475;    0.000
449.013; 2310.725;  263.475;    0.000
449.060; 2243.725;  247.475;    0.000
449.107; 2138.725;  218.475;    0.000
449.154; 2254.725;  225.475;    0.000
449.200; 2219.725;  212.475;    0.000
449.247; 2214.725;  242.475;    0.000
449.294; 2156.725;  228.475;    0.000
449.341; 2126.725;  232.475;    0.000
449.388; 2036.725;  247.475;    0.000
449.435; 2088.725;  227.475;    0.000
449.481; 2122.725;  270.475;    0.000
449.528; 2111.725;  265.475;    0.000
449.575; 2054.725;  255.475;    0.000
449.622; 2083.725;  210.475;    0.000
449.668; 2055.725;  234.475;    0.000
449.715; 2084.725;  262.475;    0.000
449.762; 2020.725;  247.475;    0.000
449.809; 2112.725;  286.475;    0.000
449.855; 2106.725;  246.475;    0.000
449.902; 2006.725;  224.475;    0.000
449.949; 2005.725;  244.475;    0.000
449.995; 2057.725;  274.475;    0.000
450.042; 2009.725;  272.475;    0.000
450.089; 2016.725;  274.475;    0.000
450.135; 2074.725;  285.475;    0.000
450.182; 2029.725;  251.475;    0.000
450.229; 1945.725;  242.475;    0.000
450.275; 1969.725;  277.475;    0.000
450.322; 1939.725;  260.475;    0.000
450.368; 2012.725;  257.475;    0.000
450.415; 1967.725;  276.475;    0.000
450.462; 1973.725;  298.475;    0.000
450.508; 1941.725;  255.475;    0.000
450.555; 1962.725;  271.475;    0.000
450.601; 2003.725;  281.475;    0.000
450.648; 1976.725;  249.475;    0.000
450.694; 1937.725;  270.475;    0.000
450.741; 1971.725;  256.475;    0.000
450.787; 1978.725;  292.475;    0.000
450.834; 1922.725;  221.475;    0.000
450.880; 1919.725;  265.475;    0.000
450.927; 1991.725;  242.475;    0.000
450.973; 1916.725;  259.475;    0.000
451.019; 1886.725;  221.475;    0.000
451.066; 1878.725;  257.475;    0.000
451.112; 1916.725;  251.475;    0.000
451.159; 1922.725;  278.475;    0.000
451.205; 1881.725;  274.475;    0.000
451.251; 1900.725;  281.475;    0.000
451.298; 1902.725;  273.475;    0.000
451.344; 1867.725;  246.475;    0.000
451.390; 1916.725;  286.475;    0.000
451.437; 1867.725;  268.475;    0.000
451.483; 1843.725;  315.475;    0.000
451.529; 1792.725;  251.475;    0.000
451.576; 1860.725;  306.475;    0.000
451.622; 1867.725;  234.475;    0.000
451.668; 1884.725;  243.475;    0.000
451.714; 1954.725;  256.475;    0.000
451.761; 1873.725;  264.475;    0.000
451.807; 1791.725;  284.475;    0.000
451.853; 1858.725;  282.475;    0.000
451.899; 1861.725;  240.475;    0.000
451.945; 1868.725;  263.475;    0.000
451.992; 1795.725;  255.475;    0.000
452.038; 1796.725;  273.475;    0.000
452.084; 1852.725;  274.475;    0.000
452.130; 1809.725;  261.475;    0.000
452.176; 1813.725;  246.475;    0.000
452.222; 1770.725;  238.475;    0.000
452.268; 1857.725;  267.475;    0.000
452.315; 1845.725;  274.475;    0.000
452.361; 1891.725;  241.475;    0.000
452.407; 1797.725;  274.475;    0.000
452.453; 1840.725;  260.475;    0.000
452.499; 1789.725;  232.475;    0.000
452.545; 1753.725;  252.475;    0.000
452.591; 1810.725;  263.475;    0.000
452.637; 1861.725;  208.475;    0.000
452.683; 1821.725;  237.475;    0.000
452.729; 1759.725;  263.475;    0.000
452.775; 1799.725;  291.475;    0.000
452.821; 1758.725;  238.475;    0.000
452.867; 1741.725;  223.475;    0.000
452.913; 1769.725;  257.475;    0.000
452.959; 1710.725;  238.475;    0.000
453.005; 1852.725;  252.475;    0.000
453.051; 1816.725;  260.475;    0.000
453.097; 1821.725;  268.475;    0.000
453.142; 1771.725;  231.475;    0.000
453.188; 1784.725;  266.475;    0.000
453.234; 1811.725;  233.475;    0.000
453.280; 1801.725;  219.475;    0.000
453.326; 1697.725;  265.475;    0.000
453.372; 1756.725;  238.475;    0.000
453.418; 1777.725;  240.475;    0.000
453.463; 1780.725;  219.475;    0.000
453.509; 1747.725;  264.475;    0.000
453.555; 1749.725;  247.475;    0.000
453.601; 1727.725;  230.475;    0.000
453.647; 1773.725;  285.475;    0.000
453.692; 1709.725;  240.475;    0.000
453.738; 1752.725;  233.475;    0.000
453.784; 1755.725;  230.475;    0.000
453.829; 1702.725;  246.475;    0.000
453.875; 1707.725;  261.475;    0.000
453.921; 1747.725;  203.475;    0.000
453.967; 1741.725;  241.475;    0.000
454.012; 1716.725;  250.475;    0.000
454.058; 1744.725;  252.475;    0.000
454.104; 1746.725;  239.475;    0.000
454.149; 1738.725;  250.475;    0.000
454.195; 1753.725;  243.475;    0.000
454.240; 1759.725;  252.475;    0.000
454.286; 1731.725;  245.475;    0.000
454.332; 1768.725;  286.475;    0.000
454.377; 1758.725;  254.475;    0.000
454.423; 1685.725;  246.475;    0.000
454.468; 1708.725;  235.475;    0.000
454.514; 1718.725;  231.475;    0.000
454.559; 1673.725;  246.475;    0.000
454.605; 1658.725;  204.475;    0.000
454.650; 1767.725;  272.475;    0.000
454.696; 1773.725;  222.475;    0.000
454.741; 1762.725;  290.475;    0.000
454.787; 1667.725;  262.475;    0.000
454.832; 1726.725;  227.475;    0.000
454.878; 1746.725;  241.475;    0.000
454.923; 1745.725;  272.475;    0.000
454.969; 1754.725;  290.475;    0.000
455.014; 1722.725;  278.475;    0.000
455.060; 1686.725;  246.475;    0.000
455.105; 1722.725;  231.475;    0.000
455.150; 1783.725;  265.475;    0.000
455.196; 1672.725;  266.475;    0.000
455.241; 1740.725;  258.475;    0.000
455.286; 1720.725;  266.475;    0.000
455.332; 1696.725;  252.475;    0.000
455.377; 1636.725;  219.475;    0.000
455.422; 1767.725;  262.475;    0.000
455.468; 1709.725;  260.475;    0.000
455.513; 1669.725;  212.475;    0.000
455.558; 1725.725;  197.475;    0.000
455.604; 1755.725;  262.475;    0.000
455.649; 1768.725;  238.475;    0.000
455.694; 1685.725;  221.475;    0.000
455.739; 1681.725;  251.475;    0.000
455.785; 1741.725;  287.475;    0.000
455.830; 1722.725;  284.475;    0.000
455.875; 1741.725;  234.475;    0.000
455.920; 1675.725;  215.475;    0.000
455.965; 1737.725;  256.475;    0.000
456.010; 1713.725;  266.475;    0.000
456.056; 1786.725;  263.475;    0.000
456.101; 1705.725;  240.475;    0.000
456.146; 1768.725;  258.475;    0.000
456.191; 1699.725;  241.475;    0.000
456.236; 1707.725;  252.475;    0.000
456.281; 1730.725;  218.475;    0.000
456.326; 1673.725;  251.475;    0.000
456.371; 1677.725;  256.475;    0.000
456.416; 1706.725;  301.475;    0.000
456.461; 1696.725;  233.475;    0.000
456.507; 1724.725;  218.475;    0.000
456.552; 1711.725;  278.475;    0.000
456.597; 1743.725;  223.475;    0.000
456.642; 1724.725;  203.475;    0.000
456.687; 1717.725;  245.475;    0.000
456.732; 1699.725;  256.475;    0.000
456.776; 1748.725;  244.475;    0.000
456.821; 1746.725;  276.475;    0.000
456.866; 1721.725;  232.475;    0.000
456.911; 1711.725;  225.475;    0.000
456.956; 1762.725;  237.475;    0.000
457.001; 1737.725;  261.475;    0.000
457.046; 1740.725;  205.475;    0.000
457.091; 1741.725;  241.475;    0.000
457.136; 1728.725;  217.475;    0.000
457.181; 1704.725;  251.475;    0.000
457.225; 1779.725;  241.475;    0.000
457.270; 1723.725;  237.475;    0.000
457.315; 1739.725;  279.475;    0.000
457.360; 1611.725;  245.475;    0.000
457.405; 1741.725;  202.475;    0.000
457.450; 1696.725;  247.475;    0.000
457.494; 1720.725;  243.475;    0.000
457.539; 1752.725;  222.475;    0.000
457.584; 1734.725;  239.475;    0.000
457.629; 1689.725;  236.475;    0.000
457.673; 1735.725;  234.475;    0.000
457.718; 1693.725;  202.475;    0.000
457.763; 1773.725;  274.475;    0.000
457.807; 1790.725;  236.475;    0.000
457.852; 1767.725;  265.475;    0.000
457.897; 1678.725;  252.475;    0.000
457.941; 1801.725;  264.475;    0.000
457.986; 1761.725;  280.475;    0.000
458.031; 1790.725;  217.475;    0.000
458.075; 1738.725;  249.475;    0.000
458.120; 1776.725;  257.475;    0.000
458.165; 1729.725;  183.475;    0.000
458.209; 1763.725;  245.475;    0.000
458.254; 1706.725;  245.475;    0.000
458.298; 1738.725;  265.475;    0.000
458.343; 1749.725;  241.475;    0.000
458.387; 1851.725;  262.475;    0.000
458.432; 1794.725;  245.475;    0.000
458.476; 1830.725;  255.475;    0.000
458.521; 1820.725;  269.475;    0.000
458.565; 1803.725;  265.475;    0.000
458.610; 1776.725;  222.475;    0.000
458.654; 1822.725;  257.475;    0.000
458.699; 1858.725;  296.475;    0.000
458.743; 1781.725;  203.475;    0.000
458.788; 1892.725;  267.475;    0.000
458.832; 1911.725;  274.475;    0.000
458.877; 1962.725;  251.475;    0.000
458.921; 1854.725;  237.475;    0.000
458.965; 1855.725;  264.475;    0.000
459.010; 1845.725;  256.475;    0.000
459.054; 1962.725;  280.475;    0.000
459.099; 1792.725;  240.475;    0.000
459.143; 1890.725;  287.475;    0.000
459.187; 1832.725;  257.475;    0.000
459.231; 1895.725;  273.475;    0.000
459.276; 1918.725;  231.475;    0.000
459.320; 1875.725;  261.475;    0.000
459.364; 1968.725;  278.475;    0.000
459.409; 1945.725;  249.475;    0.000
459.453; 1918.725;  235.475;    0.000
459.497; 1970.725;  262.475;    0.000
459.541; 1932.725;  269.475;    0.000
459.586; 1919.725;  240.475;    0.000
459.630; 1967.725;  261.475;    0.000
459.674; 1960.725;  276.475;    0.000
459.718; 1900.725;  236.475;    0.000
459.762; 1947.725;  263.475;    0.000
459.807; 1988.725;  263.475;    0.000
459.851; 1934.725;  225.475;    0.000
459.895; 1851.725;  247.475;    0.000
459.939; 1989.725;  231.475;    0.000
459.983; 1902.725;  242.475;    0.000
460.027; 1929.725;  248.475;    0.000
460.071; 1942.725;  273.475;    0.000
460.115; 1870.725;  282.475;    0.000
460.159; 1883.725;  264.475;    0.000
460.204; 1930.725;  288.475;    0.000
460.248; 2033.725;  293.475;    0.000
460.292; 2006.725;  277.475;    0.000
460.336; 1990.725;  250.475;    0.000
460.380; 1922.725;  275.475;    0.000
460.424; 1924.725;  243.475;    0.000
460.468; 2019.725;  277.475;    0.000
460.512; 1908.725;  261.475;    0.000
460.556; 1972.725;  266.475;    0.000
460.599; 2040.725;  246.475;    0.000
460.643; 2025.725;  256.475;    0.000
460.687; 1978.725;  257.475;    0.000
460.731; 1941.725;  235.475;    0.000
460.775; 2025.725;  278.475;    0.000
460.819; 1911.725;  268.475;    0.000
460.863; 1913.725;  257.475;    0.000
460.907; 1888.725;  213.475;    0.000
460.951; 1989.725;  274.475;    0.000
460.995; 2019.725;  258.475;    0.000
461.038; 2002.725;  219.475;    0.000
461.082; 2025.725;  253.475;    0.000
461.126; 2019.725;  281.475;    0.000
461.170; 2009.725;  244.475;    0.000
461.214; 2006.725;  262.475;    0.000
461.257; 1936.725;  284.475;    0.000
461.301; 2017.725;  275.475;    0.000
461.345; 2050.725;  267.475;    0.000
461.389; 2075.725;  255.475;    0.000
461.432; 1976.725;  282.475;    0.000
461.476; 1999.725;  263.475;    0.000
461.520; 1945.725;  260.475;    0.000
461.563; 2002.725;  278.475;    0.000
461.607; 1988.725;  236.475;    0.000
461.651; 1971.725;  262.475;    0.000
461.694; 1916.725;  236.475;    0.000
461.738; 2101.725;  295.475;    0.000
461.782; 2000.725;  252.475;    0.000
461.825; 2061.725;  271.475;    0.000
461.869; 1996.725;  278.475;    0.000
461.913; 2027.725;  255.475;    0.000
461.956; 2055.725;  254.475;    0.000
462.000; 2055.725;  299.475;    0.000
462.043; 2077.725;  282.475;    0.000
462.087; 2013.725;  274.475;    0.000
462.130; 2098.725;  270.475;    0.000
462.174; 2062.725;  274.475;    0.000
462.217; 2114.725;  272.475;    0.000
462.261; 2113.725;  286.475;    0.000
462.304; 2049.725;  236.475;    0.000
462.348; 2106.725;  262.475;    0.000
462.391; 2136.725;  244.475;    0.000
462.435; 2128.725;  321.475;    0.000
462.478; 2119.725;  230.475;    0.000
462.522; 2107.725;  245.475;    0.000
462.565; 2170.725;  278.475;    0.000
462.608; 2219.725;  303.475;    0.000
462.652; 2207.725;  275.475;    0.000
462.695; 2220.725;  314.475;    0.000
462.739; 2206.725;  307.475;    0.000
462.782; 2124.725;  286.475;    0.000
462.825; 2208.725;  312.475;    0.000
462.869; 2298.725;  338.475;    0.000
462.912; 2259.725;  304.475;    0.000
462.955; 2190.725;  288.475;    0.000
462.998; 2235.725;  292.475;    0.000
463.042; 2243.725;  309.475;    0.000
463.085; 2296.725;  292.475;    0.000
463.128; 2278.725;  317.475;    0.000
463.172; 2234.725;  287.475;    0.000
463.215;  374.725;  313.475;    0.000
463.258;  326.725;  295.475;    0.000
463.301;  305.725;  275.475;    0.000
463.344;  304.725;  311.475;    0.000
463.388;  308.725;  296.475;    0.000
463.431;  292.725;  277.475;    0.000
463.474;  310.725;  364.475;    0.000
463.517;  307.725;  306.475;    0.000
463.560;  337.725;  308.475;    0.000
463.603;  325.725;  343.475;    0.000
463.646;  343.725;  309.475;    0.000
463.690;  304.725;  309.475;    0.000
463.733;  326.725;  320.475;    0.000
463.776;  297.725;  299.475;    0.000
463.819;  301.725;  320.475;    0.000
463.862;  294.725;  283.475;    0.000

