
Integration time [ms]:   1.000
Averaging Nr. [scans]: 1
Smoothing Nr. [pixels]: 0
Data measured with spectrometer [name]: UV2
Wave   ;Sample   ;Dark     ;Reference
[nm]   ;[counts] ;[counts] ;[counts] 

353.533;  239.500;  216.475;    0.000
353.597;  209.500;  244.475;    0.000
353.660;  179.500;  181.475;    0.000
353.723;  186.500;  203.475;    0.000
353.786;  173.500;  180.475;    0.000
353.850;  208.500;  213.475;    0.000
353.913;  179.500;  191.475;    0.000
353.976;  212.500;  195.475;    0.000
354.039;  194.500;  158.475;    0.000
354.102;  203.500;  199.475;    0.000
354.166;  215.500;  185.475;    0.000
354.229;  214.500;  188.475;    0.000
354.292;  165.500;  188.475;    0.000
354.355;  214.500;  226.475;    0.000
354.418;  172.500;  158.475;    0.000
354.481;  210.500;  185.475;    0.000
354.545;  408.500;  191.475;    0.000
354.608;  449.500;  247.475;    0.000
354.671;  412.500;  176.475;    0.000
354.734;  429.500;  198.475;    0.000
354.797;  438.500;  195.475;    0.000
354.860;  497.500;  212.475;    0.000
354.923;  451.500;  184.475;    0.000
354.986;  479.500;  169.475;    0.000
355.050;  435.500;  206.475;    0.000
355.113;  496.500;  210.475;    0.000
355.176;  457.500;  217.475;    0.000
355.239;  470.500;  201.475;    0.000
355.302;  448.500;  193.475;    0.000
355.365;  488.500;  234.475;    0.000
355.428;  475.500;  182.475;    0.000
355.491;  533.500;  233.475;    0.000
355.554;  486.500;  167.475;    0.000
355.617;  489.500;  195.475;    0.000
355.680;  471.500;  198.475;    0.000
355.743;  500.500;  186.475;    0.000
355.806;  451.500;  171.475;    0.000
355.869;  554.500;  244.475;    0.000
355.932;  515.500;  164.475;    0.000
355.995;  500.500;  220.475;    0.000
356.058;  547.500;  172.475;    0.000
356.121;  552.500;  228.475;    0.000
356.184;  546.500;  225.475;    0.000
356.247;  512.500;  161.475;    0.000
356.310;  479.500;  195.475;    0.000
356.373;  564.500;  191.475;    0.000
356.436;  535.500;  147.475;    0.000
356.498;  562.500;  183.475;    0.000
356.561;  543.500;  137.475;    0.000
356.624;  528.500;  186.475;    0.000
356.687;  577.500;  158.475;    0.000
356.750;  524.500;  194.475;    0.000
356.813;  528.500;  186.475;    0.000
356.876;  556.500;  161.475;    0.000
356.939;  551.500;  188.475;    0.000
357.001;  599.500;  200.475;    0.000
357.064;  547.500;  182.475;    0.000
357.127;  523.500;  168.475;    0.000
357.190;  515.500;  157.475;    0.000
357.253;  536.500;  199.475;    0.000
357.316;  546.500;  187.475;    0.000
357.378;  558.500;  174.475;    0.000
357.441;  548.500;  165.475;    0.000
357.504;  582.500;  189.475;    0.000
357.567;  483.500;  116.475;    0.000
357.629;  550.500;  176.475;    0.000
357.692;  554.500;  134.475;    0.000
357.755;  543.500;  175.475;    0.000
357.818;  534.500;  159.475;    0.000
357.880;  564.500;  185.475;    0.000
357.943;  554.500;  159.475;    0.000
358.006;  554.500;  176.475;    0.000
358.069;  554.500;  156.475;    0.000
358.131;  534.500;  170.475;    0.000
358.194;  529.500;  125.475;    0.000
358.257;  568.500;  186.475;    0.000
358.319;  562.500;  139.475;    0.000
358.382;  586.500;  175.475;    0.000
358.445;  534.500;  170.475;    0.000
358.507;  569.500;  129.475;    0.000
358.570;  605.500;  168.475;    0.000
358.633;  530.500;  152.475;    0.000
358.695;  552.500;  194.475;    0.000
358.758;  536.500;  154.475;    0.000
358.821;  573.500;  147.475;    0.000
358.883;  577.500;  163.475;    0.000
358.946;  592.500;  155.475;    0.000
359.008;  607.500;  208.475;    0.000
359.071;  553.500;  182.475;    0.000
359.134;  489.500;  126.475;    0.000
359.196;  597.500;  142.475;    0.000
359.259;  575.500;  138.475;    0.000
359.321;  552.500;  153.475;    0.000
359.384;  569.500;  186.475;    0.000
359.446;  567.500;  152.475;    0.000
359.509;  585.500;  144.475;    0.000
359.571;  622.500;  164.475;    0.000
359.634;  591.500;  171.475;    0.000
359.696;  557.500;  144.475;    0.000
359.759;  598.500;  171.475;    0.000
359.821;  575.500;  161.475;    0.000
359.884;  578.500;  159.475;    0.000
359.946;  650.500;  186.475;    0.000
360.009;  581.500;  171.475;    0.000
360.071;  584.500;  166.475;    0.000
360.134;  648.500;  215.475;    0.000
360.196;  550.500;  138.475;    0.000
360.259;  584.500;  196.475;    0.000
360.321;  597.500;  148.475;    0.000
360.384;  595.500;  150.475;    0.000
360.446;  589.500;  148.475;    0.000
360.508;  580.500;  172.475;    0.000
360.571;  567.500;  155.475;    0.000
360.633;  575.500;  153.475;    0.000
360.696;  568.500;  142.475;    0.000
360.758;  617.500;  165.475;    0.000
360.820;  597.500;  155.475;    0.000
360.883;  596.500;  156.475;    0.000
360.945;  614.500;  171.475;    0.000
361.007;  637.500;  138.475;    0.000
361.070;  605.500;  129.475;    0.000
361.132;  637.500;  166.475;    0.000
361.194;  589.500;  143.475;    0.000
361.257;  586.500;  154.475;    0.000
361.319;  637.500;  176.475;    0.000
361.381;  615.500;  143.475;    0.000
361.443;  543.500;  136.475;    0.000
361.506;  655.500;  160.475;    0.000
361.568;  594.500;  140.475;    0.000
361.630;  601.500;  159.475;    0.000
361.693;  600.500;  162.475;    0.000
361.755;  644.500;  185.475;    0.000
361.817;  624.500;  209.475;    0.000
361.879;  616.500;  161.475;    0.000
361.941;  605.500;  152.475;    0.000
362.004;  659.500;  132.475;    0.000
362.066;  649.500;  159.475;    0.000
362.128;  639.500;  143.475;    0.000
362.190;  627.500;  131.475;    0.000
362.252;  613.500;  131.475;    0.000
362.315;  666.500;  175.475;    0.000
362.377;  617.500;  140.475;    0.000
362.439;  636.500;  140.475;    0.000
362.501;  650.500;  140.475;    0.000
362.563;  621.500;  152.475;    0.000
362.625;  634.500;  174.475;    0.000
362.688;  669.500;  195.475;    0.000
362.750;  683.500;  221.475;    0.000
362.812;  636.500;  171.475;    0.000
362.874;  579.500;  117.475;    0.000
362.936;  624.500;  162.475;    0.000
362.998;  591.500;  142.475;    0.000
363.060;  662.500;  143.475;    0.000
363.122;  675.500;  148.475;    0.000
363.184;  652.500;  179.475;    0.000
363.246;  689.500;  186.475;    0.000
363.308;  616.500;  180.475;    0.000
363.370;  642.500;  200.475;    0.000
363.432;  628.500;  139.475;    0.000
363.494;  643.500;  138.475;    0.000
363.556;  633.500;  114.475;    0.000
363.618;  605.500;  153.475;    0.000
363.680;  620.500;  153.475;    0.000
363.742;  627.500;  178.475;    0.000
363.804;  636.500;  214.475;    0.000
363.866;  685.500;  170.475;    0.000
363.928;  585.500;  145.475;    0.000
363.990;  623.500;  215.475;    0.000
364.052;  642.500;  166.475;    0.000
364.114;  627.500;  168.475;    0.000
364.176;  651.500;  176.475;    0.000
364.238;  651.500;  203.475;    0.000
364.300;  706.500;  158.475;    0.000
364.362;  666.500;  152.475;    0.000
364.424;  636.500;  119.475;    0.000
364.486;  678.500;  187.475;    0.000
364.548;  642.500;  180.475;    0.000
364.609;  654.500;  212.475;    0.000
364.671;  682.500;  165.475;    0.000
364.733;  635.500;  190.475;    0.000
364.795;  704.500;  148.475;    0.000
364.857;  630.500;  159.475;    0.000
364.919;  666.500;  159.475;    0.000
364.981;  656.500;  191.475;    0.000
365.042;  662.500;  170.475;    0.000
365.104;  651.500;  145.475;    0.000
365.166;  624.500;  134.475;    0.000
365.228;  652.500;  150.475;    0.000
365.290;  607.500;  158.475;    0.000
365.351;  706.500;  168.475;    0.000
365.413;  726.500;  173.475;    0.000
365.475;  627.500;  172.475;    0.000
365.537;  617.500;  126.475;    0.000
365.598;  692.500;  160.475;    0.000
365.660;  600.500;  127.475;    0.000
365.722;  676.500;  189.475;    0.000
365.784;  658.500;  161.475;    0.000
365.845;  681.500;  152.475;    0.000
365.907;  629.500;  117.475;    0.000
365.969;  703.500;  146.475;    0.000
366.030;  681.500;  171.475;    0.000
366.092;  688.500;  155.475;    0.000
366.154;  651.500;  137.475;    0.000
366.215;  697.500;  147.475;    0.000
366.277;  664.500;  148.475;    0.000
366.339;  613.500;  158.475;    0.000
366.400;  653.500;  140.475;    0.000
366.462;  676.500;  159.475;    0.000
366.524;  649.500;  160.475;    0.000
366.585;  627.500;  157.475;    0.000
366.647;  705.500;  170.475;    0.000
366.708;  679.500;  123.475;    0.000
366.770;  667.500;  194.475;    0.000
366.832;  669.500;  191.475;    0.000
366.893;  678.500;  155.475;    0.000
366.955;  675.500;  132.475;    0.000
367.016;  658.500;  126.475;    0.000
367.078;  676.500;  202.475;    0.000
367.139;  719.500;  116.475;    0.000
367.201;  696.500;  134.475;    0.000
367.262;  676.500;  157.475;    0.000
367.324;  684.500;  202.475;    0.000
367.385;  633.500;  118.475;    0.000
367.447;  700.500;  155.475;    0.000
367.508;  637.500;  134.475;    0.000
367.570;  673.500;  165.475;    0.000
367.631;  633.500;  118.475;    0.000
367.693;  723.500;  170.475;    0.000
367.754;  649.500;  154.475;    0.000
367.816;  649.500;  146.475;    0.000
367.877;  701.500;  175.475;    0.000
367.939;  743.500;  200.475;    0.000
368.000;  632.500;  168.475;    0.000
368.062;  647.500;  138.475;    0.000
368.123;  673.500;  170.475;    0.000
368.184;  717.500;  188.475;    0.000
368.246;  660.500;  145.475;    0.000
368.307;  717.500;  163.475;    0.000
368.369;  686.500;  144.475;    0.000
368.430;  627.500;  140.475;    0.000
368.491;  701.500;  133.475;    0.000
368.553;  735.500;  145.475;    0.000
368.614;  697.500;  158.475;    0.000
368.675;  722.500;  147.475;    0.000
368.737;  744.500;  157.475;    0.000
368.798;  705.500;  163.475;    0.000
368.859;  708.500;  173.475;    0.000
368.921;  733.500;  122.475;    0.000
368.982;  672.500;  184.475;    0.000
369.043;  739.500;  169.475;    0.000
369.104;  665.500;  142.475;    0.000
369.166;  713.500;  169.475;    0.000
369.227;  723.500;  156.475;    0.000
369.288;  679.500;  151.475;    0.000
369.349;  696.500;  191.475;    0.000
369.411;  691.500;  168.475;    0.000
369.472;  683.500;  155.475;    0.000
369.533;  660.500;  149.475;    0.000
369.594;  654.500;  174.475;    0.000
369.656;  757.500;  188.475;    0.000
369.717;  694.500;  113.475;    0.000
369.778;  722.500;  184.475;    0.000
369.839;  733.500;  151.475;    0.000
369.900;  740.500;  180.475;    0.000
369.961;  755.500;  171.475;    0.000
370.023;  690.500;  143.475;    0.000
370.084;  650.500;  137.475;    0.000
370.145;  681.500;  152.475;    0.000
370.206;  675.500;  151.475;    0.000
370.267;  724.500;  134.475;    0.000
370.328;  724.500;  178.475;    0.000
370.389;  758.500;  181.475;    0.000
370.451;  709.500;  169.475;    0.000
370.512;  800.500;  172.475;    0.000
370.573;  709.500;  148.475;    0.000
370.634;  723.500;  156.475;    0.000
370.695;  692.500;  151.475;    0.000
370.756;  717.500;  185.475;    0.000
370.817;  697.500;  185.475;    0.000
370.878;  757.500;  191.475;    0.000
370.939;  708.500;  147.475;    0.000
371.000;  799.500;  162.475;    0.000
371.061;  703.500;  145.475;    0.000
371.122;  761.500;  179.475;    0.000
371.183;  689.500;  114.475;    0.000
371.244;  723.500;  180.475;    0.000
371.305;  760.500;  138.475;    0.000
371.366;  734.500;  157.475;    0.000
371.427;  755.500;  148.475;    0.000
371.488;  727.500;  138.475;    0.000
371.549;  740.500;  193.475;    0.000
371.610;  763.500;  158.475;    0.000
371.671;  708.500;  119.475;    0.000
371.732;  748.500;  159.475;    0.000
371.793;  788.500;  178.475;    0.000
371.853;  717.500;  155.475;    0.000
371.914;  706.500;  148.475;    0.000
371.975;  675.500;  124.475;    0.000
372.036;  813.500;  158.475;    0.000
372.097;  713.500;  136.475;    0.000
372.158;  735.500;  116.475;    0.000
372.219;  752.500;  157.475;    0.000
372.280;  736.500;  151.475;    0.000
372.340;  815.500;  190.475;    0.000
372.401;  751.500;  151.475;    0.000
372.462;  720.500;  129.475;    0.000
372.523;  755.500;  121.475;    0.000
372.584;  765.500;  152.475;    0.000
372.645;  712.500;  132.475;    0.000
372.705;  742.500;  190.475;    0.000
372.766;  785.500;  153.475;    0.000
372.827;  722.500;  133.475;    0.000
372.888;  739.500;  161.475;    0.000
372.948;  701.500;  159.475;    0.000
373.009;  778.500;  164.475;    0.000
373.070;  757.500;  139.475;    0.000
373.131;  702.500;  137.475;    0.000
373.191;  736.500;  181.475;    0.000
373.252;  751.500;  154.475;    0.000
373.313;  750.500;  179.475;    0.000
373.373;  753.500;  136.475;    0.000
373.434;  758.500;  169.475;    0.000
373.495;  733.500;   97.475;    0.000
373.555;  784.500;  142.475;    0.000
373.616;  780.500;  178.475;    0.000
373.677;  773.500;  167.475;    0.000
373.737;  794.500;  139.475;    0.000
373.798;  773.500;  155.475;    0.000
373.859;  753.500;  162.475;    0.000
373.919;  787.500;  174.475;    0.000
373.980;  769.500;  172.475;    0.000
374.041;  740.500;  166.475;    0.000
374.101;  793.500;  172.475;    0.000
374.162;  779.500;  188.475;    0.000
374.222;  776.500;  186.475;    0.000
374.283;  841.500;  195.475;    0.000
374.343;  817.500;  204.475;    0.000
374.404;  787.500;  187.475;    0.000
374.465;  758.500;  183.475;    0.000
374.525;  747.500;  136.475;    0.000
374.586;  831.500;  140.475;    0.000
374.646;  793.500;  191.475;    0.000
374.707;  808.500;  208.475;    0.000
374.767;  840.500;  178.475;    0.000
374.828;  762.500;  159.475;    0.000
374.888;  796.500;  143.475;    0.000
374.949;  779.500;  202.475;    0.000
375.009;  817.500;  151.475;    0.000
375.070;  791.500;  160.475;    0.000
375.130;  816.500;  160.475;    0.000
375.190;  769.500;  164.475;    0.000
375.251;  816.500;  196.475;    0.000
375.311;  857.500;  154.475;    0.000
375.372;  796.500;  197.475;    0.000
375.432;  819.500;  159.475;    0.000
375.493;  787.500;  197.475;    0.000
375.553;  813.500;  165.475;    0.000
375.613;  821.500;  174.475;    0.000
375.674;  815.500;  165.475;    0.000
375.734;  746.500;  128.475;    0.000
375.794;  762.500;  169.475;    0.000
375.855;  707.500;  193.475;    0.000
375.915;  793.500;  162.475;    0.000
375.975;  754.500;  181.475;    0.000
376.036;  754.500;  161.475;    0.000
376.096;  778.500;  131.475;    0.000
376.156;  826.500;  165.475;    0.000
376.217;  789.500;  182.475;    0.000
376.277;  850.500;  185.475;    0.000
376.337;  778.500;  177.475;    0.000
376.398;  770.500;  162.475;    0.000
376.458;  786.500;  179.475;    0.000
376.518;  793.500;  150.475;    0.000
376.578;  826.500;  165.475;    0.000
376.639;  760.500;  159.475;    0.000
376.699;  788.500;  180.475;    0.000
376.759;  826.500;  206.475;    0.000
376.819;  795.500;  146.475;    0.000
376.880;  792.500;  177.475;    0.000
376.940;  735.500;  160.475;    0.000
377.000;  789.500;  149.475;    0.000
377.060;  714.500;  180.475;    0.000
377.120;  762.500;  146.475;    0.000
377.180;  809.500;  137.475;    0.000
377.241;  750.500;  163.475;    0.000
377.301;  837.500;  169.475;    0.000
377.361;  800.500;  137.475;    0.000
377.421;  830.500;  184.475;    0.000
377.481;  821.500;  185.475;    0.000
377.541;  798.500;  146.475;    0.000
377.601;  821.500;  179.475;    0.000
377.661;  841.500;  181.475;    0.000
377.722;  914.500;  185.475;    0.000
377.782;  833.500;  147.475;    0.000
377.842;  810.500;  190.475;    0.000
377.902;  829.500;  166.475;    0.000
377.962;  791.500;  153.475;    0.000
378.022;  864.500;  163.475;    0.000
378.082;  833.500;  146.475;    0.000
378.142;  842.500;  152.475;    0.000
378.202;  877.500;  164.475;    0.000
378.262;  888.500;  195.475;    0.000
378.322;  843.500;  190.475;    0.000
378.382;  819.500;  152.475;    0.000
378.442;  892.500;  175.475;    0.000
378.502;  789.500;  153.475;    0.000
378.562;  853.500;  142.475;    0.000
378.622;  858.500;  166.475;    0.000
378.682;  880.500;  173.475;    0.000
378.742;  829.500;  182.475;    0.000
378.802;  793.500;  145.475;    0.000
378.862;  871.500;  210.475;    0.000
378.921;  846.500;  182.475;    0.000
378.981;  873.500;  185.475;    0.000
379.041;  809.500;  130.475;    0.000
379.101;  857.500;  177.475;    0.000
379.161;  814.500;  166.475;    0.000
379.221;  934.500;  162.475;    0.000
379.281;  839.500;  167.475;    0.000
379.341;  839.500;  136.475;    0.000
379.401;  865.500;  145.475;    0.000
379.460;  888.500;  176.475;    0.000
379.520;  876.500;  162.475;    0.000
379.580;  904.500;  144.475;    0.000
379.640;  844.500;  163.475;    0.000
379.700;  867.500;  157.475;    0.000
379.759;  901.500;  165.475;    0.000
379.819;  839.500;  190.475;    0.000
379.879;  871.500;  143.475;    0.000
379.939;  923.500;  188.475;    0.000
379.999;  872.500;  141.475;    0.000
380.058;  881.500;  169.475;    0.000
380.118;  926.500;  158.475;    0.000
380.178;  878.500;  114.475;    0.000
380.237;  918.500;  157.475;    0.000
380.297;  901.500;  177.475;    0.000
380.357;  927.500;  189.475;    0.000
380.417;  954.500;  182.475;    0.000
380.476;  910.500;  178.475;    0.000
380.536;  926.500;  189.475;    0.000
380.596;  899.500;  183.475;    0.000
380.655;  916.500;  195.475;    0.000
380.715;  906.500;  170.475;    0.000
380.775;  954.500;  170.475;    0.000
380.834;  938.500;  179.475;    0.000
380.894;  944.500;  188.475;    0.000
380.954;  937.500;  142.475;    0.000
381.013;  942.500;  178.475;    0.000
381.073;  936.500;  164.475;    0.000
381.132;  978.500;  192.475;    0.000
381.192;  933.500;  187.475;    0.000
381.252;  895.500;  176.475;    0.000
381.311;  926.500;  206.475;    0.000
381.371;  987.500;  167.475;    0.000
381.430;  904.500;  131.475;    0.000
381.490;  987.500;  150.475;    0.000
381.549;  950.500;  129.475;    0.000
381.609;  982.500;  178.475;    0.000
381.668; 1044.500;  194.475;    0.000
381.728; 1049.500;  210.475;    0.000
381.787; 1006.500;  190.475;    0.000
381.847; 1020.500;  181.475;    0.000
381.906; 1000.500;  156.475;    0.000
381.966;  991.500;  176.475;    0.000
382.025;  953.500;  186.475;    0.000
382.085; 1080.500;  192.475;    0.000
382.144; 1043.500;  173.475;    0.000
382.204; 1051.500;  207.475;    0.000
382.263; 1022.500;  193.475;    0.000
382.323;  937.500;  164.475;    0.000
382.382; 1013.500;  161.475;    0.000
382.441; 1114.500;  199.475;    0.000
382.501; 1030.500;  208.475;    0.000
382.560; 1118.500;  173.475;    0.000
382.619; 1081.500;  179.475;    0.000
382.679; 1171.500;  177.475;    0.000
382.738; 1194.500;  190.475;    0.000
382.798; 1236.500;  213.475;    0.000
382.857; 1324.500;  195.475;    0.000
382.916; 1527.500;  184.475;    0.000
382.976; 1598.500;  169.475;    0.000
383.035; 1470.500;  194.475;    0.000
383.094; 1413.500;  185.475;    0.000
383.154; 1605.500;  198.475;    0.000
383.213; 1916.500;  147.475;    0.000
383.272; 1960.500;  175.475;    0.000
383.331; 1492.500;  122.475;    0.000
383.391; 1437.500;  185.475;    0.000
383.450; 1365.500;  160.475;    0.000
383.509; 1343.500;  168.475;    0.000
383.568; 1403.500;  196.475;    0.000
383.628; 1475.500;  156.475;    0.000
383.687; 1503.500;  171.475;    0.000
383.746; 1753.500;  155.475;    0.000
383.805; 2210.500;  201.475;    0.000
383.864; 2270.500;  125.475;    0.000
383.924; 1718.500;  213.475;    0.000
383.983; 1388.500;  188.475;    0.000
384.042; 1285.500;  162.475;    0.000
384.101; 1276.500;  183.475;    0.000
384.160; 1194.500;  155.475;    0.000
384.219; 1160.500;  155.475;    0.000
384.279; 1115.500;  189.475;    0.000
384.338; 1095.500;  156.475;    0.000
384.397; 1079.500;  148.475;    0.000
384.456; 1070.500;  154.475;    0.000
384.515; 1059.500;  160.475;    0.000
384.574; 1108.500;  223.475;    0.000
384.633; 1072.500;  133.475;    0.000
384.692; 1076.500;  163.475;    0.000
384.751; 1104.500;  186.475;    0.000
384.810; 1158.500;  187.475;    0.000
384.869; 1035.500;  172.475;    0.000
384.929; 1043.500;  153.475;    0.000
384.988; 1105.500;  174.475;    0.000
385.047;  979.500;  154.475;    0.000
385.106; 1060.500;  164.475;    0.000
385.165; 1032.500;  151.475;    0.000
385.224;  978.500;  147.475;    0.000
385.283; 1007.500;  176.475;    0.000
385.342;  962.500;  142.475;    0.000
385.401; 1103.500;  175.475;    0.000
385.459; 1003.500;  150.475;    0.000
385.518; 1036.500;  124.475;    0.000
385.577;  998.500;  115.475;    0.000
385.636;  968.500;  174.475;    0.000
385.695; 1026.500;  158.475;    0.000
385.754; 1036.500;  150.475;    0.000
385.813; 1041.500;  129.475;    0.000
385.872;  990.500;  146.475;    0.000
385.931; 1111.500;  194.475;    0.000
385.990; 1018.500;  174.475;    0.000
386.049; 1053.500;  176.475;    0.000
386.107; 1007.500;  151.475;    0.000
386.166; 1010.500;  178.475;    0.000
386.225; 1070.500;  162.475;    0.000
386.284;  998.500;  180.475;    0.000
386.343; 1081.500;  171.475;    0.000
386.402; 1014.500;  176.475;    0.000
386.460; 1060.500;  144.475;    0.000
386.519; 1052.500;  140.475;    0.000
386.578; 1054.500;  145.475;    0.000
386.637; 1055.500;  164.475;    0.000
386.696; 1004.500;  189.475;    0.000
386.754;  969.500;  135.475;    0.000
386.813; 1011.500;  139.475;    0.000
386.872; 1052.500;  121.475;    0.000
386.931; 1006.500;  153.475;    0.000
386.989; 1031.500;  211.475;    0.000
387.048; 1027.500;  156.475;    0.000
387.107; 1108.500;  210.475;    0.000
387.165;  993.500;  129.475;    0.000
387.224;  998.500;  205.475;    0.000
387.283; 1026.500;  130.475;    0.000
387.342; 1114.500;  171.475;    0.000
387.400; 1017.500;  156.475;    0.000
387.459; 1065.500;  141.475;    0.000
387.517; 1062.500;  219.475;    0.000
387.576;  992.500;  166.475;    0.000
387.635; 1034.500;  136.475;    0.000
387.693; 1077.500;  191.475;    0.000
387.752; 1039.500;  165.475;    0.000
387.811; 1064.500;  158.475;    0.000
387.869; 1017.500;  204.475;    0.000
387.928; 1034.500;  149.475;    0.000
387.986; 1065.500;  156.475;    0.000
388.045;  962.500;  123.475;    0.000
388.103;  993.500;  150.475;    0.000
388.162; 1013.500;  173.475;    0.000
388.221; 1034.500;  143.475;    0.000
388.279;  973.500;  129.475;    0.000
388.338; 1070.500;  212.475;    0.000
388.396; 1019.500;  150.475;    0.000
388.455; 1011.500;  167.475;    0.000
388.513;  988.500;  116.475;    0.000
388.572; 1047.500;  181.475;    0.000
388.630; 1042.500;  187.475;    0.000
388.689; 1038.500;  180.475;    0.000
388.747; 1014.500;  154.475;    0.000
388.806; 1025.500;  161.475;    0.000
388.864; 1056.500;  167.475;    0.000
388.922; 1038.500;  184.475;    0.000
388.981; 1034.500;  169.475;    0.000
389.039; 1006.500;  102.475;    0.000
389.098; 1055.500;  183.475;    0.000
389.156; 1025.500;  182.475;    0.000
389.214; 1044.500;  173.475;    0.000
389.273;  940.500;  167.475;    0.000
389.331; 1034.500;  170.475;    0.000
389.390; 1054.500;  150.475;    0.000
389.448; 1085.500;  156.475;    0.000
389.506; 1053.500;  149.475;    0.000
389.565; 1029.500;  162.475;    0.000
389.623; 1042.500;  188.475;    0.000
389.681; 1028.500;  204.475;    0.000
389.740; 1051.500;  187.475;    0.000
389.798; 1051.500;  153.475;    0.000
389.856; 1089.500;  214.475;    0.000
389.914; 1020.500;  177.475;    0.000
389.973; 1039.500;  189.475;    0.000
390.031; 1012.500;  178.475;    0.000
390.089; 1050.500;  163.475;    0.000
390.147; 1015.500;  170.475;    0.000
390.206; 1057.500;  183.475;    0.000
390.264;  990.500;  161.475;    0.000
390.322;  959.500;  148.475;    0.000
390.380;  996.500;  138.475;    0.000
390.439; 1046.500;  194.475;    0.000
390.497; 1071.500;  170.475;    0.000
390.555; 1014.500;  165.475;    0.000
390.613; 1058.500;  177.475;    0.000
390.671; 1079.500;  170.475;    0.000
390.729; 1004.500;  158.475;    0.000
390.788; 1034.500;  162.475;    0.000
390.846; 1018.500;  161.475;    0.000
390.904;  998.500;  197.475;    0.000
390.962; 1112.500;  212.475;    0.000
391.020; 1123.500;  224.475;    0.000
391.078; 1088.500;  184.475;    0.000
391.136; 1084.500;  191.475;    0.000
391.194; 1082.500;  187.475;    0.000
391.253; 1109.500;  197.475;    0.000
391.311; 1076.500;  185.475;    0.000
391.369; 1111.500;  207.475;    0.000
391.427; 1137.500;  222.475;    0.000
391.485; 1112.500;  184.475;    0.000
391.543; 1125.500;  203.475;    0.000
391.601; 1013.500;  151.475;    0.000
391.659; 1072.500;  176.475;    0.000
391.717; 1101.500;  190.475;    0.000
391.775; 1105.500;  159.475;    0.000
391.833; 1139.500;  186.475;    0.000
391.891; 1073.500;  154.475;    0.000
391.949; 1061.500;  181.475;    0.000
392.007; 1107.500;  190.475;    0.000
392.065; 1117.500;  182.475;    0.000
392.123; 1084.500;  158.475;    0.000
392.180; 1103.500;  198.475;    0.000
392.238; 1135.500;  191.475;    0.000
392.296; 1128.500;  164.475;    0.000
392.354; 1059.500;  172.475;    0.000
392.412; 1141.500;  194.475;    0.000
392.470; 1088.500;  154.475;    0.000
392.528; 1084.500;  172.475;    0.000
392.586; 1085.500;  179.475;    0.000
392.644; 1148.500;  173.475;    0.000
392.701; 1109.500;  202.475;    0.000
392.759; 1105.500;  180.475;    0.000
392.817; 1119.500;  181.475;    0.000
392.875; 1121.500;  168.475;    0.000
392.933; 1109.500;  161.475;    0.000
392.991; 1145.500;  216.475;    0.000
393.048; 1093.500;  197.475;    0.000
393.106; 1082.500;  199.475;    0.000
393.164; 1149.500;  173.475;    0.000
393.222; 1169.500;  179.475;    0.000
393.279; 1209.500;  209.475;    0.000
393.337; 1209.500;  185.475;    0.000
393.395; 1276.500;  174.475;    0.000
393.453; 1209.500;  181.475;    0.000
393.510; 1131.500;  188.475;    0.000
393.568; 1205.500;  191.475;    0.000
393.626; 1097.500;  151.475;    0.000
393.684; 1167.500;  208.475;    0.000
393.741; 1149.500;  179.475;    0.000
393.799; 1138.500;  149.475;    0.000
393.857; 1109.500;  136.475;    0.000
393.914; 1145.500;  190.475;    0.000
393.972; 1124.500;  155.475;    0.000
394.030; 1109.500;  170.475;    0.000
394.087; 1158.500;  213.475;    0.000
394.145; 1149.500;  191.475;    0.000
394.202; 1105.500;  188.475;    0.000
394.260; 1139.500;  168.475;    0.000
394.318; 1141.500;  176.475;    0.000
394.375; 1130.500;  159.475;    0.000
394.433; 1121.500;  168.475;    0.000
394.490; 1169.500;  163.475;    0.000
394.548; 1134.500;  163.475;    0.000
394.605; 1157.500;  181.475;    0.000
394.663; 1172.500;  180.475;    0.000
394.720; 1133.500;  193.475;    0.000
394.778; 1183.500;  168.475;    0.000
394.836; 1160.500;  128.475;    0.000
394.893; 1153.500;  151.475;    0.000
394.951; 1189.500;  173.475;    0.000
395.008; 1125.500;  201.475;    0.000
395.065; 1050.500;  139.475;    0.000
395.123; 1147.500;  173.475;    0.000
395.180; 1153.500;  144.475;    0.000
395.238; 1151.500;  135.475;    0.000
395.295; 1189.500;  167.475;    0.000
395.353; 1150.500;  150.475;    0.000
395.410; 1176.500;  165.475;    0.000
395.468; 1245.500;  223.475;    0.000
395.525; 1232.500;  156.475;    0.000
395.582; 1213.500;  178.475;    0.000
395.640; 1170.500;  178.475;    0.000
395.697; 1191.500;  173.475;    0.000
395.754; 1233.500;  154.475;    0.000
395.812; 1169.500;  169.475;    0.000
395.869; 1245.500;  196.475;    0.000
395.927; 1188.500;  190.475;    0.000
395.984; 1246.500;  195.475;    0.000
396.041; 1235.500;  160.475;    0.000
396.098; 1173.500;  161.475;    0.000
396.156; 1185.500;  187.475;    0.000
396.213; 1195.500;  200.475;    0.000
396.270; 1200.500;  160.475;    0.000
396.328; 1194.500;  113.475;    0.000
396.385; 1175.500;  165.475;    0.000
396.442; 1201.500;  168.475;    0.000
396.499; 1200.500;  117.475;    0.000
396.557; 1215.500;  203.475;    0.000
396.614; 1278.500;  155.475;    0.000
396.671; 1210.500;  187.475;    0.000
396.728; 1289.500;  169.475;    0.000
396.785; 1227.500;  167.475;    0.000
396.843; 1316.500;  154.475;    0.000
396.900; 1222.500;  172.475;    0.000
396.957; 1322.500;  176.475;    0.000
397.014; 1245.500;  193.475;    0.000
397.071; 1230.500;  170.475;    0.000
397.128; 1223.500;  172.475;    0.000
397.186; 1312.500;  205.475;    0.000
397.243; 1210.500;  163.475;    0.000
397.300; 1195.500;  193.475;    0.000
397.357; 1220.500;  166.475;    0.000
397.414; 1230.500;  149.475;    0.000
397.471; 1217.500;  157.475;    0.000
397.528; 1212.500;  180.475;    0.000
397.585; 1198.500;  203.475;    0.000
397.642; 1253.500;  156.475;    0.000
397.699; 1296.500;  229.475;    0.000
397.756; 1263.500;  185.475;    0.000
397.814; 1261.500;  191.475;    0.000
397.871; 1234.500;  170.475;    0.000
397.928; 1243.500;  191.475;    0.000
397.985; 1259.500;  183.475;    0.000
398.042; 1340.500;  161.475;    0.000
398.099; 1307.500;  192.475;    0.000
398.156; 1294.500;  176.475;    0.000
398.212; 1304.500;  170.475;    0.000
398.269; 1324.500;  158.475;    0.000
398.326; 1257.500;  175.475;    0.000
398.383; 1240.500;  177.475;    0.000
398.440; 1272.500;  169.475;    0.000
398.497; 1277.500;  184.475;    0.000
398.554; 1309.500;  196.475;    0.000
398.611; 1209.500;  198.475;    0.000
398.668; 1329.500;  135.475;    0.000
398.725; 1267.500;  181.475;    0.000
398.782; 1325.500;  195.475;    0.000
398.839; 1365.500;  179.475;    0.000
398.895; 1317.500;  188.475;    0.000
398.952; 1297.500;  176.475;    0.000
399.009; 1352.500;  183.475;    0.000
399.066; 1349.500;  190.475;    0.000
399.123; 1379.500;  174.475;    0.000
399.180; 1345.500;  191.475;    0.000
399.236; 1423.500;  217.475;    0.000
399.293; 1423.500;  154.475;    0.000
399.350; 1389.500;  210.475;    0.000
399.407; 1448.500;  202.475;    0.000
399.463; 1421.500;  162.475;    0.000
399.520; 1426.500;  207.475;    0.000
399.577; 1482.500;  174.475;    0.000
399.634; 1489.500;  170.475;    0.000
399.690; 1497.500;  186.475;    0.000
399.747; 1509.500;  218.475;    0.000
399.804; 1444.500;  200.475;    0.000
399.861; 1488.500;  190.475;    0.000
399.917; 1481.500;  218.475;    0.000
399.974; 1447.500;  200.475;    0.000
400.031; 1573.500;  200.475;    0.000
400.087; 1437.500;  153.475;    0.000
400.144; 1439.500;  188.475;    0.000
400.201; 1445.500;  198.475;    0.000
400.257; 1420.500;  205.475;    0.000
400.314; 1473.500;  183.475;    0.000
400.370; 1395.500;  227.475;    0.000
400.427; 1444.500;  177.475;    0.000
400.484; 1383.500;  202.475;    0.000
400.540; 1421.500;  173.475;    0.000
400.597; 1413.500;  212.475;    0.000
400.653; 1422.500;  182.475;    0.000
400.710; 1407.500;  201.475;    0.000
400.766; 1418.500;  188.475;    0.000
400.823; 1411.500;  205.475;    0.000
400.879; 1397.500;  165.475;    0.000
400.936; 1454.500;  180.475;    0.000
400.993; 1362.500;  181.475;    0.000
401.049; 1388.500;  147.475;    0.000
401.105; 1456.500;  205.475;    0.000
401.162; 1421.500;  197.475;    0.000
401.218; 1430.500;  177.475;    0.000
401.275; 1440.500;  183.475;    0.000
401.331; 1341.500;  198.475;    0.000
401.388; 1345.500;  209.475;    0.000
401.444; 1425.500;  211.475;    0.000
401.501; 1396.500;  185.475;    0.000
401.557; 1403.500;  190.475;    0.000
401.614; 1411.500;  172.475;    0.000
401.670; 1449.500;  185.475;    0.000
401.726; 1431.500;  196.475;    0.000
401.783; 1331.500;  187.475;    0.000
401.839; 1444.500;  192.475;    0.000
401.895; 1364.500;  173.475;    0.000
401.952; 1379.500;  145.475;    0.000
402.008; 1346.500;  197.475;    0.000
402.064; 1348.500;  146.475;    0.000
402.121; 1431.500;  197.475;    0.000
402.177; 1329.500;  173.475;    0.000
402.233; 1364.500;  185.475;    0.000
402.290; 1372.500;  175.475;    0.000
402.346; 1395.500;  164.475;    0.000
402.402; 1338.500;  173.475;    0.000
402.458; 1419.500;  183.475;    0.000
402.515; 1453.500;  147.475;    0.000
402.571; 1429.500;  210.475;    0.000
402.627; 1366.500;  181.475;    0.000
402.683; 1460.500;  177.475;    0.000
402.740; 1380.500;  162.475;    0.000
402.796; 1379.500;  178.475;    0.000
402.852; 1443.500;  138.475;    0.000
402.908; 1444.500;  181.475;    0.000
402.964; 1361.500;  151.475;    0.000
403.021; 1445.500;  170.475;    0.000
403.077; 1408.500;  204.475;    0.000
403.133; 1414.500;  144.475;    0.000
403.189; 1425.500;  207.475;    0.000
403.245; 1403.500;  184.475;    0.000
403.301; 1409.500;  170.475;    0.000
403.357; 1381.500;  201.475;    0.000
403.414; 1438.500;  205.475;    0.000
403.470; 1473.500;  170.475;    0.000
403.526; 1466.500;  135.475;    0.000
403.582; 1475.500;  180.475;    0.000
403.638; 1487.500;  185.475;    0.000
403.694; 1426.500;  169.475;    0.000
403.750; 1451.500;  210.475;    0.000
403.806; 1438.500;  210.475;    0.000
403.862; 1464.500;  219.475;    0.000
403.918; 1468.500;  191.475;    0.000
403.974; 1444.500;  193.475;    0.000
404.030; 1436.500;  154.475;    0.000
404.086; 1422.500;  170.475;    0.000
404.142; 1529.500;  194.475;    0.000
404.198; 1443.500;  224.475;    0.000
404.254; 1555.500;  177.475;    0.000
404.310; 1461.500;  204.475;    0.000
404.366; 1370.500;  170.475;    0.000
404.422; 1461.500;  172.475;    0.000
404.478; 1402.500;  153.475;    0.000
404.534; 1442.500;  159.475;    0.000
404.590; 1457.500;  203.475;    0.000
404.646; 1484.500;  164.475;    0.000
404.701; 1421.500;  141.475;    0.000
404.757; 1510.500;  195.475;    0.000
404.813; 1452.500;  152.475;    0.000
404.869; 1531.500;  174.475;    0.000
404.925; 1497.500;  167.475;    0.000
404.981; 1477.500;  175.475;    0.000
405.037; 1480.500;  170.475;    0.000
405.092; 1531.500;  155.475;    0.000
405.148; 1470.500;  160.475;    0.000
405.204; 1459.500;  158.475;    0.000
405.260; 1453.500;  128.475;    0.000
405.316; 1471.500;  168.475;    0.000
405.371; 1528.500;  162.475;    0.000
405.427; 1542.500;  187.475;    0.000
405.483; 1548.500;  214.475;    0.000
405.539; 1465.500;  163.475;    0.000
405.594; 1508.500;  191.475;    0.000
405.650; 1479.500;  124.475;    0.000
405.706; 1446.500;  188.475;    0.000
405.761; 1529.500;  204.475;    0.000
405.817; 1529.500;  150.475;    0.000
405.873; 1519.500;  152.475;    0.000
405.928; 1498.500;  135.475;    0.000
405.984; 1646.500;  209.475;    0.000
406.040; 1521.500;  165.475;    0.000
406.095; 1495.500;  146.475;    0.000
406.151; 1566.500;  169.475;    0.000
406.207; 1592.500;  174.475;    0.000
406.262; 1514.500;  189.475;    0.000
406.318; 1539.500;  141.475;    0.000
406.374; 1522.500;  178.475;    0.000
406.429; 1602.500;  197.475;    0.000
406.485; 1603.500;  194.475;    0.000
406.540; 1528.500;  149.475;    0.000
406.596; 1602.500;  173.475;    0.000
406.651; 1622.500;  154.475;    0.000
406.707; 1646.500;  183.475;    0.000
406.763; 1588.500;  156.475;    0.000
406.818; 1539.500;  181.475;    0.000
406.874; 1578.500;  135.475;    0.000
406.929; 1658.500;  194.475;    0.000
406.985; 1660.500;  166.475;    0.000
407.040; 1667.500;  207.475;    0.000
407.095; 1648.500;  213.475;    0.000
407.151; 1734.500;  198.475;    0.000
407.206; 1710.500;  186.475;    0.000
407.262; 1699.500;  148.475;    0.000
407.317; 1712.500;  212.475;    0.000
407.373; 1741.500;  209.475;    0.000
407.428; 1768.500;  218.475;    0.000
407.484; 1668.500;  158.475;    0.000
407.539; 1700.500;  165.475;    0.000
407.594; 1707.500;  197.475;    0.000
407.650; 1673.500;  177.475;    0.000
407.705; 1705.500;  154.475;    0.000
407.760; 1795.500;  198.475;    0.000
407.816; 1765.500;  181.475;    0.000
407.871; 1736.500;  185.475;    0.000
407.926; 1699.500;  167.475;    0.000
407.982; 1723.500;  172.475;    0.000
408.037; 1688.500;  202.475;    0.000
408.092; 1745.500;  201.475;    0.000
408.148; 1719.500;  199.475;    0.000
408.203; 1670.500;  174.475;    0.000
408.258; 1736.500;  157.475;    0.000
408.314; 1723.500;  194.475;    0.000
408.369; 1675.500;  189.475;    0.000
408.424; 1736.500;  204.475;    0.000
408.479; 1734.500;  192.475;    0.000
408.534; 1663.500;  215.475;    0.000
408.590; 1634.500;  190.475;    0.000
408.645; 1670.500;  159.475;    0.000
408.700; 1649.500;  191.475;    0.000
408.755; 1756.500;  217.475;    0.000
408.810; 1634.500;  158.475;    0.000
408.866; 1700.500;  166.475;    0.000
408.921; 1688.500;  214.475;    0.000
408.976; 1669.500;  158.475;    0.000
409.031; 1713.500;  185.475;    0.000
409.086; 1668.500;  158.475;    0.000
409.141; 1705.500;  180.475;    0.000
409.196; 1671.500;  188.475;    0.000
409.252; 1649.500;  186.475;    0.000
409.307; 1667.500;  135.475;    0.000
409.362; 1633.500;  162.475;    0.000
409.417; 1619.500;  149.475;    0.000
409.472; 1736.500;  205.475;    0.000
409.527; 1673.500;  184.475;    0.000
409.582; 1628.500;  174.475;    0.000
409.637; 1585.500;  188.475;    0.000
409.692; 1660.500;  211.475;    0.000
409.747; 1581.500;  159.475;    0.000
409.802; 1639.500;  199.475;    0.000
409.857; 1613.500;  118.475;    0.000
409.912; 1671.500;  177.475;    0.000
409.967; 1659.500;  182.475;    0.000
410.022; 1637.500;  188.475;    0.000
410.077; 1624.500;  204.475;    0.000
410.132; 1709.500;  174.475;    0.000
410.187; 1586.500;  169.475;    0.000
410.242; 1648.500;  178.475;    0.000
410.297; 1685.500;  185.475;    0.000
410.351; 1677.500;  203.475;    0.000
410.406; 1711.500;  180.475;    0.000
410.461; 1656.500;  213.475;    0.000
410.516; 1643.500;  198.475;    0.000
410.571; 1711.500;  171.475;    0.000
410.626; 1699.500;  186.475;    0.000
410.681; 1626.500;  187.475;    0.000
410.736; 1653.500;  147.475;    0.000
410.790; 1694.500;  186.475;    0.000
410.845; 1644.500;  152.475;    0.000
410.900; 1700.500;  202.475;    0.000
410.955; 1656.500;  196.475;    0.000
411.010; 1639.500;  150.475;    0.000
411.064; 1656.500;  200.475;    0.000
411.119; 1727.500;  203.475;    0.000
411.174; 1681.500;  176.475;    0.000
411.229; 1745.500;  203.475;    0.000
411.283; 1658.500;  176.475;    0.000
411.338; 1715.500;  153.475;    0.000
411.393; 1626.500;  168.475;    0.000
411.447; 1693.500;  223.475;    0.000
411.502; 1705.500;  238.475;    0.000
411.557; 1654.500;  179.475;    0.000
411.612; 1706.500;  159.475;    0.000
411.666; 1624.500;  189.475;    0.000
411.721; 1667.500;  212.475;    0.000
411.776; 1701.500;  242.475;    0.000
411.830; 1722.500;  194.475;    0.000
411.885; 1660.500;  188.475;    0.000
411.939; 1751.500;  245.475;    0.000
411.994; 1692.500;  177.475;    0.000
412.049; 1735.500;  170.475;    0.000
412.103; 1744.500;  196.475;    0.000
412.158; 1727.500;  215.475;    0.000
412.212; 1718.500;  199.475;    0.000
412.267; 1689.500;  191.475;    0.000
412.322; 1722.500;  238.475;    0.000
412.376; 1747.500;  243.475;    0.000
412.431; 1728.500;  214.475;    0.000
412.485; 1680.500;  210.475;    0.000
412.540; 1699.500;  200.475;    0.000
412.594; 1718.500;  174.475;    0.000
412.649; 1694.500;  246.475;    0.000
412.703; 1667.500;  182.475;    0.000
412.758; 1669.500;  222.475;    0.000
412.812; 1658.500;  201.475;    0.000
412.866; 1620.500;  162.475;    0.000
412.921; 1604.500;  202.475;    0.000
412.975; 1630.500;  212.475;    0.000
413.030; 1659.500;  238.475;    0.000
413.084; 1630.500;  201.475;    0.000
413.139; 1747.500;  210.475;    0.000
413.193; 1587.500;  218.475;    0.000
413.247; 1638.500;  203.475;    0.000
413.302; 1610.500;  176.475;    0.000
413.356; 1650.500;  215.475;    0.000
413.410; 1688.500;  204.475;    0.000
413.465; 1692.500;  186.475;    0.000
413.519; 1656.500;  196.475;    0.000
413.573; 1636.500;  181.475;    0.000
413.628; 1732.500;  200.475;    0.000
413.682; 1603.500;  157.475;    0.000
413.736; 1669.500;  194.475;    0.000
413.791; 1643.500;  193.475;    0.000
413.845; 1683.500;  225.475;    0.000
413.899; 1717.500;  195.475;    0.000
413.953; 1626.500;  173.475;    0.000
414.008; 1637.500;  186.475;    0.000
414.062; 1670.500;  217.475;    0.000
414.116; 1684.500;  169.475;    0.000
414.170; 1701.500;  228.475;    0.000
414.225; 1638.500;  177.475;    0.000
414.279; 1635.500;  210.475;    0.000
414.333; 1720.500;  207.475;    0.000
414.387; 1685.500;  217.475;    0.000
414.441; 1645.500;  187.475;    0.000
414.496; 1744.500;  215.475;    0.000
414.550; 1680.500;  204.475;    0.000
414.604; 1615.500;  206.475;    0.000
414.658; 1679.500;  139.475;    0.000
414.712; 1643.500;  198.475;    0.000
414.766; 1653.500;  208.475;    0.000
414.820; 1649.500;  199.475;    0.000
414.874; 1686.500;  216.475;    0.000
414.928; 1712.500;  186.475;    0.000
414.982; 1614.500;  176.475;    0.000
415.037; 1677.500;  181.475;    0.000
415.091; 1681.500;  208.475;    0.000
415.145; 1664.500;  209.475;    0.000
415.199; 1647.500;  186.475;    0.000
415.253; 1662.500;  203.475;    0.000
415.307; 1671.500;  197.475;    0.000
415.361; 1653.500;  223.475;    0.000
415.415; 1641.500;  213.475;    0.000
415.469; 1710.500;  226.475;    0.000
415.523; 1680.500;  222.475;    0.000
415.577; 1658.500;  205.475;    0.000
415.631; 1683.500;  224.475;    0.000
415.684; 1681.500;  193.475;    0.000
415.738; 1644.500;  224.475;    0.000
415.792; 1687.500;  204.475;    0.000
415.846; 1642.500;  189.475;    0.000
415.900; 1638.500;  223.475;    0.000
415.954; 1747.500;  187.475;    0.000
416.008; 1667.500;  237.475;    0.000
416.062; 1664.500;  195.475;    0.000
416.116; 1652.500;  223.475;    0.000
416.169; 1650.500;  210.475;    0.000
416.223; 1674.500;  232.475;    0.000
416.277; 1752.500;  227.475;    0.000
416.331; 1659.500;  216.475;    0.000
416.385; 1615.500;  186.475;    0.000
416.439; 1678.500;  226.475;    0.000
416.492; 1678.500;  229.475;    0.000
416.546; 1635.500;  216.475;    0.000
416.600; 1678.500;  211.475;    0.000
416.654; 1720.500;  226.475;    0.000
416.707; 1716.500;  248.475;    0.000
416.761; 1682.500;  217.475;    0.000
416.815; 1648.500;  207.475;    0.000
416.869; 1668.500;  226.475;    0.000
416.922; 1691.500;  192.475;    0.000
416.976; 1681.500;  205.475;    0.000
417.030; 1702.500;  233.475;    0.000
417.083; 1639.500;  226.475;    0.000
417.137; 1681.500;  222.475;    0.000
417.191; 1592.500;  217.475;    0.000
417.244; 1699.500;  221.475;    0.000
417.298; 1622.500;  201.475;    0.000
417.352; 1628.500;  170.475;    0.000
417.405; 1723.500;  234.475;    0.000
417.459; 1681.500;  241.475;    0.000
417.512; 1716.500;  247.475;    0.000
417.566; 1568.500;  219.475;    0.000
417.620; 1623.500;  228.475;    0.000
417.673; 1652.500;  192.475;    0.000
417.727; 1697.500;  203.475;    0.000
417.780; 1773.500;  204.475;    0.000
417.834; 1615.500;  234.475;    0.000
417.887; 1674.500;  245.475;    0.000
417.941; 1633.500;  211.475;    0.000
417.994; 1645.500;  244.475;    0.000
418.048; 1705.500;  203.475;    0.000
418.101; 1576.500;  212.475;    0.000
418.155; 1672.500;  251.475;    0.000
418.208; 1715.500;  286.475;    0.000
418.262; 1649.500;  243.475;    0.000
418.315; 1669.500;  214.475;    0.000
418.369; 1683.500;  269.475;    0.000
418.422; 1729.500;  222.475;    0.000
418.476; 1658.500;  226.475;    0.000
418.529; 1681.500;  238.475;    0.000
418.582; 1713.500;  210.475;    0.000
418.636; 1570.500;  221.475;    0.000
418.689; 1705.500;  224.475;    0.000
418.743; 1642.500;  228.475;    0.000
418.796; 1631.500;  192.475;    0.000
418.849; 1669.500;  230.475;    0.000
418.903; 1676.500;  257.475;    0.000
418.956; 1763.500;  241.475;    0.000
419.009; 1686.500;  247.475;    0.000
419.063; 1678.500;  235.475;    0.000
419.116; 1673.500;  218.475;    0.000
419.169; 1683.500;  219.475;    0.000
419.222; 1722.500;  215.475;    0.000
419.276; 1684.500;  202.475;    0.000
419.329; 1712.500;  210.475;    0.000
419.382; 1623.500;  188.475;    0.000
419.435; 1620.500;  222.475;    0.000
419.489; 1660.500;  232.475;    0.000
419.542; 1657.500;  250.475;    0.000
419.595; 1709.500;  240.475;    0.000
419.648; 1670.500;  261.475;    0.000
419.701; 1655.500;  222.475;    0.000
419.755; 1605.500;  233.475;    0.000
419.808; 1677.500;  178.475;    0.000
419.861; 1685.500;  207.475;    0.000
419.914; 1662.500;  223.475;    0.000
419.967; 1648.500;  216.475;    0.000
420.020; 1581.500;  211.475;    0.000
420.073; 1607.500;  200.475;    0.000
420.127; 1605.500;  248.475;    0.000
420.180; 1646.500;  220.475;    0.000
420.233; 1627.500;  215.475;    0.000
420.286; 1671.500;  222.475;    0.000
420.339; 1668.500;  229.475;    0.000
420.392; 1661.500;  245.475;    0.000
420.445; 1652.500;  221.475;    0.000
420.498; 1634.500;  224.475;    0.000
420.551; 1576.500;  170.475;    0.000
420.604; 1601.500;  237.475;    0.000
420.657; 1653.500;  235.475;    0.000
420.710; 1683.500;  223.475;    0.000
420.763; 1668.500;  219.475;    0.000
420.816; 1583.500;  200.475;    0.000
420.869; 1639.500;  197.475;    0.000
420.922; 1581.500;  212.475;    0.000
420.975; 1590.500;  274.475;    0.000
421.028; 1619.500;  228.475;    0.000
421.081; 1550.500;  243.475;    0.000
421.134; 1644.500;  227.475;    0.000
421.187; 1549.500;  245.475;    0.000
421.239; 1612.500;  210.475;    0.000
421.292; 1636.500;  193.475;    0.000
421.345; 1606.500;  226.475;    0.000
421.398; 1561.500;  226.475;    0.000
421.451; 1579.500;  259.475;    0.000
421.504; 1607.500;  204.475;    0.000
421.557; 1607.500;  215.475;    0.000
421.609; 1570.500;  194.475;    0.000
421.662; 1611.500;  216.475;    0.000
421.715; 1644.500;  226.475;    0.000
421.768; 1640.500;  177.475;    0.000
421.821; 1590.500;  210.475;    0.000
421.873; 1538.500;  208.475;    0.000
421.926; 1568.500;  223.475;    0.000
421.979; 1591.500;  230.475;    0.000
422.032; 1573.500;  227.475;    0.000
422.084; 1600.500;  234.475;    0.000
422.137; 1540.500;  207.475;    0.000
422.190; 1565.500;  228.475;    0.000
422.243; 1502.500;  206.475;    0.000
422.295; 1591.500;  236.475;    0.000
422.348; 1611.500;  232.475;    0.000
422.401; 1591.500;  228.475;    0.000
422.453; 1613.500;  239.475;    0.000
422.506; 1554.500;  226.475;    0.000
422.559; 1592.500;  205.475;    0.000
422.611; 1586.500;  235.475;    0.000
422.664; 1604.500;  231.475;    0.000
422.716; 1623.500;  228.475;    0.000
422.769; 1580.500;  204.475;    0.000
422.822; 1597.500;  205.475;    0.000
422.874; 1574.500;  228.475;    0.000
422.927; 1571.500;  266.475;    0.000
422.979; 1616.500;  223.475;    0.000
423.032; 1551.500;  207.475;    0.000
423.084; 1593.500;  211.475;    0.000
423.137; 1548.500;  205.475;    0.000
423.189; 1578.500;  254.475;    0.000
423.242; 1577.500;  208.475;    0.000
423.294; 1566.500;  240.475;    0.000
423.347; 1589.500;  218.475;    0.000
423.399; 1611.500;  237.475;    0.000
423.452; 1594.500;  242.475;    0.000
423.504; 1523.500;  225.475;    0.000
423.557; 1548.500;  195.475;    0.000
423.609; 1631.500;  206.475;    0.000
423.662; 1572.500;  211.475;    0.000
423.714; 1562.500;  252.475;    0.000
423.766; 1590.500;  181.475;    0.000
423.819; 1547.500;  216.475;    0.000
423.871; 1546.500;  216.475;    0.000
423.923; 1571.500;  222.475;    0.000
423.976; 1588.500;  223.475;    0.000
424.028; 1480.500;  229.475;    0.000
424.081; 1630.500;  267.475;    0.000
424.133; 1552.500;  251.475;    0.000
424.185; 1504.500;  238.475;    0.000
424.238; 1595.500;  220.475;    0.000
424.290; 1533.500;  259.475;    0.000
424.342; 1524.500;  248.475;    0.000
424.394; 1549.500;  234.475;    0.000
424.447; 1591.500;  248.475;    0.000
424.499; 1602.500;  233.475;    0.000
424.551; 1583.500;  236.475;    0.000
424.603; 1533.500;  207.475;    0.000
424.656; 1563.500;  210.475;    0.000
424.708; 1550.500;  251.475;    0.000
424.760; 1536.500;  221.475;    0.000
424.812; 1590.500;  275.475;    0.000
424.864; 1543.500;  206.475;    0.000
424.917; 1476.500;  198.475;    0.000
424.969; 1526.500;  246.475;    0.000
425.021; 1525.500;  209.475;    0.000
425.073; 1556.500;  242.475;    0.000
425.125; 1514.500;  254.475;    0.000
425.177; 1563.500;  224.475;    0.000
425.229; 1528.500;  256.475;    0.000
425.282; 1553.500;  265.475;    0.000
425.334; 1529.500;  266.475;    0.000
425.386; 1492.500;  242.475;    0.000
425.438; 1508.500;  205.475;    0.000
425.490; 1525.500;  227.475;    0.000
425.542; 1483.500;  235.475;    0.000
425.594; 1487.500;  210.475;    0.000
425.646; 1535.500;  232.475;    0.000
425.698; 1499.500;  243.475;    0.000
425.750; 1559.500;  230.475;    0.000
425.802; 1468.500;  218.475;    0.000
425.854; 1512.500;  222.475;    0.000
425.906; 1500.500;  235.475;    0.000
425.958; 1520.500;  220.475;    0.000
426.010; 1440.500;  236.475;    0.000
426.062; 1521.500;  230.475;    0.000
426.114; 1477.500;  216.475;    0.000
426.166; 1459.500;  230.475;    0.000
426.218; 1409.500;  237.475;    0.000
426.270; 1561.500;  217.475;    0.000
426.321; 1479.500;  224.475;    0.000
426.373; 1445.500;  207.475;    0.000
426.425; 1550.500;  278.475;    0.000
426.477; 1475.500;  243.475;    0.000
426.529; 1453.500;  247.475;    0.000
426.581; 1520.500;  229.475;    0.000
426.633; 1497.500;  212.475;    0.000
426.684; 1450.500;  244.475;    0.000
426.736; 1478.500;  250.475;    0.000
426.788; 1483.500;  210.475;    0.000
426.840; 1457.500;  201.475;    0.000
426.892; 1441.500;  225.475;    0.000
426.943; 1474.500;  215.475;    0.000
426.995; 1450.500;  216.475;    0.000
427.047; 1482.500;  216.475;    0.000
427.099; 1413.500;  203.475;    0.000
427.150; 1421.500;  195.475;    0.000
427.202; 1548.500;  212.475;    0.000
427.254; 1448.500;  233.475;    0.000
427.306; 1426.500;  211.475;    0.000
427.357; 1453.500;  210.475;    0.000
427.409; 1513.500;  244.475;    0.000
427.461; 1433.500;  187.475;    0.000
427.512; 1453.500;  227.475;    0.000
427.564; 1466.500;  210.475;    0.000
427.616; 1353.500;  202.475;    0.000
427.667; 1473.500;  185.475;    0.000
427.719; 1475.500;  222.475;    0.000
427.770; 1411.500;  230.475;    0.000
427.822; 1490.500;  254.475;    0.000
427.874; 1431.500;  222.475;    0.000
427.925; 1491.500;  199.475;    0.000
427.977; 1386.500;  228.475;    0.000
428.028; 1410.500;  226.475;    0.000
428.080; 1444.500;  236.475;    0.000
428.131; 1506.500;  220.475;    0.000
428.183; 1434.500;  256.475;    0.000
428.234; 1466.500;  217.475;    0.000
428.286; 1414.500;  234.475;    0.000
428.337; 1367.500;  209.475;    0.000
428.389; 1468.500;  219.475;    0.000
428.440; 1478.500;  249.475;    0.000
428.492; 1424.500;  255.475;    0.000
428.543; 1464.500;  224.475;    0.000
428.595; 1402.500;  225.475;    0.000
428.646; 1425.500;  240.475;    0.000
428.697; 1366.500;  211.475;    0.000
428.749; 1485.500;  200.475;    0.000
428.800; 1473.500;  235.475;    0.000
428.852; 1476.500;  265.475;    0.000
428.903; 1415.500;  201.475;    0.000
428.954; 1426.500;  242.475;    0.000
429.006; 1373.500;  245.475;    0.000
429.057; 1445.500;  252.475;    0.000
429.108; 1369.500;  211.475;    0.000
429.160; 1436.500;  217.475;    0.000
429.211; 1410.500;  234.475;    0.000
429.262; 1321.500;  205.475;    0.000
429.314; 1401.500;  211.475;    0.000
429.365; 1399.500;  240.475;    0.000
429.416; 1421.500;  263.475;    0.000
429.467; 1448.500;  244.475;    0.000
429.519; 1423.500;  223.475;    0.000
429.570; 1401.500;  214.475;    0.000
429.621; 1398.500;  235.475;    0.000
429.672; 1417.500;  202.475;    0.000
429.724; 1389.500;  189.475;    0.000
429.775; 1404.500;  214.475;    0.000
429.826; 1375.500;  178.475;    0.000
429.877; 1402.500;  224.475;    0.000
429.928; 1449.500;  230.475;    0.000
429.980; 1383.500;  199.475;    0.000
430.031; 1375.500;  208.475;    0.000
430.082; 1434.500;  224.475;    0.000
430.133; 1368.500;  193.475;    0.000
430.184; 1459.500;  220.475;    0.000
430.235; 1406.500;  184.475;    0.000
430.286; 1436.500;  197.475;    0.000
430.337; 1386.500;  199.475;    0.000
430.388; 1353.500;  207.475;    0.000
430.439; 1372.500;  227.475;    0.000
430.490; 1376.500;  215.475;    0.000
430.542; 1393.500;  211.475;    0.000
430.593; 1420.500;  230.475;    0.000
430.644; 1397.500;  186.475;    0.000
430.695; 1381.500;  232.475;    0.000
430.746; 1359.500;  214.475;    0.000
430.797; 1371.500;  260.475;    0.000
430.848; 1393.500;  214.475;    0.000
430.898; 1343.500;  204.475;    0.000
430.949; 1319.500;  189.475;    0.000
431.000; 1334.500;  240.475;    0.000
431.051; 1436.500;  201.475;    0.000
431.102; 1329.500;  188.475;    0.000
431.153; 1396.500;  209.475;    0.000
431.204; 1330.500;  187.475;    0.000
431.255; 1338.500;  171.475;    0.000
431.306; 1421.500;  181.475;    0.000
431.357; 1429.500;  221.475;    0.000
431.408; 1357.500;  217.475;    0.000
431.458; 1364.500;  206.475;    0.000
431.509; 1338.500;  194.475;    0.000
431.560; 1445.500;  235.475;    0.000
431.611; 1379.500;  213.475;    0.000
431.662; 1405.500;  237.475;    0.000
431.713; 1417.500;  220.475;    0.000
431.763; 1384.500;  212.475;    0.000
431.814; 1397.500;  238.475;    0.000
431.865; 1386.500;  213.475;    0.000
431.916; 1391.500;  191.475;    0.000
431.966; 1345.500;  171.475;    0.000
432.017; 1449.500;  263.475;    0.000
432.068; 1385.500;  240.475;    0.000
432.118; 1350.500;  235.475;    0.000
432.169; 1414.500;  212.475;    0.000
432.220; 1407.500;  188.475;    0.000
432.271; 1439.500;  216.475;    0.000
432.321; 1367.500;  223.475;    0.000
432.372; 1470.500;  254.475;    0.000
432.423; 1368.500;  193.475;    0.000
432.473; 1346.500;  219.475;    0.000
432.524; 1350.500;  215.475;    0.000
432.574; 1352.500;  234.475;    0.000
432.625; 1318.500;  226.475;    0.000
432.676; 1349.500;  219.475;    0.000
432.726; 1454.500;  254.475;    0.000
432.777; 1326.500;  210.475;    0.000
432.827; 1389.500;  234.475;    0.000
432.878; 1366.500;  212.475;    0.000
432.928; 1325.500;  238.475;    0.000
432.979; 1386.500;  252.475;    0.000
433.029; 1358.500;  222.475;    0.000
433.080; 1333.500;  188.475;    0.000
433.130; 1390.500;  223.475;    0.000
433.181; 1411.500;  254.475;    0.000
433.231; 1374.500;  237.475;    0.000
433.282; 1322.500;  242.475;    0.000
433.332; 1355.500;  261.475;    0.000
433.383; 1424.500;  266.475;    0.000
433.433; 1424.500;  286.475;    0.000
433.484; 1444.500;  231.475;    0.000
433.534; 1474.500;  256.475;    0.000
433.585; 1452.500;  253.475;    0.000
433.635; 1377.500;  228.475;    0.000
433.685; 1461.500;  226.475;    0.000
433.736; 1393.500;  276.475;    0.000
433.786; 1418.500;  253.475;    0.000
433.836; 1407.500;  289.475;    0.000
433.887; 1389.500;  241.475;    0.000
433.937; 1381.500;  252.475;    0.000
433.987; 1353.500;  223.475;    0.000
434.038; 1410.500;  241.475;    0.000
434.088; 1390.500;  231.475;    0.000
434.138; 1421.500;  259.475;    0.000
434.189; 1441.500;  263.475;    0.000
434.239; 1393.500;  194.475;    0.000
434.289; 1476.500;  273.475;    0.000
434.339; 1414.500;  212.475;    0.000
434.389; 1397.500;  248.475;    0.000
434.440; 1377.500;  250.475;    0.000
434.490; 1427.500;  278.475;    0.000
434.540; 1407.500;  241.475;    0.000
434.590; 1422.500;  251.475;    0.000
434.640; 1463.500;  207.475;    0.000
434.691; 1433.500;  242.475;    0.000
434.741; 1476.500;  218.475;    0.000
434.791; 1450.500;  267.475;    0.000
434.841; 1400.500;  272.475;    0.000
434.891; 1546.500;  260.475;    0.000
434.941; 1439.500;  258.475;    0.000
434.991; 1461.500;  264.475;    0.000
435.042; 1486.500;  264.475;    0.000
435.092; 1447.500;  271.475;    0.000
435.142; 1386.500;  229.475;    0.000
435.192; 1358.500;  226.475;    0.000
435.242; 1365.500;  253.475;    0.000
435.292; 1406.500;  215.475;    0.000
435.342; 1406.500;  240.475;    0.000
435.392; 1412.500;  235.475;    0.000
435.442; 1418.500;  230.475;    0.000
435.492; 1417.500;  235.475;    0.000
435.542; 1324.500;  230.475;    0.000
435.592; 1416.500;  239.475;    0.000
435.642; 1395.500;  244.475;    0.000
435.692; 1382.500;  236.475;    0.000
435.742; 1329.500;  236.475;    0.000
435.792; 1395.500;  230.475;    0.000
435.842; 1359.500;  248.475;    0.000
435.891; 1344.500;  233.475;    0.000
435.941; 1328.500;  243.475;    0.000
435.991; 1419.500;  279.475;    0.000
436.041; 1352.500;  204.475;    0.000
436.091; 1340.500;  217.475;    0.000
436.141; 1337.500;  205.475;    0.000
436.191; 1301.500;  220.475;    0.000
436.241; 1350.500;  248.475;    0.000
436.290; 1353.500;  255.475;    0.000
436.340; 1363.500;  235.475;    0.000
436.390; 1333.500;  207.475;    0.000
436.440; 1357.500;  207.475;    0.000
436.490; 1316.500;  251.475;    0.000
436.539; 1397.500;  240.475;    0.000
436.589; 1330.500;  198.475;    0.000
436.639; 1345.500;  240.475;    0.000
436.689; 1375.500;  216.475;    0.000
436.738; 1347.500;  246.475;    0.000
436.788; 1291.500;  203.475;    0.000
436.838; 1328.500;  230.475;    0.000
436.887; 1321.500;  235.475;    0.000
436.937; 1312.500;  249.475;    0.000
436.987; 1292.500;  208.475;    0.000
437.036; 1386.500;  232.475;    0.000
437.086; 1329.500;  238.475;    0.000
437.136; 1321.500;  228.475;    0.000
437.185; 1333.500;  219.475;    0.000
437.235; 1367.500;  227.475;    0.000
437.285; 1336.500;  241.475;    0.000
437.334; 1275.500;  216.475;    0.000
437.384; 1357.500;  243.475;    0.000
437.433; 1359.500;  214.475;    0.000
437.483; 1302.500;  246.475;    0.000
437.532; 1301.500;  261.475;    0.000
437.582; 1310.500;  205.475;    0.000
437.631; 1317.500;  218.475;    0.000
437.681; 1306.500;  240.475;    0.000
437.730; 1376.500;  258.475;    0.000
437.780; 1311.500;  237.475;    0.000
437.829; 1300.500;  209.475;    0.000
437.879; 1251.500;  214.475;    0.000
437.928; 1282.500;  223.475;    0.000
437.978; 1315.500;  220.475;    0.000
438.027; 1378.500;  239.475;    0.000
438.077; 1293.500;  231.475;    0.000
438.126; 1298.500;  266.475;    0.000
438.176; 1312.500;  234.475;    0.000
438.225; 1352.500;  237.475;    0.000
438.274; 1322.500;  234.475;    0.000
438.324; 1319.500;  244.475;    0.000
438.373; 1244.500;  232.475;    0.000
438.422; 1303.500;  218.475;    0.000
438.472; 1307.500;  221.475;    0.000
438.521; 1286.500;  190.475;    0.000
438.570; 1300.500;  243.475;    0.000
438.620; 1301.500;  255.475;    0.000
438.669; 1300.500;  210.475;    0.000
438.718; 1306.500;  237.475;    0.000
438.768; 1322.500;  220.475;    0.000
438.817; 1263.500;  218.475;    0.000
438.866; 1203.500;  198.475;    0.000
438.915; 1323.500;  256.475;    0.000
438.965; 1290.500;  221.475;    0.000
439.014; 1316.500;  255.475;    0.000
439.063; 1306.500;  276.475;    0.000
439.112; 1252.500;  220.475;    0.000
439.162; 1286.500;  253.475;    0.000
439.211; 1324.500;  247.475;    0.000
439.260; 1319.500;  220.475;    0.000
439.309; 1260.500;  235.475;    0.000
439.358; 1321.500;  205.475;    0.000
439.407; 1274.500;  207.475;    0.000
439.456; 1309.500;  216.475;    0.000
439.506; 1288.500;  245.475;    0.000
439.555; 1261.500;  264.475;    0.000
439.604; 1299.500;  227.475;    0.000
439.653; 1338.500;  220.475;    0.000
439.702; 1291.500;  223.475;    0.000
439.751; 1231.500;  197.475;    0.000
439.800; 1299.500;  207.475;    0.000
439.849; 1338.500;  238.475;    0.000
439.898; 1250.500;  209.475;    0.000
439.947; 1248.500;  170.475;    0.000
439.996; 1324.500;  233.475;    0.000
440.045; 1312.500;  222.475;    0.000
440.094; 1294.500;  240.475;    0.000
440.143; 1276.500;  249.475;    0.000
440.192; 1375.500;  252.475;    0.000
440.241; 1339.500;  239.475;    0.000
440.290; 1327.500;  234.475;    0.000
440.339; 1246.500;  241.475;    0.000
440.388; 1303.500;  239.475;    0.000
440.437; 1352.500;  231.475;    0.000
440.486; 1316.500;  254.475;    0.000
440.535; 1328.500;  266.475;    0.000
440.583; 1316.500;  205.475;    0.000
440.632; 1370.500;  234.475;    0.000
440.681; 1311.500;  218.475;    0.000
440.730; 1331.500;  248.475;    0.000
440.779; 1339.500;  246.475;    0.000
440.828; 1313.500;  235.475;    0.000
440.876; 1244.500;  218.475;    0.000
440.925; 1280.500;  228.475;    0.000
440.974; 1320.500;  249.475;    0.000
441.023; 1334.500;  192.475;    0.000
441.072; 1315.500;  226.475;    0.000
441.120; 1399.500;  238.475;    0.000
441.169; 1299.500;  255.475;    0.000
441.218; 1377.500;  233.475;    0.000
441.267; 1338.500;  231.475;    0.000
441.315; 1324.500;  214.475;    0.000
441.364; 1302.500;  250.475;    0.000
441.413; 1396.500;  228.475;    0.000
441.461; 1377.500;  209.475;    0.000
441.510; 1358.500;  260.475;    0.000
441.559; 1383.500;  230.475;    0.000
441.607; 1414.500;  220.475;    0.000
441.656; 1365.500;  251.475;    0.000
441.705; 1395.500;  237.475;    0.000
441.753; 1406.500;  257.475;    0.000
441.802; 1386.500;  256.475;    0.000
441.850; 1336.500;  253.475;    0.000
441.899; 1391.500;  212.475;    0.000
441.948; 1394.500;  251.475;    0.000
441.996; 1394.500;  239.475;    0.000
442.045; 1376.500;  223.475;    0.000
442.093; 1343.500;  211.475;    0.000
442.142; 1446.500;  235.475;    0.000
442.190; 1378.500;  254.475;    0.000
442.239; 1352.500;  226.475;    0.000
442.287; 1347.500;  242.475;    0.000
442.336; 1356.500;  256.475;    0.000
442.384; 1422.500;  252.475;    0.000
442.433; 1370.500;  262.475;    0.000
442.481; 1371.500;  246.475;    0.000
442.529; 1300.500;  290.475;    0.000
442.578; 1409.500;  247.475;    0.000
442.626; 1414.500;  247.475;    0.000
442.675; 1458.500;  272.475;    0.000
442.723; 1310.500;  230.475;    0.000
442.771; 1393.500;  234.475;    0.000
442.820; 1421.500;  224.475;    0.000
442.868; 1310.500;  246.475;    0.000
442.917; 1366.500;  249.475;    0.000
442.965; 1396.500;  260.475;    0.000
443.013; 1397.500;  258.475;    0.000
443.062; 1387.500;  259.475;    0.000
443.110; 1314.500;  226.475;    0.000
443.158; 1328.500;  213.475;    0.000
443.206; 1357.500;  201.475;    0.000
443.255; 1379.500;  280.475;    0.000
443.303; 1442.500;  292.475;    0.000
443.351; 1316.500;  256.475;    0.000
443.399; 1431.500;  215.475;    0.000
443.448; 1419.500;  243.475;    0.000
443.496; 1388.500;  249.475;    0.000
443.544; 1378.500;  231.475;    0.000
443.592; 1423.500;  243.475;    0.000
443.640; 1414.500;  252.475;    0.000
443.689; 1340.500;  220.475;    0.000
443.737; 1371.500;  231.475;    0.000
443.785; 1390.500;  256.475;    0.000
443.833; 1450.500;  268.475;    0.000
443.881; 1370.500;  181.475;    0.000
443.929; 1405.500;  245.475;    0.000
443.977; 1430.500;  278.475;    0.000
444.025; 1348.500;  245.475;    0.000
444.074; 1402.500;  233.475;    0.000
444.122; 1424.500;  267.475;    0.000
444.170; 1379.500;  247.475;    0.000
444.218; 1460.500;  246.475;    0.000
444.266; 1415.500;  275.475;    0.000
444.314; 1404.500;  263.475;    0.000
444.362; 1423.500;  240.475;    0.000
444.410; 1416.500;  220.475;    0.000
444.458; 1469.500;  258.475;    0.000
444.506; 1440.500;  258.475;    0.000
444.554; 1373.500;  224.475;    0.000
444.602; 1440.500;  245.475;    0.000
444.650; 1409.500;  261.475;    0.000
444.698; 1439.500;  232.475;    0.000
444.746; 1527.500;  206.475;    0.000
444.793; 1401.500;  249.475;    0.000
444.841; 1505.500;  261.475;    0.000
444.889; 1399.500;  221.475;    0.000
444.937; 1468.500;  215.475;    0.000
444.985; 1446.500;  244.475;    0.000
445.033; 1397.500;  211.475;    0.000
445.081; 1479.500;  225.475;    0.000
445.129; 1446.500;  217.475;    0.000
445.176; 1403.500;  196.475;    0.000
445.224; 1430.500;  211.475;    0.000
445.272; 1407.500;  242.475;    0.000
445.320; 1430.500;  225.475;    0.000
445.368; 1426.500;  249.475;    0.000
445.415; 1462.500;  243.475;    0.000
445.463; 1410.500;  242.475;    0.000
445.511; 1392.500;  248.475;    0.000
445.559; 1458.500;  219.475;    0.000
445.606; 1412.500;  221.475;    0.000
445.654; 1436.500;  202.475;    0.000
445.702; 1388.500;  210.475;    0.000
445.749; 1483.500;  249.475;    0.000
445.797; 1418.500;  206.475;    0.000
445.845; 1437.500;  213.475;    0.000
445.892; 1399.500;  224.475;    0.000
445.940; 1449.500;  214.475;    0.000
445.988; 1488.500;  247.475;    0.000
446.035; 1426.500;  204.475;    0.000
446.083; 1467.500;  235.475;    0.000
446.130; 1362.500;  195.475;    0.000
446.178; 1501.500;  236.475;    0.000
446.226; 1419.500;  218.475;    0.000
446.273; 1448.500;  215.475;    0.000
446.321; 1440.500;  222.475;    0.000
446.368; 1508.500;  228.475;    0.000
446.416; 1429.500;  223.475;    0.000
446.463; 1460.500;  220.475;    0.000
446.511; 1421.500;  198.475;    0.000
446.558; 1491.500;  208.475;    0.000
446.606; 1485.500;  253.475;    0.000
446.653; 1443.500;  198.475;    0.000
446.701; 1525.500;  231.475;    0.000
446.748; 1387.500;  224.475;    0.000
446.796; 1406.500;  201.475;    0.000
446.843; 1475.500;  257.475;    0.000
446.891; 1488.500;  218.475;    0.000
446.938; 1469.500;  232.475;    0.000
446.985; 1502.500;  229.475;    0.000
447.033; 1560.500;  251.475;    0.000
447.080; 1532.500;  257.475;    0.000
447.128; 1563.500;  232.475;    0.000
447.175; 1563.500;  269.475;    0.000
447.222; 1510.500;  185.475;    0.000
447.270; 1549.500;  264.475;    0.000
447.317; 1627.500;  225.475;    0.000
447.364; 1588.500;  243.475;    0.000
447.411; 1618.500;  263.475;    0.000
447.459; 1604.500;  257.475;    0.000
447.506; 1533.500;  175.475;    0.000
447.553; 1604.500;  203.475;    0.000
447.601; 1583.500;  238.475;    0.000
447.648; 1700.500;  244.475;    0.000
447.695; 1603.500;  249.475;    0.000
447.742; 1655.500;  234.475;    0.000
447.789; 1647.500;  228.475;    0.000
447.837; 1680.500;  258.475;    0.000
447.884; 1731.500;  243.475;    0.000
447.931; 1750.500;  235.475;    0.000
447.978; 1762.500;  224.475;    0.000
448.025; 1688.500;  245.475;    0.000
448.072; 1757.500;  212.475;    0.000
448.120; 1784.500;  256.475;    0.000
448.167; 1800.500;  240.475;    0.000
448.214; 1762.500;  247.475;    0.000
448.261; 1767.500;  245.475;    0.000
448.308; 1691.500;  273.475;    0.000
448.355; 1721.500;  257.475;    0.000
448.402; 1747.500;  259.475;    0.000
448.449; 1586.500;  238.475;    0.000
448.496; 1650.500;  245.475;    0.000
448.543; 1592.500;  217.475;    0.000
448.590; 1655.500;  269.475;    0.000
448.637; 1630.500;  250.475;    0.000
448.684; 1564.500;  250.475;    0.000
448.731; 1498.500;  235.475;    0.000
448.778; 1625.500;  265.475;    0.000
448.825; 1514.500;  257.475;    0.000
448.872; 1530.500;  234.475;    0.000
448.919; 1541.500;  216.475;    0.000
448.966; 1532.500;  274.475;    0.000
449.013; 1487.500;  263.475;    0.000
449.060; 1538.500;  247.475;    0.000
449.107; 1430.500;  218.475;    0.000
449.154; 1463.500;  225.475;    0.000
449.200; 1457.500;  212.475;    0.000
449.247; 1506.500;  242.475;    0.000
449.294; 1502.500;  228.475;    0.000
449.341; 1454.500;  232.475;    0.000
449.388; 1426.500;  247.475;    0.000
449.435; 1425.500;  227.475;    0.000
449.481; 1460.500;  270.475;    0.000
449.528; 1470.500;  265.475;    0.000
449.575; 1406.500;  255.475;    0.000
449.622; 1388.500;  210.475;    0.000
449.668; 1401.500;  234.475;    0.000
449.715; 1425.500;  262.475;    0.000
449.762; 1452.500;  247.475;    0.000
449.809; 1454.500;  286.475;    0.000
449.855; 1427.500;  246.475;    0.000
449.902; 1409.500;  224.475;    0.000
449.949; 1465.500;  244.475;    0.000
449.995; 1391.500;  274.475;    0.000
450.042; 1468.500;  272.475;    0.000
450.089; 1462.500;  274.475;    0.000
450.135; 1467.500;  285.475;    0.000
450.182; 1377.500;  251.475;    0.000
450.229; 1382.500;  242.475;    0.000
450.275; 1389.500;  277.475;    0.000
450.322; 1400.500;  260.475;    0.000
450.368; 1398.500;  257.475;    0.000
450.415; 1413.500;  276.475;    0.000
450.462; 1374.500;  298.475;    0.000
450.508; 1371.500;  255.475;    0.000
450.555; 1365.500;  271.475;    0.000
450.601; 1410.500;  281.475;    0.000
450.648; 1405.500;  249.475;    0.000
450.694; 1370.500;  270.475;    0.000
450.741; 1402.500;  256.475;    0.000
450.787; 1333.500;  292.475;    0.000
450.834; 1390.500;  221.475;    0.000
450.880; 1379.500;  265.475;    0.000
450.927; 1268.500;  242.475;    0.000
450.973; 1386.500;  259.475;    0.000
451.019; 1337.500;  221.475;    0.000
451.066; 1412.500;  257.475;    0.000
451.112; 1382.500;  251.475;    0.000
451.159; 1449.500;  278.475;    0.000
451.205; 1308.500;  274.475;    0.000
451.251; 1345.500;  281.475;    0.000
451.298; 1275.500;  273.475;    0.000
451.344; 1340.500;  246.475;    0.000
451.390; 1401.500;  286.475;    0.000
451.437; 1333.500;  268.475;    0.000
451.483; 1391.500;  315.475;    0.000
451.529; 1364.500;  251.475;    0.000
451.576; 1361.500;  306.475;    0.000
451.622; 1321.500;  234.475;    0.000
451.668; 1319.500;  243.475;    0.000
451.714; 1342.500;  256.475;    0.000
451.761; 1389.500;  264.475;    0.000
451.807; 1381.500;  284.475;    0.000
451.853; 1289.500;  282.475;    0.000
451.899; 1308.500;  240.475;    0.000
451.945; 1336.500;  263.475;    0.000
451.992; 1361.500;  255.475;    0.000
452.038; 1319.500;  273.475;    0.000
452.084; 1349.500;  274.475;    0.000
452.130; 1261.500;  261.475;    0.000
452.176; 1293.500;  246.475;    0.000
452.222; 1265.500;  238.475;    0.000
452.268; 1326.500;  267.475;    0.000
452.315; 1315.500;  274.475;    0.000
452.361; 1349.500;  241.475;    0.000
452.407; 1313.500;  274.475;    0.000
452.453; 1267.500;  260.475;    0.000
452.499; 1290.500;  232.475;    0.000
452.545; 1296.500;  252.475;    0.000
452.591; 1353.500;  263.475;    0.000
452.637; 1275.500;  208.475;    0.000
452.683; 1290.500;  237.475;    0.000
452.729; 1286.500;  263.475;    0.000
452.775; 1301.500;  291.475;    0.000
452.821; 1335.500;  238.475;    0.000
452.867; 1306.500;  223.475;    0.000
452.913; 1316.500;  257.475;    0.000
452.959; 1288.500;  238.475;    0.000
453.005; 1269.500;  252.475;    0.000
453.051; 1334.500;  260.475;    0.000
453.097; 1292.500;  268.475;    0.000
453.142; 1221.500;  231.475;    0.000
453.188; 1287.500;  266.475;    0.000
453.234; 1313.500;  233.475;    0.000
453.280; 1218.500;  219.475;    0.000
453.326; 1263.500;  265.475;    0.000
453.372; 1293.500;  238.475;    0.000
453.418; 1290.500;  240.475;    0.000
453.463; 1233.500;  219.475;    0.000
453.509; 1294.500;  264.475;    0.000
453.555; 1320.500;  247.475;    0.000
453.601; 1251.500;  230.475;    0.000
453.647; 1236.500;  285.475;    0.000
453.692; 1223.500;  240.475;    0.000
453.738; 1302.500;  233.475;    0.000
453.784; 1287.500;  230.475;    0.000
453.829; 1264.500;  246.475;    0.000
453.875; 1245.500;  261.475;    0.000
453.921; 1216.500;  203.475;    0.000
453.967; 1258.500;  241.475;    0.000
454.012; 1210.500;  250.475;    0.000
454.058; 1267.500;  252.475;    0.000
454.104; 1281.500;  239.475;    0.000
454.149; 1253.500;  250.475;    0.000
454.195; 1216.500;  243.475;    0.000
454.240; 1280.500;  252.475;    0.000
454.286; 1210.500;  245.475;    0.000
454.332; 1305.500;  286.475;    0.000
454.377; 1269.500;  254.475;    0.000
454.423; 1285.500;  246.475;    0.000
454.468; 1247.500;  235.475;    0.000
454.514; 1266.500;  231.475;    0.000
454.559; 1263.500;  246.475;    0.000
454.605; 1271.500;  204.475;    0.000
454.650; 1247.500;  272.475;    0.000
454.696; 1242.500;  222.475;    0.000
454.741; 1260.500;  290.475;    0.000
454.787; 1262.500;  262.475;    0.000
454.832; 1266.500;  227.475;    0.000
454.878; 1270.500;  241.475;    0.000
454.923; 1234.500;  272.475;    0.000
454.969; 1319.500;  290.475;    0.000
455.014; 1214.500;  278.475;    0.000
455.060; 1218.500;  246.475;    0.000
455.105; 1230.500;  231.475;    0.000
455.150; 1274.500;  265.475;    0.000
455.196; 1278.500;  266.475;    0.000
455.241; 1268.500;  258.475;    0.000
455.286; 1270.500;  266.475;    0.000
455.332; 1292.500;  252.475;    0.000
455.377; 1272.500;  219.475;    0.000
455.422; 1302.500;  262.475;    0.000
455.468; 1227.500;  260.475;    0.000
455.513; 1198.500;  212.475;    0.000
455.558; 1247.500;  197.475;    0.000
455.604; 1209.500;  262.475;    0.000
455.649; 1284.500;  238.475;    0.000
455.694; 1196.500;  221.475;    0.000
455.739; 1294.500;  251.475;    0.000
455.785; 1268.500;  287.475;    0.000
455.830; 1261.500;  284.475;    0.000
455.875; 1267.500;  234.475;    0.000
455.920; 1229.500;  215.475;    0.000
455.965; 1268.500;  256.475;    0.000
456.010; 1269.500;  266.475;    0.000
456.056; 1273.500;  263.475;    0.000
456.101; 1228.500;  240.475;    0.000
456.146; 1237.500;  258.475;    0.000
456.191; 1297.500;  241.475;    0.000
456.236; 1243.500;  252.475;    0.000
456.281; 1225.500;  218.475;    0.000
456.326; 1203.500;  251.475;    0.000
456.371; 1301.500;  256.475;    0.000
456.416; 1265.500;  301.475;    0.000
456.461; 1298.500;  233.475;    0.000
456.507; 1211.500;  218.475;    0.000
456.552; 1316.500;  278.475;    0.000
456.597; 1219.500;  223.475;    0.000
456.642; 1243.500;  203.475;    0.000
456.687; 1250.500;  245.475;    0.000
456.732; 1298.500;  256.475;    0.000
456.776; 1229.500;  244.475;    0.000
456.821; 1232.500;  276.475;    0.000
456.866; 1204.500;  232.475;    0.000
456.911; 1160.500;  225.475;    0.000
456.956; 1312.500;  237.475;    0.000
457.001; 1227.500;  261.475;    0.000
457.046; 1241.500;  205.475;    0.000
457.091; 1245.500;  241.475;    0.000
457.136; 1225.500;  217.475;    0.000
457.181; 1233.500;  251.475;    0.000
457.225; 1270.500;  241.475;    0.000
457.270; 1257.500;  237.475;    0.000
457.315; 1203.500;  279.475;    0.000
457.360; 1283.500;  245.475;    0.000
457.405; 1217.500;  202.475;    0.000
457.450; 1244.500;  247.475;    0.000
457.494; 1203.500;  243.475;    0.000
457.539; 1224.500;  222.475;    0.000
457.584; 1232.500;  239.475;    0.000
457.629; 1205.500;  236.475;    0.000
457.673; 1275.500;  234.475;    0.000
457.718; 1244.500;  202.475;    0.000
457.763; 1287.500;  274.475;    0.000
457.807; 1287.500;  236.475;    0.000
457.852; 1287.500;  265.475;    0.000
457.897; 1252.500;  252.475;    0.000
457.941; 1317.500;  264.475;    0.000
457.986; 1278.500;  280.475;    0.000
458.031; 1344.500;  217.475;    0.000
458.075; 1276.500;  249.475;    0.000
458.120; 1351.500;  257.475;    0.000
458.165; 1289.500;  183.475;    0.000
458.209; 1266.500;  245.475;    0.000
458.254; 1265.500;  245.475;    0.000
458.298; 1267.500;  265.475;    0.000
458.343; 1288.500;  241.475;    0.000
458.387; 1297.500;  262.475;    0.000
458.432; 1298.500;  245.475;    0.000
458.476; 1385.500;  255.475;    0.000
458.521; 1344.500;  269.475;    0.000
458.565; 1361.500;  265.475;    0.000
458.610; 1251.500;  222.475;    0.000
458.654; 1294.500;  257.475;    0.000
458.699; 1297.500;  296.475;    0.000
458.743; 1259.500;  203.475;    0.000
458.788; 1313.500;  267.475;    0.000
458.832; 1314.500;  274.475;    0.000
458.877; 1366.500;  251.475;    0.000
458.921; 1299.500;  237.475;    0.000
458.965; 1308.500;  264.475;    0.000
459.010; 1409.500;  256.475;    0.000
459.054; 1344.500;  280.475;    0.000
459.099; 1340.500;  240.475;    0.000
459.143; 1356.500;  287.475;    0.000
459.187; 1383.500;  257.475;    0.000
459.231; 1359.500;  273.475;    0.000
459.276; 1339.500;  231.475;    0.000
459.320; 1407.500;  261.475;    0.000
459.364; 1389.500;  278.475;    0.000
459.409; 1416.500;  249.475;    0.000
459.453; 1332.500;  235.475;    0.000
459.497; 1368.500;  262.475;    0.000
459.541; 1390.500;  269.475;    0.000
459.586; 1375.500;  240.475;    0.000
459.630; 1427.500;  261.475;    0.000
459.674; 1377.500;  276.475;    0.000
459.718; 1357.500;  236.475;    0.000
459.762; 1374.500;  263.475;    0.000
459.807; 1414.500;  263.475;    0.000
459.851; 1372.500;  225.475;    0.000
459.895; 1359.500;  247.475;    0.000
459.939; 1391.500;  231.475;    0.000
459.983; 1398.500;  242.475;    0.000
460.027; 1402.500;  248.475;    0.000
460.071; 1429.500;  273.475;    0.000
460.115; 1428.500;  282.475;    0.000
460.159; 1414.500;  264.475;    0.000
460.204; 1350.500;  288.475;    0.000
460.248; 1410.500;  293.475;    0.000
460.292; 1417.500;  277.475;    0.000
460.336; 1363.500;  250.475;    0.000
460.380; 1406.500;  275.475;    0.000
460.424; 1362.500;  243.475;    0.000
460.468; 1452.500;  277.475;    0.000
460.512; 1371.500;  261.475;    0.000
460.556; 1438.500;  266.475;    0.000
460.599; 1382.500;  246.475;    0.000
460.643; 1390.500;  256.475;    0.000
460.687; 1423.500;  257.475;    0.000
460.731; 1364.500;  235.475;    0.000
460.775; 1406.500;  278.475;    0.000
460.819; 1448.500;  268.475;    0.000
460.863; 1392.500;  257.475;    0.000
460.907; 1336.500;  213.475;    0.000
460.951; 1379.500;  274.475;    0.000
460.995; 1436.500;  258.475;    0.000
461.038; 1423.500;  219.475;    0.000
461.082; 1427.500;  253.475;    0.000
461.126; 1417.500;  281.475;    0.000
461.170; 1402.500;  244.475;    0.000
461.214; 1391.500;  262.475;    0.000
461.257; 1454.500;  284.475;    0.000
461.301; 1436.500;  275.475;    0.000
461.345; 1401.500;  267.475;    0.000
461.389; 1438.500;  255.475;    0.000
461.432; 1410.500;  282.475;    0.000
461.476; 1472.500;  263.475;    0.000
461.520; 1437.500;  260.475;    0.000
461.563; 1411.500;  278.475;    0.000
461.607; 1432.500;  236.475;    0.000
461.651; 1396.500;  262.475;    0.000
461.694; 1427.500;  236.475;    0.000
461.738; 1453.500;  295.475;    0.000
461.782; 1458.500;  252.475;    0.000
461.825; 1421.500;  271.475;    0.000
461.869; 1463.500;  278.475;    0.000
461.913; 1466.500;  255.475;    0.000
461.956; 1445.500;  254.475;    0.000
462.000; 1490.500;  299.475;    0.000
462.043; 1445.500;  282.475;    0.000
462.087; 1452.500;  274.475;    0.000
462.130; 1488.500;  270.475;    0.000
462.174; 1533.500;  274.475;    0.000
462.217; 1446.500;  272.475;    0.000
462.261; 1543.500;  286.475;    0.000
462.304; 1487.500;  236.475;    0.000
462.348; 1477.500;  262.475;    0.000
462.391; 1487.500;  244.475;    0.000
462.435; 1464.500;  321.475;    0.000
462.478; 1498.500;  230.475;    0.000
462.522; 1524.500;  245.475;    0.000
462.565; 1529.500;  278.475;    0.000
462.608; 1560.500;  303.475;    0.000
462.652; 1553.500;  275.475;    0.000
462.695; 1576.500;  314.475;    0.000
462.739; 1551.500;  307.475;    0.000
462.782; 1571.500;  286.475;    0.000
462.825; 1587.500;  312.475;    0.000
462.869; 1617.500;  338.475;    0.000
462.912; 1577.500;  304.475;    0.000
462.955; 1572.500;  288.475;    0.000
462.998; 1618.500;  292.475;    0.000
463.042; 1576.500;  309.475;    0.000
463.085; 1603.500;  292.475;    0.000
463.128; 1609.500;  317.475;    0.000
463.172; 1551.500;  287.475;    0.000
463.215;  362.500;  313.475;    0.000
463.258;  323.500;  295.475;    0.000
463.301;  306.500;  275.475;    0.000
463.344;  301.500;  311.475;    0.000
463.388;  322.500;  296.475;    0.000
463.431;  278.500;  277.475;    0.000
463.474;  330.500;  364.475;    0.000
463.517;  292.500;  306.475;    0.000
463.560;  343.500;  308.475;    0.000
463.603;  344.500;  343.475;    0.000
463.646;  352.500;  309.475;    0.000
463.690;  342.500;  309.475;    0.000
463.733;  307.500;  320.475;    0.000
463.776;  326.500;  299.475;    0.000
463.819;  299.500;  320.475;    0.000
463.862;  303.500;  283.475;    0.000

