
Integration time [ms]:   1.000
Averaging Nr. [scans]: 1
Smoothing Nr. [pixels]: 0
Data measured with spectrometer [name]: VIS
Wave   ;Sample   ;Dark     ;Reference
[nm]   ;[counts] ;[counts] ;[counts] 

450.961;  188.225;  200.375;    0.000
451.100;  228.225;  241.375;    0.000
451.239;  201.225;  201.375;    0.000
451.377;  244.225;  262.375;    0.000
451.516;  208.225;  229.375;    0.000
451.655;  210.225;  211.375;    0.000
451.794;  208.225;  225.375;    0.000
451.932;  231.225;  247.375;    0.000
452.071;  210.225;  260.375;    0.000
452.210;  206.225;  235.375;    0.000
452.348;  231.225;  276.375;    0.000
452.487;  220.225;  259.375;    0.000
452.626;  264.225;  254.375;    0.000
452.764;  211.225;  233.375;    0.000
452.903;  225.225;  202.375;    0.000
453.042;  258.225;  211.375;    0.000
453.180; 3126.225;  240.375;    0.000
453.319; 3270.225;  238.375;    0.000
453.458; 3218.225;  215.375;    0.000
453.596; 3203.225;  252.375;    0.000
453.735; 3247.225;  240.375;    0.000
453.873; 3283.225;  257.375;    0.000
454.012; 3349.225;  228.375;    0.000
454.150; 3271.225;  270.375;    0.000
454.289; 3282.225;  233.375;    0.000
454.427; 3416.225;  243.375;    0.000
454.566; 3464.225;  257.375;    0.000
454.704; 3511.225;  243.375;    0.000
454.843; 3492.225;  190.375;    0.000
454.981; 3587.225;  271.375;    0.000
455.120; 3584.225;  210.375;    0.000
455.258; 3746.225;  235.375;    0.000
455.397; 3600.225;  214.375;    0.000
455.535; 3698.225;  214.375;    0.000
455.674; 3634.225;  184.375;    0.000
455.812; 3692.225;  228.375;    0.000
455.951; 3725.225;  204.375;    0.000
456.089; 3734.225;  220.375;    0.000
456.227; 3849.225;  196.375;    0.000
456.366; 3783.225;  261.375;    0.000
456.504; 3920.225;  249.375;    0.000
456.642; 3989.225;  245.375;    0.000
456.781; 3861.225;  183.375;    0.000
456.919; 3969.225;  203.375;    0.000
457.057; 4126.225;  177.375;    0.000
457.196; 4060.225;  191.375;    0.000
457.334; 4233.225;  233.375;    0.000
457.472; 4249.225;  214.375;    0.000
457.610; 4227.225;  230.375;    0.000
457.749; 4325.225;  247.375;    0.000
457.887; 4260.225;  220.375;    0.000
458.025; 4479.225;  195.375;    0.000
458.163; 4547.225;  224.375;    0.000
458.301; 4598.225;  228.375;    0.000
458.440; 4611.225;  200.375;    0.000
458.578; 4814.225;  233.375;    0.000
458.716; 4848.225;  182.375;    0.000
458.854; 5000.225;  251.375;    0.000
458.992; 4931.225;  187.375;    0.000
459.130; 5004.225;  229.375;    0.000
459.269; 5089.225;  237.375;    0.000
459.407; 5166.225;  228.375;    0.000
459.545; 5214.225;  216.375;    0.000
459.683; 5188.225;  204.375;    0.000
459.821; 5390.225;  191.375;    0.000
459.959; 5517.225;  227.375;    0.000
460.097; 5567.225;  221.375;    0.000
460.235; 5505.225;  241.375;    0.000
460.373; 5540.225;  231.375;    0.000
460.511; 5599.225;  214.375;    0.000
460.649; 5675.225;  172.375;    0.000
460.787; 5796.225;  275.375;    0.000
460.925; 5753.225;  175.375;    0.000
461.063; 5680.225;  252.375;    0.000
461.201; 5706.225;  210.375;    0.000
461.339; 5862.225;  237.375;    0.000
461.477; 5848.225;  210.375;    0.000
461.615; 5949.225;  236.375;    0.000
461.753; 5930.225;  215.375;    0.000
461.891; 6011.225;  222.375;    0.000
462.029; 6249.225;  227.375;    0.000
462.166; 6408.225;  202.375;    0.000
462.304; 6277.225;  191.375;    0.000
462.442; 6505.225;  210.375;    0.000
462.580; 6498.225;  184.375;    0.000
462.718; 6549.225;  220.375;    0.000
462.856; 6636.225;  226.375;    0.000
462.993; 6599.225;  254.375;    0.000
463.131; 6531.225;  200.375;    0.000
463.269; 6375.225;  215.375;    0.000
463.407; 6325.225;  213.375;    0.000
463.545; 6136.225;  242.375;    0.000
463.682; 6134.225;  212.375;    0.000
463.820; 6628.225;  185.375;    0.000
463.958; 6698.225;  212.375;    0.000
464.095; 6795.225;  181.375;    0.000
464.233; 7006.225;  192.375;    0.000
464.371; 6851.225;  247.375;    0.000
464.509; 6932.225;  151.375;    0.000
464.646; 6827.225;  207.375;    0.000
464.784; 6884.225;  199.375;    0.000
464.921; 6723.225;  253.375;    0.000
465.059; 6388.225;  214.375;    0.000
465.197; 6430.225;  200.375;    0.000
465.334; 6158.225;  180.375;    0.000
465.472; 6204.225;  204.375;    0.000
465.609; 6150.225;  203.375;    0.000
465.747; 5996.225;  214.375;    0.000
465.885; 5825.225;  233.375;    0.000
466.022; 5933.225;  215.375;    0.000
466.160; 5994.225;  201.375;    0.000
466.297; 5839.225;  196.375;    0.000
466.435; 5834.225;  230.375;    0.000
466.572; 5883.225;  227.375;    0.000
466.710; 5881.225;  218.375;    0.000
466.847; 5785.225;  245.375;    0.000
466.985; 5762.225;  223.375;    0.000
467.122; 5857.225;  168.375;    0.000
467.260; 5666.225;  196.375;    0.000
467.397; 5737.225;  198.375;    0.000
467.534; 5703.225;  219.375;    0.000
467.672; 5657.225;  214.375;    0.000
467.809; 5623.225;  185.375;    0.000
467.947; 5779.225;  247.375;    0.000
468.084; 5823.225;  196.375;    0.000
468.221; 5834.225;  238.375;    0.000
468.359; 5745.225;  236.375;    0.000
468.496; 5752.225;  235.375;    0.000
468.633; 5864.225;  218.375;    0.000
468.771; 5826.225;  223.375;    0.000
468.908; 5809.225;  208.375;    0.000
469.045; 5719.225;  249.375;    0.000
469.183; 5838.225;  222.375;    0.000
469.320; 5954.225;  216.375;    0.000
469.457; 6051.225;  224.375;    0.000
469.594; 5997.225;  259.375;    0.000
469.732; 5966.225;  223.375;    0.000
469.869; 6063.225;  234.375;    0.000
470.006; 6149.225;  225.375;    0.000
470.143; 6368.225;  243.375;    0.000
470.280; 6407.225;  208.375;    0.000
470.417; 6255.225;  232.375;    0.000
470.555; 6290.225;  218.375;    0.000
470.692; 6139.225;  223.375;    0.000
470.829; 6154.225;  238.375;    0.000
470.966; 6240.225;  205.375;    0.000
471.103; 6390.225;  259.375;    0.000
471.240; 6045.225;  214.375;    0.000
471.377; 6094.225;  226.375;    0.000
471.514; 6075.225;  250.375;    0.000
471.651; 6174.225;  221.375;    0.000
471.789; 6083.225;  242.375;    0.000
471.926; 5965.225;  190.375;    0.000
472.063; 6047.225;  234.375;    0.000
472.200; 5996.225;  252.375;    0.000
472.337; 6003.225;  241.375;    0.000
472.474; 5900.225;  244.375;    0.000
472.611; 5959.225;  268.375;    0.000
472.748; 5968.225;  222.375;    0.000
472.884; 5932.225;  271.375;    0.000
473.021; 5960.225;  195.375;    0.000
473.158; 5982.225;  205.375;    0.000
473.295; 6016.225;  223.375;    0.000
473.432; 5866.225;  216.375;    0.000
473.569; 5934.225;  196.375;    0.000
473.706; 5824.225;  190.375;    0.000
473.843; 5869.225;  211.375;    0.000
473.980; 6042.225;  254.375;    0.000
474.117; 5949.225;  185.375;    0.000
474.253; 5959.225;  229.375;    0.000
474.390; 5846.225;  238.375;    0.000
474.527; 5809.225;  220.375;    0.000
474.664; 5911.225;  242.375;    0.000
474.801; 5865.225;  229.375;    0.000
474.937; 6114.225;  229.375;    0.000
475.074; 5945.225;  210.375;    0.000
475.211; 6011.225;  219.375;    0.000
475.348; 6102.225;  226.375;    0.000
475.484; 6095.225;  207.375;    0.000
475.621; 6103.225;  233.375;    0.000
475.758; 6047.225;  230.375;    0.000
475.894; 6072.225;  234.375;    0.000
476.031; 6075.225;  202.375;    0.000
476.168; 6038.225;  222.375;    0.000
476.304; 6132.225;  237.375;    0.000
476.441; 6242.225;  238.375;    0.000
476.578; 6120.225;  216.375;    0.000
476.714; 6260.225;  212.375;    0.000
476.851; 6367.225;  210.375;    0.000
476.987; 6420.225;  239.375;    0.000
477.124; 6353.225;  250.375;    0.000
477.261; 6302.225;  227.375;    0.000
477.397; 6320.225;  189.375;    0.000
477.534; 6464.225;  204.375;    0.000
477.670; 6324.225;  190.375;    0.000
477.807; 6467.225;  198.375;    0.000
477.943; 6667.225;  216.375;    0.000
478.080; 6650.225;  213.375;    0.000
478.216; 6694.225;  239.375;    0.000
478.353; 6928.225;  218.375;    0.000
478.489; 6782.225;  184.375;    0.000
478.626; 6828.225;  223.375;    0.000
478.762; 6857.225;  213.375;    0.000
478.898; 6823.225;  216.375;    0.000
479.035; 7040.225;  250.375;    0.000
479.171; 6817.225;  201.375;    0.000
479.308; 6912.225;  242.375;    0.000
479.444; 6981.225;  205.375;    0.000
479.580; 6766.225;  203.375;    0.000
479.717; 7056.225;  260.375;    0.000
479.853; 7029.225;  225.375;    0.000
479.989; 7048.225;  226.375;    0.000
480.126; 7085.225;  211.375;    0.000
480.262; 7269.225;  220.375;    0.000
480.398; 7216.225;  207.375;    0.000
480.535; 7205.225;  179.375;    0.000
480.671; 7206.225;  200.375;    0.000
480.807; 7007.225;  190.375;    0.000
480.943; 6947.225;  165.375;    0.000
481.080; 6978.225;  210.375;    0.000
481.216; 6989.225;  232.375;    0.000
481.352; 7047.225;  235.375;    0.000
481.488; 7048.225;  208.375;    0.000
481.624; 7018.225;  245.375;    0.000
481.760; 7109.225;  210.375;    0.000
481.897; 7093.225;  189.375;    0.000
482.033; 7004.225;  256.375;    0.000
482.169; 6924.225;  257.375;    0.000
482.305; 6935.225;  199.375;    0.000
482.441; 6949.225;  182.375;    0.000
482.577; 6895.225;  223.375;    0.000
482.713; 6960.225;  243.375;    0.000
482.849; 6904.225;  197.375;    0.000
482.985; 7094.225;  240.375;    0.000
483.121; 7049.225;  210.375;    0.000
483.258; 6976.225;  248.375;    0.000
483.394; 7116.225;  224.375;    0.000
483.530; 7128.225;  209.375;    0.000
483.665; 7091.225;  225.375;    0.000
483.801; 7011.225;  216.375;    0.000
483.937; 7054.225;  211.375;    0.000
484.073; 7176.225;  259.375;    0.000
484.209; 7046.225;  191.375;    0.000
484.345; 7268.225;  239.375;    0.000
484.481; 7350.225;  231.375;    0.000
484.617; 7371.225;  216.375;    0.000
484.753; 7482.225;  180.375;    0.000
484.889; 7457.225;  252.375;    0.000
485.025; 7370.225;  244.375;    0.000
485.161; 7425.225;  242.375;    0.000
485.296; 7450.225;  235.375;    0.000
485.432; 7445.225;  247.375;    0.000
485.568; 7483.225;  203.375;    0.000
485.704; 7459.225;  229.375;    0.000
485.840; 7393.225;  230.375;    0.000
485.975; 7457.225;  266.375;    0.000
486.111; 7345.225;  220.375;    0.000
486.247; 7488.225;  264.375;    0.000
486.383; 7526.225;  213.375;    0.000
486.518; 7393.225;  222.375;    0.000
486.654; 7387.225;  244.375;    0.000
486.790; 7355.225;  273.375;    0.000
486.926; 7390.225;  203.375;    0.000
487.061; 7499.225;  227.375;    0.000
487.197; 7381.225;  210.375;    0.000
487.333; 7270.225;  209.375;    0.000
487.468; 7238.225;  197.375;    0.000
487.604; 7249.225;  230.375;    0.000
487.740; 7198.225;  254.375;    0.000
487.875; 7271.225;  286.375;    0.000
488.011; 7093.225;  225.375;    0.000
488.146; 7383.225;  251.375;    0.000
488.282; 7295.225;  242.375;    0.000
488.417; 7323.225;  230.375;    0.000
488.553; 7274.225;  260.375;    0.000
488.688; 7225.225;  207.375;    0.000
488.824; 7300.225;  204.375;    0.000
488.960; 7266.225;  248.375;    0.000
489.095; 7286.225;  204.375;    0.000
489.230; 7397.225;  227.375;    0.000
489.366; 7331.225;  226.375;    0.000
489.501; 7276.225;  199.375;    0.000
489.637; 7171.225;  233.375;    0.000
489.772; 7125.225;  249.375;    0.000
489.908; 7299.225;  200.375;    0.000
490.043; 7188.225;  246.375;    0.000
490.178; 7254.225;  222.375;    0.000
490.314; 7184.225;  219.375;    0.000
490.449; 7189.225;  227.375;    0.000
490.585; 7152.225;  209.375;    0.000
490.720; 7056.225;  238.375;    0.000
490.855; 7049.225;  222.375;    0.000
490.991; 7212.225;  202.375;    0.000
491.126; 7349.225;  272.375;    0.000
491.261; 7144.225;  261.375;    0.000
491.396; 7054.225;  190.375;    0.000
491.532; 7097.225;  202.375;    0.000
491.667; 7118.225;  208.375;    0.000
491.802; 7115.225;  203.375;    0.000
491.937; 7160.225;  253.375;    0.000
492.073; 7291.225;  242.375;    0.000
492.208; 7209.225;  230.375;    0.000
492.343; 7101.225;  183.375;    0.000
492.478; 7170.225;  246.375;    0.000
492.613; 7354.225;  223.375;    0.000
492.749; 7170.225;  230.375;    0.000
492.884; 7135.225;  190.375;    0.000
493.019; 7155.225;  234.375;    0.000
493.154; 7159.225;  218.375;    0.000
493.289; 7335.225;  222.375;    0.000
493.424; 7345.225;  196.375;    0.000
493.559; 7110.225;  202.375;    0.000
493.694; 7260.225;  180.375;    0.000
493.829; 6980.225;  224.375;    0.000
493.964; 7144.225;  218.375;    0.000
494.099; 7193.225;  275.375;    0.000
494.234; 7117.225;  226.375;    0.000
494.369; 7086.225;  225.375;    0.000
494.504; 7104.225;  219.375;    0.000
494.639; 7014.225;  296.375;    0.000
494.774; 7169.225;  228.375;    0.000
494.909; 6957.225;  222.375;    0.000
495.044; 7105.225;  215.375;    0.000
495.179; 7066.225;  200.375;    0.000
495.314; 7109.225;  235.375;    0.000
495.449; 7125.225;  249.375;    0.000
495.584; 7191.225;  228.375;    0.000
495.719; 7211.225;  212.375;    0.000
495.854; 7373.225;  201.375;    0.000
495.988; 7153.225;  248.375;    0.000
496.123; 7181.225;  209.375;    0.000
496.258; 7180.225;  249.375;    0.000
496.393; 7094.225;  223.375;    0.000
496.528; 7341.225;  209.375;    0.000
496.663; 7259.225;  207.375;    0.000
496.797; 7433.225;  229.375;    0.000
496.932; 7454.225;  225.375;    0.000
497.067; 7637.225;  218.375;    0.000
497.202; 7649.225;  163.375;    0.000
497.336; 7562.225;  246.375;    0.000
497.471; 7729.225;  229.375;    0.000
497.606; 7775.225;  251.375;    0.000
497.740; 7819.225;  220.375;    0.000
497.875; 7825.225;  216.375;    0.000
498.010; 8131.225;  226.375;    0.000
498.144; 8363.225;  237.375;    0.000
498.279; 8456.225;  196.375;    0.000
498.414; 8648.225;  219.375;    0.000
498.548; 8789.225;  205.375;    0.000
498.683; 9010.225;  206.375;    0.000
498.817; 9036.225;  225.375;    0.000
498.952; 9162.225;  221.375;    0.000
499.087; 9642.225;  220.375;    0.000
499.221; 9985.225;  233.375;    0.000
499.356;10231.225;  230.375;    0.000
499.490;10568.225;  229.375;    0.000
499.625;10999.225;  231.375;    0.000
499.759;11415.225;  243.375;    0.000
499.894;11923.225;  241.375;    0.000
500.028;12382.225;  264.375;    0.000
500.162;12744.225;  287.375;    0.000
500.297;13176.225;  234.375;    0.000
500.431;13096.225;  230.375;    0.000
500.566;13050.225;  213.375;    0.000
500.700;13013.225;  243.375;    0.000
500.835;12488.225;  272.375;    0.000
500.969;12100.225;  188.375;    0.000
501.103;11476.225;  200.375;    0.000
501.238;10949.225;  257.375;    0.000
501.372;10595.225;  224.375;    0.000
501.506;10138.225;  225.375;    0.000
501.641;10090.225;  271.375;    0.000
501.775; 9708.225;  199.375;    0.000
501.909; 9219.225;  249.375;    0.000
502.043; 8924.225;  211.375;    0.000
502.178; 8965.225;  269.375;    0.000
502.312; 8537.225;  198.375;    0.000
502.446; 8394.225;  256.375;    0.000
502.580; 8258.225;  195.375;    0.000
502.715; 8132.225;  224.375;    0.000
502.849; 7955.225;  245.375;    0.000
502.983; 7929.225;  250.375;    0.000
503.117; 7931.225;  193.375;    0.000
503.251; 7767.225;  242.375;    0.000
503.385; 7574.225;  227.375;    0.000
503.520; 7462.225;  235.375;    0.000
503.654; 7249.225;  220.375;    0.000
503.788; 7376.225;  267.375;    0.000
503.922; 7254.225;  220.375;    0.000
504.056; 7209.225;  238.375;    0.000
504.190; 7077.225;  212.375;    0.000
504.324; 7075.225;  265.375;    0.000
504.458; 7218.225;  228.375;    0.000
504.592; 7031.225;  231.375;    0.000
504.726; 6959.225;  218.375;    0.000
504.860; 6825.225;  253.375;    0.000
504.994; 6826.225;  217.375;    0.000
505.128; 6657.225;  243.375;    0.000
505.262; 6450.225;  194.375;    0.000
505.396; 6462.225;  210.375;    0.000
505.530; 6243.225;  211.375;    0.000
505.664; 6145.225;  219.375;    0.000
505.798; 6097.225;  240.375;    0.000
505.932; 6143.225;  240.375;    0.000
506.066; 6095.225;  252.375;    0.000
506.199; 6192.225;  242.375;    0.000
506.333; 6047.225;  244.375;    0.000
506.467; 5913.225;  223.375;    0.000
506.601; 5890.225;  183.375;    0.000
506.735; 5894.225;  249.375;    0.000
506.869; 5700.225;  270.375;    0.000
507.002; 5780.225;  207.375;    0.000
507.136; 5837.225;  242.375;    0.000
507.270; 5697.225;  232.375;    0.000
507.404; 5551.225;  195.375;    0.000
507.537; 5646.225;  218.375;    0.000
507.671; 5704.225;  246.375;    0.000
507.805; 5695.225;  244.375;    0.000
507.939; 5565.225;  251.375;    0.000
508.072; 5474.225;  212.375;    0.000
508.206; 5591.225;  198.375;    0.000
508.340; 5428.225;  234.375;    0.000
508.473; 5410.225;  217.375;    0.000
508.607; 5503.225;  224.375;    0.000
508.740; 5427.225;  207.375;    0.000
508.874; 5384.225;  230.375;    0.000
509.008; 5462.225;  246.375;    0.000
509.141; 5445.225;  239.375;    0.000
509.275; 5412.225;  229.375;    0.000
509.408; 5386.225;  234.375;    0.000
509.542; 5266.225;  212.375;    0.000
509.675; 5377.225;  256.375;    0.000
509.809; 5353.225;  232.375;    0.000
509.942; 5474.225;  237.375;    0.000
510.076; 5167.225;  226.375;    0.000
510.209; 5389.225;  251.375;    0.000
510.343; 5251.225;  229.375;    0.000
510.476; 5191.225;  285.375;    0.000
510.610; 5045.225;  211.375;    0.000
510.743; 5252.225;  258.375;    0.000
510.877; 5071.225;  244.375;    0.000
511.010; 5182.225;  235.375;    0.000
511.143; 5172.225;  251.375;    0.000
511.277; 5097.225;  228.375;    0.000
511.410; 5156.225;  216.375;    0.000
511.543; 5020.225;  231.375;    0.000
511.677; 5123.225;  244.375;    0.000
511.810; 4906.225;  186.375;    0.000
511.943; 5181.225;  211.375;    0.000
512.077; 5054.225;  201.375;    0.000
512.210; 4996.225;  194.375;    0.000
512.343; 5108.225;  233.375;    0.000
512.476; 5179.225;  234.375;    0.000
512.610; 5041.225;  224.375;    0.000
512.743; 5207.225;  255.375;    0.000
512.876; 5220.225;  264.375;    0.000
513.009; 5106.225;  283.375;    0.000
513.142; 5100.225;  246.375;    0.000
513.276; 5001.225;  217.375;    0.000
513.409; 5048.225;  222.375;    0.000
513.542; 5068.225;  237.375;    0.000
513.675; 5095.225;  238.375;    0.000
513.808; 5048.225;  220.375;    0.000
513.941; 5099.225;  233.375;    0.000
514.074; 4980.225;  248.375;    0.000
514.207; 5166.225;  233.375;    0.000
514.340; 5074.225;  190.375;    0.000
514.474; 5048.225;  221.375;    0.000
514.607; 5086.225;  213.375;    0.000
514.740; 5118.225;  251.375;    0.000
514.873; 5129.225;  257.375;    0.000
515.006; 5185.225;  268.375;    0.000
515.139; 5106.225;  257.375;    0.000
515.272; 5241.225;  227.375;    0.000
515.404; 5245.225;  238.375;    0.000
515.537; 5265.225;  275.375;    0.000
515.670; 5283.225;  239.375;    0.000
515.803; 5331.225;  223.375;    0.000
515.936; 5351.225;  202.375;    0.000
516.069; 5351.225;  188.375;    0.000
516.202; 5529.225;  240.375;    0.000
516.335; 5634.225;  252.375;    0.000
516.468; 5916.225;  254.375;    0.000
516.600; 7390.225;  254.375;    0.000
516.733; 9444.225;  255.375;    0.000
516.866; 9155.225;  265.375;    0.000
516.999; 7979.225;  251.375;    0.000
517.132;10178.225;  256.375;    0.000
517.264;14861.225;  202.375;    0.000
517.397;14012.225;  248.375;    0.000
517.530; 9532.225;  221.375;    0.000
517.663; 7788.225;  244.375;    0.000
517.795; 7217.225;  245.375;    0.000
517.928; 6955.225;  236.375;    0.000
518.061; 7216.225;  219.375;    0.000
518.193;10264.225;  251.375;    0.000
518.326;17488.225;  271.375;    0.000
518.459;18067.225;  207.375;    0.000
518.591;12306.225;  217.375;    0.000
518.724; 8394.225;  200.375;    0.000
518.857; 7210.225;  204.375;    0.000
518.989; 6696.225;  242.375;    0.000
519.122; 6282.225;  254.375;    0.000
519.254; 6049.225;  239.375;    0.000
519.387; 5871.225;  235.375;    0.000
519.519; 5635.225;  227.375;    0.000
519.652; 5462.225;  178.375;    0.000
519.784; 5459.225;  226.375;    0.000
519.917; 5237.225;  256.375;    0.000
520.049; 5222.225;  234.375;    0.000
520.182; 5182.225;  258.375;    0.000
520.314; 5155.225;  298.375;    0.000
520.447; 5314.225;  204.375;    0.000
520.579; 5549.225;  235.375;    0.000
520.712; 5401.225;  208.375;    0.000
520.844; 5483.225;  272.375;    0.000
520.976; 5252.225;  234.375;    0.000
521.109; 4897.225;  235.375;    0.000
521.241; 4775.225;  250.375;    0.000
521.373; 4663.225;  233.375;    0.000
521.506; 4738.225;  231.375;    0.000
521.638; 4690.225;  258.375;    0.000
521.770; 4661.225;  226.375;    0.000
521.903; 4666.225;  258.375;    0.000
522.035; 4632.225;  263.375;    0.000
522.167; 4675.225;  214.375;    0.000
522.300; 4531.225;  212.375;    0.000
522.432; 4509.225;  220.375;    0.000
522.564; 4575.225;  228.375;    0.000
522.696; 4640.225;  272.375;    0.000
522.828; 4722.225;  222.375;    0.000
522.961; 4520.225;  205.375;    0.000
523.093; 4529.225;  253.375;    0.000
523.225; 4438.225;  239.375;    0.000
523.357; 4464.225;  263.375;    0.000
523.489; 4591.225;  264.375;    0.000
523.621; 4466.225;  259.375;    0.000
523.753; 4309.225;  233.375;    0.000
523.885; 4285.225;  232.375;    0.000
524.018; 4296.225;  214.375;    0.000
524.150; 4336.225;  235.375;    0.000
524.282; 4307.225;  242.375;    0.000
524.414; 4319.225;  261.375;    0.000
524.546; 4293.225;  233.375;    0.000
524.678; 4234.225;  242.375;    0.000
524.810; 4148.225;  216.375;    0.000
524.942; 4266.225;  220.375;    0.000
525.074; 4230.225;  249.375;    0.000
525.206; 4297.225;  227.375;    0.000
525.338; 4213.225;  250.375;    0.000
525.469; 4024.225;  231.375;    0.000
525.601; 4175.225;  245.375;    0.000
525.733; 4155.225;  187.375;    0.000
525.865; 4103.225;  280.375;    0.000
525.997; 4153.225;  216.375;    0.000
526.129; 4216.225;  228.375;    0.000
526.261; 4144.225;  187.375;    0.000
526.393; 4054.225;  228.375;    0.000
526.524; 4112.225;  201.375;    0.000
526.656; 4213.225;  199.375;    0.000
526.788; 4178.225;  233.375;    0.000
526.920; 4218.225;  256.375;    0.000
527.052; 4169.225;  219.375;    0.000
527.183; 4154.225;  227.375;    0.000
527.315; 4163.225;  266.375;    0.000
527.447; 4101.225;  239.375;    0.000
527.578; 4085.225;  213.375;    0.000
527.710; 4111.225;  216.375;    0.000
527.842; 4059.225;  240.375;    0.000
527.973; 4188.225;  286.375;    0.000
528.105; 4073.225;  222.375;    0.000
528.237; 3999.225;  223.375;    0.000
528.368; 4002.225;  211.375;    0.000
528.500; 4018.225;  215.375;    0.000
528.632; 3970.225;  216.375;    0.000
528.763; 3967.225;  234.375;    0.000
528.895; 4010.225;  196.375;    0.000
529.026; 3959.225;  202.375;    0.000
529.158; 4023.225;  226.375;    0.000
529.289; 4083.225;  229.375;    0.000
529.421; 4112.225;  264.375;    0.000
529.552; 4049.225;  265.375;    0.000
529.684; 4060.225;  260.375;    0.000
529.815; 4234.225;  284.375;    0.000
529.947; 4036.225;  237.375;    0.000
530.078; 4040.225;  223.375;    0.000
530.210; 3989.225;  223.375;    0.000
530.341; 4028.225;  209.375;    0.000
530.472; 4047.225;  203.375;    0.000
530.604; 3904.225;  223.375;    0.000
530.735; 3970.225;  218.375;    0.000
530.867; 4061.225;  222.375;    0.000
530.998; 3910.225;  239.375;    0.000
531.129; 4068.225;  250.375;    0.000
531.260; 4006.225;  224.375;    0.000
531.392; 4111.225;  216.375;    0.000
531.523; 4053.225;  234.375;    0.000
531.654; 4097.225;  256.375;    0.000
531.786; 4060.225;  226.375;    0.000
531.917; 4145.225;  239.375;    0.000
532.048; 4116.225;  205.375;    0.000
532.179; 3989.225;  244.375;    0.000
532.311; 4063.225;  235.375;    0.000
532.442; 4170.225;  258.375;    0.000
532.573; 4099.225;  220.375;    0.000
532.704; 4138.225;  213.375;    0.000
532.835; 4085.225;  249.375;    0.000
532.966; 4024.225;  226.375;    0.000
533.097; 3959.225;  246.375;    0.000
533.229; 4020.225;  237.375;    0.000
533.360; 3931.225;  225.375;    0.000
533.491; 4005.225;  241.375;    0.000
533.622; 4082.225;  242.375;    0.000
533.753; 3942.225;  264.375;    0.000
533.884; 4054.225;  245.375;    0.000
534.015; 3938.225;  269.375;    0.000
534.146; 3935.225;  267.375;    0.000
534.277; 4041.225;  282.375;    0.000
534.408; 4001.225;  229.375;    0.000
534.539; 4055.225;  269.375;    0.000
534.670; 4039.225;  231.375;    0.000
534.801; 3972.225;  260.375;    0.000
534.932; 3933.225;  232.375;    0.000
535.063; 4093.225;  227.375;    0.000
535.194; 3954.225;  281.375;    0.000
535.324; 3866.225;  206.375;    0.000
535.455; 3990.225;  257.375;    0.000
535.586; 3921.225;  275.375;    0.000
535.717; 3987.225;  206.375;    0.000
535.848; 3951.225;  271.375;    0.000
535.979; 3949.225;  250.375;    0.000
536.109; 4001.225;  253.375;    0.000
536.240; 3887.225;  234.375;    0.000
536.371; 3838.225;  230.375;    0.000
536.502; 3938.225;  270.375;    0.000
536.632; 3941.225;  228.375;    0.000
536.763; 3791.225;  249.375;    0.000
536.894; 3968.225;  262.375;    0.000
537.025; 3833.225;  258.375;    0.000
537.155; 3943.225;  278.375;    0.000
537.286; 3843.225;  209.375;    0.000
537.417; 3884.225;  255.375;    0.000
537.547; 3834.225;  208.375;    0.000
537.678; 3817.225;  224.375;    0.000
537.808; 3830.225;  224.375;    0.000
537.939; 3862.225;  257.375;    0.000
538.070; 3954.225;  240.375;    0.000
538.200; 3915.225;  259.375;    0.000
538.331; 3983.225;  235.375;    0.000
538.461; 3775.225;  251.375;    0.000
538.592; 3797.225;  245.375;    0.000
538.722; 3797.225;  239.375;    0.000
538.853; 3732.225;  216.375;    0.000
538.983; 3786.225;  226.375;    0.000
539.114; 3816.225;  240.375;    0.000
539.244; 3759.225;  237.375;    0.000
539.375; 3795.225;  198.375;    0.000
539.505; 3802.225;  263.375;    0.000
539.636; 3881.225;  226.375;    0.000
539.766; 3938.225;  229.375;    0.000
539.896; 3808.225;  219.375;    0.000
540.027; 3796.225;  246.375;    0.000
540.157; 3719.225;  218.375;    0.000
540.287; 3749.225;  216.375;    0.000
540.418; 3853.225;  267.375;    0.000
540.548; 3854.225;  260.375;    0.000
540.678; 3822.225;  242.375;    0.000
540.809; 3888.225;  260.375;    0.000
540.939; 3879.225;  257.375;    0.000
541.069; 3869.225;  226.375;    0.000
541.200; 3709.225;  227.375;    0.000
541.330; 3841.225;  218.375;    0.000
541.460; 3926.225;  223.375;    0.000
541.590; 3782.225;  237.375;    0.000
541.720; 3791.225;  222.375;    0.000
541.851; 3783.225;  250.375;    0.000
541.981; 3865.225;  222.375;    0.000
542.111; 3823.225;  212.375;    0.000
542.241; 3865.225;  205.375;    0.000
542.371; 3890.225;  202.375;    0.000
542.501; 4014.225;  218.375;    0.000
542.631; 3957.225;  222.375;    0.000
542.761; 4046.225;  249.375;    0.000
542.891; 3965.225;  173.375;    0.000
543.021; 3953.225;  218.375;    0.000
543.151; 3945.225;  222.375;    0.000
543.281; 4053.225;  188.375;    0.000
543.411; 3861.225;  239.375;    0.000
543.542; 3967.225;  215.375;    0.000
543.671; 3993.225;  250.375;    0.000
543.801; 3841.225;  212.375;    0.000
543.931; 3991.225;  233.375;    0.000
544.061; 3889.225;  194.375;    0.000
544.191; 4022.225;  218.375;    0.000
544.321; 3775.225;  220.375;    0.000
544.451; 3915.225;  183.375;    0.000
544.581; 3974.225;  221.375;    0.000
544.711; 4005.225;  224.375;    0.000
544.841; 4027.225;  214.375;    0.000
544.970; 4144.225;  227.375;    0.000
545.100; 4114.225;  186.375;    0.000
545.230; 4067.225;  205.375;    0.000
545.360; 4145.225;  211.375;    0.000
545.490; 4028.225;  202.375;    0.000
545.619; 4028.225;  182.375;    0.000
545.749; 3975.225;  174.375;    0.000
545.879; 3940.225;  169.375;    0.000
546.009; 3883.225;  182.375;    0.000
546.138; 3892.225;  200.375;    0.000
546.268; 3908.225;  204.375;    0.000
546.398; 3902.225;  200.375;    0.000
546.527; 3816.225;  179.375;    0.000
546.657; 3856.225;  162.375;    0.000
546.786; 4008.225;  179.375;    0.000
546.916; 4020.225;  221.375;    0.000
547.046; 3987.225;  179.375;    0.000
547.175; 3844.225;  168.375;    0.000
547.305; 4046.225;  200.375;    0.000
547.434; 4044.225;  166.375;    0.000
547.564; 3954.225;  177.375;    0.000
547.693; 4008.225;  152.375;    0.000
547.823; 3998.225;  171.375;    0.000
547.953; 3975.225;  195.375;    0.000
548.082; 4040.225;  214.375;    0.000
548.211; 3925.225;  177.375;    0.000
548.341; 3946.225;  189.375;    0.000
548.470; 4079.225;  194.375;    0.000
548.600; 4126.225;  172.375;    0.000
548.729; 4088.225;  158.375;    0.000
548.859; 4135.225;  193.375;    0.000
548.988; 3967.225;  131.375;    0.000
549.117; 3996.225;  204.375;    0.000
549.247; 3993.225;  191.375;    0.000
549.376; 3992.225;  202.375;    0.000
549.505; 4040.225;  187.375;    0.000
549.635; 4014.225;  198.375;    0.000
549.764; 4120.225;  155.375;    0.000
549.893; 4071.225;  176.375;    0.000
550.023; 4048.225;  202.375;    0.000
550.152; 4098.225;  168.375;    0.000
550.281; 4207.225;  180.375;    0.000
550.410; 4030.225;  180.375;    0.000
550.539; 4058.225;  181.375;    0.000
550.669; 4154.225;  168.375;    0.000
550.798; 4157.225;  223.375;    0.000
550.927; 4176.225;  179.375;    0.000
551.056; 4091.225;  159.375;    0.000
551.185; 4069.225;  199.375;    0.000
551.314; 3995.225;  185.375;    0.000
551.443; 3975.225;  172.375;    0.000
551.573; 4114.225;  158.375;    0.000
551.702; 4244.225;  210.375;    0.000
551.831; 4125.225;  238.375;    0.000
551.960; 4084.225;  191.375;    0.000
552.089; 4222.225;  195.375;    0.000
552.218; 4111.225;  196.375;    0.000
552.347; 4212.225;  194.375;    0.000
552.476; 4311.225;  192.375;    0.000
552.605; 4316.225;  172.375;    0.000
552.734; 4499.225;  214.375;    0.000
552.863; 4726.225;  177.375;    0.000
552.992; 4702.225;  190.375;    0.000
553.121; 4548.225;  185.375;    0.000
553.249; 4598.225;  175.375;    0.000
553.378; 4620.225;  192.375;    0.000
553.507; 4597.225;  193.375;    0.000
553.636; 4435.225;  182.375;    0.000
553.765; 4486.225;  187.375;    0.000
553.894; 4333.225;  214.375;    0.000
554.023; 4344.225;  217.375;    0.000
554.151; 4307.225;  223.375;    0.000
554.280; 4272.225;  170.375;    0.000
554.409; 4151.225;  172.375;    0.000
554.538; 4199.225;  182.375;    0.000
554.666; 4186.225;  195.375;    0.000
554.795; 4202.225;  176.375;    0.000
554.924; 4206.225;  164.375;    0.000
555.052; 4118.225;  171.375;    0.000
555.181; 4252.225;  208.375;    0.000
555.310; 4129.225;  214.375;    0.000
555.439; 4119.225;  193.375;    0.000
555.567; 3995.225;  189.375;    0.000
555.696; 4081.225;  196.375;    0.000
555.824; 4030.225;  183.375;    0.000
555.953; 4019.225;  234.375;    0.000
556.082; 3864.225;  183.375;    0.000
556.210; 3882.225;  199.375;    0.000
556.339; 4021.225;  201.375;    0.000
556.467; 4073.225;  208.375;    0.000
556.596; 3994.225;  194.375;    0.000
556.724; 3920.225;  170.375;    0.000
556.853; 4003.225;  166.375;    0.000
556.981; 3917.225;  185.375;    0.000
557.110; 4013.225;  213.375;    0.000
557.238; 3999.225;  188.375;    0.000
557.367; 3892.225;  176.375;    0.000
557.495; 3918.225;  180.375;    0.000
557.623; 3949.225;  193.375;    0.000
557.752; 3949.225;  207.375;    0.000
557.880; 3768.225;  189.375;    0.000
558.008; 3918.225;  169.375;    0.000
558.137; 4027.225;  203.375;    0.000
558.265; 3929.225;  167.375;    0.000
558.393; 3943.225;  204.375;    0.000
558.522; 3968.225;  203.375;    0.000
558.650; 4005.225;  215.375;    0.000
558.778; 4000.225;  190.375;    0.000
558.906; 4125.225;  186.375;    0.000
559.035; 4096.225;  193.375;    0.000
559.163; 3938.225;  198.375;    0.000
559.291; 3985.225;  222.375;    0.000
559.419; 4032.225;  192.375;    0.000
559.548; 3941.225;  186.375;    0.000
559.676; 4050.225;  199.375;    0.000
559.804; 4031.225;  186.375;    0.000
559.932; 4021.225;  202.375;    0.000
560.060; 3936.225;  183.375;    0.000
560.188; 4025.225;  212.375;    0.000
560.316; 3899.225;  192.375;    0.000
560.444; 4026.225;  180.375;    0.000
560.572; 3933.225;  206.375;    0.000
560.700; 4162.225;  184.375;    0.000
560.828; 4103.225;  177.375;    0.000
560.956; 4078.225;  221.375;    0.000
561.085; 4161.225;  227.375;    0.000
561.212; 4001.225;  208.375;    0.000
561.340; 4039.225;  189.375;    0.000
561.468; 4128.225;  189.375;    0.000
561.596; 4095.225;  183.375;    0.000
561.724; 4073.225;  188.375;    0.000
561.852; 4101.225;  183.375;    0.000
561.980; 4026.225;  209.375;    0.000
562.108; 4036.225;  165.375;    0.000
562.236; 4036.225;  188.375;    0.000
562.364; 4171.225;  177.375;    0.000
562.492; 4071.225;  192.375;    0.000
562.619; 4075.225;  187.375;    0.000
562.747; 4100.225;  217.375;    0.000
562.875; 4190.225;  221.375;    0.000
563.003; 4230.225;  199.375;    0.000
563.130; 4222.225;  191.375;    0.000
563.258; 4230.225;  186.375;    0.000
563.386; 4232.225;  191.375;    0.000
563.514; 4337.225;  217.375;    0.000
563.641; 4401.225;  220.375;    0.000
563.769; 4291.225;  186.375;    0.000
563.897; 4391.225;  158.375;    0.000
564.024; 4582.225;  192.375;    0.000
564.152; 4597.225;  217.375;    0.000
564.280; 4365.225;  203.375;    0.000
564.407; 4514.225;  190.375;    0.000
564.535; 4782.225;  188.375;    0.000
564.662; 4661.225;  199.375;    0.000
564.790; 4629.225;  227.375;    0.000
564.917; 4629.225;  160.375;    0.000
565.045; 4677.225;  222.375;    0.000
565.173; 4761.225;  169.375;    0.000
565.300; 4755.225;  208.375;    0.000
565.428; 4855.225;  174.375;    0.000
565.555; 4951.225;  201.375;    0.000
565.682; 4985.225;  180.375;    0.000
565.810; 5221.225;  165.375;    0.000
565.937; 5330.225;  167.375;    0.000
566.065; 5340.225;  190.375;    0.000
566.192; 5570.225;  169.375;    0.000
566.320; 5559.225;  167.375;    0.000
566.447; 5831.225;  151.375;    0.000
566.574; 5759.225;  176.375;    0.000
566.702; 6070.225;  198.375;    0.000
566.829; 5911.225;  209.375;    0.000
566.956; 6078.225;  186.375;    0.000
567.083; 6062.225;  188.375;    0.000
567.211; 6152.225;  159.375;    0.000
567.338; 6171.225;  204.375;    0.000
567.465; 6176.225;  141.375;    0.000
567.593; 6383.225;  168.375;    0.000
567.720; 6435.225;  177.375;    0.000
567.847; 6432.225;  160.375;    0.000
567.974; 6484.225;  139.375;    0.000
568.101; 6414.225;  153.375;    0.000
568.228; 6402.225;  173.375;    0.000
568.356; 6106.225;  149.375;    0.000
568.483; 5866.225;  185.375;    0.000
568.610; 5830.225;  170.375;    0.000
568.737; 5929.225;  223.375;    0.000
568.864; 6057.225;  167.375;    0.000
568.991; 5707.225;  177.375;    0.000
569.118; 5213.225;  169.375;    0.000
569.245; 5115.225;  128.375;    0.000
569.372; 5101.225;  160.375;    0.000
569.499; 5001.225;  156.375;    0.000
569.626; 4920.225;  191.375;    0.000
569.753; 4805.225;  163.375;    0.000
569.880; 4708.225;  167.375;    0.000
570.007; 4635.225;  143.375;    0.000
570.134; 4793.225;  191.375;    0.000
570.261; 4630.225;  164.375;    0.000
570.388; 4579.225;  162.375;    0.000
570.515; 4688.225;  220.375;    0.000
570.642; 4616.225;  184.375;    0.000
570.768; 4695.225;  174.375;    0.000
570.895; 4477.225;  177.375;    0.000
571.022; 4642.225;  152.375;    0.000
571.149; 4642.225;  183.375;    0.000
571.276; 4488.225;  153.375;    0.000
571.402; 4480.225;  190.375;    0.000
571.529; 4455.225;  187.375;    0.000
571.656; 4351.225;  167.375;    0.000
571.783; 4429.225;  186.375;    0.000
571.909; 4352.225;  183.375;    0.000
572.036; 4402.225;  162.375;    0.000
572.163; 4254.225;  196.375;    0.000
572.289; 4380.225;  180.375;    0.000
572.416; 4159.225;  190.375;    0.000
572.543; 4156.225;  174.375;    0.000
572.669; 4157.225;  186.375;    0.000
572.796; 4171.225;  205.375;    0.000
572.922; 4100.225;  185.375;    0.000
573.049; 4010.225;  178.375;    0.000
573.176; 4148.225;  196.375;    0.000
573.302; 4133.225;  202.375;    0.000
573.429; 4186.225;  189.375;    0.000
573.555; 4116.225;  145.375;    0.000
573.682; 4069.225;  228.375;    0.000
573.808; 4066.225;  197.375;    0.000
573.935; 4069.225;  216.375;    0.000
574.061; 4089.225;  173.375;    0.000
574.188; 3966.225;  151.375;    0.000
574.314; 4125.225;  181.375;    0.000
574.440; 3931.225;  167.375;    0.000
574.567; 3977.225;  185.375;    0.000
574.693; 4003.225;  173.375;    0.000
574.820; 3993.225;  164.375;    0.000
574.946; 4043.225;  199.375;    0.000
575.072; 4096.225;  162.375;    0.000
575.198; 4049.225;  225.375;    0.000
575.325; 3994.225;  171.375;    0.000
575.451; 3993.225;  183.375;    0.000
575.577; 4080.225;  190.375;    0.000
575.704; 4040.225;  210.375;    0.000
575.830; 3991.225;  185.375;    0.000
575.956; 3987.225;  168.375;    0.000
576.082; 4021.225;  158.375;    0.000
576.208; 3912.225;  158.375;    0.000
576.335; 3892.225;  196.375;    0.000
576.461; 4096.225;  187.375;    0.000
576.587; 3880.225;  157.375;    0.000
576.713; 3933.225;  156.375;    0.000
576.839; 3988.225;  196.375;    0.000
576.965; 4028.225;  187.375;    0.000
577.091; 3992.225;  204.375;    0.000
577.217; 4054.225;  207.375;    0.000
577.343; 3959.225;  175.375;    0.000
577.469; 3878.225;  197.375;    0.000
577.596; 3858.225;  182.375;    0.000
577.722; 3954.225;  159.375;    0.000
577.848; 3755.225;  162.375;    0.000
577.974; 3924.225;  180.375;    0.000
578.099; 3757.225;  161.375;    0.000
578.225; 3961.225;  180.375;    0.000
578.351; 3973.225;  190.375;    0.000
578.477; 3878.225;  212.375;    0.000
578.603; 3878.225;  179.375;    0.000
578.729; 3943.225;  195.375;    0.000
578.855; 3893.225;  153.375;    0.000
578.981; 3911.225;  162.375;    0.000
579.107; 3839.225;  149.375;    0.000
579.232; 3929.225;  164.375;    0.000
579.358; 3880.225;  162.375;    0.000
579.484; 3841.225;  181.375;    0.000
579.610; 3896.225;  190.375;    0.000
579.735; 3892.225;  191.375;    0.000
579.861; 3913.225;  189.375;    0.000
579.987; 3886.225;  202.375;    0.000
580.113; 3807.225;  197.375;    0.000
580.238; 3770.225;  228.375;    0.000
580.364; 3796.225;  212.375;    0.000
580.490; 3861.225;  225.375;    0.000
580.615; 3913.225;  218.375;    0.000
580.741; 3918.225;  167.375;    0.000
580.867; 3823.225;  215.375;    0.000
580.992; 3942.225;  191.375;    0.000
581.118; 3825.225;  171.375;    0.000
581.243; 3883.225;  204.375;    0.000
581.369; 3847.225;  186.375;    0.000
581.494; 3878.225;  184.375;    0.000
581.620; 3759.225;  212.375;    0.000
581.745; 3893.225;  192.375;    0.000
581.871; 3896.225;  195.375;    0.000
581.996; 3924.225;  160.375;    0.000
582.122; 3931.225;  217.375;    0.000
582.247; 3726.225;  213.375;    0.000
582.373; 3881.225;  187.375;    0.000
582.498; 3952.225;  208.375;    0.000
582.624; 3948.225;  189.375;    0.000
582.749; 3934.225;  185.375;    0.000
582.874; 3835.225;  195.375;    0.000
583.000; 3811.225;  208.375;    0.000
583.125; 3838.225;  147.375;    0.000
583.250; 3922.225;  201.375;    0.000
583.376; 3887.225;  191.375;    0.000
583.501; 3922.225;  206.375;    0.000
583.626; 3862.225;  167.375;    0.000
583.751; 3919.225;  180.375;    0.000
583.877; 4039.225;  185.375;    0.000
584.002; 3896.225;  186.375;    0.000
584.127; 3877.225;  176.375;    0.000
584.252; 3955.225;  214.375;    0.000
584.377; 3896.225;  225.375;    0.000
584.503; 3978.225;  195.375;    0.000
584.628; 4002.225;  206.375;    0.000
584.753; 3851.225;  181.375;    0.000
584.878; 4022.225;  136.375;    0.000
585.003; 3926.225;  215.375;    0.000
585.128; 3965.225;  206.375;    0.000
585.253; 4071.225;  200.375;    0.000
585.378; 4050.225;  169.375;    0.000
585.503; 4003.225;  191.375;    0.000
585.628; 4019.225;  182.375;    0.000
585.753; 3979.225;  164.375;    0.000
585.878; 4020.225;  123.375;    0.000
586.003; 4017.225;  187.375;    0.000
586.128; 4012.225;  198.375;    0.000
586.253; 4100.225;  172.375;    0.000
586.378; 4060.225;  191.375;    0.000
586.503; 4256.225;  190.375;    0.000
586.628; 4149.225;  178.375;    0.000
586.753; 4286.225;  184.375;    0.000
586.878; 4226.225;  169.375;    0.000
587.003; 4228.225;  186.375;    0.000
587.127; 4240.225;  170.375;    0.000
587.252; 4311.225;  170.375;    0.000
587.377; 4509.225;  181.375;    0.000
587.502; 4475.225;  209.375;    0.000
587.627; 4592.225;  210.375;    0.000
587.751; 4652.225;  212.375;    0.000
587.876; 4770.225;  198.375;    0.000
588.001; 4885.225;  161.375;    0.000
588.125; 5016.225;  191.375;    0.000
588.250; 5446.225;  132.375;    0.000
588.375; 5968.225;  183.375;    0.000
588.499; 6673.225;  176.375;    0.000
588.624; 8195.225;  173.375;    0.000
588.749;12306.225;  204.375;    0.000
588.873;26103.225;  179.375;    0.000
588.998;41488.227;  182.375;    0.000
589.122;33561.227;  165.375;    0.000
589.247;18152.225;  185.375;    0.000
589.372;14753.225;  199.375;    0.000
589.496;25170.225;  182.375;    0.000
589.621;32898.227;  158.375;    0.000
589.745;23269.225;  213.375;    0.000
589.870;11770.225;  175.375;    0.000
589.994; 8169.225;  194.375;    0.000
590.118; 6989.225;  218.375;    0.000
590.243; 6291.225;  170.375;    0.000
590.367; 5887.225;  189.375;    0.000
590.492; 5529.225;  196.375;    0.000
590.616; 5245.225;  182.375;    0.000
590.740; 5149.225;  210.375;    0.000
590.865; 4980.225;  242.375;    0.000
590.989; 4988.225;  191.375;    0.000
591.114; 4897.225;  167.375;    0.000
591.238; 4693.225;  194.375;    0.000
591.362; 4697.225;  236.375;    0.000
591.486; 4702.225;  194.375;    0.000
591.611; 4778.225;  154.375;    0.000
591.735; 4735.225;  186.375;    0.000
591.859; 4651.225;  148.375;    0.000
591.983; 4703.225;  211.375;    0.000
592.107; 4657.225;  204.375;    0.000
592.232; 4635.225;  194.375;    0.000
592.356; 4722.225;  238.375;    0.000
592.480; 4744.225;  179.375;    0.000
592.604; 4640.225;  192.375;    0.000
592.728; 4795.225;  201.375;    0.000
592.852; 4820.225;  158.375;    0.000
592.976; 4657.225;  152.375;    0.000
593.100; 4774.225;  194.375;    0.000
593.224; 4896.225;  235.375;    0.000
593.349; 4822.225;  233.375;    0.000
593.473; 4774.225;  194.375;    0.000
593.597; 4805.225;  215.375;    0.000
593.721; 4865.225;  212.375;    0.000
593.844; 4736.225;  220.375;    0.000
593.968; 4781.225;  221.375;    0.000
594.092; 4785.225;  150.375;    0.000
594.216; 4791.225;  212.375;    0.000
594.340; 4711.225;  209.375;    0.000
594.464; 4682.225;  207.375;    0.000
594.588; 4625.225;  195.375;    0.000
594.712; 4549.225;  176.375;    0.000
594.836; 4554.225;  219.375;    0.000
594.959; 4532.225;  215.375;    0.000
595.083; 4401.225;  200.375;    0.000
595.207; 4465.225;  206.375;    0.000
595.331; 4347.225;  207.375;    0.000
595.455; 4241.225;  206.375;    0.000
595.578; 4256.225;  204.375;    0.000
595.702; 4365.225;  225.375;    0.000
595.826; 4233.225;  186.375;    0.000
595.949; 4188.225;  196.375;    0.000
596.073; 4195.225;  188.375;    0.000
596.197; 4140.225;  217.375;    0.000
596.320; 4197.225;  225.375;    0.000
596.444; 4111.225;  220.375;    0.000
596.568; 4082.225;  155.375;    0.000
596.691; 4124.225;  195.375;    0.000
596.815; 4076.225;  163.375;    0.000
596.938; 4123.225;  181.375;    0.000
597.062; 3946.225;  201.375;    0.000
597.186; 3935.225;  200.375;    0.000
597.309; 3958.225;  214.375;    0.000
597.433; 4054.225;  176.375;    0.000
597.556; 3784.225;  193.375;    0.000
597.680; 3957.225;  241.375;    0.000
597.803; 3840.225;  185.375;    0.000
597.926; 3971.225;  200.375;    0.000
598.050; 3827.225;  193.375;    0.000
598.173; 3892.225;  219.375;    0.000
598.297; 3873.225;  223.375;    0.000
598.420; 3834.225;  187.375;    0.000
598.543; 3780.225;  205.375;    0.000
598.667; 3748.225;  177.375;    0.000
598.790; 3738.225;  208.375;    0.000
598.913; 3841.225;  170.375;    0.000
599.037; 3897.225;  212.375;    0.000
599.160; 3840.225;  165.375;    0.000
599.283; 3790.225;  211.375;    0.000
599.406; 3713.225;  207.375;    0.000
599.530; 3855.225;  182.375;    0.000
599.653; 3761.225;  215.375;    0.000
599.776; 3734.225;  167.375;    0.000
599.899; 3835.225;  190.375;    0.000
600.022; 3773.225;  182.375;    0.000
600.145; 3664.225;  180.375;    0.000
600.269; 3719.225;  208.375;    0.000
600.392; 3751.225;  214.375;    0.000
600.515; 3730.225;  196.375;    0.000
600.638; 3763.225;  204.375;    0.000
600.761; 3694.225;  209.375;    0.000
600.884; 3668.225;  207.375;    0.000
601.007; 3778.225;  234.375;    0.000
601.130; 3661.225;  183.375;    0.000
601.253; 3672.225;  211.375;    0.000
601.376; 3701.225;  199.375;    0.000
601.499; 3536.225;  190.375;    0.000
601.622; 3673.225;  210.375;    0.000
601.745; 3793.225;  180.375;    0.000
601.868; 3718.225;  204.375;    0.000
601.991; 3707.225;  188.375;    0.000
602.113; 3628.225;  210.375;    0.000
602.236; 3759.225;  194.375;    0.000
602.359; 3631.225;  213.375;    0.000
602.482; 3615.225;  169.375;    0.000
602.605; 3752.225;  189.375;    0.000
602.728; 3616.225;  236.375;    0.000
602.850; 3662.225;  230.375;    0.000
602.973; 3692.225;  187.375;    0.000
603.096; 3630.225;  201.375;    0.000
603.219; 3650.225;  209.375;    0.000
603.341; 3740.225;  209.375;    0.000
603.464; 3613.225;  194.375;    0.000
603.587; 3598.225;  166.375;    0.000
603.709; 3621.225;  175.375;    0.000
603.832; 3727.225;  239.375;    0.000
603.955; 3584.225;  205.375;    0.000
604.077; 3519.225;  196.375;    0.000
604.200; 3593.225;  188.375;    0.000
604.323; 3617.225;  224.375;    0.000
604.445; 3624.225;  182.375;    0.000
604.568; 3606.225;  199.375;    0.000
604.690; 3482.225;  175.375;    0.000
604.813; 3645.225;  211.375;    0.000
604.935; 3681.225;  171.375;    0.000
605.058; 3572.225;  196.375;    0.000
605.180; 3663.225;  194.375;    0.000
605.303; 3595.225;  198.375;    0.000
605.425; 3611.225;  212.375;    0.000
605.547; 3609.225;  238.375;    0.000
605.670; 3548.225;  207.375;    0.000
605.792; 3638.225;  204.375;    0.000
605.915; 3596.225;  198.375;    0.000
606.037; 3552.225;  215.375;    0.000
606.159; 3599.225;  170.375;    0.000
606.282; 3532.225;  194.375;    0.000
606.404; 3605.225;  207.375;    0.000
606.526; 3582.225;  208.375;    0.000
606.648; 3502.225;  174.375;    0.000
606.771; 3562.225;  170.375;    0.000
606.893; 3530.225;  182.375;    0.000
607.015; 3537.225;  180.375;    0.000
607.137; 3459.225;  187.375;    0.000
607.260; 3591.225;  202.375;    0.000
607.382; 3575.225;  226.375;    0.000
607.504; 3461.225;  208.375;    0.000
607.626; 3527.225;  229.375;    0.000
607.748; 3598.225;  170.375;    0.000
607.870; 3494.225;  208.375;    0.000
607.992; 3482.225;  184.375;    0.000
608.114; 3475.225;  213.375;    0.000
608.237; 3622.225;  237.375;    0.000
608.359; 3411.225;  176.375;    0.000
608.481; 3525.225;  173.375;    0.000
608.603; 3573.225;  189.375;    0.000
608.725; 3488.225;  185.375;    0.000
608.847; 3533.225;  239.375;    0.000
608.969; 3628.225;  237.375;    0.000
609.090; 3565.225;  189.375;    0.000
609.212; 3421.225;  147.375;    0.000
609.334; 3510.225;  177.375;    0.000
609.456; 3543.225;  196.375;    0.000
609.578; 3472.225;  199.375;    0.000
609.700; 3387.225;  167.375;    0.000
609.822; 3513.225;  140.375;    0.000
609.944; 3413.225;  225.375;    0.000
610.065; 3570.225;  183.375;    0.000
610.187; 3502.225;  170.375;    0.000
610.309; 3492.225;  210.375;    0.000
610.431; 3473.225;  185.375;    0.000
610.552; 3547.225;  197.375;    0.000
610.674; 3513.225;  188.375;    0.000
610.796; 3485.225;  162.375;    0.000
610.918; 3536.225;  200.375;    0.000
611.039; 3497.225;  209.375;    0.000
611.161; 3486.225;  201.375;    0.000
611.282; 3495.225;  197.375;    0.000
611.404; 3551.225;  220.375;    0.000
611.526; 3380.225;  159.375;    0.000
611.647; 3577.225;  205.375;    0.000
611.769; 3425.225;  161.375;    0.000
611.890; 3368.225;  173.375;    0.000
612.012; 3510.225;  225.375;    0.000
612.133; 3566.225;  188.375;    0.000
612.255; 3597.225;  217.375;    0.000
612.377; 3637.225;  219.375;    0.000
612.498; 3474.225;  177.375;    0.000
612.619; 3625.225;  211.375;    0.000
612.741; 3473.225;  185.375;    0.000
612.862; 3491.225;  191.375;    0.000
612.984; 3385.225;  190.375;    0.000
613.105; 3431.225;  211.375;    0.000
613.226; 3493.225;  174.375;    0.000
613.348; 3549.225;  235.375;    0.000
613.469; 3424.225;  230.375;    0.000
613.590; 3511.225;  208.375;    0.000
613.712; 3420.225;  244.375;    0.000
613.833; 3463.225;  202.375;    0.000
613.954; 3479.225;  228.375;    0.000
614.076; 3494.225;  220.375;    0.000
614.197; 3470.225;  191.375;    0.000
614.318; 3522.225;  201.375;    0.000
614.439; 3394.225;  212.375;    0.000
614.560; 3564.225;  219.375;    0.000
614.682; 3383.225;  189.375;    0.000
614.803; 3483.225;  188.375;    0.000
614.924; 3461.225;  225.375;    0.000
615.045; 3435.225;  227.375;    0.000
615.166; 3480.225;  200.375;    0.000
615.287; 3360.225;  195.375;    0.000
615.408; 3588.225;  199.375;    0.000
615.529; 3465.225;  227.375;    0.000
615.650; 3632.225;  176.375;    0.000
615.771; 3510.225;  211.375;    0.000
615.892; 3554.225;  212.375;    0.000
616.013; 3528.225;  172.375;    0.000
616.134; 3915.225;  220.375;    0.000
616.255; 3934.225;  251.375;    0.000
616.376; 3657.225;  186.375;    0.000
616.497; 3555.225;  201.375;    0.000
616.618; 3552.225;  149.375;    0.000
616.739; 3554.225;  213.375;    0.000
616.860; 3593.225;  224.375;    0.000
616.981; 3565.225;  224.375;    0.000
617.102; 3532.225;  217.375;    0.000
617.222; 3530.225;  237.375;    0.000
617.343; 3457.225;  205.375;    0.000
617.464; 3489.225;  229.375;    0.000
617.585; 3541.225;  227.375;    0.000
617.705; 3472.225;  191.375;    0.000
617.826; 3591.225;  237.375;    0.000
617.947; 3409.225;  223.375;    0.000
618.068; 3443.225;  189.375;    0.000
618.188; 3469.225;  194.375;    0.000
618.309; 3456.225;  206.375;    0.000
618.430; 3438.225;  229.375;    0.000
618.550; 3415.225;  250.375;    0.000
618.671; 3368.225;  201.375;    0.000
618.791; 3449.225;  226.375;    0.000
618.912; 3408.225;  246.375;    0.000
619.033; 3429.225;  243.375;    0.000
619.153; 3456.225;  208.375;    0.000
619.274; 3386.225;  223.375;    0.000
619.394; 3451.225;  226.375;    0.000
619.515; 3446.225;  188.375;    0.000
619.635; 3477.225;  216.375;    0.000
619.756; 3374.225;  229.375;    0.000
619.876; 3407.225;  216.375;    0.000
619.996; 3356.225;  244.375;    0.000
620.117; 3429.225;  225.375;    0.000
620.237; 3419.225;  207.375;    0.000
620.358; 3501.225;  239.375;    0.000
620.478; 3382.225;  237.375;    0.000
620.598; 3444.225;  237.375;    0.000
620.719; 3355.225;  223.375;    0.000
620.839; 3358.225;  254.375;    0.000
620.959; 3377.225;  244.375;    0.000
621.079; 3437.225;  193.375;    0.000
621.200; 3342.225;  233.375;    0.000
621.320; 3372.225;  270.375;    0.000
621.440; 3347.225;  206.375;    0.000
621.560; 3367.225;  241.375;    0.000
621.681; 3333.225;  231.375;    0.000
621.801; 3281.225;  235.375;    0.000
621.921; 3390.225;  240.375;    0.000
622.041; 3362.225;  244.375;    0.000
622.161; 3282.225;  225.375;    0.000
622.281; 3431.225;  222.375;    0.000
622.401; 3361.225;  238.375;    0.000
622.521; 3345.225;  233.375;    0.000
622.641; 3329.225;  241.375;    0.000
622.761; 3311.225;  233.375;    0.000
622.882; 3324.225;  230.375;    0.000
623.002; 3337.225;  206.375;    0.000
623.121; 3283.225;  217.375;    0.000
623.241; 3375.225;  263.375;    0.000
623.361; 3314.225;  245.375;    0.000
623.481; 3256.225;  194.375;    0.000
623.601; 3257.225;  228.375;    0.000
623.721; 3278.225;  219.375;    0.000
623.841; 3364.225;  234.375;    0.000
623.961; 3189.225;  235.375;    0.000
624.081; 3250.225;  166.375;    0.000
624.201; 3273.225;  229.375;    0.000
624.320; 3257.225;  224.375;    0.000
624.440; 3246.225;  200.375;    0.000
624.560; 3277.225;  220.375;    0.000
624.680; 3287.225;  214.375;    0.000
624.799; 3279.225;  179.375;    0.000
624.919; 3309.225;  199.375;    0.000
625.039; 3239.225;  211.375;    0.000
625.159; 3371.225;  213.375;    0.000
625.278; 3178.225;  178.375;    0.000
625.398; 3254.225;  206.375;    0.000
625.518; 3149.225;  182.375;    0.000
625.637; 3252.225;  206.375;    0.000
625.757; 3252.225;  197.375;    0.000
625.876; 3163.225;  204.375;    0.000
625.996; 3251.225;  222.375;    0.000
626.115; 3335.225;  222.375;    0.000
626.235; 3254.225;  222.375;    0.000
626.354; 3208.225;  211.375;    0.000
626.474; 3176.225;  217.375;    0.000
626.594; 3208.225;  190.375;    0.000
626.713; 3196.225;  200.375;    0.000
626.832; 3209.225;  234.375;    0.000
626.952; 3172.225;  214.375;    0.000
627.071; 3220.225;  243.375;    0.000
627.191; 3212.225;  192.375;    0.000
627.310; 3094.225;  211.375;    0.000
627.429; 3205.225;  218.375;    0.000
627.549; 3124.225;  214.375;    0.000
627.668; 3180.225;  208.375;    0.000
627.787; 3224.225;  199.375;    0.000
627.907; 3143.225;  208.375;    0.000
628.026; 3181.225;  216.375;    0.000
628.145; 3230.225;  170.375;    0.000
628.264; 3190.225;  217.375;    0.000
628.384; 3190.225;  190.375;    0.000
628.503; 3174.225;  203.375;    0.000
628.622; 3215.225;  197.375;    0.000
628.741; 3119.225;  186.375;    0.000
628.860; 3173.225;  191.375;    0.000
628.980; 3163.225;  196.375;    0.000
629.099; 3207.225;  190.375;    0.000
629.218; 3142.225;  165.375;    0.000
629.337; 3216.225;  190.375;    0.000
629.456; 3145.225;  222.375;    0.000
629.575; 3120.225;  197.375;    0.000
629.694; 3148.225;  210.375;    0.000
629.813; 3153.225;  187.375;    0.000
629.932; 3194.225;  224.375;    0.000
630.051; 3153.225;  216.375;    0.000
630.170; 3124.225;  203.375;    0.000
630.289; 3098.225;  178.375;    0.000
630.408; 3181.225;  192.375;    0.000
630.527; 3171.225;  223.375;    0.000
630.646; 3113.225;  177.375;    0.000
630.764; 3198.225;  224.375;    0.000
630.883; 3281.225;  220.375;    0.000
631.002; 3051.225;  187.375;    0.000
631.121; 3144.225;  208.375;    0.000
631.240; 3093.225;  217.375;    0.000
631.359; 3185.225;  241.375;    0.000
631.477; 3191.225;  189.375;    0.000
631.596; 3252.225;  244.375;    0.000
631.715; 3240.225;  241.375;    0.000
631.834; 3167.225;  219.375;    0.000
631.952; 3115.225;  231.375;    0.000
632.071; 3110.225;  197.375;    0.000
632.190; 3158.225;  193.375;    0.000
632.308; 3128.225;  185.375;    0.000
632.427; 3080.225;  188.375;    0.000
632.546; 3150.225;  208.375;    0.000
632.664; 3193.225;  191.375;    0.000
632.783; 3037.225;  201.375;    0.000
632.901; 3180.225;  239.375;    0.000
633.020; 3108.225;  197.375;    0.000
633.138; 3095.225;  189.375;    0.000
633.257; 3151.225;  210.375;    0.000
633.375; 3171.225;  213.375;    0.000
633.494; 3138.225;  206.375;    0.000
633.612; 3150.225;  231.375;    0.000
633.731; 3150.225;  213.375;    0.000
633.849; 3196.225;  244.375;    0.000
633.968; 3162.225;  251.375;    0.000
634.086; 3091.225;  224.375;    0.000
634.204; 3093.225;  212.375;    0.000
634.323; 3141.225;  213.375;    0.000
634.441; 3224.225;  219.375;    0.000
634.559; 3203.225;  198.375;    0.000
634.678; 3242.225;  201.375;    0.000
634.796; 3213.225;  179.375;    0.000
634.914; 3067.225;  255.375;    0.000
635.032; 3218.225;  264.375;    0.000
635.151; 3068.225;  228.375;    0.000
635.269; 3073.225;  223.375;    0.000
635.387; 3145.225;  228.375;    0.000
635.505; 3150.225;  214.375;    0.000
635.623; 3197.225;  279.375;    0.000
635.742; 3154.225;  237.375;    0.000
635.860; 3091.225;  244.375;    0.000
635.978; 3035.225;  213.375;    0.000
636.096; 3097.225;  230.375;    0.000
636.214; 3109.225;  252.375;    0.000
636.332; 3213.225;  221.375;    0.000
636.450; 3058.225;  227.375;    0.000
636.568; 3196.225;  193.375;    0.000
636.686; 3093.225;  208.375;    0.000
636.804; 3069.225;  213.375;    0.000
636.922; 3159.225;  199.375;    0.000
637.040; 3079.225;  202.375;    0.000
637.158; 3126.225;  239.375;    0.000
637.276; 3107.225;  225.375;    0.000
637.394; 3133.225;  217.375;    0.000
637.512; 3100.225;  192.375;    0.000
637.629; 3040.225;  216.375;    0.000
637.747; 3081.225;  198.375;    0.000
637.865; 3194.225;  265.375;    0.000
637.983; 3059.225;  245.375;    0.000
638.101; 3014.225;  199.375;    0.000
638.218; 3136.225;  197.375;    0.000
638.336; 3151.225;  212.375;    0.000
638.454; 3165.225;  227.375;    0.000
638.572; 3238.225;  215.375;    0.000
638.689; 3011.225;  214.375;    0.000
638.807; 3146.225;  233.375;    0.000
638.925; 3110.225;  217.375;    0.000
639.042; 3135.225;  180.375;    0.000
639.160; 3101.225;  220.375;    0.000
639.278; 3056.225;  180.375;    0.000
639.395; 3159.225;  243.375;    0.000
639.513; 2999.225;  207.375;    0.000
639.630; 2994.225;  183.375;    0.000
639.748; 3051.225;  231.375;    0.000
639.865; 3044.225;  215.375;    0.000
639.983; 3022.225;  182.375;    0.000
640.100; 3158.225;  190.375;    0.000
640.218; 3011.225;  224.375;    0.000
640.335; 3064.225;  214.375;    0.000
640.453; 3126.225;  212.375;    0.000
640.570; 3075.225;  224.375;    0.000
640.688; 3135.225;  220.375;    0.000
640.805; 3142.225;  189.375;    0.000
640.922; 3156.225;  256.375;    0.000
641.040; 3143.225;  209.375;    0.000
641.157; 3110.225;  195.375;    0.000
641.274; 3144.225;  195.375;    0.000
641.391; 3015.225;  231.375;    0.000
641.509; 3140.225;  207.375;    0.000
641.626; 3088.225;  227.375;    0.000
641.743; 3107.225;  188.375;    0.000
641.860; 3074.225;  208.375;    0.000
641.978; 3068.225;  222.375;    0.000
642.095; 3118.225;  194.375;    0.000
642.212; 2962.225;  202.375;    0.000
642.329; 3156.225;  241.375;    0.000
642.446; 3119.225;  261.375;    0.000
642.563; 3124.225;  236.375;    0.000
642.681; 3041.225;  228.375;    0.000
642.798; 3199.225;  242.375;    0.000
642.915; 3158.225;  197.375;    0.000
643.032; 3164.225;  239.375;    0.000
643.149; 3196.225;  241.375;    0.000
643.266; 3183.225;  199.375;    0.000
643.383; 3136.225;  200.375;    0.000
643.500; 3187.225;  221.375;    0.000
643.617; 3140.225;  196.375;    0.000
643.734; 3092.225;  207.375;    0.000
643.850; 3344.225;  222.375;    0.000
643.967; 3396.225;  235.375;    0.000
644.084; 3302.225;  233.375;    0.000
644.201; 3224.225;  229.375;    0.000
644.318; 3240.225;  210.375;    0.000
644.435; 3166.225;  234.375;    0.000
644.552; 3152.225;  220.375;    0.000
644.668; 3329.225;  231.375;    0.000
644.785; 3336.225;  231.375;    0.000
644.902; 3228.225;  238.375;    0.000
645.019; 3309.225;  226.375;    0.000
645.135; 3298.225;  179.375;    0.000
645.252; 3293.225;  224.375;    0.000
645.369; 3320.225;  206.375;    0.000
645.485; 3342.225;  200.375;    0.000
645.602; 3321.225;  210.375;    0.000
645.719; 3359.225;  206.375;    0.000
645.835; 3377.225;  247.375;    0.000
645.952; 3384.225;  222.375;    0.000
646.068; 3435.225;  205.375;    0.000
646.185; 3515.225;  230.375;    0.000
646.302; 3532.225;  254.375;    0.000
646.418; 3399.225;  230.375;    0.000
646.535; 3540.225;  214.375;    0.000
646.651; 3474.225;  179.375;    0.000
646.768; 3496.225;  190.375;    0.000
646.884; 3576.225;  208.375;    0.000
647.000; 3492.225;  262.375;    0.000
647.117; 3544.225;  212.375;    0.000
647.233; 3581.225;  228.375;    0.000
647.350; 3502.225;  208.375;    0.000
647.466; 3684.225;  211.375;    0.000
647.582; 3636.225;  196.375;    0.000
647.699; 3714.225;  217.375;    0.000
647.815; 3717.225;  203.375;    0.000
647.931; 3717.225;  201.375;    0.000
648.047; 3764.225;  182.375;    0.000
648.164; 3740.225;  219.375;    0.000
648.280; 3843.225;  213.375;    0.000
648.396; 3787.225;  202.375;    0.000
648.512; 3913.225;  233.375;    0.000
648.629; 3808.225;  206.375;    0.000
648.745; 3814.225;  188.375;    0.000
648.861; 3824.225;  209.375;    0.000
648.977; 3820.225;  218.375;    0.000
649.093; 3919.225;  225.375;    0.000
649.209; 3874.225;  240.375;    0.000
649.325; 3983.225;  253.375;    0.000
649.441; 3844.225;  263.375;    0.000
649.557; 3978.225;  256.375;    0.000
649.673; 3920.225;  211.375;    0.000
649.789; 4013.225;  237.375;    0.000
649.905; 3882.225;  183.375;    0.000
650.021; 4052.225;  238.375;    0.000
650.137; 3993.225;  241.375;    0.000
650.253; 4064.225;  228.375;    0.000
650.369; 4037.225;  221.375;    0.000
650.485; 4061.225;  240.375;    0.000
650.601; 4214.225;  254.375;    0.000
650.717; 4153.225;  201.375;    0.000
650.833; 4222.225;  257.375;    0.000
650.948; 4247.225;  213.375;    0.000
651.064; 4321.225;  223.375;    0.000
651.180; 4315.225;  230.375;    0.000
651.296; 4293.225;  235.375;    0.000
651.411; 4389.225;  221.375;    0.000
651.527; 4320.225;  233.375;    0.000
651.643; 4337.225;  236.375;    0.000
651.759; 4538.225;  268.375;    0.000
651.874; 4499.225;  214.375;    0.000
651.990; 4719.225;  251.375;    0.000
652.105; 4652.225;  217.375;    0.000
652.221; 4691.225;  243.375;    0.000
652.337; 4749.225;  231.375;    0.000
652.452; 4880.225;  238.375;    0.000
652.568; 4804.225;  188.375;    0.000
652.683; 4932.225;  197.375;    0.000
652.799; 4902.225;  194.375;    0.000
652.914; 5021.225;  222.375;    0.000
653.030; 5060.225;  200.375;    0.000
653.145; 5170.225;  235.375;    0.000
653.261; 5216.225;  261.375;    0.000
653.376; 5291.225;  228.375;    0.000
653.492; 5537.225;  222.375;    0.000
653.607; 5480.225;  227.375;    0.000
653.722; 5645.225;  250.375;    0.000
653.838; 5886.225;  255.375;    0.000
653.953; 6004.225;  235.375;    0.000
654.068; 6167.225;  266.375;    0.000
654.184; 6316.225;  210.375;    0.000
654.299; 6515.225;  240.375;    0.000
654.414; 6619.225;  222.375;    0.000
654.530; 6766.225;  222.375;    0.000
654.645; 7070.225;  256.375;    0.000
654.760; 7272.225;  244.375;    0.000
654.875; 7414.225;  229.375;    0.000
654.990; 7828.225;  226.375;    0.000
655.106; 7951.225;  254.375;    0.000
655.221; 8329.225;  251.375;    0.000
655.336; 8762.225;  245.375;    0.000
655.451; 9029.225;  199.375;    0.000
655.566; 9524.225;  228.375;    0.000
655.681;10036.225;  208.375;    0.000
655.796;10717.225;  218.375;    0.000
655.911;11283.225;  233.375;    0.000
656.026;12075.225;  232.375;    0.000
656.141;13172.225;  223.375;    0.000
656.256;13734.225;  247.375;    0.000
656.371;13815.225;  220.375;    0.000
656.486;13516.225;  225.375;    0.000
656.601;13130.225;  257.375;    0.000
656.716;12398.225;  248.375;    0.000
656.831;12091.225;  262.375;    0.000
656.946;11572.225;  249.375;    0.000
657.060;11146.225;  245.375;    0.000
657.175;10373.225;  245.375;    0.000
657.290;10023.225;  219.375;    0.000
657.405; 9688.225;  286.375;    0.000
657.520; 9470.225;  259.375;    0.000
657.634; 9127.225;  239.375;    0.000
657.749; 8691.225;  227.375;    0.000
657.864; 8502.225;  210.375;    0.000
657.979; 8266.225;  236.375;    0.000
658.093; 7921.225;  210.375;    0.000
658.208; 7786.225;  248.375;    0.000
658.323; 7548.225;  216.375;    0.000
658.437; 7387.225;  248.375;    0.000
658.552; 7071.225;  249.375;    0.000
658.666; 6925.225;  256.375;    0.000
658.781; 6817.225;  247.375;    0.000
658.895; 6568.225;  209.375;    0.000
659.010; 6432.225;  219.375;    0.000
659.125; 6412.225;  215.375;    0.000
659.239; 6185.225;  205.375;    0.000
659.353; 6115.225;  246.375;    0.000
659.468; 5998.225;  245.375;    0.000
659.582; 5864.225;  244.375;    0.000
659.697; 5702.225;  242.375;    0.000
659.811; 5835.225;  239.375;    0.000
659.926; 5546.225;  226.375;    0.000
660.040; 5503.225;  255.375;    0.000
660.154; 5484.225;  225.375;    0.000
660.269; 5343.225;  200.375;    0.000
660.383; 5180.225;  192.375;    0.000
660.497; 5057.225;  218.375;    0.000
660.612; 5162.225;  236.375;    0.000
660.726; 5116.225;  263.375;    0.000
660.840; 4922.225;  205.375;    0.000
660.954; 4954.225;  219.375;    0.000
661.068; 4869.225;  240.375;    0.000
661.183; 4821.225;  221.375;    0.000
661.297; 4686.225;  194.375;    0.000
661.411; 4599.225;  253.375;    0.000
661.525; 4601.225;  246.375;    0.000
661.639; 4429.225;  217.375;    0.000
661.753; 4509.225;  241.375;    0.000
661.867; 4355.225;  276.375;    0.000
661.981; 4434.225;  203.375;    0.000
662.095; 4333.225;  224.375;    0.000
662.209; 4197.225;  217.375;    0.000
662.323; 4129.225;  251.375;    0.000
662.437; 4126.225;  243.375;    0.000
662.551; 4069.225;  244.375;    0.000
662.665; 3959.225;  247.375;    0.000
662.779; 3933.225;  251.375;    0.000
662.893; 3971.225;  254.375;    0.000
663.007; 3901.225;  222.375;    0.000
663.121; 3937.225;  253.375;    0.000
663.235; 3836.225;  270.375;    0.000
663.349; 3707.225;  242.375;    0.000
663.462; 3804.225;  230.375;    0.000
663.576; 3721.225;  230.375;    0.000
663.690; 3663.225;  249.375;    0.000
663.804; 3524.225;  200.375;    0.000
663.917; 3606.225;  204.375;    0.000
664.031; 3600.225;  206.375;    0.000
664.145; 3563.225;  202.375;    0.000
664.258; 3538.225;  221.375;    0.000
664.372; 3566.225;  215.375;    0.000
664.486; 3483.225;  179.375;    0.000
664.599; 3368.225;  208.375;    0.000
664.713; 3354.225;  268.375;    0.000
664.827; 3471.225;  225.375;    0.000
664.940; 3391.225;  222.375;    0.000
665.054; 3332.225;  208.375;    0.000
665.167; 3322.225;  253.375;    0.000
665.281; 3267.225;  237.375;    0.000
665.394; 3190.225;  227.375;    0.000
665.508; 3318.225;  192.375;    0.000
665.621; 3296.225;  175.375;    0.000
665.735; 3275.225;  249.375;    0.000
665.848; 3174.225;  197.375;    0.000
665.961; 3225.225;  206.375;    0.000
666.075; 3257.225;  245.375;    0.000
666.188; 3192.225;  230.375;    0.000
666.301; 3104.225;  219.375;    0.000
666.415; 3019.225;  231.375;    0.000
666.528; 3179.225;  258.375;    0.000
666.641; 3099.225;  243.375;    0.000
666.755; 3080.225;  208.375;    0.000
666.868; 3070.225;  228.375;    0.000
666.981; 3072.225;  244.375;    0.000
667.094; 3018.225;  244.375;    0.000
667.207; 3084.225;  226.375;    0.000
667.321; 2928.225;  175.375;    0.000
667.434; 2955.225;  211.375;    0.000
667.547; 2974.225;  249.375;    0.000
667.660; 2909.225;  225.375;    0.000
667.773; 2960.225;  242.375;    0.000
667.886; 2882.225;  246.375;    0.000
667.999; 2920.225;  244.375;    0.000
668.112; 2779.225;  227.375;    0.000
668.225; 2861.225;  231.375;    0.000
668.338; 2856.225;  256.375;    0.000
668.451; 2821.225;  216.375;    0.000
668.564; 2726.225;  261.375;    0.000
668.677; 2846.225;  230.375;    0.000
668.790; 2777.225;  192.375;    0.000
668.903; 2798.225;  243.375;    0.000
669.016; 2827.225;  201.375;    0.000
669.129; 2755.225;  249.375;    0.000
669.242; 2735.225;  190.375;    0.000
669.354; 2753.225;  219.375;    0.000
669.467; 2651.225;  242.375;    0.000
669.580; 2710.225;  237.375;    0.000
669.693; 2738.225;  243.375;    0.000
669.806; 2640.225;  234.375;    0.000
669.918; 2681.225;  206.375;    0.000
670.031; 2726.225;  258.375;    0.000
670.144; 2721.225;  231.375;    0.000
670.256; 2707.225;  244.375;    0.000
670.369; 2660.225;  262.375;    0.000
670.482; 2613.225;  264.375;    0.000
670.594; 2647.225;  256.375;    0.000
670.707; 2751.225;  224.375;    0.000
670.820; 2856.225;  261.375;    0.000
670.932; 2682.225;  226.375;    0.000
671.045; 2603.225;  243.375;    0.000
671.157; 2650.225;  235.375;    0.000
671.270; 2608.225;  217.375;    0.000
671.382; 2464.225;  267.375;    0.000
671.495; 2521.225;  258.375;    0.000
671.607; 2666.225;  236.375;    0.000
671.720; 2557.225;  200.375;    0.000
671.832; 2526.225;  219.375;    0.000
671.944; 2568.225;  234.375;    0.000
672.057; 2529.225;  226.375;    0.000
672.169; 2559.225;  225.375;    0.000
672.281; 2547.225;  253.375;    0.000
672.394; 2591.225;  238.375;    0.000
672.506; 2408.225;  244.375;    0.000
672.618; 2521.225;  272.375;    0.000
672.731; 2542.225;  247.375;    0.000
672.843; 2490.225;  261.375;    0.000
672.955; 2508.225;  262.375;    0.000
673.067; 2460.225;  253.375;    0.000
673.180; 2431.225;  239.375;    0.000
673.292; 2477.225;  240.375;    0.000
673.404; 2481.225;  243.375;    0.000
673.516; 2468.225;  258.375;    0.000
673.628; 2430.225;  263.375;    0.000
673.740; 2466.225;  250.375;    0.000
673.852; 2471.225;  285.375;    0.000
673.964; 2455.225;  264.375;    0.000
674.076; 2446.225;  260.375;    0.000
674.188; 2405.225;  226.375;    0.000
674.300; 2363.225;  272.375;    0.000
674.412; 2410.225;  259.375;    0.000
674.524; 2492.225;  283.375;    0.000
674.636; 2449.225;  259.375;    0.000
674.748; 2435.225;  238.375;    0.000
674.860; 2374.225;  277.375;    0.000
674.972; 2351.225;  272.375;    0.000
675.084; 2390.225;  244.375;    0.000
675.196; 2413.225;  272.375;    0.000
675.307; 2322.225;  244.375;    0.000
675.419; 2317.225;  219.375;    0.000
675.531; 2362.225;  275.375;    0.000
675.643; 2297.225;  215.375;    0.000
675.755; 2389.225;  243.375;    0.000
675.866; 2301.225;  223.375;    0.000
675.978; 2291.225;  216.375;    0.000
676.090; 2335.225;  242.375;    0.000
676.201; 2331.225;  276.375;    0.000
676.313; 2307.225;  226.375;    0.000
676.425; 2229.225;  234.375;    0.000
676.536; 2316.225;  231.375;    0.000
676.648; 2230.225;  254.375;    0.000
676.759; 2220.225;  273.375;    0.000
676.871; 2312.225;  250.375;    0.000
676.983; 2293.225;  256.375;    0.000
677.094; 2266.225;  210.375;    0.000
677.206; 2217.225;  248.375;    0.000
677.317; 2202.225;  263.375;    0.000
677.429; 2262.225;  238.375;    0.000
677.540; 2269.225;  247.375;    0.000
677.651; 2187.225;  224.375;    0.000
677.763; 2149.225;  217.375;    0.000
677.874; 2147.225;  234.375;    0.000
677.986; 2183.225;  238.375;    0.000
678.097; 2167.225;  226.375;    0.000
678.208; 2268.225;  253.375;    0.000
678.320; 2171.225;  217.375;    0.000
678.431; 2206.225;  238.375;    0.000
678.542; 2218.225;  236.375;    0.000
678.653; 2170.225;  218.375;    0.000
678.765; 2216.225;  275.375;    0.000
678.876; 2170.225;  213.375;    0.000
678.987; 2079.225;  182.375;    0.000
679.098; 2153.225;  221.375;    0.000
679.209; 2181.225;  238.375;    0.000
679.320; 2104.225;  212.375;    0.000
679.432; 2207.225;  231.375;    0.000
679.543; 2122.225;  198.375;    0.000
679.654; 2077.225;  191.375;    0.000
679.765; 2179.225;  214.375;    0.000
679.876; 2104.225;  221.375;    0.000
679.987; 2160.225;  162.375;    0.000
680.098; 2125.225;  230.375;    0.000
680.209; 2223.225;  206.375;    0.000
680.320; 2086.225;  196.375;    0.000
680.431; 2172.225;  191.375;    0.000
680.542; 2150.225;  214.375;    0.000
680.653; 2091.225;  238.375;    0.000
680.763; 2044.225;  182.375;    0.000
680.874; 2097.225;  213.375;    0.000
680.985; 2150.225;  224.375;    0.000
681.096; 2101.225;  222.375;    0.000
681.207; 2106.225;  220.375;    0.000
681.318; 2152.225;  216.375;    0.000
681.428; 2069.225;  229.375;    0.000
681.539; 2077.225;  183.375;    0.000
681.650; 2003.225;  202.375;    0.000
681.760; 2023.225;  223.375;    0.000
681.871; 1962.225;  211.375;    0.000
681.982; 2111.225;  189.375;    0.000
682.093; 2101.225;  222.375;    0.000
682.203; 2104.225;  220.375;    0.000
682.314; 2138.225;  214.375;    0.000
682.424; 2101.225;  208.375;    0.000
682.535; 2066.225;  213.375;    0.000
682.646; 2075.225;  302.375;    0.000
682.756; 2134.225;  255.375;    0.000
682.867; 2093.225;  244.375;    0.000
682.977; 2049.225;  221.375;    0.000
683.088; 2073.225;  259.375;    0.000
683.198; 2052.225;  212.375;    0.000
683.308; 2035.225;  202.375;    0.000
683.419; 2029.225;  255.375;    0.000
683.529; 2029.225;  217.375;    0.000
683.640; 2039.225;  240.375;    0.000
683.750; 1978.225;  181.375;    0.000
683.860; 2024.225;  246.375;    0.000
683.971; 2007.225;  254.375;    0.000
684.081; 2039.225;  235.375;    0.000
684.191; 2038.225;  251.375;    0.000
684.301; 2003.225;  233.375;    0.000
684.412; 1996.225;  202.375;    0.000
684.522; 1990.225;  232.375;    0.000
684.632; 2030.225;  202.375;    0.000
684.742; 2045.225;  254.375;    0.000
684.852; 2028.225;  219.375;    0.000
684.963; 2018.225;  256.375;    0.000
685.073; 1909.225;  253.375;    0.000
685.183; 2031.225;  254.375;    0.000
685.293; 2047.225;  232.375;    0.000
685.403; 2050.225;  242.375;    0.000
685.513; 2031.225;  261.375;    0.000
685.623; 1997.225;  245.375;    0.000
685.733; 2018.225;  254.375;    0.000
685.843; 2032.225;  249.375;    0.000
685.953; 2097.225;  252.375;    0.000
686.063; 1924.225;  227.375;    0.000
686.173; 2063.225;  223.375;    0.000
686.283; 1985.225;  234.375;    0.000
686.393; 1960.225;  239.375;    0.000
686.503; 1973.225;  231.375;    0.000
686.612; 2006.225;  232.375;    0.000
686.722; 2004.225;  258.375;    0.000
686.832; 1979.225;  256.375;    0.000
686.942; 2008.225;  230.375;    0.000
687.052; 1993.225;  274.375;    0.000
687.161; 1953.225;  269.375;    0.000
687.271; 1994.225;  218.375;    0.000
687.381; 2052.225;  235.375;    0.000
687.491; 1960.225;  262.375;    0.000
687.600; 1991.225;  256.375;    0.000
687.710; 2017.225;  225.375;    0.000
687.820; 1971.225;  230.375;    0.000
687.929; 1976.225;  226.375;    0.000
688.039; 2030.225;  228.375;    0.000
688.148; 1908.225;  249.375;    0.000
688.258; 1987.225;  237.375;    0.000
688.367; 1968.225;  260.375;    0.000
688.477; 1990.225;  200.375;    0.000
688.586; 2003.225;  223.375;    0.000
688.696; 1956.225;  223.375;    0.000
688.805; 1880.225;  257.375;    0.000
688.915; 1902.225;  185.375;    0.000
689.024; 1983.225;  227.375;    0.000
689.134; 1908.225;  224.375;    0.000
689.243; 1938.225;  206.375;    0.000
689.352; 1986.225;  275.375;    0.000
689.462; 2001.225;  233.375;    0.000
689.571; 1954.225;  244.375;    0.000
689.680; 1958.225;  261.375;    0.000
689.790; 1905.225;  192.375;    0.000
689.899; 1949.225;  214.375;    0.000
690.008; 1913.225;  255.375;    0.000
690.117; 1865.225;  219.375;    0.000
690.227; 1879.225;  241.375;    0.000
690.336; 1927.225;  231.375;    0.000
690.445; 1887.225;  212.375;    0.000
690.554; 1887.225;  234.375;    0.000
690.663; 1939.225;  210.375;    0.000
690.772; 1930.225;  221.375;    0.000
690.881; 1950.225;  244.375;    0.000
690.990; 1940.225;  247.375;    0.000
691.099; 1948.225;  222.375;    0.000
691.209; 1902.225;  240.375;    0.000
691.318; 1845.225;  223.375;    0.000
691.427; 1895.225;  217.375;    0.000
691.536; 1852.225;  216.375;    0.000
691.644; 1948.225;  194.375;    0.000
691.753; 1977.225;  221.375;    0.000
691.862; 1885.225;  224.375;    0.000
691.971; 1888.225;  191.375;    0.000
692.080; 1904.225;  247.375;    0.000
692.189; 1868.225;  208.375;    0.000
692.298; 1959.225;  203.375;    0.000
692.406; 1951.225;  239.375;    0.000
692.515; 1916.225;  250.375;    0.000
692.624; 1894.225;  226.375;    0.000
692.733; 1910.225;  229.375;    0.000
692.842; 1894.225;  254.375;    0.000
692.950; 1876.225;  242.375;    0.000
693.059; 1852.225;  204.375;    0.000
693.168; 1921.225;  252.375;    0.000
693.276; 1885.225;  195.375;    0.000
693.385; 1887.225;  228.375;    0.000
693.494; 1870.225;  282.375;    0.000
693.602; 1912.225;  221.375;    0.000
693.711; 1961.225;  225.375;    0.000
693.819; 1851.225;  234.375;    0.000
693.928; 1842.225;  229.375;    0.000
694.036; 1877.225;  192.375;    0.000
694.145; 1894.225;  233.375;    0.000
694.253; 1885.225;  277.375;    0.000
694.362; 1904.225;  188.375;    0.000
694.470; 1945.225;  263.375;    0.000
694.579; 1925.225;  253.375;    0.000
694.687; 1963.225;  281.375;    0.000
694.795; 1883.225;  233.375;    0.000
694.904; 1904.225;  223.375;    0.000
695.012; 1885.225;  296.375;    0.000
695.120; 1997.225;  227.375;    0.000
695.229; 1862.225;  269.375;    0.000
695.337; 1874.225;  229.375;    0.000
695.445; 1930.225;  244.375;    0.000
695.553; 1863.225;  259.375;    0.000
695.662; 1897.225;  208.375;    0.000
695.770; 1843.225;  241.375;    0.000
695.878; 1867.225;  239.375;    0.000
695.986; 1885.225;  247.375;    0.000
696.094; 1870.225;  224.375;    0.000
696.202; 1853.225;  205.375;    0.000
696.310; 1826.225;  217.375;    0.000
696.419; 1848.225;  228.375;    0.000
696.527; 1893.225;  246.375;    0.000
696.635; 1851.225;  245.375;    0.000
696.743; 1845.225;  233.375;    0.000
696.851; 1907.225;  251.375;    0.000
696.959; 1924.225;  257.375;    0.000
697.067; 1795.225;  260.375;    0.000
697.174; 1834.225;  223.375;    0.000
697.282; 1857.225;  239.375;    0.000
697.390; 1894.225;  264.375;    0.000
697.498; 1918.225;  227.375;    0.000
697.606; 1870.225;  243.375;    0.000
697.714; 1931.225;  256.375;    0.000
697.822; 1883.225;  278.375;    0.000
697.929; 1813.225;  227.375;    0.000
698.037; 1831.225;  232.375;    0.000
698.145; 1789.225;  256.375;    0.000
698.253; 1836.225;  245.375;    0.000
698.360; 1864.225;  282.375;    0.000
698.468; 1925.225;  244.375;    0.000
698.576; 1762.225;  279.375;    0.000
698.683; 1795.225;  259.375;    0.000
698.791; 1846.225;  265.375;    0.000
698.899; 1812.225;  250.375;    0.000
699.006; 1869.225;  245.375;    0.000
699.114; 1885.225;  280.375;    0.000
699.221; 1834.225;  240.375;    0.000
699.329; 1879.225;  293.375;    0.000
699.436; 1850.225;  216.375;    0.000
699.544; 1933.225;  269.375;    0.000
699.651; 1869.225;  219.375;    0.000
699.759; 1829.225;  245.375;    0.000
699.866; 1832.225;  261.375;    0.000
699.974; 1751.225;  245.375;    0.000
700.081; 1837.225;  257.375;    0.000
700.188; 1869.225;  268.375;    0.000
700.296; 1831.225;  225.375;    0.000
700.403; 1896.225;  257.375;    0.000
700.510; 1822.225;  267.375;    0.000
700.618; 1845.225;  299.375;    0.000
700.725; 1811.225;  223.375;    0.000
700.832; 1852.225;  233.375;    0.000
700.940; 1802.225;  255.375;    0.000
701.047; 1827.225;  244.375;    0.000
701.154; 1779.225;  248.375;    0.000
701.261; 1810.225;  264.375;    0.000
701.368; 1798.225;  299.375;    0.000
701.475; 1827.225;  264.375;    0.000
701.582; 1838.225;  275.375;    0.000
701.690; 1782.225;  261.375;    0.000
701.797; 1835.225;  273.375;    0.000
701.904; 1827.225;  320.375;    0.000
702.011; 1846.225;  299.375;    0.000
702.118; 1839.225;  292.375;    0.000
702.225; 1869.225;  317.375;    0.000
702.332; 1810.225;  307.375;    0.000
702.439; 1848.225;  313.375;    0.000
702.546; 1909.225;  312.375;    0.000
702.652; 1848.225;  297.375;    0.000
702.759; 1937.225;  345.375;    0.000
702.866; 1919.225;  330.375;    0.000
702.973; 1854.225;  303.375;    0.000
703.080; 1819.225;  303.375;    0.000
703.187; 1922.225;  327.375;    0.000
703.294; 1863.225;  325.375;    0.000
703.400; 1680.225;  302.375;    0.000
703.507;  483.225;  344.375;    0.000
703.614;  324.225;  294.375;    0.000
703.720;  301.225;  322.375;    0.000
703.827;  328.225;  329.375;    0.000
703.934;  308.225;  318.375;    0.000
704.040;  292.225;  299.375;    0.000
704.147;  316.225;  352.375;    0.000
704.254;  333.225;  350.375;    0.000
704.360;  332.225;  347.375;    0.000
704.467;  344.225;  336.375;    0.000
704.573;  322.225;  344.375;    0.000
704.680;  312.225;  365.375;    0.000
704.786;  339.225;  332.375;    0.000
704.893;  340.225;  304.375;    0.000
704.999;  326.225;  299.375;    0.000
705.106;  313.225;  365.375;    0.000

