
Integration time [ms]:   0.300
Averaging Nr. [scans]: 1
Smoothing Nr. [pixels]: 0
Data measured with spectrometer [name]: UV2
Wave   ;Sample   ;Dark     ;Reference
[nm]   ;[counts] ;[counts] ;[counts] 

353.533;  208.575;  178.050;    0.000
353.597;  230.575;  251.050;    0.000
353.660;  215.575;  213.050;    0.000
353.723;  227.575;  185.050;    0.000
353.786;  184.575;  191.050;    0.000
353.850;  224.575;  238.050;    0.000
353.913;  215.575;  181.050;    0.000
353.976;  210.575;  190.050;    0.000
354.039;  188.575;  184.050;    0.000
354.102;  174.575;  231.050;    0.000
354.166;  216.575;  188.050;    0.000
354.229;  192.575;  224.050;    0.000
354.292;  169.575;  186.050;    0.000
354.355;  216.575;  175.050;    0.000
354.418;  209.575;  191.050;    0.000
354.481;  222.575;  181.050;    0.000
354.545;  856.575;  193.050;    0.000
354.608;  847.575;  210.050;    0.000
354.671;  832.575;  183.050;    0.000
354.734;  921.575;  189.050;    0.000
354.797;  881.575;  168.050;    0.000
354.860;  836.575;  178.050;    0.000
354.923;  866.575;  236.050;    0.000
354.986;  972.575;  181.050;    0.000
355.050;  903.575;  168.050;    0.000
355.113;  887.575;  201.050;    0.000
355.176;  954.575;  206.050;    0.000
355.239;  939.575;  213.050;    0.000
355.302;  948.575;  198.050;    0.000
355.365; 1002.575;  199.050;    0.000
355.428; 1036.575;  200.050;    0.000
355.491; 1045.575;  232.050;    0.000
355.554; 1050.575;  184.050;    0.000
355.617; 1028.575;  214.050;    0.000
355.680; 1063.575;  191.050;    0.000
355.743; 1056.575;  161.050;    0.000
355.806; 1097.575;  153.050;    0.000
355.869; 1143.575;  221.050;    0.000
355.932; 1056.575;  152.050;    0.000
355.995; 1114.575;  195.050;    0.000
356.058; 1126.575;  172.050;    0.000
356.121; 1181.575;  186.050;    0.000
356.184; 1138.575;  196.050;    0.000
356.247; 1140.575;  183.050;    0.000
356.310; 1191.575;  159.050;    0.000
356.373; 1185.575;  183.050;    0.000
356.436; 1179.575;  176.050;    0.000
356.498; 1149.575;  191.050;    0.000
356.561; 1134.575;  145.050;    0.000
356.624; 1208.575;  187.050;    0.000
356.687; 1131.575;  181.050;    0.000
356.750; 1124.575;  227.050;    0.000
356.813; 1135.575;  147.050;    0.000
356.876; 1197.575;  184.050;    0.000
356.939; 1160.575;  141.050;    0.000
357.001; 1188.575;  188.050;    0.000
357.064; 1218.575;  173.050;    0.000
357.127; 1210.575;  159.050;    0.000
357.190; 1205.575;  185.050;    0.000
357.253; 1240.575;  180.050;    0.000
357.316; 1236.575;  199.050;    0.000
357.378; 1247.575;  196.050;    0.000
357.441; 1213.575;  175.050;    0.000
357.504; 1209.575;  164.050;    0.000
357.567; 1132.575;  145.050;    0.000
357.629; 1218.575;  205.050;    0.000
357.692; 1186.575;  175.050;    0.000
357.755; 1311.575;  205.050;    0.000
357.818; 1135.575;  141.050;    0.000
357.880; 1254.575;  170.050;    0.000
357.943; 1195.575;  152.050;    0.000
358.006; 1163.575;  145.050;    0.000
358.069; 1326.575;  164.050;    0.000
358.131; 1222.575;  148.050;    0.000
358.194; 1211.575;  122.050;    0.000
358.257; 1246.575;  147.050;    0.000
358.319; 1256.575;  156.050;    0.000
358.382; 1335.575;  193.050;    0.000
358.445; 1279.575;  155.050;    0.000
358.507; 1330.575;  160.050;    0.000
358.570; 1293.575;  159.050;    0.000
358.633; 1242.575;  163.050;    0.000
358.695; 1298.575;  174.050;    0.000
358.758; 1322.575;  127.050;    0.000
358.821; 1289.575;  165.050;    0.000
358.883; 1337.575;  145.050;    0.000
358.946; 1239.575;  127.050;    0.000
359.008; 1307.575;  180.050;    0.000
359.071; 1235.575;  173.050;    0.000
359.134; 1279.575;  150.050;    0.000
359.196; 1341.575;  158.050;    0.000
359.259; 1252.575;  159.050;    0.000
359.321; 1312.575;  159.050;    0.000
359.384; 1344.575;  182.050;    0.000
359.446; 1356.575;  140.050;    0.000
359.509; 1309.575;  146.050;    0.000
359.571; 1384.575;  133.050;    0.000
359.634; 1376.575;   93.050;    0.000
359.696; 1310.575;  142.050;    0.000
359.759; 1412.575;  161.050;    0.000
359.821; 1353.575;  110.050;    0.000
359.884; 1374.575;  114.050;    0.000
359.946; 1366.575;  180.050;    0.000
360.009; 1349.575;  158.050;    0.000
360.071; 1368.575;  116.050;    0.000
360.134; 1423.575;  170.050;    0.000
360.196; 1315.575;  128.050;    0.000
360.259; 1335.575;  157.050;    0.000
360.321; 1405.575;  122.050;    0.000
360.384; 1418.575;  119.050;    0.000
360.446; 1378.575;  122.050;    0.000
360.508; 1388.575;  195.050;    0.000
360.571; 1338.575;  128.050;    0.000
360.633; 1383.575;  172.050;    0.000
360.696; 1335.575;  115.050;    0.000
360.758; 1421.575;  162.050;    0.000
360.820; 1340.575;  149.050;    0.000
360.883; 1333.575;  151.050;    0.000
360.945; 1408.575;  149.050;    0.000
361.007; 1372.575;  135.050;    0.000
361.070; 1411.575;  162.050;    0.000
361.132; 1404.575;  198.050;    0.000
361.194; 1429.575;  141.050;    0.000
361.257; 1428.575;  154.050;    0.000
361.319; 1422.575;  147.050;    0.000
361.381; 1396.575;  154.050;    0.000
361.443; 1390.575;  144.050;    0.000
361.506; 1441.575;  164.050;    0.000
361.568; 1402.575;  148.050;    0.000
361.630; 1411.575;  127.050;    0.000
361.693; 1438.575;  158.050;    0.000
361.755; 1469.575;  161.050;    0.000
361.817; 1481.575;  173.050;    0.000
361.879; 1389.575;  159.050;    0.000
361.941; 1416.575;  153.050;    0.000
362.004; 1457.575;  148.050;    0.000
362.066; 1379.575;  150.050;    0.000
362.128; 1415.575;  132.050;    0.000
362.190; 1503.575;  207.050;    0.000
362.252; 1506.575;  142.050;    0.000
362.315; 1505.575;  153.050;    0.000
362.377; 1512.575;  164.050;    0.000
362.439; 1482.575;  155.050;    0.000
362.501; 1424.575;  157.050;    0.000
362.563; 1473.575;  188.050;    0.000
362.625; 1519.575;  194.050;    0.000
362.688; 1442.575;  159.050;    0.000
362.750; 1545.575;  205.050;    0.000
362.812; 1566.575;  148.050;    0.000
362.874; 1451.575;  173.050;    0.000
362.936; 1478.575;  152.050;    0.000
362.998; 1473.575;  145.050;    0.000
363.060; 1535.575;  184.050;    0.000
363.122; 1515.575;  147.050;    0.000
363.184; 1542.575;  136.050;    0.000
363.246; 1515.575;  171.050;    0.000
363.308; 1533.575;  154.050;    0.000
363.370; 1556.575;  175.050;    0.000
363.432; 1510.575;  139.050;    0.000
363.494; 1583.575;  163.050;    0.000
363.556; 1510.575;  117.050;    0.000
363.618; 1457.575;  126.050;    0.000
363.680; 1562.575;  147.050;    0.000
363.742; 1495.575;  161.050;    0.000
363.804; 1580.575;  159.050;    0.000
363.866; 1597.575;  170.050;    0.000
363.928; 1509.575;  122.050;    0.000
363.990; 1565.575;  167.050;    0.000
364.052; 1518.575;  180.050;    0.000
364.114; 1512.575;  119.050;    0.000
364.176; 1533.575;  184.050;    0.000
364.238; 1677.575;  180.050;    0.000
364.300; 1547.575;  159.050;    0.000
364.362; 1519.575;  163.050;    0.000
364.424; 1584.575;  139.050;    0.000
364.486; 1533.575;  189.050;    0.000
364.548; 1595.575;  167.050;    0.000
364.609; 1560.575;  165.050;    0.000
364.671; 1642.575;  171.050;    0.000
364.733; 1566.575;  165.050;    0.000
364.795; 1573.575;  122.050;    0.000
364.857; 1582.575;  147.050;    0.000
364.919; 1526.575;  104.050;    0.000
364.981; 1623.575;  143.050;    0.000
365.042; 1529.575;  166.050;    0.000
365.104; 1549.575;  162.050;    0.000
365.166; 1529.575;  155.050;    0.000
365.228; 1655.575;  179.050;    0.000
365.290; 1518.575;  133.050;    0.000
365.351; 1597.575;  142.050;    0.000
365.413; 1559.575;  144.050;    0.000
365.475; 1645.575;  139.050;    0.000
365.537; 1588.575;  181.050;    0.000
365.598; 1619.575;  166.050;    0.000
365.660; 1547.575;  130.050;    0.000
365.722; 1530.575;  177.050;    0.000
365.784; 1545.575;  149.050;    0.000
365.845; 1582.575;  156.050;    0.000
365.907; 1588.575;  122.050;    0.000
365.969; 1620.575;  140.050;    0.000
366.030; 1643.575;  156.050;    0.000
366.092; 1497.575;  140.050;    0.000
366.154; 1609.575;  169.050;    0.000
366.215; 1644.575;  170.050;    0.000
366.277; 1596.575;  143.050;    0.000
366.339; 1614.575;  139.050;    0.000
366.400; 1599.575;  139.050;    0.000
366.462; 1503.575;  140.050;    0.000
366.524; 1574.575;  150.050;    0.000
366.585; 1490.575;  163.050;    0.000
366.647; 1559.575;  193.050;    0.000
366.708; 1592.575;  135.050;    0.000
366.770; 1648.575;  165.050;    0.000
366.832; 1663.575;  168.050;    0.000
366.893; 1601.575;  157.050;    0.000
366.955; 1612.575;  132.050;    0.000
367.016; 1626.575;  127.050;    0.000
367.078; 1642.575;  146.050;    0.000
367.139; 1582.575;  129.050;    0.000
367.201; 1637.575;  148.050;    0.000
367.262; 1658.575;  165.050;    0.000
367.324; 1661.575;  171.050;    0.000
367.385; 1541.575;  118.050;    0.000
367.447; 1737.575;  144.050;    0.000
367.508; 1633.575;  135.050;    0.000
367.570; 1611.575;  160.050;    0.000
367.631; 1557.575;  157.050;    0.000
367.693; 1655.575;  168.050;    0.000
367.754; 1715.575;  139.050;    0.000
367.816; 1691.575;  141.050;    0.000
367.877; 1620.575;  195.050;    0.000
367.939; 1693.575;  166.050;    0.000
368.000; 1644.575;  127.050;    0.000
368.062; 1638.575;  143.050;    0.000
368.123; 1686.575;  156.050;    0.000
368.184; 1668.575;  179.050;    0.000
368.246; 1649.575;  168.050;    0.000
368.307; 1588.575;  203.050;    0.000
368.369; 1641.575;  149.050;    0.000
368.430; 1695.575;  121.050;    0.000
368.491; 1694.575;  131.050;    0.000
368.553; 1719.575;  161.050;    0.000
368.614; 1676.575;  157.050;    0.000
368.675; 1667.575;  152.050;    0.000
368.737; 1696.575;  168.050;    0.000
368.798; 1659.575;  147.050;    0.000
368.859; 1776.575;  174.050;    0.000
368.921; 1746.575;  168.050;    0.000
368.982; 1756.575;  151.050;    0.000
369.043; 1718.575;  169.050;    0.000
369.104; 1696.575;  149.050;    0.000
369.166; 1690.575;  178.050;    0.000
369.227; 1699.575;  149.050;    0.000
369.288; 1666.575;  131.050;    0.000
369.349; 1719.575;  128.050;    0.000
369.411; 1726.575;  198.050;    0.000
369.472; 1719.575;  156.050;    0.000
369.533; 1664.575;  142.050;    0.000
369.594; 1667.575;  125.050;    0.000
369.656; 1750.575;  153.050;    0.000
369.717; 1693.575;  124.050;    0.000
369.778; 1714.575;  163.050;    0.000
369.839; 1694.575;  130.050;    0.000
369.900; 1810.575;  170.050;    0.000
369.961; 1715.575;  142.050;    0.000
370.023; 1701.575;  197.050;    0.000
370.084; 1731.575;  151.050;    0.000
370.145; 1767.575;  128.050;    0.000
370.206; 1763.575;  152.050;    0.000
370.267; 1734.575;  154.050;    0.000
370.328; 1759.575;  154.050;    0.000
370.389; 1790.575;  173.050;    0.000
370.451; 1706.575;  191.050;    0.000
370.512; 1718.575;  155.050;    0.000
370.573; 1649.575;  134.050;    0.000
370.634; 1750.575;  160.050;    0.000
370.695; 1777.575;  124.050;    0.000
370.756; 1733.575;  169.050;    0.000
370.817; 1741.575;  169.050;    0.000
370.878; 1835.575;  200.050;    0.000
370.939; 1729.575;  157.050;    0.000
371.000; 1845.575;  131.050;    0.000
371.061; 1761.575;  136.050;    0.000
371.122; 1729.575;  176.050;    0.000
371.183; 1728.575;   81.050;    0.000
371.244; 1751.575;  156.050;    0.000
371.305; 1765.575;  131.050;    0.000
371.366; 1763.575;  161.050;    0.000
371.427; 1785.575;  127.050;    0.000
371.488; 1792.575;  184.050;    0.000
371.549; 1842.575;  159.050;    0.000
371.610; 1837.575;  147.050;    0.000
371.671; 1800.575;  132.050;    0.000
371.732; 1757.575;  163.050;    0.000
371.793; 1776.575;  179.050;    0.000
371.853; 1749.575;  179.050;    0.000
371.914; 1799.575;  149.050;    0.000
371.975; 1828.575;  117.050;    0.000
372.036; 1759.575;  141.050;    0.000
372.097; 1740.575;  101.050;    0.000
372.158; 1763.575;  115.050;    0.000
372.219; 1822.575;  174.050;    0.000
372.280; 1784.575;  134.050;    0.000
372.340; 1864.575;  180.050;    0.000
372.401; 1810.575;  166.050;    0.000
372.462; 1772.575;  171.050;    0.000
372.523; 1729.575;  132.050;    0.000
372.584; 1802.575;  182.050;    0.000
372.645; 1844.575;  149.050;    0.000
372.705; 1871.575;  182.050;    0.000
372.766; 1894.575;  145.050;    0.000
372.827; 1793.575;  161.050;    0.000
372.888; 1857.575;  156.050;    0.000
372.948; 1820.575;  158.050;    0.000
373.009; 1808.575;  178.050;    0.000
373.070; 1831.575;  166.050;    0.000
373.131; 1825.575;  154.050;    0.000
373.191; 1961.575;  193.050;    0.000
373.252; 1838.575;  148.050;    0.000
373.313; 1780.575;  152.050;    0.000
373.373; 1874.575;  156.050;    0.000
373.434; 1859.575;  166.050;    0.000
373.495; 1759.575;  152.050;    0.000
373.555; 1945.575;  145.050;    0.000
373.616; 1796.575;  141.050;    0.000
373.677; 1863.575;  169.050;    0.000
373.737; 1812.575;  166.050;    0.000
373.798; 1804.575;  151.050;    0.000
373.859; 1889.575;  170.050;    0.000
373.919; 1932.575;  206.050;    0.000
373.980; 1820.575;  140.050;    0.000
374.041; 1826.575;  148.050;    0.000
374.101; 1852.575;  165.050;    0.000
374.162; 1893.575;  166.050;    0.000
374.222; 1858.575;  156.050;    0.000
374.283; 1926.575;  161.050;    0.000
374.343; 1905.575;  185.050;    0.000
374.404; 1866.575;  148.050;    0.000
374.465; 1841.575;  162.050;    0.000
374.525; 1885.575;  177.050;    0.000
374.586; 1933.575;  164.050;    0.000
374.646; 1941.575;  180.050;    0.000
374.707; 1991.575;  203.050;    0.000
374.767; 1985.575;  148.050;    0.000
374.828; 1891.575;  142.050;    0.000
374.888; 2011.575;  187.050;    0.000
374.949; 1879.575;  137.050;    0.000
375.009; 1972.575;  155.050;    0.000
375.070; 1937.575;  165.050;    0.000
375.130; 1904.575;  168.050;    0.000
375.190; 1978.575;  157.050;    0.000
375.251; 2028.575;  206.050;    0.000
375.311; 1992.575;  141.050;    0.000
375.372; 1951.575;  144.050;    0.000
375.432; 1920.575;  153.050;    0.000
375.493; 1933.575;  168.050;    0.000
375.553; 1860.575;  146.050;    0.000
375.613; 1890.575;  142.050;    0.000
375.674; 1980.575;  153.050;    0.000
375.734; 1968.575;  166.050;    0.000
375.794; 1887.575;  145.050;    0.000
375.855; 1928.575;  162.050;    0.000
375.915; 1975.575;  162.050;    0.000
375.975; 1964.575;  144.050;    0.000
376.036; 1946.575;  128.050;    0.000
376.096; 1892.575;  122.050;    0.000
376.156; 1954.575;  140.050;    0.000
376.217; 1908.575;  158.050;    0.000
376.277; 1930.575;  163.050;    0.000
376.337; 1899.575;  139.050;    0.000
376.398; 1986.575;  176.050;    0.000
376.458; 1947.575;  143.050;    0.000
376.518; 1950.575;  136.050;    0.000
376.578; 1941.575;  177.050;    0.000
376.639; 2000.575;  163.050;    0.000
376.699; 1993.575;  183.050;    0.000
376.759; 1952.575;  169.050;    0.000
376.819; 1921.575;  147.050;    0.000
376.880; 1967.575;  188.050;    0.000
376.940; 2034.575;  185.050;    0.000
377.000; 1937.575;  131.050;    0.000
377.060; 2052.575;  182.050;    0.000
377.120; 2029.575;  165.050;    0.000
377.180; 2080.575;  169.050;    0.000
377.241; 2047.575;  146.050;    0.000
377.301; 2011.575;  183.050;    0.000
377.361; 2054.575;  124.050;    0.000
377.421; 2063.575;  186.050;    0.000
377.481; 2078.575;  178.050;    0.000
377.541; 2082.575;  140.050;    0.000
377.601; 2046.575;  175.050;    0.000
377.661; 2061.575;  169.050;    0.000
377.722; 2134.575;  144.050;    0.000
377.782; 2081.575;  182.050;    0.000
377.842; 2061.575;  161.050;    0.000
377.902; 2163.575;  151.050;    0.000
377.962; 2111.575;  134.050;    0.000
378.022; 2123.575;  153.050;    0.000
378.082; 2069.575;  178.050;    0.000
378.142; 2069.575;  118.050;    0.000
378.202; 2138.575;  153.050;    0.000
378.262; 2162.575;  166.050;    0.000
378.322; 2116.575;  174.050;    0.000
378.382; 2151.575;  148.050;    0.000
378.442; 2175.575;  190.050;    0.000
378.502; 2105.575;  136.050;    0.000
378.562; 2099.575;  130.050;    0.000
378.622; 2274.575;  188.050;    0.000
378.682; 2194.575;  163.050;    0.000
378.742; 2132.575;  150.050;    0.000
378.802; 2173.575;  127.050;    0.000
378.862; 2356.575;  186.050;    0.000
378.921; 2161.575;  203.050;    0.000
378.981; 2247.575;  177.050;    0.000
379.041; 2296.575;  134.050;    0.000
379.101; 2223.575;  167.050;    0.000
379.161; 2272.575;  130.050;    0.000
379.221; 2321.575;  169.050;    0.000
379.281; 2298.575;  162.050;    0.000
379.341; 2294.575;  134.050;    0.000
379.401; 2246.575;  151.050;    0.000
379.460; 2310.575;  190.050;    0.000
379.520; 2269.575;  158.050;    0.000
379.580; 2395.575;  162.050;    0.000
379.640; 2373.575;  146.050;    0.000
379.700; 2289.575;  167.050;    0.000
379.759; 2337.575;  194.050;    0.000
379.819; 2313.575;  176.050;    0.000
379.879; 2352.575;  140.050;    0.000
379.939; 2345.575;  184.050;    0.000
379.999; 2319.575;  165.050;    0.000
380.058; 2455.575;  194.050;    0.000
380.118; 2463.575;  137.050;    0.000
380.178; 2402.575;  139.050;    0.000
380.237; 2373.575;  139.050;    0.000
380.297; 2434.575;  160.050;    0.000
380.357; 2412.575;  194.050;    0.000
380.417; 2490.575;  174.050;    0.000
380.476; 2427.575;  153.050;    0.000
380.536; 2457.575;  169.050;    0.000
380.596; 2433.575;  159.050;    0.000
380.655; 2430.575;  178.050;    0.000
380.715; 2451.575;  196.050;    0.000
380.775; 2500.575;  202.050;    0.000
380.834; 2483.575;  186.050;    0.000
380.894; 2525.575;  167.050;    0.000
380.954; 2507.575;  150.050;    0.000
381.013; 2536.575;  187.050;    0.000
381.073; 2498.575;  114.050;    0.000
381.132; 2596.575;  176.050;    0.000
381.192; 2553.575;  197.050;    0.000
381.252; 2544.575;  172.050;    0.000
381.311; 2634.575;  155.050;    0.000
381.371; 2635.575;  172.050;    0.000
381.430; 2614.575;  143.050;    0.000
381.490; 2725.575;  136.050;    0.000
381.549; 2658.575;  131.050;    0.000
381.609; 2717.575;  203.050;    0.000
381.668; 2686.575;  135.050;    0.000
381.728; 2755.575;  163.050;    0.000
381.787; 2701.575;  195.050;    0.000
381.847; 2785.575;  185.050;    0.000
381.906; 2671.575;  187.050;    0.000
381.966; 2785.575;  153.050;    0.000
382.025; 2842.575;  175.050;    0.000
382.085; 2869.575;  195.050;    0.000
382.144; 2937.575;  210.050;    0.000
382.204; 2962.575;  201.050;    0.000
382.263; 2979.575;  178.050;    0.000
382.323; 3083.575;  151.050;    0.000
382.382; 3035.575;  147.050;    0.000
382.441; 3175.575;  144.050;    0.000
382.501; 3225.575;  156.050;    0.000
382.560; 3370.575;  160.050;    0.000
382.619; 3402.575;  173.050;    0.000
382.679; 3734.575;  167.050;    0.000
382.738; 3838.575;  189.050;    0.000
382.798; 4119.575;  181.050;    0.000
382.857; 4545.575;  161.050;    0.000
382.916; 4911.575;  162.050;    0.000
382.976; 5099.575;  169.050;    0.000
383.035; 4829.575;  174.050;    0.000
383.094; 5052.575;  178.050;    0.000
383.154; 5847.575;  188.050;    0.000
383.213; 6460.575;  162.050;    0.000
383.272; 6260.575;  144.050;    0.000
383.331; 5235.575;  144.050;    0.000
383.391; 4706.575;  198.050;    0.000
383.450; 4700.575;  185.050;    0.000
383.509; 4532.575;  132.050;    0.000
383.568; 4786.575;  171.050;    0.000
383.628; 5058.575;  171.050;    0.000
383.687; 5633.575;  172.050;    0.000
383.746; 6500.575;  144.050;    0.000
383.805; 7450.575;  177.050;    0.000
383.864; 7225.575;  145.050;    0.000
383.924; 5845.575;  203.050;    0.000
383.983; 4723.575;  153.050;    0.000
384.042; 4284.575;  171.050;    0.000
384.101; 3833.575;  186.050;    0.000
384.160; 3691.575;  132.050;    0.000
384.219; 3577.575;  157.050;    0.000
384.279; 3476.575;  166.050;    0.000
384.338; 3300.575;  141.050;    0.000
384.397; 3163.575;  142.050;    0.000
384.456; 3132.575;  155.050;    0.000
384.515; 3021.575;  158.050;    0.000
384.574; 3108.575;  208.050;    0.000
384.633; 2920.575;  158.050;    0.000
384.692; 2970.575;  162.050;    0.000
384.751; 2972.575;  179.050;    0.000
384.810; 2951.575;  150.050;    0.000
384.869; 2984.575;  147.050;    0.000
384.929; 2958.575;  132.050;    0.000
384.988; 2933.575;  166.050;    0.000
385.047; 2914.575;  161.050;    0.000
385.106; 2884.575;  180.050;    0.000
385.165; 2960.575;  123.050;    0.000
385.224; 2929.575;  153.050;    0.000
385.283; 2905.575;  158.050;    0.000
385.342; 2893.575;  184.050;    0.000
385.401; 2872.575;  191.050;    0.000
385.459; 2948.575;  143.050;    0.000
385.518; 2881.575;  152.050;    0.000
385.577; 2881.575;  134.050;    0.000
385.636; 2871.575;  187.050;    0.000
385.695; 2882.575;  141.050;    0.000
385.754; 2816.575;  143.050;    0.000
385.813; 2841.575;  145.050;    0.000
385.872; 2759.575;  116.050;    0.000
385.931; 2832.575;  147.050;    0.000
385.990; 2791.575;  170.050;    0.000
386.049; 2904.575;  189.050;    0.000
386.107; 2815.575;  122.050;    0.000
386.166; 2802.575;  155.050;    0.000
386.225; 2890.575;  173.050;    0.000
386.284; 2742.575;  138.050;    0.000
386.343; 2806.575;  216.050;    0.000
386.402; 2762.575;  162.050;    0.000
386.460; 2757.575;  131.050;    0.000
386.519; 2783.575;  122.050;    0.000
386.578; 2793.575;  140.050;    0.000
386.637; 2781.575;  169.050;    0.000
386.696; 2897.575;  176.050;    0.000
386.754; 2781.575;  127.050;    0.000
386.813; 2708.575;  138.050;    0.000
386.872; 2713.575;  135.050;    0.000
386.931; 2731.575;  170.050;    0.000
386.989; 2767.575;  167.050;    0.000
387.048; 2769.575;  131.050;    0.000
387.107; 2842.575;  176.050;    0.000
387.165; 2665.575;  139.050;    0.000
387.224; 2780.575;  150.050;    0.000
387.283; 2786.575;  169.050;    0.000
387.342; 2639.575;  191.050;    0.000
387.400; 2691.575;  131.050;    0.000
387.459; 2585.575;  139.050;    0.000
387.517; 2682.575;  214.050;    0.000
387.576; 2797.575;  146.050;    0.000
387.635; 2676.575;  161.050;    0.000
387.693; 2760.575;  197.050;    0.000
387.752; 2695.575;  159.050;    0.000
387.811; 2705.575;  144.050;    0.000
387.869; 2655.575;  172.050;    0.000
387.928; 2596.575;  160.050;    0.000
387.986; 2670.575;  192.050;    0.000
388.045; 2700.575;  121.050;    0.000
388.103; 2605.575;  129.050;    0.000
388.162; 2648.575;  169.050;    0.000
388.221; 2598.575;  171.050;    0.000
388.279; 2643.575;  135.050;    0.000
388.338; 2716.575;  222.050;    0.000
388.396; 2641.575;  168.050;    0.000
388.455; 2622.575;  178.050;    0.000
388.513; 2565.575;  151.050;    0.000
388.572; 2712.575;  147.050;    0.000
388.630; 2646.575;  158.050;    0.000
388.689; 2603.575;  163.050;    0.000
388.747; 2659.575;  180.050;    0.000
388.806; 2569.575;  119.050;    0.000
388.864; 2662.575;  159.050;    0.000
388.922; 2609.575;  152.050;    0.000
388.981; 2506.575;  125.050;    0.000
389.039; 2690.575;  151.050;    0.000
389.098; 2673.575;  151.050;    0.000
389.156; 2631.575;  175.050;    0.000
389.214; 2671.575;  133.050;    0.000
389.273; 2563.575;  142.050;    0.000
389.331; 2611.575;  179.050;    0.000
389.390; 2549.575;  179.050;    0.000
389.448; 2618.575;  159.050;    0.000
389.506; 2674.575;  140.050;    0.000
389.565; 2666.575;  160.050;    0.000
389.623; 2628.575;  181.050;    0.000
389.681; 2607.575;  181.050;    0.000
389.740; 2589.575;  187.050;    0.000
389.798; 2573.575;  163.050;    0.000
389.856; 2601.575;  185.050;    0.000
389.914; 2664.575;  170.050;    0.000
389.973; 2626.575;  150.050;    0.000
390.031; 2619.575;  149.050;    0.000
390.089; 2647.575;  191.050;    0.000
390.147; 2549.575;  126.050;    0.000
390.206; 2614.575;  174.050;    0.000
390.264; 2647.575;  164.050;    0.000
390.322; 2568.575;  150.050;    0.000
390.380; 2528.575;  137.050;    0.000
390.439; 2497.575;  176.050;    0.000
390.497; 2577.575;  188.050;    0.000
390.555; 2502.575;  143.050;    0.000
390.613; 2472.575;  174.050;    0.000
390.671; 2674.575;  208.050;    0.000
390.729; 2537.575;  135.050;    0.000
390.788; 2565.575;  169.050;    0.000
390.846; 2503.575;  173.050;    0.000
390.904; 2610.575;  176.050;    0.000
390.962; 2625.575;  179.050;    0.000
391.020; 2643.575;  201.050;    0.000
391.078; 2557.575;  192.050;    0.000
391.136; 2538.575;  170.050;    0.000
391.194; 2605.575;  163.050;    0.000
391.253; 2595.575;  203.050;    0.000
391.311; 2590.575;  170.050;    0.000
391.369; 2607.575;  191.050;    0.000
391.427; 2571.575;  226.050;    0.000
391.485; 2653.575;  181.050;    0.000
391.543; 2580.575;  177.050;    0.000
391.601; 2677.575;  150.050;    0.000
391.659; 2666.575;  201.050;    0.000
391.717; 2518.575;  166.050;    0.000
391.775; 2637.575;  200.050;    0.000
391.833; 2678.575;  180.050;    0.000
391.891; 2653.575;  172.050;    0.000
391.949; 2651.575;  174.050;    0.000
392.007; 2643.575;  194.050;    0.000
392.065; 2669.575;  161.050;    0.000
392.123; 2513.575;  159.050;    0.000
392.180; 2691.575;  193.050;    0.000
392.238; 2684.575;  188.050;    0.000
392.296; 2692.575;  206.050;    0.000
392.354; 2647.575;  170.050;    0.000
392.412; 2707.575;  207.050;    0.000
392.470; 2710.575;  168.050;    0.000
392.528; 2694.575;  185.050;    0.000
392.586; 2592.575;  154.050;    0.000
392.644; 2698.575;  190.050;    0.000
392.701; 2720.575;  195.050;    0.000
392.759; 2651.575;  229.050;    0.000
392.817; 2643.575;  176.050;    0.000
392.875; 2618.575;  198.050;    0.000
392.933; 2659.575;  174.050;    0.000
392.991; 2642.575;  237.050;    0.000
393.048; 2668.575;  212.050;    0.000
393.106; 2680.575;  191.050;    0.000
393.164; 2631.575;  136.050;    0.000
393.222; 2658.575;  164.050;    0.000
393.279; 2797.575;  208.050;    0.000
393.337; 2728.575;  203.050;    0.000
393.395; 2786.575;  191.050;    0.000
393.453; 2792.575;  153.050;    0.000
393.510; 2765.575;  171.050;    0.000
393.568; 2837.575;  203.050;    0.000
393.626; 2680.575;  169.050;    0.000
393.684; 2719.575;  201.050;    0.000
393.741; 2694.575;  172.050;    0.000
393.799; 2653.575;  149.050;    0.000
393.857; 2747.575;  151.050;    0.000
393.914; 2728.575;  192.050;    0.000
393.972; 2674.575;  176.050;    0.000
394.030; 2707.575;  165.050;    0.000
394.087; 2725.575;  192.050;    0.000
394.145; 2738.575;  183.050;    0.000
394.202; 2768.575;  161.050;    0.000
394.260; 2781.575;  135.050;    0.000
394.318; 2806.575;  188.050;    0.000
394.375; 2707.575;  163.050;    0.000
394.433; 2825.575;  151.050;    0.000
394.490; 2778.575;  190.050;    0.000
394.548; 2725.575;  157.050;    0.000
394.605; 2787.575;  205.050;    0.000
394.663; 2788.575;  173.050;    0.000
394.720; 2733.575;  171.050;    0.000
394.778; 2817.575;  190.050;    0.000
394.836; 2779.575;  134.050;    0.000
394.893; 2760.575;  142.050;    0.000
394.951; 2722.575;  192.050;    0.000
395.008; 2759.575;  149.050;    0.000
395.065; 2705.575;  194.050;    0.000
395.123; 2884.575;  160.050;    0.000
395.180; 2826.575;  178.050;    0.000
395.238; 2815.575;  191.050;    0.000
395.295; 2748.575;  160.050;    0.000
395.353; 2849.575;  162.050;    0.000
395.410; 2812.575;  165.050;    0.000
395.468; 2823.575;  190.050;    0.000
395.525; 2884.575;  173.050;    0.000
395.582; 2892.575;  161.050;    0.000
395.640; 2979.575;  200.050;    0.000
395.697; 2940.575;  198.050;    0.000
395.754; 2904.575;  136.050;    0.000
395.812; 2834.575;  172.050;    0.000
395.869; 2890.575;  172.050;    0.000
395.927; 2926.575;  145.050;    0.000
395.984; 2900.575;  220.050;    0.000
396.041; 2874.575;  137.050;    0.000
396.098; 2799.575;  161.050;    0.000
396.156; 2917.575;  159.050;    0.000
396.213; 2911.575;  200.050;    0.000
396.270; 2840.575;  209.050;    0.000
396.328; 2937.575;  162.050;    0.000
396.385; 2866.575;  186.050;    0.000
396.442; 2841.575;  177.050;    0.000
396.499; 2894.575;  183.050;    0.000
396.557; 2892.575;  182.050;    0.000
396.614; 2923.575;  186.050;    0.000
396.671; 2903.575;  144.050;    0.000
396.728; 2943.575;  176.050;    0.000
396.785; 2929.575;  169.050;    0.000
396.843; 2964.575;  134.050;    0.000
396.900; 2888.575;  184.050;    0.000
396.957; 2856.575;  197.050;    0.000
397.014; 2932.575;  187.050;    0.000
397.071; 3001.575;  186.050;    0.000
397.128; 2886.575;  200.050;    0.000
397.186; 2934.575;  175.050;    0.000
397.243; 2994.575;  154.050;    0.000
397.300; 3000.575;  191.050;    0.000
397.357; 2997.575;  238.050;    0.000
397.414; 3049.575;  161.050;    0.000
397.471; 3001.575;  135.050;    0.000
397.528; 3023.575;  158.050;    0.000
397.585; 2984.575;  159.050;    0.000
397.642; 2961.575;  180.050;    0.000
397.699; 3053.575;  170.050;    0.000
397.756; 2927.575;  175.050;    0.000
397.814; 3034.575;  182.050;    0.000
397.871; 3054.575;  173.050;    0.000
397.928; 3001.575;  173.050;    0.000
397.985; 3023.575;  176.050;    0.000
398.042; 3070.575;  189.050;    0.000
398.099; 2979.575;  160.050;    0.000
398.156; 3075.575;  218.050;    0.000
398.212; 3077.575;  194.050;    0.000
398.269; 2952.575;  199.050;    0.000
398.326; 3137.575;  188.050;    0.000
398.383; 3050.575;  187.050;    0.000
398.440; 3162.575;  174.050;    0.000
398.497; 3127.575;  214.050;    0.000
398.554; 3070.575;  181.050;    0.000
398.611; 3055.575;  195.050;    0.000
398.668; 3039.575;  145.050;    0.000
398.725; 3045.575;  178.050;    0.000
398.782; 3186.575;  210.050;    0.000
398.839; 3181.575;  216.050;    0.000
398.895; 3072.575;  189.050;    0.000
398.952; 3194.575;  206.050;    0.000
399.009; 3207.575;  142.050;    0.000
399.066; 3215.575;  192.050;    0.000
399.123; 3303.575;  181.050;    0.000
399.180; 3362.575;  200.050;    0.000
399.236; 3341.575;  156.050;    0.000
399.293; 3312.575;  194.050;    0.000
399.350; 3426.575;  167.050;    0.000
399.407; 3440.575;  192.050;    0.000
399.463; 3443.575;  161.050;    0.000
399.520; 3407.575;  149.050;    0.000
399.577; 3486.575;  156.050;    0.000
399.634; 3579.575;  195.050;    0.000
399.690; 3610.575;  163.050;    0.000
399.747; 3594.575;  192.050;    0.000
399.804; 3504.575;  212.050;    0.000
399.861; 3569.575;  203.050;    0.000
399.917; 3500.575;  221.050;    0.000
399.974; 3535.575;  221.050;    0.000
400.031; 3505.575;  195.050;    0.000
400.087; 3402.575;  159.050;    0.000
400.144; 3501.575;  201.050;    0.000
400.201; 3508.575;  206.050;    0.000
400.257; 3386.575;  168.050;    0.000
400.314; 3355.575;  183.050;    0.000
400.370; 3441.575;  209.050;    0.000
400.427; 3397.575;  192.050;    0.000
400.484; 3306.575;  150.050;    0.000
400.540; 3335.575;  213.050;    0.000
400.597; 3300.575;  161.050;    0.000
400.653; 3381.575;  170.050;    0.000
400.710; 3355.575;  173.050;    0.000
400.766; 3313.575;  204.050;    0.000
400.823; 3274.575;  194.050;    0.000
400.879; 3332.575;  188.050;    0.000
400.936; 3289.575;  172.050;    0.000
400.993; 3244.575;  154.050;    0.000
401.049; 3255.575;  157.050;    0.000
401.105; 3315.575;  214.050;    0.000
401.162; 3250.575;  195.050;    0.000
401.218; 3327.575;  195.050;    0.000
401.275; 3292.575;  182.050;    0.000
401.331; 3346.575;  188.050;    0.000
401.388; 3318.575;  194.050;    0.000
401.444; 3325.575;  175.050;    0.000
401.501; 3200.575;  169.050;    0.000
401.557; 3218.575;  176.050;    0.000
401.614; 3289.575;  153.050;    0.000
401.670; 3303.575;  178.050;    0.000
401.726; 3353.575;  179.050;    0.000
401.783; 3202.575;  198.050;    0.000
401.839; 3297.575;  179.050;    0.000
401.895; 3247.575;  154.050;    0.000
401.952; 3300.575;  138.050;    0.000
402.008; 3249.575;  135.050;    0.000
402.064; 3199.575;  154.050;    0.000
402.121; 3283.575;  199.050;    0.000
402.177; 3336.575;  126.050;    0.000
402.233; 3222.575;  190.050;    0.000
402.290; 3343.575;  175.050;    0.000
402.346; 3302.575;  200.050;    0.000
402.402; 3270.575;  191.050;    0.000
402.458; 3204.575;  172.050;    0.000
402.515; 3387.575;  186.050;    0.000
402.571; 3296.575;  189.050;    0.000
402.627; 3293.575;  151.050;    0.000
402.683; 3333.575;  187.050;    0.000
402.740; 3250.575;  147.050;    0.000
402.796; 3404.575;  176.050;    0.000
402.852; 3384.575;  200.050;    0.000
402.908; 3351.575;  201.050;    0.000
402.964; 3347.575;  153.050;    0.000
403.021; 3363.575;  165.050;    0.000
403.077; 3382.575;  195.050;    0.000
403.133; 3338.575;  139.050;    0.000
403.189; 3394.575;  166.050;    0.000
403.245; 3408.575;  194.050;    0.000
403.301; 3364.575;  210.050;    0.000
403.357; 3511.575;  187.050;    0.000
403.414; 3441.575;  195.050;    0.000
403.470; 3517.575;  150.050;    0.000
403.526; 3284.575;  158.050;    0.000
403.582; 3446.575;  184.050;    0.000
403.638; 3420.575;  171.050;    0.000
403.694; 3579.575;  197.050;    0.000
403.750; 3477.575;  196.050;    0.000
403.806; 3510.575;  192.050;    0.000
403.862; 3385.575;  169.050;    0.000
403.918; 3478.575;  199.050;    0.000
403.974; 3466.575;  156.050;    0.000
404.030; 3469.575;  193.050;    0.000
404.086; 3357.575;  161.050;    0.000
404.142; 3425.575;  172.050;    0.000
404.198; 3479.575;  195.050;    0.000
404.254; 3479.575;  167.050;    0.000
404.310; 3521.575;  156.050;    0.000
404.366; 3501.575;  144.050;    0.000
404.422; 3605.575;  161.050;    0.000
404.478; 3494.575;  179.050;    0.000
404.534; 3494.575;  163.050;    0.000
404.590; 3517.575;  183.050;    0.000
404.646; 3505.575;  155.050;    0.000
404.701; 3481.575;  142.050;    0.000
404.757; 3547.575;  175.050;    0.000
404.813; 3491.575;  153.050;    0.000
404.869; 3521.575;  199.050;    0.000
404.925; 3579.575;  153.050;    0.000
404.981; 3599.575;  174.050;    0.000
405.037; 3490.575;  185.050;    0.000
405.092; 3510.575;  166.050;    0.000
405.148; 3483.575;  161.050;    0.000
405.204; 3464.575;  170.050;    0.000
405.260; 3500.575;  154.050;    0.000
405.316; 3503.575;  128.050;    0.000
405.371; 3463.575;  142.050;    0.000
405.427; 3490.575;  196.050;    0.000
405.483; 3586.575;  172.050;    0.000
405.539; 3540.575;  182.050;    0.000
405.594; 3546.575;  153.050;    0.000
405.650; 3590.575;  124.050;    0.000
405.706; 3623.575;  189.050;    0.000
405.761; 3559.575;  165.050;    0.000
405.817; 3564.575;  152.050;    0.000
405.873; 3655.575;  174.050;    0.000
405.928; 3647.575;  167.050;    0.000
405.984; 3542.575;  210.050;    0.000
406.040; 3618.575;  160.050;    0.000
406.095; 3616.575;  163.050;    0.000
406.151; 3640.575;  208.050;    0.000
406.207; 3604.575;  177.050;    0.000
406.262; 3587.575;  176.050;    0.000
406.318; 3681.575;  157.050;    0.000
406.374; 3616.575;  141.050;    0.000
406.429; 3614.575;  189.050;    0.000
406.485; 3786.575;  190.050;    0.000
406.540; 3552.575;  155.050;    0.000
406.596; 3667.575;  182.050;    0.000
406.651; 3738.575;  200.050;    0.000
406.707; 3813.575;  130.050;    0.000
406.763; 3711.575;  174.050;    0.000
406.818; 3792.575;  151.050;    0.000
406.874; 3796.575;  122.050;    0.000
406.929; 3879.575;  153.050;    0.000
406.985; 3817.575;  198.050;    0.000
407.040; 3962.575;  174.050;    0.000
407.095; 3972.575;  161.050;    0.000
407.151; 3920.575;  184.050;    0.000
407.206; 3990.575;  188.050;    0.000
407.262; 3933.575;  180.050;    0.000
407.317; 4027.575;  186.050;    0.000
407.373; 4026.575;  200.050;    0.000
407.428; 4142.575;  211.050;    0.000
407.484; 4043.575;  193.050;    0.000
407.539; 4033.575;  167.050;    0.000
407.594; 4048.575;  178.050;    0.000
407.650; 3969.575;  171.050;    0.000
407.705; 3991.575;  153.050;    0.000
407.760; 3996.575;  196.050;    0.000
407.816; 4053.575;  205.050;    0.000
407.871; 4036.575;  232.050;    0.000
407.926; 4033.575;  215.050;    0.000
407.982; 4028.575;  154.050;    0.000
408.037; 4034.575;  217.050;    0.000
408.092; 3933.575;  190.050;    0.000
408.148; 3920.575;  181.050;    0.000
408.203; 3981.575;  203.050;    0.000
408.258; 3954.575;  154.050;    0.000
408.314; 4039.575;  198.050;    0.000
408.369; 3989.575;  156.050;    0.000
408.424; 3980.575;  216.050;    0.000
408.479; 3877.575;  191.050;    0.000
408.534; 3915.575;  200.050;    0.000
408.590; 3912.575;  182.050;    0.000
408.645; 3783.575;  141.050;    0.000
408.700; 3848.575;  209.050;    0.000
408.755; 3999.575;  205.050;    0.000
408.810; 3786.575;  171.050;    0.000
408.866; 3926.575;  200.050;    0.000
408.921; 3926.575;  188.050;    0.000
408.976; 3904.575;  156.050;    0.000
409.031; 3836.575;  164.050;    0.000
409.086; 3743.575;  155.050;    0.000
409.141; 3829.575;  205.050;    0.000
409.196; 3973.575;  173.050;    0.000
409.252; 3878.575;  179.050;    0.000
409.307; 3752.575;  131.050;    0.000
409.362; 3900.575;  173.050;    0.000
409.417; 3839.575;  120.050;    0.000
409.472; 4003.575;  198.050;    0.000
409.527; 3931.575;  153.050;    0.000
409.582; 3948.575;  177.050;    0.000
409.637; 3822.575;  184.050;    0.000
409.692; 3870.575;  203.050;    0.000
409.747; 3842.575;  158.050;    0.000
409.802; 3900.575;  212.050;    0.000
409.857; 3830.575;  192.050;    0.000
409.912; 3879.575;  179.050;    0.000
409.967; 3887.575;  177.050;    0.000
410.022; 3957.575;  204.050;    0.000
410.077; 3886.575;  175.050;    0.000
410.132; 3885.575;  207.050;    0.000
410.187; 3834.575;  169.050;    0.000
410.242; 3878.575;  186.050;    0.000
410.297; 3885.575;  185.050;    0.000
410.351; 3793.575;  191.050;    0.000
410.406; 3913.575;  215.050;    0.000
410.461; 3913.575;  190.050;    0.000
410.516; 3841.575;  172.050;    0.000
410.571; 3821.575;  190.050;    0.000
410.626; 3901.575;  189.050;    0.000
410.681; 3799.575;  191.050;    0.000
410.736; 3875.575;  166.050;    0.000
410.790; 3803.575;  179.050;    0.000
410.845; 3957.575;  196.050;    0.000
410.900; 3817.575;  168.050;    0.000
410.955; 3898.575;  173.050;    0.000
411.010; 3866.575;  162.050;    0.000
411.064; 3944.575;  205.050;    0.000
411.119; 3945.575;  203.050;    0.000
411.174; 3799.575;  207.050;    0.000
411.229; 3891.575;  218.050;    0.000
411.283; 3777.575;  218.050;    0.000
411.338; 3922.575;  180.050;    0.000
411.393; 3823.575;  191.050;    0.000
411.447; 3852.575;  207.050;    0.000
411.502; 3968.575;  204.050;    0.000
411.557; 3791.575;  208.050;    0.000
411.612; 3967.575;  191.050;    0.000
411.666; 3836.575;  233.050;    0.000
411.721; 3896.575;  193.050;    0.000
411.776; 4004.575;  195.050;    0.000
411.830; 3812.575;  229.050;    0.000
411.885; 3954.575;  181.050;    0.000
411.939; 3906.575;  214.050;    0.000
411.994; 3838.575;  140.050;    0.000
412.049; 3878.575;  205.050;    0.000
412.103; 3902.575;  232.050;    0.000
412.158; 3941.575;  228.050;    0.000
412.212; 3939.575;  204.050;    0.000
412.267; 3865.575;  203.050;    0.000
412.322; 3875.575;  212.050;    0.000
412.376; 3825.575;  195.050;    0.000
412.431; 3991.575;  197.050;    0.000
412.485; 3920.575;  235.050;    0.000
412.540; 3849.575;  197.050;    0.000
412.594; 3932.575;  199.050;    0.000
412.649; 3905.575;  195.050;    0.000
412.703; 3890.575;  214.050;    0.000
412.758; 3872.575;  213.050;    0.000
412.812; 3827.575;  154.050;    0.000
412.866; 3836.575;  159.050;    0.000
412.921; 3847.575;  207.050;    0.000
412.975; 3911.575;  194.050;    0.000
413.030; 3880.575;  214.050;    0.000
413.084; 3754.575;  174.050;    0.000
413.139; 4082.575;  211.050;    0.000
413.193; 3866.575;  223.050;    0.000
413.247; 3920.575;  198.050;    0.000
413.302; 3876.575;  184.050;    0.000
413.356; 3855.575;  194.050;    0.000
413.410; 3789.575;  219.050;    0.000
413.465; 3775.575;  209.050;    0.000
413.519; 3930.575;  178.050;    0.000
413.573; 3842.575;  189.050;    0.000
413.628; 3882.575;  184.050;    0.000
413.682; 3795.575;  189.050;    0.000
413.736; 3860.575;  196.050;    0.000
413.791; 3923.575;  208.050;    0.000
413.845; 3809.575;  206.050;    0.000
413.899; 3827.575;  193.050;    0.000
413.953; 3760.575;  176.050;    0.000
414.008; 3938.575;  163.050;    0.000
414.062; 3858.575;  195.050;    0.000
414.116; 3843.575;  176.050;    0.000
414.170; 3900.575;  218.050;    0.000
414.225; 3772.575;  183.050;    0.000
414.279; 3877.575;  191.050;    0.000
414.333; 3773.575;  215.050;    0.000
414.387; 3862.575;  187.050;    0.000
414.441; 3930.575;  182.050;    0.000
414.496; 3922.575;  205.050;    0.000
414.550; 3901.575;  203.050;    0.000
414.604; 3877.575;  223.050;    0.000
414.658; 3859.575;  159.050;    0.000
414.712; 3937.575;  194.050;    0.000
414.766; 3943.575;  232.050;    0.000
414.820; 3773.575;  235.050;    0.000
414.874; 3865.575;  169.050;    0.000
414.928; 3898.575;  207.050;    0.000
414.982; 3873.575;  174.050;    0.000
415.037; 3930.575;  173.050;    0.000
415.091; 3831.575;  219.050;    0.000
415.145; 3931.575;  174.050;    0.000
415.199; 3755.575;  207.050;    0.000
415.253; 3765.575;  228.050;    0.000
415.307; 3855.575;  182.050;    0.000
415.361; 3958.575;  219.050;    0.000
415.415; 3906.575;  218.050;    0.000
415.469; 3858.575;  233.050;    0.000
415.523; 3973.575;  203.050;    0.000
415.577; 3822.575;  186.050;    0.000
415.631; 3843.575;  215.050;    0.000
415.684; 3915.575;  212.050;    0.000
415.738; 3871.575;  206.050;    0.000
415.792; 3891.575;  219.050;    0.000
415.846; 3833.575;  208.050;    0.000
415.900; 3872.575;  203.050;    0.000
415.954; 3902.575;  237.050;    0.000
416.008; 3902.575;  242.050;    0.000
416.062; 3816.575;  197.050;    0.000
416.116; 3813.575;  189.050;    0.000
416.169; 3876.575;  199.050;    0.000
416.223; 3919.575;  230.050;    0.000
416.277; 3821.575;  226.050;    0.000
416.331; 3806.575;  254.050;    0.000
416.385; 3825.575;  204.050;    0.000
416.439; 3890.575;  201.050;    0.000
416.492; 3868.575;  238.050;    0.000
416.546; 3893.575;  234.050;    0.000
416.600; 3831.575;  244.050;    0.000
416.654; 3781.575;  233.050;    0.000
416.707; 3843.575;  214.050;    0.000
416.761; 3756.575;  214.050;    0.000
416.815; 3821.575;  192.050;    0.000
416.869; 3858.575;  225.050;    0.000
416.922; 3785.575;  214.050;    0.000
416.976; 3808.575;  206.050;    0.000
417.030; 3890.575;  226.050;    0.000
417.083; 3803.575;  207.050;    0.000
417.137; 3829.575;  236.050;    0.000
417.191; 3951.575;  208.050;    0.000
417.244; 3788.575;  260.050;    0.000
417.298; 3775.575;  222.050;    0.000
417.352; 3762.575;  191.050;    0.000
417.405; 3863.575;  229.050;    0.000
417.459; 3788.575;  249.050;    0.000
417.512; 3846.575;  259.050;    0.000
417.566; 3874.575;  220.050;    0.000
417.620; 3807.575;  229.050;    0.000
417.673; 3726.575;  190.050;    0.000
417.727; 3896.575;  204.050;    0.000
417.780; 3821.575;  223.050;    0.000
417.834; 3777.575;  213.050;    0.000
417.887; 3910.575;  238.050;    0.000
417.941; 3839.575;  244.050;    0.000
417.994; 3840.575;  247.050;    0.000
418.048; 3825.575;  225.050;    0.000
418.101; 3717.575;  210.050;    0.000
418.155; 3813.575;  224.050;    0.000
418.208; 3980.575;  229.050;    0.000
418.262; 3854.575;  255.050;    0.000
418.315; 3881.575;  248.050;    0.000
418.369; 3861.575;  212.050;    0.000
418.422; 3855.575;  241.050;    0.000
418.476; 3938.575;  220.050;    0.000
418.529; 3893.575;  257.050;    0.000
418.582; 3855.575;  203.050;    0.000
418.636; 3883.575;  221.050;    0.000
418.689; 3780.575;  202.050;    0.000
418.743; 3853.575;  227.050;    0.000
418.796; 3739.575;  226.050;    0.000
418.849; 3836.575;  199.050;    0.000
418.903; 3834.575;  234.050;    0.000
418.956; 3862.575;  236.050;    0.000
419.009; 3907.575;  305.050;    0.000
419.063; 3714.575;  216.050;    0.000
419.116; 3886.575;  245.050;    0.000
419.169; 3833.575;  208.050;    0.000
419.222; 3851.575;  233.050;    0.000
419.276; 3854.575;  244.050;    0.000
419.329; 3841.575;  197.050;    0.000
419.382; 3837.575;  222.050;    0.000
419.435; 3827.575;  199.050;    0.000
419.489; 3816.575;  226.050;    0.000
419.542; 3773.575;  223.050;    0.000
419.595; 3717.575;  204.050;    0.000
419.648; 3787.575;  234.050;    0.000
419.701; 3660.575;  211.050;    0.000
419.755; 3792.575;  184.050;    0.000
419.808; 3809.575;  223.050;    0.000
419.861; 3753.575;  197.050;    0.000
419.914; 3850.575;  258.050;    0.000
419.967; 3852.575;  205.050;    0.000
420.020; 3768.575;  195.050;    0.000
420.073; 3655.575;  191.050;    0.000
420.127; 3813.575;  256.050;    0.000
420.180; 3651.575;  232.050;    0.000
420.233; 3692.575;  200.050;    0.000
420.286; 3632.575;  207.050;    0.000
420.339; 3714.575;  223.050;    0.000
420.392; 3665.575;  243.050;    0.000
420.445; 3668.575;  195.050;    0.000
420.498; 3648.575;  239.050;    0.000
420.551; 3626.575;  201.050;    0.000
420.604; 3709.575;  245.050;    0.000
420.657; 3737.575;  221.050;    0.000
420.710; 3688.575;  223.050;    0.000
420.763; 3686.575;  241.050;    0.000
420.816; 3631.575;  198.050;    0.000
420.869; 3657.575;  210.050;    0.000
420.922; 3565.575;  206.050;    0.000
420.975; 3670.575;  239.050;    0.000
421.028; 3653.575;  248.050;    0.000
421.081; 3678.575;  236.050;    0.000
421.134; 3633.575;  208.050;    0.000
421.187; 3673.575;  216.050;    0.000
421.239; 3501.575;  199.050;    0.000
421.292; 3629.575;  255.050;    0.000
421.345; 3591.575;  241.050;    0.000
421.398; 3591.575;  221.050;    0.000
421.451; 3501.575;  237.050;    0.000
421.504; 3529.575;  225.050;    0.000
421.557; 3529.575;  213.050;    0.000
421.609; 3552.575;  178.050;    0.000
421.662; 3606.575;  206.050;    0.000
421.715; 3547.575;  212.050;    0.000
421.768; 3561.575;  236.050;    0.000
421.821; 3545.575;  228.050;    0.000
421.873; 3658.575;  200.050;    0.000
421.926; 3471.575;  226.050;    0.000
421.979; 3542.575;  221.050;    0.000
422.032; 3505.575;  219.050;    0.000
422.084; 3603.575;  253.050;    0.000
422.137; 3549.575;  195.050;    0.000
422.190; 3552.575;  192.050;    0.000
422.243; 3591.575;  236.050;    0.000
422.295; 3591.575;  205.050;    0.000
422.348; 3496.575;  198.050;    0.000
422.401; 3627.575;  245.050;    0.000
422.453; 3492.575;  241.050;    0.000
422.506; 3522.575;  255.050;    0.000
422.559; 3522.575;  188.050;    0.000
422.611; 3648.575;  236.050;    0.000
422.664; 3506.575;  218.050;    0.000
422.716; 3518.575;  210.050;    0.000
422.769; 3509.575;  209.050;    0.000
422.822; 3567.575;  213.050;    0.000
422.874; 3602.575;  227.050;    0.000
422.927; 3517.575;  272.050;    0.000
422.979; 3483.575;  204.050;    0.000
423.032; 3485.575;  210.050;    0.000
423.084; 3542.575;  236.050;    0.000
423.137; 3563.575;  223.050;    0.000
423.189; 3647.575;  253.050;    0.000
423.242; 3416.575;  185.050;    0.000
423.294; 3495.575;  232.050;    0.000
423.347; 3445.575;  213.050;    0.000
423.399; 3536.575;  227.050;    0.000
423.452; 3598.575;  236.050;    0.000
423.504; 3560.575;  232.050;    0.000
423.557; 3532.575;  195.050;    0.000
423.609; 3447.575;  238.050;    0.000
423.662; 3478.575;  207.050;    0.000
423.714; 3565.575;  231.050;    0.000
423.766; 3576.575;  211.050;    0.000
423.819; 3436.575;  207.050;    0.000
423.871; 3436.575;  228.050;    0.000
423.923; 3425.575;  223.050;    0.000
423.976; 3545.575;  217.050;    0.000
424.028; 3488.575;  231.050;    0.000
424.081; 3428.575;  219.050;    0.000
424.133; 3444.575;  255.050;    0.000
424.185; 3455.575;  199.050;    0.000
424.238; 3407.575;  238.050;    0.000
424.290; 3580.575;  209.050;    0.000
424.342; 3442.575;  213.050;    0.000
424.394; 3502.575;  215.050;    0.000
424.447; 3388.575;  265.050;    0.000
424.499; 3458.575;  238.050;    0.000
424.551; 3504.575;  256.050;    0.000
424.603; 3481.575;  222.050;    0.000
424.656; 3425.575;  227.050;    0.000
424.708; 3452.575;  250.050;    0.000
424.760; 3413.575;  228.050;    0.000
424.812; 3402.575;  249.050;    0.000
424.864; 3437.575;  222.050;    0.000
424.917; 3387.575;  235.050;    0.000
424.969; 3466.575;  266.050;    0.000
425.021; 3369.575;  233.050;    0.000
425.073; 3401.575;  194.050;    0.000
425.125; 3409.575;  256.050;    0.000
425.177; 3360.575;  225.050;    0.000
425.229; 3417.575;  242.050;    0.000
425.282; 3349.575;  236.050;    0.000
425.334; 3339.575;  250.050;    0.000
425.386; 3451.575;  231.050;    0.000
425.438; 3388.575;  216.050;    0.000
425.490; 3345.575;  240.050;    0.000
425.542; 3381.575;  231.050;    0.000
425.594; 3280.575;  206.050;    0.000
425.646; 3312.575;  201.050;    0.000
425.698; 3174.575;  193.050;    0.000
425.750; 3301.575;  241.050;    0.000
425.802; 3415.575;  199.050;    0.000
425.854; 3280.575;  216.050;    0.000
425.906; 3328.575;  220.050;    0.000
425.958; 3427.575;  200.050;    0.000
426.010; 3333.575;  214.050;    0.000
426.062; 3362.575;  245.050;    0.000
426.114; 3296.575;  241.050;    0.000
426.166; 3388.575;  241.050;    0.000
426.218; 3310.575;  255.050;    0.000
426.270; 3331.575;  228.050;    0.000
426.321; 3309.575;  222.050;    0.000
426.373; 3340.575;  218.050;    0.000
426.425; 3288.575;  258.050;    0.000
426.477; 3223.575;  225.050;    0.000
426.529; 3350.575;  223.050;    0.000
426.581; 3401.575;  198.050;    0.000
426.633; 3318.575;  228.050;    0.000
426.684; 3302.575;  210.050;    0.000
426.736; 3276.575;  208.050;    0.000
426.788; 3341.575;  231.050;    0.000
426.840; 3155.575;  212.050;    0.000
426.892; 3229.575;  221.050;    0.000
426.943; 3283.575;  240.050;    0.000
426.995; 3238.575;  243.050;    0.000
427.047; 3205.575;  231.050;    0.000
427.099; 3296.575;  189.050;    0.000
427.150; 3253.575;  212.050;    0.000
427.202; 3306.575;  219.050;    0.000
427.254; 3235.575;  203.050;    0.000
427.306; 3253.575;  217.050;    0.000
427.357; 3228.575;  232.050;    0.000
427.409; 3271.575;  251.050;    0.000
427.461; 3173.575;  185.050;    0.000
427.512; 3222.575;  239.050;    0.000
427.564; 3199.575;  208.050;    0.000
427.616; 3190.575;  233.050;    0.000
427.667; 3206.575;  223.050;    0.000
427.719; 3125.575;  206.050;    0.000
427.770; 3273.575;  195.050;    0.000
427.822; 3264.575;  223.050;    0.000
427.874; 3137.575;  232.050;    0.000
427.925; 3159.575;  209.050;    0.000
427.977; 3237.575;  208.050;    0.000
428.028; 3229.575;  187.050;    0.000
428.080; 3234.575;  209.050;    0.000
428.131; 3173.575;  237.050;    0.000
428.183; 3236.575;  200.050;    0.000
428.234; 3155.575;  215.050;    0.000
428.286; 3131.575;  229.050;    0.000
428.337; 3211.575;  206.050;    0.000
428.389; 3211.575;  216.050;    0.000
428.440; 3180.575;  287.050;    0.000
428.492; 3214.575;  269.050;    0.000
428.543; 3160.575;  234.050;    0.000
428.595; 3152.575;  214.050;    0.000
428.646; 3114.575;  229.050;    0.000
428.697; 3072.575;  249.050;    0.000
428.749; 3187.575;  250.050;    0.000
428.800; 3144.575;  242.050;    0.000
428.852; 3022.575;  232.050;    0.000
428.903; 3099.575;  196.050;    0.000
428.954; 3118.575;  226.050;    0.000
429.006; 3176.575;  232.050;    0.000
429.057; 3114.575;  188.050;    0.000
429.108; 3097.575;  237.050;    0.000
429.160; 3120.575;  221.050;    0.000
429.211; 3105.575;  222.050;    0.000
429.262; 3156.575;  215.050;    0.000
429.314; 3065.575;  225.050;    0.000
429.365; 3093.575;  220.050;    0.000
429.416; 3022.575;  242.050;    0.000
429.467; 2995.575;  220.050;    0.000
429.519; 3092.575;  217.050;    0.000
429.570; 2999.575;  248.050;    0.000
429.621; 3069.575;  233.050;    0.000
429.672; 3111.575;  220.050;    0.000
429.724; 3128.575;  179.050;    0.000
429.775; 3060.575;  218.050;    0.000
429.826; 3060.575;  197.050;    0.000
429.877; 3023.575;  206.050;    0.000
429.928; 3090.575;  229.050;    0.000
429.980; 3026.575;  207.050;    0.000
430.031; 3024.575;  264.050;    0.000
430.082; 2998.575;  210.050;    0.000
430.133; 3094.575;  218.050;    0.000
430.184; 3053.575;  246.050;    0.000
430.235; 2975.575;  201.050;    0.000
430.286; 3132.575;  207.050;    0.000
430.337; 3035.575;  224.050;    0.000
430.388; 3005.575;  216.050;    0.000
430.439; 3045.575;  210.050;    0.000
430.490; 3048.575;  208.050;    0.000
430.542; 3014.575;  211.050;    0.000
430.593; 3006.575;  203.050;    0.000
430.644; 3085.575;  235.050;    0.000
430.695; 2953.575;  200.050;    0.000
430.746; 3078.575;  215.050;    0.000
430.797; 3019.575;  235.050;    0.000
430.848; 2919.575;  197.050;    0.000
430.898; 3025.575;  209.050;    0.000
430.949; 2983.575;  231.050;    0.000
431.000; 3087.575;  227.050;    0.000
431.051; 2894.575;  225.050;    0.000
431.102; 3094.575;  180.050;    0.000
431.153; 2987.575;  248.050;    0.000
431.204; 3064.575;  185.050;    0.000
431.255; 3036.575;  199.050;    0.000
431.306; 2997.575;  228.050;    0.000
431.357; 3033.575;  237.050;    0.000
431.408; 2970.575;  223.050;    0.000
431.458; 3070.575;  240.050;    0.000
431.509; 3074.575;  207.050;    0.000
431.560; 3109.575;  219.050;    0.000
431.611; 3123.575;  206.050;    0.000
431.662; 3099.575;  253.050;    0.000
431.713; 3015.575;  199.050;    0.000
431.763; 3089.575;  197.050;    0.000
431.814; 2983.575;  205.050;    0.000
431.865; 3072.575;  218.050;    0.000
431.916; 2982.575;  202.050;    0.000
431.966; 2970.575;  203.050;    0.000
432.017; 3095.575;  244.050;    0.000
432.068; 3000.575;  246.050;    0.000
432.118; 3088.575;  212.050;    0.000
432.169; 3015.575;  214.050;    0.000
432.220; 2985.575;  241.050;    0.000
432.271; 3024.575;  237.050;    0.000
432.321; 2982.575;  246.050;    0.000
432.372; 2978.575;  257.050;    0.000
432.423; 2970.575;  198.050;    0.000
432.473; 2993.575;  202.050;    0.000
432.524; 2914.575;  242.050;    0.000
432.574; 3043.575;  202.050;    0.000
432.625; 2959.575;  212.050;    0.000
432.676; 2927.575;  242.050;    0.000
432.726; 2905.575;  268.050;    0.000
432.777; 3005.575;  228.050;    0.000
432.827; 3170.575;  230.050;    0.000
432.878; 2922.575;  221.050;    0.000
432.928; 3044.575;  218.050;    0.000
432.979; 2987.575;  243.050;    0.000
433.029; 2931.575;  217.050;    0.000
433.080; 2893.575;  208.050;    0.000
433.130; 2967.575;  236.050;    0.000
433.181; 2914.575;  282.050;    0.000
433.231; 3014.575;  257.050;    0.000
433.282; 2908.575;  268.050;    0.000
433.332; 2969.575;  241.050;    0.000
433.383; 3060.575;  271.050;    0.000
433.433; 3033.575;  262.050;    0.000
433.484; 2959.575;  266.050;    0.000
433.534; 2986.575;  217.050;    0.000
433.585; 2987.575;  230.050;    0.000
433.635; 3044.575;  245.050;    0.000
433.685; 2933.575;  250.050;    0.000
433.736; 3034.575;  308.050;    0.000
433.786; 3001.575;  242.050;    0.000
433.836; 2954.575;  256.050;    0.000
433.887; 2918.575;  250.050;    0.000
433.937; 2981.575;  250.050;    0.000
433.987; 2907.575;  219.050;    0.000
434.038; 2941.575;  248.050;    0.000
434.088; 3137.575;  231.050;    0.000
434.138; 2989.575;  266.050;    0.000
434.189; 3021.575;  240.050;    0.000
434.239; 3000.575;  245.050;    0.000
434.289; 3045.575;  285.050;    0.000
434.339; 3011.575;  255.050;    0.000
434.389; 3043.575;  242.050;    0.000
434.440; 3083.575;  273.050;    0.000
434.490; 2990.575;  272.050;    0.000
434.540; 3065.575;  264.050;    0.000
434.590; 3054.575;  233.050;    0.000
434.640; 3106.575;  244.050;    0.000
434.691; 3114.575;  226.050;    0.000
434.741; 2995.575;  253.050;    0.000
434.791; 3203.575;  269.050;    0.000
434.841; 3073.575;  252.050;    0.000
434.891; 3081.575;  281.050;    0.000
434.941; 3047.575;  296.050;    0.000
434.991; 3116.575;  264.050;    0.000
435.042; 3156.575;  262.050;    0.000
435.092; 3045.575;  237.050;    0.000
435.142; 3007.575;  232.050;    0.000
435.192; 2928.575;  251.050;    0.000
435.242; 3034.575;  251.050;    0.000
435.292; 2936.575;  246.050;    0.000
435.342; 2977.575;  236.050;    0.000
435.392; 2980.575;  273.050;    0.000
435.442; 2962.575;  273.050;    0.000
435.492; 2991.575;  273.050;    0.000
435.542; 2902.575;  242.050;    0.000
435.592; 2981.575;  213.050;    0.000
435.642; 2974.575;  248.050;    0.000
435.692; 2917.575;  242.050;    0.000
435.742; 2964.575;  222.050;    0.000
435.792; 2991.575;  260.050;    0.000
435.842; 2877.575;  266.050;    0.000
435.891; 2893.575;  227.050;    0.000
435.941; 2883.575;  228.050;    0.000
435.991; 2962.575;  282.050;    0.000
436.041; 2852.575;  231.050;    0.000
436.091; 2877.575;  250.050;    0.000
436.141; 2897.575;  221.050;    0.000
436.191; 2798.575;  223.050;    0.000
436.241; 2799.575;  250.050;    0.000
436.290; 2848.575;  243.050;    0.000
436.340; 2787.575;  236.050;    0.000
436.390; 2795.575;  260.050;    0.000
436.440; 2761.575;  253.050;    0.000
436.490; 2862.575;  236.050;    0.000
436.539; 2946.575;  249.050;    0.000
436.589; 2866.575;  231.050;    0.000
436.639; 2806.575;  237.050;    0.000
436.689; 2811.575;  222.050;    0.000
436.738; 2853.575;  263.050;    0.000
436.788; 2883.575;  230.050;    0.000
436.838; 2949.575;  281.050;    0.000
436.887; 2861.575;  230.050;    0.000
436.937; 2800.575;  250.050;    0.000
436.987; 2733.575;  251.050;    0.000
437.036; 2708.575;  238.050;    0.000
437.086; 2843.575;  234.050;    0.000
437.136; 2813.575;  250.050;    0.000
437.185; 2870.575;  228.050;    0.000
437.235; 2835.575;  309.050;    0.000
437.285; 2770.575;  246.050;    0.000
437.334; 2758.575;  262.050;    0.000
437.384; 2757.575;  228.050;    0.000
437.433; 2729.575;  241.050;    0.000
437.483; 2800.575;  220.050;    0.000
437.532; 2773.575;  252.050;    0.000
437.582; 2861.575;  270.050;    0.000
437.631; 2781.575;  251.050;    0.000
437.681; 2711.575;  284.050;    0.000
437.730; 2808.575;  239.050;    0.000
437.780; 2733.575;  221.050;    0.000
437.829; 2695.575;  254.050;    0.000
437.879; 2713.575;  221.050;    0.000
437.928; 2702.575;  205.050;    0.000
437.978; 2768.575;  223.050;    0.000
438.027; 2683.575;  262.050;    0.000
438.077; 2680.575;  280.050;    0.000
438.126; 2781.575;  254.050;    0.000
438.176; 2759.575;  230.050;    0.000
438.225; 2676.575;  227.050;    0.000
438.274; 2706.575;  264.050;    0.000
438.324; 2708.575;  233.050;    0.000
438.373; 2755.575;  238.050;    0.000
438.422; 2796.575;  260.050;    0.000
438.472; 2690.575;  223.050;    0.000
438.521; 2783.575;  213.050;    0.000
438.570; 2666.575;  236.050;    0.000
438.620; 2800.575;  282.050;    0.000
438.669; 2704.575;  209.050;    0.000
438.718; 2801.575;  245.050;    0.000
438.768; 2706.575;  238.050;    0.000
438.817; 2701.575;  259.050;    0.000
438.866; 2696.575;  232.050;    0.000
438.915; 2748.575;  288.050;    0.000
438.965; 2585.575;  228.050;    0.000
439.014; 2731.575;  246.050;    0.000
439.063; 2763.575;  287.050;    0.000
439.112; 2754.575;  217.050;    0.000
439.162; 2690.575;  275.050;    0.000
439.211; 2797.575;  287.050;    0.000
439.260; 2708.575;  238.050;    0.000
439.309; 2672.575;  225.050;    0.000
439.358; 2723.575;  248.050;    0.000
439.407; 2631.575;  237.050;    0.000
439.456; 2707.575;  223.050;    0.000
439.506; 2686.575;  266.050;    0.000
439.555; 2742.575;  260.050;    0.000
439.604; 2684.575;  233.050;    0.000
439.653; 2782.575;  242.050;    0.000
439.702; 2730.575;  255.050;    0.000
439.751; 2719.575;  202.050;    0.000
439.800; 2703.575;  247.050;    0.000
439.849; 2750.575;  250.050;    0.000
439.898; 2593.575;  216.050;    0.000
439.947; 2645.575;  231.050;    0.000
439.996; 2678.575;  272.050;    0.000
440.045; 2764.575;  217.050;    0.000
440.094; 2683.575;  220.050;    0.000
440.143; 2851.575;  245.050;    0.000
440.192; 2735.575;  267.050;    0.000
440.241; 2705.575;  263.050;    0.000
440.290; 2718.575;  246.050;    0.000
440.339; 2702.575;  225.050;    0.000
440.388; 2678.575;  256.050;    0.000
440.437; 2838.575;  253.050;    0.000
440.486; 2663.575;  249.050;    0.000
440.535; 2787.575;  232.050;    0.000
440.583; 2733.575;  220.050;    0.000
440.632; 2781.575;  239.050;    0.000
440.681; 2747.575;  236.050;    0.000
440.730; 2832.575;  282.050;    0.000
440.779; 2760.575;  245.050;    0.000
440.828; 2735.575;  213.050;    0.000
440.876; 2701.575;  231.050;    0.000
440.925; 2800.575;  271.050;    0.000
440.974; 2730.575;  240.050;    0.000
441.023; 2726.575;  214.050;    0.000
441.072; 2792.575;  236.050;    0.000
441.120; 2785.575;  271.050;    0.000
441.169; 2742.575;  281.050;    0.000
441.218; 2821.575;  255.050;    0.000
441.267; 2911.575;  272.050;    0.000
441.315; 2838.575;  229.050;    0.000
441.364; 2833.575;  241.050;    0.000
441.413; 2773.575;  224.050;    0.000
441.461; 2811.575;  241.050;    0.000
441.510; 2868.575;  289.050;    0.000
441.559; 2877.575;  222.050;    0.000
441.607; 2829.575;  242.050;    0.000
441.656; 2879.575;  255.050;    0.000
441.705; 2950.575;  260.050;    0.000
441.753; 2900.575;  290.050;    0.000
441.802; 2837.575;  264.050;    0.000
441.850; 2849.575;  224.050;    0.000
441.899; 2860.575;  275.050;    0.000
441.948; 2945.575;  227.050;    0.000
441.996; 2800.575;  216.050;    0.000
442.045; 2825.575;  271.050;    0.000
442.093; 2895.575;  227.050;    0.000
442.142; 2880.575;  273.050;    0.000
442.190; 2835.575;  257.050;    0.000
442.239; 2800.575;  269.050;    0.000
442.287; 2761.575;  257.050;    0.000
442.336; 2854.575;  237.050;    0.000
442.384; 2896.575;  214.050;    0.000
442.433; 2880.575;  272.050;    0.000
442.481; 2902.575;  258.050;    0.000
442.529; 2821.575;  242.050;    0.000
442.578; 2869.575;  278.050;    0.000
442.626; 2792.575;  264.050;    0.000
442.675; 2890.575;  293.050;    0.000
442.723; 2831.575;  244.050;    0.000
442.771; 2875.575;  232.050;    0.000
442.820; 2861.575;  266.050;    0.000
442.868; 2882.575;  253.050;    0.000
442.917; 2835.575;  250.050;    0.000
442.965; 2844.575;  279.050;    0.000
443.013; 2744.575;  253.050;    0.000
443.062; 2833.575;  282.050;    0.000
443.110; 2789.575;  258.050;    0.000
443.158; 2874.575;  246.050;    0.000
443.206; 2828.575;  255.050;    0.000
443.255; 2930.575;  296.050;    0.000
443.303; 2763.575;  272.050;    0.000
443.351; 2833.575;  270.050;    0.000
443.399; 2901.575;  258.050;    0.000
443.448; 2896.575;  265.050;    0.000
443.496; 2893.575;  219.050;    0.000
443.544; 2916.575;  205.050;    0.000
443.592; 2865.575;  266.050;    0.000
443.640; 2997.575;  260.050;    0.000
443.689; 2878.575;  232.050;    0.000
443.737; 2943.575;  281.050;    0.000
443.785; 2946.575;  248.050;    0.000
443.833; 2919.575;  286.050;    0.000
443.881; 2915.575;  225.050;    0.000
443.929; 2853.575;  255.050;    0.000
443.977; 3004.575;  248.050;    0.000
444.025; 2937.575;  255.050;    0.000
444.074; 2914.575;  266.050;    0.000
444.122; 2974.575;  266.050;    0.000
444.170; 2933.575;  207.050;    0.000
444.218; 2862.575;  253.050;    0.000
444.266; 2905.575;  263.050;    0.000
444.314; 2979.575;  272.050;    0.000
444.362; 2925.575;  272.050;    0.000
444.410; 3045.575;  255.050;    0.000
444.458; 3011.575;  288.050;    0.000
444.506; 3055.575;  263.050;    0.000
444.554; 2968.575;  243.050;    0.000
444.602; 3057.575;  285.050;    0.000
444.650; 3093.575;  273.050;    0.000
444.698; 3036.575;  221.050;    0.000
444.746; 3030.575;  243.050;    0.000
444.793; 3086.575;  217.050;    0.000
444.841; 3111.575;  262.050;    0.000
444.889; 3025.575;  264.050;    0.000
444.937; 3080.575;  226.050;    0.000
444.985; 2979.575;  257.050;    0.000
445.033; 3003.575;  264.050;    0.000
445.081; 2998.575;  264.050;    0.000
445.129; 3099.575;  187.050;    0.000
445.176; 2994.575;  212.050;    0.000
445.224; 2944.575;  198.050;    0.000
445.272; 2944.575;  265.050;    0.000
445.320; 3139.575;  239.050;    0.000
445.368; 2986.575;  245.050;    0.000
445.415; 3115.575;  215.050;    0.000
445.463; 2980.575;  202.050;    0.000
445.511; 3012.575;  234.050;    0.000
445.559; 3066.575;  269.050;    0.000
445.606; 3021.575;  214.050;    0.000
445.654; 3066.575;  227.050;    0.000
445.702; 3098.575;  276.050;    0.000
445.749; 3028.575;  256.050;    0.000
445.797; 3111.575;  236.050;    0.000
445.845; 3027.575;  230.050;    0.000
445.892; 2999.575;  233.050;    0.000
445.940; 3123.575;  257.050;    0.000
445.988; 3090.575;  253.050;    0.000
446.035; 3036.575;  265.050;    0.000
446.083; 3030.575;  254.050;    0.000
446.130; 3082.575;  228.050;    0.000
446.178; 3024.575;  256.050;    0.000
446.226; 3105.575;  238.050;    0.000
446.273; 3046.575;  228.050;    0.000
446.321; 3187.575;  220.050;    0.000
446.368; 3053.575;  249.050;    0.000
446.416; 3038.575;  221.050;    0.000
446.463; 3087.575;  232.050;    0.000
446.511; 3099.575;  243.050;    0.000
446.558; 3122.575;  217.050;    0.000
446.606; 3193.575;  256.050;    0.000
446.653; 3229.575;  238.050;    0.000
446.701; 3218.575;  259.050;    0.000
446.748; 3164.575;  227.050;    0.000
446.796; 3129.575;  236.050;    0.000
446.843; 3233.575;  241.050;    0.000
446.891; 3225.575;  292.050;    0.000
446.938; 3235.575;  219.050;    0.000
446.985; 3308.575;  255.050;    0.000
447.033; 3253.575;  237.050;    0.000
447.080; 3335.575;  278.050;    0.000
447.128; 3365.575;  237.050;    0.000
447.175; 3296.575;  247.050;    0.000
447.222; 3328.575;  235.050;    0.000
447.270; 3331.575;  274.050;    0.000
447.317; 3336.575;  222.050;    0.000
447.364; 3447.575;  230.050;    0.000
447.411; 3452.575;  297.050;    0.000
447.459; 3492.575;  243.050;    0.000
447.506; 3508.575;  202.050;    0.000
447.553; 3602.575;  232.050;    0.000
447.601; 3492.575;  262.050;    0.000
447.648; 3586.575;  254.050;    0.000
447.695; 3778.575;  287.050;    0.000
447.742; 3624.575;  232.050;    0.000
447.789; 3689.575;  257.050;    0.000
447.837; 3728.575;  260.050;    0.000
447.884; 3723.575;  272.050;    0.000
447.931; 3969.575;  241.050;    0.000
447.978; 3926.575;  241.050;    0.000
448.025; 3949.575;  264.050;    0.000
448.072; 3936.575;  279.050;    0.000
448.120; 3976.575;  263.050;    0.000
448.167; 4005.575;  284.050;    0.000
448.214; 3873.575;  252.050;    0.000
448.261; 3839.575;  247.050;    0.000
448.308; 3834.575;  249.050;    0.000
448.355; 3764.575;  263.050;    0.000
448.402; 3707.575;  251.050;    0.000
448.449; 3623.575;  257.050;    0.000
448.496; 3620.575;  243.050;    0.000
448.543; 3559.575;  274.050;    0.000
448.590; 3498.575;  299.050;    0.000
448.637; 3424.575;  259.050;    0.000
448.684; 3386.575;  266.050;    0.000
448.731; 3368.575;  261.050;    0.000
448.778; 3348.575;  292.050;    0.000
448.825; 3383.575;  253.050;    0.000
448.872; 3254.575;  253.050;    0.000
448.919; 3315.575;  218.050;    0.000
448.966; 3272.575;  254.050;    0.000
449.013; 3290.575;  263.050;    0.000
449.060; 3182.575;  282.050;    0.000
449.107; 3125.575;  244.050;    0.000
449.154; 3070.575;  236.050;    0.000
449.200; 3204.575;  226.050;    0.000
449.247; 3149.575;  273.050;    0.000
449.294; 3175.575;  270.050;    0.000
449.341; 3027.575;  283.050;    0.000
449.388; 3065.575;  261.050;    0.000
449.435; 3040.575;  254.050;    0.000
449.481; 3097.575;  318.050;    0.000
449.528; 3100.575;  274.050;    0.000
449.575; 3088.575;  251.050;    0.000
449.622; 2961.575;  276.050;    0.000
449.668; 3040.575;  242.050;    0.000
449.715; 2957.575;  286.050;    0.000
449.762; 2898.575;  268.050;    0.000
449.809; 2988.575;  285.050;    0.000
449.855; 2993.575;  277.050;    0.000
449.902; 2946.575;  246.050;    0.000
449.949; 2971.575;  268.050;    0.000
449.995; 2927.575;  289.050;    0.000
450.042; 2924.575;  256.050;    0.000
450.089; 2897.575;  290.050;    0.000
450.135; 3001.575;  300.050;    0.000
450.182; 2860.575;  317.050;    0.000
450.229; 2874.575;  282.050;    0.000
450.275; 2948.575;  307.050;    0.000
450.322; 2829.575;  260.050;    0.000
450.368; 2831.575;  315.050;    0.000
450.415; 2856.575;  306.050;    0.000
450.462; 2883.575;  314.050;    0.000
450.508; 2882.575;  303.050;    0.000
450.555; 2817.575;  281.050;    0.000
450.601; 2828.575;  291.050;    0.000
450.648; 2808.575;  288.050;    0.000
450.694; 2868.575;  290.050;    0.000
450.741; 2885.575;  303.050;    0.000
450.787; 2779.575;  298.050;    0.000
450.834; 2708.575;  265.050;    0.000
450.880; 2800.575;  273.050;    0.000
450.927; 2756.575;  312.050;    0.000
450.973; 2739.575;  303.050;    0.000
451.019; 2774.575;  222.050;    0.000
451.066; 2750.575;  284.050;    0.000
451.112; 2826.575;  296.050;    0.000
451.159; 2678.575;  299.050;    0.000
451.205; 2792.575;  311.050;    0.000
451.251; 2735.575;  306.050;    0.000
451.298; 2765.575;  281.050;    0.000
451.344; 2725.575;  311.050;    0.000
451.390; 2813.575;  331.050;    0.000
451.437; 2816.575;  303.050;    0.000
451.483; 2778.575;  284.050;    0.000
451.529; 2737.575;  310.050;    0.000
451.576; 2737.575;  301.050;    0.000
451.622; 2743.575;  275.050;    0.000
451.668; 2762.575;  269.050;    0.000
451.714; 2657.575;  277.050;    0.000
451.761; 2717.575;  298.050;    0.000
451.807; 2783.575;  316.050;    0.000
451.853; 2692.575;  301.050;    0.000
451.899; 2653.575;  292.050;    0.000
451.945; 2683.575;  324.050;    0.000
451.992; 2675.575;  292.050;    0.000
452.038; 2666.575;  261.050;    0.000
452.084; 2686.575;  286.050;    0.000
452.130; 2749.575;  301.050;    0.000
452.176; 2732.575;  287.050;    0.000
452.222; 2594.575;  265.050;    0.000
452.268; 2709.575;  268.050;    0.000
452.315; 2659.575;  272.050;    0.000
452.361; 2653.575;  258.050;    0.000
452.407; 2626.575;  279.050;    0.000
452.453; 2629.575;  252.050;    0.000
452.499; 2691.575;  305.050;    0.000
452.545; 2616.575;  263.050;    0.000
452.591; 2681.575;  284.050;    0.000
452.637; 2673.575;  289.050;    0.000
452.683; 2583.575;  249.050;    0.000
452.729; 2696.575;  290.050;    0.000
452.775; 2618.575;  315.050;    0.000
452.821; 2573.575;  271.050;    0.000
452.867; 2589.575;  258.050;    0.000
452.913; 2576.575;  256.050;    0.000
452.959; 2596.575;  266.050;    0.000
453.005; 2567.575;  299.050;    0.000
453.051; 2619.575;  299.050;    0.000
453.097; 2625.575;  268.050;    0.000
453.142; 2670.575;  251.050;    0.000
453.188; 2618.575;  284.050;    0.000
453.234; 2604.575;  285.050;    0.000
453.280; 2572.575;  263.050;    0.000
453.326; 2563.575;  273.050;    0.000
453.372; 2507.575;  253.050;    0.000
453.418; 2591.575;  269.050;    0.000
453.463; 2570.575;  250.050;    0.000
453.509; 2610.575;  289.050;    0.000
453.555; 2562.575;  262.050;    0.000
453.601; 2560.575;  274.050;    0.000
453.647; 2618.575;  306.050;    0.000
453.692; 2503.575;  264.050;    0.000
453.738; 2601.575;  312.050;    0.000
453.784; 2511.575;  300.050;    0.000
453.829; 2498.575;  284.050;    0.000
453.875; 2525.575;  270.050;    0.000
453.921; 2494.575;  237.050;    0.000
453.967; 2533.575;  263.050;    0.000
454.012; 2522.575;  295.050;    0.000
454.058; 2607.575;  293.050;    0.000
454.104; 2485.575;  264.050;    0.000
454.149; 2545.575;  282.050;    0.000
454.195; 2473.575;  277.050;    0.000
454.240; 2549.575;  307.050;    0.000
454.286; 2578.575;  282.050;    0.000
454.332; 2537.575;  291.050;    0.000
454.377; 2491.575;  302.050;    0.000
454.423; 2471.575;  276.050;    0.000
454.468; 2557.575;  281.050;    0.000
454.514; 2497.575;  290.050;    0.000
454.559; 2501.575;  289.050;    0.000
454.605; 2510.575;  258.050;    0.000
454.650; 2536.575;  281.050;    0.000
454.696; 2517.575;  308.050;    0.000
454.741; 2569.575;  288.050;    0.000
454.787; 2505.575;  284.050;    0.000
454.832; 2493.575;  306.050;    0.000
454.878; 2552.575;  288.050;    0.000
454.923; 2561.575;  287.050;    0.000
454.969; 2571.575;  325.050;    0.000
455.014; 2475.575;  323.050;    0.000
455.060; 2449.575;  290.050;    0.000
455.105; 2592.575;  285.050;    0.000
455.150; 2571.575;  303.050;    0.000
455.196; 2486.575;  282.050;    0.000
455.241; 2544.575;  281.050;    0.000
455.286; 2515.575;  290.050;    0.000
455.332; 2608.575;  280.050;    0.000
455.377; 2486.575;  243.050;    0.000
455.422; 2617.575;  308.050;    0.000
455.468; 2436.575;  308.050;    0.000
455.513; 2574.575;  290.050;    0.000
455.558; 2538.575;  211.050;    0.000
455.604; 2543.575;  289.050;    0.000
455.649; 2565.575;  297.050;    0.000
455.694; 2436.575;  287.050;    0.000
455.739; 2511.575;  296.050;    0.000
455.785; 2485.575;  315.050;    0.000
455.830; 2572.575;  328.050;    0.000
455.875; 2513.575;  310.050;    0.000
455.920; 2548.575;  261.050;    0.000
455.965; 2522.575;  277.050;    0.000
456.010; 2519.575;  317.050;    0.000
456.056; 2492.575;  299.050;    0.000
456.101; 2519.575;  262.050;    0.000
456.146; 2560.575;  318.050;    0.000
456.191; 2539.575;  274.050;    0.000
456.236; 2516.575;  274.050;    0.000
456.281; 2488.575;  275.050;    0.000
456.326; 2450.575;  256.050;    0.000
456.371; 2474.575;  260.050;    0.000
456.416; 2514.575;  304.050;    0.000
456.461; 2536.575;  278.050;    0.000
456.507; 2544.575;  299.050;    0.000
456.552; 2483.575;  305.050;    0.000
456.597; 2495.575;  271.050;    0.000
456.642; 2483.575;  273.050;    0.000
456.687; 2574.575;  290.050;    0.000
456.732; 2624.575;  327.050;    0.000
456.776; 2520.575;  284.050;    0.000
456.821; 2476.575;  321.050;    0.000
456.866; 2586.575;  272.050;    0.000
456.911; 2529.575;  232.050;    0.000
456.956; 2530.575;  263.050;    0.000
457.001; 2558.575;  277.050;    0.000
457.046; 2484.575;  284.050;    0.000
457.091; 2469.575;  269.050;    0.000
457.136; 2487.575;  269.050;    0.000
457.181; 2599.575;  275.050;    0.000
457.225; 2551.575;  310.050;    0.000
457.270; 2552.575;  295.050;    0.000
457.315; 2625.575;  284.050;    0.000
457.360; 2554.575;  264.050;    0.000
457.405; 2486.575;  273.050;    0.000
457.450; 2582.575;  284.050;    0.000
457.494; 2474.575;  273.050;    0.000
457.539; 2541.575;  287.050;    0.000
457.584; 2515.575;  279.050;    0.000
457.629; 2503.575;  288.050;    0.000
457.673; 2537.575;  297.050;    0.000
457.718; 2547.575;  270.050;    0.000
457.763; 2663.575;  295.050;    0.000
457.807; 2494.575;  321.050;    0.000
457.852; 2566.575;  293.050;    0.000
457.897; 2537.575;  282.050;    0.000
457.941; 2650.575;  320.050;    0.000
457.986; 2664.575;  295.050;    0.000
458.031; 2593.575;  314.050;    0.000
458.075; 2547.575;  280.050;    0.000
458.120; 2657.575;  314.050;    0.000
458.165; 2663.575;  289.050;    0.000
458.209; 2586.575;  289.050;    0.000
458.254; 2607.575;  272.050;    0.000
458.298; 2582.575;  305.050;    0.000
458.343; 2609.575;  284.050;    0.000
458.387; 2598.575;  340.050;    0.000
458.432; 2583.575;  306.050;    0.000
458.476; 2652.575;  311.050;    0.000
458.521; 2531.575;  304.050;    0.000
458.565; 2621.575;  329.050;    0.000
458.610; 2617.575;  287.050;    0.000
458.654; 2672.575;  300.050;    0.000
458.699; 2600.575;  295.050;    0.000
458.743; 2668.575;  269.050;    0.000
458.788; 2679.575;  294.050;    0.000
458.832; 2685.575;  301.050;    0.000
458.877; 2634.575;  303.050;    0.000
458.921; 2728.575;  259.050;    0.000
458.965; 2730.575;  308.050;    0.000
459.010; 2728.575;  330.050;    0.000
459.054; 2793.575;  298.050;    0.000
459.099; 2697.575;  303.050;    0.000
459.143; 2762.575;  333.050;    0.000
459.187; 2725.575;  291.050;    0.000
459.231; 2674.575;  316.050;    0.000
459.276; 2777.575;  294.050;    0.000
459.320; 2807.575;  291.050;    0.000
459.364; 2825.575;  318.050;    0.000
459.409; 2749.575;  325.050;    0.000
459.453; 2733.575;  293.050;    0.000
459.497; 2765.575;  354.050;    0.000
459.541; 2778.575;  313.050;    0.000
459.586; 2813.575;  282.050;    0.000
459.630; 2903.575;  286.050;    0.000
459.674; 2733.575;  292.050;    0.000
459.718; 2857.575;  280.050;    0.000
459.762; 2739.575;  304.050;    0.000
459.807; 2857.575;  352.050;    0.000
459.851; 2854.575;  300.050;    0.000
459.895; 2823.575;  311.050;    0.000
459.939; 2791.575;  303.050;    0.000
459.983; 2790.575;  299.050;    0.000
460.027; 2769.575;  307.050;    0.000
460.071; 2871.575;  313.050;    0.000
460.115; 2866.575;  325.050;    0.000
460.159; 2924.575;  331.050;    0.000
460.204; 2875.575;  301.050;    0.000
460.248; 2875.575;  329.050;    0.000
460.292; 2818.575;  310.050;    0.000
460.336; 2903.575;  304.050;    0.000
460.380; 2792.575;  313.050;    0.000
460.424; 2842.575;  300.050;    0.000
460.468; 2828.575;  338.050;    0.000
460.512; 2911.575;  310.050;    0.000
460.556; 2896.575;  337.050;    0.000
460.599; 2830.575;  310.050;    0.000
460.643; 2863.575;  303.050;    0.000
460.687; 2848.575;  316.050;    0.000
460.731; 2808.575;  292.050;    0.000
460.775; 2788.575;  294.050;    0.000
460.819; 2923.575;  310.050;    0.000
460.863; 2820.575;  349.050;    0.000
460.907; 2982.575;  265.050;    0.000
460.951; 2872.575;  325.050;    0.000
460.995; 2878.575;  338.050;    0.000
461.038; 2840.575;  304.050;    0.000
461.082; 2924.575;  312.050;    0.000
461.126; 2897.575;  358.050;    0.000
461.170; 2820.575;  306.050;    0.000
461.214; 2961.575;  330.050;    0.000
461.257; 3002.575;  311.050;    0.000
461.301; 2916.575;  303.050;    0.000
461.345; 2895.575;  310.050;    0.000
461.389; 2952.575;  296.050;    0.000
461.432; 2903.575;  304.050;    0.000
461.476; 2907.575;  305.050;    0.000
461.520; 2818.575;  319.050;    0.000
461.563; 2998.575;  294.050;    0.000
461.607; 2792.575;  295.050;    0.000
461.651; 2864.575;  335.050;    0.000
461.694; 2858.575;  276.050;    0.000
461.738; 2919.575;  327.050;    0.000
461.782; 2959.575;  288.050;    0.000
461.825; 2872.575;  319.050;    0.000
461.869; 2946.575;  305.050;    0.000
461.913; 3007.575;  281.050;    0.000
461.956; 2978.575;  281.050;    0.000
462.000; 2942.575;  339.050;    0.000
462.043; 3040.575;  347.050;    0.000
462.087; 3035.575;  314.050;    0.000
462.130; 2968.575;  332.050;    0.000
462.174; 2969.575;  332.050;    0.000
462.217; 2987.575;  299.050;    0.000
462.261; 3028.575;  323.050;    0.000
462.304; 2906.575;  286.050;    0.000
462.348; 2962.575;  305.050;    0.000
462.391; 2951.575;  293.050;    0.000
462.435; 3000.575;  365.050;    0.000
462.478; 3030.575;  329.050;    0.000
462.522; 3061.575;  316.050;    0.000
462.565; 3123.575;  328.050;    0.000
462.608; 3166.575;  350.050;    0.000
462.652; 3228.575;  328.050;    0.000
462.695; 3103.575;  358.050;    0.000
462.739; 3095.575;  317.050;    0.000
462.782; 3134.575;  329.050;    0.000
462.825; 3077.575;  368.050;    0.000
462.869; 3232.575;  343.050;    0.000
462.912; 3238.575;  404.050;    0.000
462.955; 3172.575;  328.050;    0.000
462.998; 3215.575;  340.050;    0.000
463.042; 3205.575;  361.050;    0.000
463.085; 3142.575;  337.050;    0.000
463.128; 3225.575;  373.050;    0.000
463.172; 3040.575;  347.050;    0.000
463.215;  384.575;  305.050;    0.000
463.258;  323.575;  324.050;    0.000
463.301;  293.575;  296.050;    0.000
463.344;  323.575;  332.050;    0.000
463.388;  294.575;  309.050;    0.000
463.431;  308.575;  298.050;    0.000
463.474;  314.575;  351.050;    0.000
463.517;  287.575;  319.050;    0.000
463.560;  336.575;  325.050;    0.000
463.603;  301.575;  330.050;    0.000
463.646;  324.575;  332.050;    0.000
463.690;  353.575;  325.050;    0.000
463.733;  374.575;  323.050;    0.000
463.776;  270.575;  276.050;    0.000
463.819;  315.575;  320.050;    0.000
463.862;  288.575;  275.050;    0.000

