
Integration time [ms]:   0.300
Averaging Nr. [scans]: 1
Smoothing Nr. [pixels]: 0
Data measured with spectrometer [name]: UV1
Wave   ;Sample   ;Dark     ;Reference
[nm]   ;[counts] ;[counts] ;[counts] 

236.381;  161.350;  160.350;    0.000
236.451;  189.350;  198.350;    0.000
236.520;  162.350;  179.350;    0.000
236.590;  213.350;  205.350;    0.000
236.660;  173.350;  199.350;    0.000
236.730;  156.350;  178.350;    0.000
236.799;  172.350;  201.350;    0.000
236.869;  207.350;  197.350;    0.000
236.939;  180.350;  180.350;    0.000
237.009;  196.350;  165.350;    0.000
237.078;  174.350;  191.350;    0.000
237.148;  170.350;  146.350;    0.000
237.218;  187.350;  142.350;    0.000
237.287;  192.350;  190.350;    0.000
237.357;  180.350;  182.350;    0.000
237.427;  185.350;  139.350;    0.000
237.496;  897.350;  221.350;    0.000
237.566;  867.350;  183.350;    0.000
237.636;  856.350;  157.350;    0.000
237.705;  854.350;  189.350;    0.000
237.775;  870.350;  169.350;    0.000
237.845;  918.350;  156.350;    0.000
237.914;  843.350;  185.350;    0.000
237.984;  908.350;  194.350;    0.000
238.054;  815.350;  138.350;    0.000
238.123;  871.350;  166.350;    0.000
238.193;  875.350;  174.350;    0.000
238.263;  937.350;  158.350;    0.000
238.332;  894.350;  167.350;    0.000
238.402;  877.350;  173.350;    0.000
238.471;  839.350;  153.350;    0.000
238.541;  879.350;  167.350;    0.000
238.611;  838.350;  165.350;    0.000
238.680;  825.350;  157.350;    0.000
238.750;  936.350;  152.350;    0.000
238.819;  885.350;  190.350;    0.000
238.889;  853.350;  151.350;    0.000
238.958;  885.350;  166.350;    0.000
239.028;  894.350;  180.350;    0.000
239.097;  844.350;  170.350;    0.000
239.167;  922.350;  177.350;    0.000
239.237;  920.350;  195.350;    0.000
239.306;  798.350;  145.350;    0.000
239.376;  821.350;  158.350;    0.000
239.445;  866.350;  187.350;    0.000
239.515;  849.350;  160.350;    0.000
239.584;  846.350;  173.350;    0.000
239.654;  859.350;  184.350;    0.000
239.723;  888.350;  195.350;    0.000
239.793;  873.350;  183.350;    0.000
239.862;  898.350;  190.350;    0.000
239.932;  877.350;  168.350;    0.000
240.001;  845.350;  164.350;    0.000
240.070;  930.350;  183.350;    0.000
240.140;  916.350;  175.350;    0.000
240.209;  817.350;  135.350;    0.000
240.279;  856.350;  176.350;    0.000
240.348;  876.350;  184.350;    0.000
240.418;  867.350;  157.350;    0.000
240.487;  862.350;  189.350;    0.000
240.556;  836.350;  157.350;    0.000
240.626;  866.350;  174.350;    0.000
240.695;  900.350;  180.350;    0.000
240.765;  781.350;  152.350;    0.000
240.834;  849.350;  136.350;    0.000
240.903;  924.350;  196.350;    0.000
240.973;  817.350;  183.350;    0.000
241.042;  804.350;  150.350;    0.000
241.112;  836.350;  168.350;    0.000
241.181;  858.350;  152.350;    0.000
241.250;  750.350;  132.350;    0.000
241.320;  800.350;  209.350;    0.000
241.389;  834.350;  169.350;    0.000
241.458;  862.350;  204.350;    0.000
241.528;  827.350;  176.350;    0.000
241.597;  823.350;  170.350;    0.000
241.666;  882.350;  168.350;    0.000
241.736;  879.350;  172.350;    0.000
241.805;  845.350;  160.350;    0.000
241.874;  863.350;  176.350;    0.000
241.943;  833.350;  165.350;    0.000
242.013;  953.350;  206.350;    0.000
242.082;  851.350;  162.350;    0.000
242.151;  802.350;  180.350;    0.000
242.221;  749.350;  154.350;    0.000
242.290;  798.350;  122.350;    0.000
242.359;  816.350;  121.350;    0.000
242.428;  879.350;  187.350;    0.000
242.498;  811.350;  140.350;    0.000
242.567;  854.350;  173.350;    0.000
242.636;  799.350;  155.350;    0.000
242.705;  844.350;  108.350;    0.000
242.774;  881.350;  145.350;    0.000
242.844;  839.350;  162.350;    0.000
242.913;  851.350;  178.350;    0.000
242.982;  807.350;  163.350;    0.000
243.051;  856.350;  138.350;    0.000
243.120;  822.350;  172.350;    0.000
243.190;  815.350;  155.350;    0.000
243.259;  875.350;  159.350;    0.000
243.328;  785.350;  173.350;    0.000
243.397;  802.350;  175.350;    0.000
243.466;  805.350;  170.350;    0.000
243.535;  799.350;  161.350;    0.000
243.605;  791.350;  149.350;    0.000
243.674;  780.350;  162.350;    0.000
243.743;  823.350;  175.350;    0.000
243.812;  782.350;  159.350;    0.000
243.881;  797.350;  158.350;    0.000
243.950;  825.350;  154.350;    0.000
244.019;  786.350;  185.350;    0.000
244.088;  805.350;  175.350;    0.000
244.158;  787.350;  167.350;    0.000
244.227;  792.350;  159.350;    0.000
244.296;  796.350;  143.350;    0.000
244.365;  775.350;  182.350;    0.000
244.434;  800.350;  117.350;    0.000
244.503;  765.350;  109.350;    0.000
244.572;  748.350;  147.350;    0.000
244.641;  790.350;  129.350;    0.000
244.710;  815.350;  159.350;    0.000
244.779;  788.350;  166.350;    0.000
244.848;  788.350;  122.350;    0.000
244.917;  822.350;  167.350;    0.000
244.986;  713.350;  158.350;    0.000
245.055;  789.350;  175.350;    0.000
245.124;  750.350;  153.350;    0.000
245.193;  774.350;  155.350;    0.000
245.262;  731.350;  137.350;    0.000
245.331;  802.350;  145.350;    0.000
245.400;  706.350;  107.350;    0.000
245.469;  773.350;  162.350;    0.000
245.538;  747.350;  165.350;    0.000
245.607;  755.350;  178.350;    0.000
245.676;  705.350;  166.350;    0.000
245.745;  717.350;  169.350;    0.000
245.814;  774.350;  155.350;    0.000
245.883;  771.350;  186.350;    0.000
245.952;  695.350;  165.350;    0.000
246.021;  706.350;  169.350;    0.000
246.090;  712.350;  170.350;    0.000
246.159;  701.350;  155.350;    0.000
246.227;  761.350;  161.350;    0.000
246.296;  715.350;  142.350;    0.000
246.365;  741.350;  160.350;    0.000
246.434;  754.350;  199.350;    0.000
246.503;  726.350;  155.350;    0.000
246.572;  714.350;  206.350;    0.000
246.641;  719.350;  177.350;    0.000
246.710;  688.350;  178.350;    0.000
246.779;  685.350;  193.350;    0.000
246.847;  679.350;  147.350;    0.000
246.916;  695.350;  131.350;    0.000
246.985;  689.350;  168.350;    0.000
247.054;  690.350;  143.350;    0.000
247.123;  654.350;  130.350;    0.000
247.192;  739.350;  175.350;    0.000
247.260;  685.350;  171.350;    0.000
247.329;  722.350;  162.350;    0.000
247.398;  657.350;  163.350;    0.000
247.467;  677.350;  155.350;    0.000
247.536;  747.350;  149.350;    0.000
247.604;  700.350;  191.350;    0.000
247.673;  665.350;  193.350;    0.000
247.742;  708.350;  159.350;    0.000
247.811;  684.350;  167.350;    0.000
247.879;  667.350;  176.350;    0.000
247.948;  692.350;  157.350;    0.000
248.017;  718.350;  150.350;    0.000
248.086;  648.350;  153.350;    0.000
248.154;  710.350;  157.350;    0.000
248.223;  685.350;  198.350;    0.000
248.292;  740.350;  188.350;    0.000
248.361;  695.350;  157.350;    0.000
248.429;  664.350;  138.350;    0.000
248.498;  679.350;  166.350;    0.000
248.567;  690.350;  179.350;    0.000
248.635;  746.350;  210.350;    0.000
248.704;  753.350;  168.350;    0.000
248.773;  656.350;  147.350;    0.000
248.841;  651.350;  155.350;    0.000
248.910;  701.350;  183.350;    0.000
248.979;  703.350;  171.350;    0.000
249.047;  630.350;  152.350;    0.000
249.116;  642.350;  155.350;    0.000
249.185;  751.350;  217.350;    0.000
249.253;  672.350;  149.350;    0.000
249.322;  635.350;  167.350;    0.000
249.390;  649.350;  182.350;    0.000
249.459;  703.350;  173.350;    0.000
249.528;  681.350;  162.350;    0.000
249.596;  672.350;  162.350;    0.000
249.665;  637.350;  163.350;    0.000
249.733;  648.350;  147.350;    0.000
249.802;  659.350;  170.350;    0.000
249.871;  634.350;  179.350;    0.000
249.939;  650.350;  179.350;    0.000
250.008;  664.350;  201.350;    0.000
250.076;  702.350;  189.350;    0.000
250.145;  713.350;  171.350;    0.000
250.213;  621.350;  161.350;    0.000
250.282;  629.350;  171.350;    0.000
250.350;  622.350;  138.350;    0.000
250.419;  659.350;  172.350;    0.000
250.487;  648.350;  207.350;    0.000
250.556;  662.350;  160.350;    0.000
250.624;  640.350;  187.350;    0.000
250.693;  635.350;  141.350;    0.000
250.761;  589.350;  182.350;    0.000
250.830;  718.350;  203.350;    0.000
250.898;  601.350;  160.350;    0.000
250.967;  600.350;  143.350;    0.000
251.035;  645.350;  142.350;    0.000
251.104;  634.350;  159.350;    0.000
251.172;  685.350;  189.350;    0.000
251.241;  614.350;  134.350;    0.000
251.309;  612.350;  179.350;    0.000
251.378;  592.350;  203.350;    0.000
251.446;  661.350;  151.350;    0.000
251.514;  680.350;  176.350;    0.000
251.583;  663.350;  173.350;    0.000
251.651;  636.350;  163.350;    0.000
251.720;  706.350;  151.350;    0.000
251.788;  664.350;  205.350;    0.000
251.856;  556.350;  126.350;    0.000
251.925;  625.350;  118.350;    0.000
251.993;  650.350;  139.350;    0.000
252.062;  627.350;  161.350;    0.000
252.130;  628.350;  180.350;    0.000
252.198;  644.350;  141.350;    0.000
252.267;  648.350;  145.350;    0.000
252.335;  645.350;  159.350;    0.000
252.403;  617.350;  158.350;    0.000
252.472;  622.350;  142.350;    0.000
252.540;  576.350;  162.350;    0.000
252.608;  640.350;  180.350;    0.000
252.677;  662.350;  137.350;    0.000
252.745;  600.350;  183.350;    0.000
252.813;  621.350;  151.350;    0.000
252.881;  542.350;  109.350;    0.000
252.950;  524.350;  174.350;    0.000
253.018;  571.350;  136.350;    0.000
253.086;  484.350;  149.350;    0.000
253.155;  554.350;  127.350;    0.000
253.223;  513.350;  156.350;    0.000
253.291;  576.350;  163.350;    0.000
253.359;  523.350;  174.350;    0.000
253.428;  548.350;  174.350;    0.000
253.496;  533.350;  161.350;    0.000
253.564;  472.350;  128.350;    0.000
253.632;  498.350;  153.350;    0.000
253.700;  497.350;  185.350;    0.000
253.769;  520.350;  163.350;    0.000
253.837;  530.350;  176.350;    0.000
253.905;  514.350;  164.350;    0.000
253.973;  481.350;  156.350;    0.000
254.041;  478.350;  154.350;    0.000
254.110;  502.350;  165.350;    0.000
254.178;  487.350;  148.350;    0.000
254.246;  467.350;  138.350;    0.000
254.314;  490.350;  164.350;    0.000
254.382;  467.350;  167.350;    0.000
254.450;  499.350;  134.350;    0.000
254.518;  497.350;  192.350;    0.000
254.587;  505.350;  139.350;    0.000
254.655;  509.350;  162.350;    0.000
254.723;  445.350;  131.350;    0.000
254.791;  495.350;  181.350;    0.000
254.859;  518.350;  146.350;    0.000
254.927;  514.350;  189.350;    0.000
254.995;  510.350;  141.350;    0.000
255.063;  492.350;  181.350;    0.000
255.131;  497.350;  156.350;    0.000
255.199;  515.350;  175.350;    0.000
255.267;  451.350;  120.350;    0.000
255.336;  483.350;  186.350;    0.000
255.404;  460.350;  134.350;    0.000
255.472;  474.350;  172.350;    0.000
255.540;  503.350;  157.350;    0.000
255.608;  499.350;  186.350;    0.000
255.676;  473.350;  155.350;    0.000
255.744;  522.350;  143.350;    0.000
255.812;  499.350;  134.350;    0.000
255.880;  515.350;  188.350;    0.000
255.948;  531.350;  163.350;    0.000
256.016;  484.350;  175.350;    0.000
256.084;  529.350;  191.350;    0.000
256.152;  577.350;  187.350;    0.000
256.220;  523.350;  152.350;    0.000
256.288;  537.350;  141.350;    0.000
256.356;  504.350;  139.350;    0.000
256.424;  540.350;  121.350;    0.000
256.491;  510.350;  139.350;    0.000
256.559;  561.350;  144.350;    0.000
256.627;  528.350;  158.350;    0.000
256.695;  506.350;  121.350;    0.000
256.763;  548.350;  150.350;    0.000
256.831;  597.350;  181.350;    0.000
256.899;  580.350;  146.350;    0.000
256.967;  534.350;   71.350;    0.000
257.035;  579.350;  164.350;    0.000
257.103;  648.350;  191.350;    0.000
257.171;  612.350;  140.350;    0.000
257.238;  570.350;  165.350;    0.000
257.306;  631.350;  127.350;    0.000
257.374;  529.350;  120.350;    0.000
257.442;  622.350;  139.350;    0.000
257.510;  616.350;  158.350;    0.000
257.578;  625.350;  164.350;    0.000
257.646;  637.350;  151.350;    0.000
257.713;  648.350;  136.350;    0.000
257.781;  631.350;  137.350;    0.000
257.849;  686.350;  151.350;    0.000
257.917;  588.350;  154.350;    0.000
257.985;  632.350;  113.350;    0.000
258.052;  670.350;  140.350;    0.000
258.120;  631.350;  176.350;    0.000
258.188;  639.350;  157.350;    0.000
258.256;  630.350;  153.350;    0.000
258.324;  682.350;  184.350;    0.000
258.391;  661.350;  144.350;    0.000
258.459;  725.350;  162.350;    0.000
258.527;  713.350;  154.350;    0.000
258.595;  675.350;  122.350;    0.000
258.662;  677.350;  164.350;    0.000
258.730;  730.350;  114.350;    0.000
258.798;  724.350;  131.350;    0.000
258.865;  766.350;  171.350;    0.000
258.933;  787.350;  145.350;    0.000
259.001;  768.350;  150.350;    0.000
259.069;  783.350;  123.350;    0.000
259.136;  796.350;  139.350;    0.000
259.204;  799.350;  165.350;    0.000
259.272;  845.350;  114.350;    0.000
259.339;  740.350;  179.350;    0.000
259.407;  847.350;  153.350;    0.000
259.475;  768.350;  143.350;    0.000
259.542;  799.350;  136.350;    0.000
259.610;  812.350;  133.350;    0.000
259.677;  836.350;  159.350;    0.000
259.745;  807.350;  130.350;    0.000
259.813;  822.350;  175.350;    0.000
259.880;  829.350;  158.350;    0.000
259.948;  788.350;  124.350;    0.000
260.016;  852.350;  105.350;    0.000
260.083;  917.350;  169.350;    0.000
260.151;  891.350;  133.350;    0.000
260.218;  888.350;  143.350;    0.000
260.286;  924.350;  134.350;    0.000
260.353;  940.350;  160.350;    0.000
260.421;  906.350;  128.350;    0.000
260.489;  999.350;  150.350;    0.000
260.556;  918.350;  179.350;    0.000
260.624;  952.350;  113.350;    0.000
260.691;  968.350;  128.350;    0.000
260.759; 1029.350;  146.350;    0.000
260.826;  927.350;  111.350;    0.000
260.894;  975.350;  115.350;    0.000
260.961; 1022.350;  138.350;    0.000
261.029;  940.350;  152.350;    0.000
261.096; 1016.350;  175.350;    0.000
261.164; 1063.350;  131.350;    0.000
261.231; 1035.350;  141.350;    0.000
261.299; 1021.350;  125.350;    0.000
261.366; 1078.350;  142.350;    0.000
261.434; 1112.350;  133.350;    0.000
261.501; 1077.350;  137.350;    0.000
261.568; 1039.350;  184.350;    0.000
261.636; 1088.350;  138.350;    0.000
261.703; 1143.350;  161.350;    0.000
261.771; 1138.350;  160.350;    0.000
261.838; 1124.350;  178.350;    0.000
261.906; 1161.350;  128.350;    0.000
261.973; 1088.350;  139.350;    0.000
262.040; 1177.350;  148.350;    0.000
262.108; 1181.350;  130.350;    0.000
262.175; 1108.350;  117.350;    0.000
262.243; 1140.350;  174.350;    0.000
262.310; 1216.350;  145.350;    0.000
262.377; 1248.350;  108.350;    0.000
262.445; 1276.350;  147.350;    0.000
262.512; 1204.350;  124.350;    0.000
262.579; 1220.350;  127.350;    0.000
262.647; 1238.350;  166.350;    0.000
262.714; 1272.350;  150.350;    0.000
262.781; 1234.350;  121.350;    0.000
262.849; 1218.350;  126.350;    0.000
262.916; 1212.350;  119.350;    0.000
262.983; 1267.350;  155.350;    0.000
263.051; 1186.350;  137.350;    0.000
263.118; 1279.350;  160.350;    0.000
263.185; 1293.350;  151.350;    0.000
263.252; 1298.350;  167.350;    0.000
263.320; 1303.350;  123.350;    0.000
263.387; 1321.350;  134.350;    0.000
263.454; 1313.350;  144.350;    0.000
263.522; 1294.350;  153.350;    0.000
263.589; 1391.350;  161.350;    0.000
263.656; 1423.350;  117.350;    0.000
263.723; 1402.350;  101.350;    0.000
263.790; 1282.350;  128.350;    0.000
263.858; 1415.350;  142.350;    0.000
263.925; 1415.350;  182.350;    0.000
263.992; 1427.350;  146.350;    0.000
264.059; 1431.350;  132.350;    0.000
264.126; 1449.350;  154.350;    0.000
264.194; 1435.350;  153.350;    0.000
264.261; 1445.350;  157.350;    0.000
264.328; 1463.350;  171.350;    0.000
264.395; 1387.350;  166.350;    0.000
264.462; 1442.350;  165.350;    0.000
264.529; 1495.350;  124.350;    0.000
264.597; 1512.350;  120.350;    0.000
264.664; 1505.350;  159.350;    0.000
264.731; 1511.350;  145.350;    0.000
264.798; 1451.350;  100.350;    0.000
264.865; 1499.350;  166.350;    0.000
264.932; 1472.350;  132.350;    0.000
264.999; 1550.350;  137.350;    0.000
265.066; 1453.350;  124.350;    0.000
265.133; 1537.350;  162.350;    0.000
265.201; 1519.350;  163.350;    0.000
265.268; 1570.350;  174.350;    0.000
265.335; 1623.350;  132.350;    0.000
265.402; 1530.350;  116.350;    0.000
265.469; 1574.350;  121.350;    0.000
265.536; 1483.350;  157.350;    0.000
265.603; 1633.350;  151.350;    0.000
265.670; 1603.350;  164.350;    0.000
265.737; 1573.350;  142.350;    0.000
265.804; 1557.350;  146.350;    0.000
265.871; 1635.350;  168.350;    0.000
265.938; 1620.350;  131.350;    0.000
266.005; 1671.350;  208.350;    0.000
266.072; 1600.350;  125.350;    0.000
266.139; 1652.350;  161.350;    0.000
266.206; 1667.350;  134.350;    0.000
266.273; 1704.350;  155.350;    0.000
266.340; 1653.350;  122.350;    0.000
266.407; 1736.350;  134.350;    0.000
266.474; 1690.350;  126.350;    0.000
266.541; 1697.350;  153.350;    0.000
266.608; 1754.350;  129.350;    0.000
266.675; 1714.350;  185.350;    0.000
266.742; 1676.350;  153.350;    0.000
266.808; 1737.350;  169.350;    0.000
266.875; 1770.350;  156.350;    0.000
266.942; 1779.350;  172.350;    0.000
267.009; 1867.350;  150.350;    0.000
267.076; 1768.350;  184.350;    0.000
267.143; 1806.350;  170.350;    0.000
267.210; 1765.350;  132.350;    0.000
267.277; 1791.350;  146.350;    0.000
267.344; 1727.350;  159.350;    0.000
267.410; 1714.350;  174.350;    0.000
267.477; 1765.350;  169.350;    0.000
267.544; 1864.350;  130.350;    0.000
267.611; 1823.350;  169.350;    0.000
267.678; 1767.350;  197.350;    0.000
267.745; 1927.350;  185.350;    0.000
267.811; 1758.350;  160.350;    0.000
267.878; 1788.350;  143.350;    0.000
267.945; 1753.350;  126.350;    0.000
268.012; 1771.350;  172.350;    0.000
268.079; 1761.350;  156.350;    0.000
268.145; 1847.350;  128.350;    0.000
268.212; 1798.350;  107.350;    0.000
268.279; 1756.350;  135.350;    0.000
268.346; 1771.350;  166.350;    0.000
268.412; 1804.350;  150.350;    0.000
268.479; 1753.350;  176.350;    0.000
268.546; 1781.350;  119.350;    0.000
268.613; 1770.350;  201.350;    0.000
268.679; 1809.350;  141.350;    0.000
268.746; 1784.350;  177.350;    0.000
268.813; 1790.350;  134.350;    0.000
268.879; 1824.350;  141.350;    0.000
268.946; 1769.350;  172.350;    0.000
269.013; 1764.350;  150.350;    0.000
269.079; 1850.350;  124.350;    0.000
269.146; 1765.350;  135.350;    0.000
269.213; 1836.350;  200.350;    0.000
269.280; 1750.350;  142.350;    0.000
269.346; 1760.350;  153.350;    0.000
269.413; 1765.350;  140.350;    0.000
269.479; 1862.350;  171.350;    0.000
269.546; 1782.350;  156.350;    0.000
269.613; 1813.350;  145.350;    0.000
269.679; 1714.350;  168.350;    0.000
269.746; 1758.350;  136.350;    0.000
269.813; 1771.350;  153.350;    0.000
269.879; 1805.350;  162.350;    0.000
269.946; 1826.350;  156.350;    0.000
270.012; 1781.350;  178.350;    0.000
270.079; 1729.350;  132.350;    0.000
270.145; 1783.350;  146.350;    0.000
270.212; 1822.350;  145.350;    0.000
270.279; 1835.350;  184.350;    0.000
270.345; 1714.350;  143.350;    0.000
270.412; 1814.350;  158.350;    0.000
270.478; 1841.350;  143.350;    0.000
270.545; 1785.350;  150.350;    0.000
270.611; 1763.350;  156.350;    0.000
270.678; 1699.350;  121.350;    0.000
270.744; 1727.350;  161.350;    0.000
270.811; 1710.350;  173.350;    0.000
270.877; 1694.350;  115.350;    0.000
270.944; 1783.350;  114.350;    0.000
271.010; 1805.350;  122.350;    0.000
271.077; 1807.350;  142.350;    0.000
271.143; 1799.350;  152.350;    0.000
271.210; 1723.350;  135.350;    0.000
271.276; 1777.350;  107.350;    0.000
271.342; 1672.350;  173.350;    0.000
271.409; 1719.350;  171.350;    0.000
271.475; 1761.350;  136.350;    0.000
271.542; 1711.350;  121.350;    0.000
271.608; 1818.350;  133.350;    0.000
271.675; 1664.350;  136.350;    0.000
271.741; 1753.350;  151.350;    0.000
271.807; 1762.350;  130.350;    0.000
271.874; 1767.350;  168.350;    0.000
271.940; 1741.350;  156.350;    0.000
272.007; 1792.350;  122.350;    0.000
272.073; 1698.350;  121.350;    0.000
272.139; 1785.350;  137.350;    0.000
272.206; 1793.350;  152.350;    0.000
272.272; 1842.350;  162.350;    0.000
272.338; 1706.350;  197.350;    0.000
272.405; 1763.350;  144.350;    0.000
272.471; 1696.350;  160.350;    0.000
272.537; 1822.350;  142.350;    0.000
272.604; 1759.350;  141.350;    0.000
272.670; 1801.350;  182.350;    0.000
272.736; 1765.350;  126.350;    0.000
272.802; 1804.350;  146.350;    0.000
272.869; 1751.350;  163.350;    0.000
272.935; 1799.350;  132.350;    0.000
273.001; 1768.350;  119.350;    0.000
273.068; 1798.350;  137.350;    0.000
273.134; 1822.350;  155.350;    0.000
273.200; 1813.350;  165.350;    0.000
273.266; 1795.350;  156.350;    0.000
273.333; 1792.350;  143.350;    0.000
273.399; 1715.350;  128.350;    0.000
273.465; 1785.350;  167.350;    0.000
273.531; 1814.350;  122.350;    0.000
273.597; 1727.350;  182.350;    0.000
273.664; 1826.350;  177.350;    0.000
273.730; 1875.350;  124.350;    0.000
273.796; 1816.350;  143.350;    0.000
273.862; 1817.350;  155.350;    0.000
273.928; 1817.350;  137.350;    0.000
273.995; 1895.350;  188.350;    0.000
274.061; 1871.350;  154.350;    0.000
274.127; 1902.350;  161.350;    0.000
274.193; 1848.350;   95.350;    0.000
274.259; 1840.350;  128.350;    0.000
274.325; 1825.350;  146.350;    0.000
274.391; 1897.350;  113.350;    0.000
274.457; 1895.350;  150.350;    0.000
274.524; 1846.350;  165.350;    0.000
274.590; 1890.350;  140.350;    0.000
274.656; 1866.350;  165.350;    0.000
274.722; 1842.350;  118.350;    0.000
274.788; 1901.350;  143.350;    0.000
274.854; 1901.350;  150.350;    0.000
274.920; 1937.350;   88.350;    0.000
274.986; 2009.350;  178.350;    0.000
275.052; 1947.350;  145.350;    0.000
275.118; 2028.350;  105.350;    0.000
275.184; 1942.350;  129.350;    0.000
275.250; 1996.350;  138.350;    0.000
275.316; 1960.350;  173.350;    0.000
275.382; 1977.350;  106.350;    0.000
275.448; 2024.350;  160.350;    0.000
275.514; 2057.350;  162.350;    0.000
275.580; 1972.350;  135.350;    0.000
275.646; 2088.350;  120.350;    0.000
275.712; 2104.350;  157.350;    0.000
275.778; 2052.350;  128.350;    0.000
275.844; 2170.350;  117.350;    0.000
275.910; 2076.350;  121.350;    0.000
275.976; 2176.350;  172.350;    0.000
276.042; 2148.350;  114.350;    0.000
276.108; 2242.350;  200.350;    0.000
276.174; 2127.350;  132.350;    0.000
276.240; 2208.350;  128.350;    0.000
276.306; 2252.350;  124.350;    0.000
276.372; 2384.350;  133.350;    0.000
276.437; 2427.350;  146.350;    0.000
276.503; 2417.350;  136.350;    0.000
276.569; 2494.350;  162.350;    0.000
276.635; 2372.350;  128.350;    0.000
276.701; 2452.350;  148.350;    0.000
276.767; 2467.350;  155.350;    0.000
276.833; 2532.350;  128.350;    0.000
276.899; 2491.350;  145.350;    0.000
276.964; 2754.350;  124.350;    0.000
277.030; 2738.350;  130.350;    0.000
277.096; 2807.350;  139.350;    0.000
277.162; 2826.350;  164.350;    0.000
277.228; 2903.350;  108.350;    0.000
277.293; 2989.350;  138.350;    0.000
277.359; 3175.350;  123.350;    0.000
277.425; 3315.350;  183.350;    0.000
277.491; 3365.350;  144.350;    0.000
277.557; 4169.350;  130.350;    0.000
277.622; 5564.350;  151.350;    0.000
277.688; 5511.350;  169.350;    0.000
277.754; 5601.350;  199.350;    0.000
277.820; 6244.350;  170.350;    0.000
277.885; 7488.350;  173.350;    0.000
277.951; 9206.350;  187.350;    0.000
278.017; 7765.350;  152.350;    0.000
278.083; 6716.350;  137.350;    0.000
278.148; 6550.350;  147.350;    0.000
278.214; 6682.350;  162.350;    0.000
278.280; 7039.350;  171.350;    0.000
278.345; 6216.350;  174.350;    0.000
278.411; 5786.350;  152.350;    0.000
278.477; 6181.350;  173.350;    0.000
278.542; 6467.350;  161.350;    0.000
278.608; 6979.350;  155.350;    0.000
278.674; 7646.350;  169.350;    0.000
278.739; 8489.350;  142.350;    0.000
278.805; 9706.350;  164.350;    0.000
278.871;11535.350;  160.350;    0.000
278.936;15131.350;  121.350;    0.000
279.002;23477.350;  166.350;    0.000
279.067;31260.350;  199.350;    0.000
279.133;29765.350;  150.350;    0.000
279.199;26699.350;  154.350;    0.000
279.264;27215.350;  154.350;    0.000
279.330;32444.350;  159.350;    0.000
279.395;43044.352;  143.350;    0.000
279.461;56554.352;  173.350;    0.000
279.527;63571.352;  163.350;    0.000
279.592;58647.352;  167.350;    0.000
279.658;48644.352;  189.350;    0.000
279.723;47080.352;  153.350;    0.000
279.789;49525.352;  174.350;    0.000
279.854;43715.352;  129.350;    0.000
279.920;35389.352;  165.350;    0.000
279.985;31428.350;  152.350;    0.000
280.051;31846.350;  164.350;    0.000
280.116;38720.352;  187.350;    0.000
280.182;52593.352;  160.350;    0.000
280.247;60190.352;  124.350;    0.000
280.313;50450.352;  154.350;    0.000
280.378;34549.352;  152.350;    0.000
280.444;24236.350;  165.350;    0.000
280.509;19156.350;  164.350;    0.000
280.574;15697.350;  160.350;    0.000
280.640;13389.350;  167.350;    0.000
280.705;11720.350;  190.350;    0.000
280.771;10562.350;  154.350;    0.000
280.836; 9792.350;  158.350;    0.000
280.902; 8946.350;  124.350;    0.000
280.967; 8372.350;  179.350;    0.000
281.032; 7832.350;  187.350;    0.000
281.098; 7405.350;  155.350;    0.000
281.163; 6916.350;  133.350;    0.000
281.229; 6565.350;  170.350;    0.000
281.294; 6512.350;  175.350;    0.000
281.359; 6198.350;  163.350;    0.000
281.425; 5794.350;  161.350;    0.000
281.490; 5714.350;  162.350;    0.000
281.555; 5490.350;  137.350;    0.000
281.621; 5262.350;  163.350;    0.000
281.686; 5223.350;  155.350;    0.000
281.751; 4953.350;  158.350;    0.000
281.816; 4731.350;  139.350;    0.000
281.882; 4597.350;  150.350;    0.000
281.947; 4609.350;  165.350;    0.000
282.012; 4379.350;  171.350;    0.000
282.078; 4310.350;  177.350;    0.000
282.143; 4283.350;  149.350;    0.000
282.208; 4180.350;  181.350;    0.000
282.273; 4142.350;  166.350;    0.000
282.339; 4033.350;  165.350;    0.000
282.404; 3881.350;  166.350;    0.000
282.469; 3891.350;  150.350;    0.000
282.534; 3680.350;  176.350;    0.000
282.600; 3659.350;  117.350;    0.000
282.665; 3714.350;  134.350;    0.000
282.730; 3638.350;  155.350;    0.000
282.795; 3705.350;  193.350;    0.000
282.860; 3704.350;  160.350;    0.000
282.926; 3657.350;  174.350;    0.000
282.991; 3443.350;  161.350;    0.000
283.056; 3407.350;  157.350;    0.000
283.121; 3530.350;  178.350;    0.000
283.186; 3424.350;  152.350;    0.000
283.251; 3374.350;  167.350;    0.000
283.316; 3417.350;  186.350;    0.000
283.382; 3279.350;  148.350;    0.000
283.447; 3355.350;  191.350;    0.000
283.512; 3368.350;  132.350;    0.000
283.577; 3309.350;  179.350;    0.000
283.642; 3280.350;  185.350;    0.000
283.707; 3235.350;  136.350;    0.000
283.772; 3337.350;  119.350;    0.000
283.837; 3262.350;  136.350;    0.000
283.902; 3258.350;  135.350;    0.000
283.967; 3306.350;  146.350;    0.000
284.032; 3265.350;  140.350;    0.000
284.097; 3306.350;  199.350;    0.000
284.163; 3317.350;  144.350;    0.000
284.228; 3213.350;  183.350;    0.000
284.293; 3421.350;  141.350;    0.000
284.358; 3384.350;  146.350;    0.000
284.423; 3341.350;  127.350;    0.000
284.488; 3472.350;  186.350;    0.000
284.553; 3500.350;  155.350;    0.000
284.618; 3620.350;  118.350;    0.000
284.683; 3698.350;  145.350;    0.000
284.748; 3960.350;  139.350;    0.000
284.812; 4184.350;  147.350;    0.000
284.877; 4530.350;  123.350;    0.000
284.942; 5166.350;  153.350;    0.000
285.007; 6221.350;  168.350;    0.000
285.072; 8724.350;  181.350;    0.000
285.137;14660.350;  147.350;    0.000
285.202;19287.350;  175.350;    0.000
285.267;16345.350;  182.350;    0.000
285.332;10250.350;  136.350;    0.000
285.397; 7456.350;  138.350;    0.000
285.462; 6008.350;  151.350;    0.000
285.527; 5271.350;  159.350;    0.000
285.591; 4760.350;  177.350;    0.000
285.656; 4251.350;  144.350;    0.000
285.721; 4176.350;  125.350;    0.000
285.786; 3902.350;  169.350;    0.000
285.851; 3795.350;  175.350;    0.000
285.916; 3770.350;  164.350;    0.000
285.981; 3475.350;  134.350;    0.000
286.045; 3618.350;  154.350;    0.000
286.110; 3469.350;  136.350;    0.000
286.175; 3311.350;  155.350;    0.000
286.240; 3199.350;  138.350;    0.000
286.305; 3255.350;  213.350;    0.000
286.369; 3185.350;  221.350;    0.000
286.434; 3230.350;  172.350;    0.000
286.499; 3197.350;  161.350;    0.000
286.564; 3261.350;  189.350;    0.000
286.628; 3037.350;  144.350;    0.000
286.693; 3042.350;  176.350;    0.000
286.758; 3077.350;  168.350;    0.000
286.823; 3096.350;  142.350;    0.000
286.887; 3038.350;  134.350;    0.000
286.952; 3058.350;  180.350;    0.000
287.017; 3039.350;  204.350;    0.000
287.082; 2984.350;  120.350;    0.000
287.146; 2944.350;  173.350;    0.000
287.211; 2977.350;  167.350;    0.000
287.276; 2947.350;  164.350;    0.000
287.340; 2857.350;  138.350;    0.000
287.405; 2946.350;  172.350;    0.000
287.470; 2986.350;  142.350;    0.000
287.534; 2892.350;  155.350;    0.000
287.599; 2887.350;  166.350;    0.000
287.663; 2942.350;  171.350;    0.000
287.728; 2965.350;  190.350;    0.000
287.793; 2949.350;  197.350;    0.000
287.857; 2942.350;  165.350;    0.000
287.922; 2909.350;  147.350;    0.000
287.987; 2903.350;  167.350;    0.000
288.051; 2952.350;  151.350;    0.000
288.116; 2932.350;  154.350;    0.000
288.180; 2943.350;  186.350;    0.000
288.245; 2834.350;  161.350;    0.000
288.309; 2971.350;  177.350;    0.000
288.374; 2836.350;  151.350;    0.000
288.439; 2916.350;  169.350;    0.000
288.503; 2785.350;  133.350;    0.000
288.568; 2921.350;  206.350;    0.000
288.632; 2813.350;  192.350;    0.000
288.697; 2892.350;  183.350;    0.000
288.761; 2770.350;  148.350;    0.000
288.826; 2812.350;  136.350;    0.000
288.890; 2834.350;  185.350;    0.000
288.955; 2834.350;  150.350;    0.000
289.019; 2806.350;  165.350;    0.000
289.084; 2807.350;  150.350;    0.000
289.148; 2726.350;  146.350;    0.000
289.212; 2813.350;  172.350;    0.000
289.277; 2839.350;  177.350;    0.000
289.341; 2751.350;  190.350;    0.000
289.406; 2745.350;  117.350;    0.000
289.470; 2861.350;  173.350;    0.000
289.535; 2782.350;  170.350;    0.000
289.599; 2739.350;  154.350;    0.000
289.663; 2777.350;  173.350;    0.000
289.728; 2784.350;  176.350;    0.000
289.792; 2768.350;  138.350;    0.000
289.857; 2813.350;  203.350;    0.000
289.921; 2765.350;  143.350;    0.000
289.985; 2806.350;  150.350;    0.000
290.050; 2706.350;  170.350;    0.000
290.114; 2782.350;  125.350;    0.000
290.178; 2804.350;  161.350;    0.000
290.243; 2762.350;  119.350;    0.000
290.307; 2745.350;  169.350;    0.000
290.371; 2747.350;  169.350;    0.000
290.436; 2853.350;  170.350;    0.000
290.500; 2738.350;  144.350;    0.000
290.564; 2799.350;  179.350;    0.000
290.629; 2896.350;  166.350;    0.000
290.693; 2843.350;  156.350;    0.000
290.757; 2810.350;  147.350;    0.000
290.821; 2819.350;  170.350;    0.000
290.886; 2797.350;  167.350;    0.000
290.950; 2846.350;  187.350;    0.000
291.014; 2773.350;  164.350;    0.000
291.078; 2787.350;  115.350;    0.000
291.143; 2845.350;  149.350;    0.000
291.207; 2968.350;  163.350;    0.000
291.271; 2859.350;  177.350;    0.000
291.335; 2986.350;  148.350;    0.000
291.399; 2913.350;  155.350;    0.000
291.464; 3052.350;  114.350;    0.000
291.528; 3364.350;  153.350;    0.000
291.592; 3013.350;  156.350;    0.000
291.656; 3055.350;  170.350;    0.000
291.720; 3024.350;  159.350;    0.000
291.784; 2956.350;  159.350;    0.000
291.849; 2980.350;  154.350;    0.000
291.913; 3044.350;  118.350;    0.000
291.977; 3047.350;  157.350;    0.000
292.041; 3078.350;  163.350;    0.000
292.105; 3050.350;  135.350;    0.000
292.169; 3082.350;  155.350;    0.000
292.233; 3040.350;  163.350;    0.000
292.297; 3169.350;  144.350;    0.000
292.361; 3119.350;  143.350;    0.000
292.425; 3201.350;  177.350;    0.000
292.490; 3417.350;  159.350;    0.000
292.554; 3532.350;  137.350;    0.000
292.618; 3610.350;  144.350;    0.000
292.682; 3867.350;  169.350;    0.000
292.746; 4628.350;  166.350;    0.000
292.810; 6078.350;  147.350;    0.000
292.874; 7384.350;  160.350;    0.000
292.938; 7505.350;  174.350;    0.000
293.002; 6943.350;  148.350;    0.000
293.066; 6028.350;  115.350;    0.000
293.130; 5539.350;  133.350;    0.000
293.194; 5150.350;  148.350;    0.000
293.258; 5052.350;  167.350;    0.000
293.322; 4871.350;  166.350;    0.000
293.386; 4960.350;  193.350;    0.000
293.450; 5253.350;  142.350;    0.000
293.514; 6169.350;  170.350;    0.000
293.577; 8242.350;  153.350;    0.000
293.641;11345.350;  171.350;    0.000
293.705;12108.350;  168.350;    0.000
293.769;10658.350;  155.350;    0.000
293.833; 9086.350;  161.350;    0.000
293.897; 7839.350;  124.350;    0.000
293.961; 6812.350;  165.350;    0.000
294.025; 6132.350;  118.350;    0.000
294.089; 5789.350;  125.350;    0.000
294.152; 5247.350;  160.350;    0.000
294.216; 4947.350;  160.350;    0.000
294.280; 4504.350;  158.350;    0.000
294.344; 4426.350;  119.350;    0.000
294.408; 4094.350;  168.350;    0.000
294.472; 4015.350;  156.350;    0.000
294.536; 3965.350;  192.350;    0.000
294.599; 3754.350;  171.350;    0.000
294.663; 3635.350;  139.350;    0.000
294.727; 3543.350;  136.350;    0.000
294.791; 3541.350;  118.350;    0.000
294.855; 3462.350;  118.350;    0.000
294.918; 3417.350;  127.350;    0.000
294.982; 3393.350;  167.350;    0.000
295.046; 3299.350;  178.350;    0.000
295.110; 3330.350;  157.350;    0.000
295.173; 3127.350;  101.350;    0.000
295.237; 3136.350;  145.350;    0.000
295.301; 3136.350;  135.350;    0.000
295.364; 3081.350;  185.350;    0.000
295.428; 3097.350;  112.350;    0.000
295.492; 3105.350;  142.350;    0.000
295.556; 2900.350;  170.350;    0.000
295.619; 3048.350;  193.350;    0.000
295.683; 3014.350;  144.350;    0.000
295.747; 2966.350;  152.350;    0.000
295.810; 2894.350;  139.350;    0.000
295.874; 2912.350;  157.350;    0.000
295.938; 2864.350;  128.350;    0.000
296.001; 2827.350;  164.350;    0.000
296.065; 2867.350;  184.350;    0.000
296.128; 2861.350;  127.350;    0.000
296.192; 2760.350;  166.350;    0.000
296.256; 2818.350;  154.350;    0.000
296.319; 2805.350;  128.350;    0.000
296.383; 2827.350;  146.350;    0.000
296.447; 2718.350;  155.350;    0.000
296.510; 2728.350;  177.350;    0.000
296.574; 2737.350;  169.350;    0.000
296.637; 2740.350;  140.350;    0.000
296.701; 2725.350;  181.350;    0.000
296.764; 2609.350;  131.350;    0.000
296.828; 2726.350;  194.350;    0.000
296.891; 2702.350;  146.350;    0.000
296.955; 2710.350;  160.350;    0.000
297.018; 2678.350;  174.350;    0.000
297.082; 2688.350;  153.350;    0.000
297.145; 2625.350;  133.350;    0.000
297.209; 2677.350;  149.350;    0.000
297.272; 2649.350;  150.350;    0.000
297.336; 2573.350;  119.350;    0.000
297.399; 2666.350;  160.350;    0.000
297.463; 2672.350;  158.350;    0.000
297.526; 2694.350;  160.350;    0.000
297.590; 2592.350;  173.350;    0.000
297.653; 2498.350;  121.350;    0.000
297.717; 2479.350;  168.350;    0.000
297.780; 2624.350;  131.350;    0.000
297.843; 2651.350;  154.350;    0.000
297.907; 2618.350;  126.350;    0.000
297.970; 2513.350;  180.350;    0.000
298.034; 2597.350;  140.350;    0.000
298.097; 2606.350;  207.350;    0.000
298.160; 2627.350;  177.350;    0.000
298.224; 2525.350;  165.350;    0.000
298.287; 2488.350;  160.350;    0.000
298.350; 2576.350;  176.350;    0.000
298.414; 2487.350;  155.350;    0.000
298.477; 2473.350;  132.350;    0.000
298.540; 2540.350;  162.350;    0.000
298.604; 2508.350;  180.350;    0.000
298.667; 2474.350;  208.350;    0.000
298.730; 2491.350;  177.350;    0.000
298.794; 2480.350;  126.350;    0.000
298.857; 2466.350;  171.350;    0.000
298.920; 2372.350;  124.350;    0.000
298.984; 2525.350;  146.350;    0.000
299.047; 2421.350;  140.350;    0.000
299.110; 2430.350;  159.350;    0.000
299.173; 2463.350;  177.350;    0.000
299.237; 2406.350;  196.350;    0.000
299.300; 2430.350;  121.350;    0.000
299.363; 2334.350;  172.350;    0.000
299.426; 2433.350;  117.350;    0.000
299.489; 2367.350;  138.350;    0.000
299.553; 2357.350;  198.350;    0.000
299.616; 2391.350;  158.350;    0.000
299.679; 2397.350;  148.350;    0.000
299.742; 2284.350;  138.350;    0.000
299.805; 2321.350;  157.350;    0.000
299.868; 2382.350;  183.350;    0.000
299.932; 2243.350;  137.350;    0.000
299.995; 2348.350;  152.350;    0.000
300.058; 2300.350;  171.350;    0.000
300.121; 2248.350;  172.350;    0.000
300.184; 2291.350;  161.350;    0.000
300.247; 2295.350;  156.350;    0.000
300.310; 2252.350;  154.350;    0.000
300.374; 2306.350;  147.350;    0.000
300.437; 2308.350;  144.350;    0.000
300.500; 2317.350;  152.350;    0.000
300.563; 2305.350;  160.350;    0.000
300.626; 2324.350;  167.350;    0.000
300.689; 2283.350;  193.350;    0.000
300.752; 2234.350;  134.350;    0.000
300.815; 2308.350;  194.350;    0.000
300.878; 2270.350;  156.350;    0.000
300.941; 2228.350;  177.350;    0.000
301.004; 2233.350;  160.350;    0.000
301.067; 2301.350;  153.350;    0.000
301.130; 2294.350;  167.350;    0.000
301.193; 2253.350;  156.350;    0.000
301.256; 2276.350;  176.350;    0.000
301.319; 2252.350;  172.350;    0.000
301.382; 2230.350;  150.350;    0.000
301.445; 2301.350;  183.350;    0.000
301.508; 2268.350;  118.350;    0.000
301.571; 2276.350;  142.350;    0.000
301.634; 2312.350;  164.350;    0.000
301.697; 2271.350;  169.350;    0.000
301.760; 2202.350;  197.350;    0.000
301.823; 2236.350;  155.350;    0.000
301.885; 2274.350;  165.350;    0.000
301.948; 2228.350;  168.350;    0.000
302.011; 2231.350;  172.350;    0.000
302.074; 2257.350;  182.350;    0.000
302.137; 2184.350;  161.350;    0.000
302.200; 2219.350;  174.350;    0.000
302.263; 2234.350;  158.350;    0.000
302.326; 2265.350;  168.350;    0.000
302.388; 2250.350;  165.350;    0.000
302.451; 2236.350;  158.350;    0.000
302.514; 2221.350;  181.350;    0.000
302.577; 2211.350;  147.350;    0.000
302.640; 2182.350;  178.350;    0.000
302.703; 2217.350;  164.350;    0.000
302.765; 2204.350;  149.350;    0.000
302.828; 2238.350;  192.350;    0.000
302.891; 2235.350;  201.350;    0.000
302.954; 2173.350;  135.350;    0.000
303.016; 2146.350;  180.350;    0.000
303.079; 2212.350;  192.350;    0.000
303.142; 2189.350;  176.350;    0.000
303.205; 2211.350;  176.350;    0.000
303.267; 2146.350;  163.350;    0.000
303.330; 2249.350;  162.350;    0.000
303.393; 2124.350;  164.350;    0.000
303.456; 2136.350;  180.350;    0.000
303.518; 2123.350;  162.350;    0.000
303.581; 2139.350;  137.350;    0.000
303.644; 2128.350;  135.350;    0.000
303.706; 2202.350;  170.350;    0.000
303.769; 2226.350;  216.350;    0.000
303.832; 2145.350;  143.350;    0.000
303.894; 2255.350;  162.350;    0.000
303.957; 2130.350;  149.350;    0.000
304.020; 2149.350;  111.350;    0.000
304.082; 2227.350;  158.350;    0.000
304.145; 2196.350;  149.350;    0.000
304.207; 2187.350;  169.350;    0.000
304.270; 2081.350;  170.350;    0.000
304.333; 2186.350;  185.350;    0.000
304.395; 2211.350;  179.350;    0.000
304.458; 2144.350;  174.350;    0.000
304.520; 2203.350;  160.350;    0.000
304.583; 2162.350;  175.350;    0.000
304.646; 2161.350;  160.350;    0.000
304.708; 2147.350;  173.350;    0.000
304.771; 2140.350;  115.350;    0.000
304.833; 2149.350;  172.350;    0.000
304.896; 2165.350;  187.350;    0.000
304.958; 2188.350;  142.350;    0.000
305.021; 2247.350;  164.350;    0.000
305.083; 2142.350;  139.350;    0.000
305.146; 2202.350;  162.350;    0.000
305.208; 2150.350;  135.350;    0.000
305.271; 2262.350;  159.350;    0.000
305.333; 2279.350;  210.350;    0.000
305.396; 2243.350;  151.350;    0.000
305.458; 2191.350;  195.350;    0.000
305.520; 2165.350;  179.350;    0.000
305.583; 2209.350;  157.350;    0.000
305.645; 2217.350;  187.350;    0.000
305.708; 2229.350;  159.350;    0.000
305.770; 2259.350;  189.350;    0.000
305.833; 2142.350;  147.350;    0.000
305.895; 2258.350;  154.350;    0.000
305.957; 2234.350;  143.350;    0.000
306.020; 2270.350;  133.350;    0.000
306.082; 2195.350;  146.350;    0.000
306.144; 2185.350;  171.350;    0.000
306.207; 2183.350;  151.350;    0.000
306.269; 2213.350;  169.350;    0.000
306.331; 2239.350;  162.350;    0.000
306.394; 2181.350;  171.350;    0.000
306.456; 2212.350;  155.350;    0.000
306.518; 2249.350;  183.350;    0.000
306.581; 2210.350;  180.350;    0.000
306.643; 2167.350;  199.350;    0.000
306.705; 2214.350;  163.350;    0.000
306.768; 2202.350;  183.350;    0.000
306.830; 2218.350;  183.350;    0.000
306.892; 2309.350;  190.350;    0.000
306.954; 2269.350;  161.350;    0.000
307.017; 2257.350;  151.350;    0.000
307.079; 2207.350;  147.350;    0.000
307.141; 2325.350;  179.350;    0.000
307.203; 2292.350;  143.350;    0.000
307.266; 2192.350;  142.350;    0.000
307.328; 2318.350;  161.350;    0.000
307.390; 2295.350;  189.350;    0.000
307.452; 2278.350;  155.350;    0.000
307.514; 2352.350;  211.350;    0.000
307.577; 2350.350;  201.350;    0.000
307.639; 2341.350;  192.350;    0.000
307.701; 2361.350;  162.350;    0.000
307.763; 2369.350;  155.350;    0.000
307.825; 2334.350;  193.350;    0.000
307.887; 2385.350;  214.350;    0.000
307.949; 2420.350;  208.350;    0.000
308.012; 2432.350;  175.350;    0.000
308.074; 2328.350;  155.350;    0.000
308.136; 2275.350;  172.350;    0.000
308.198; 2410.350;  171.350;    0.000
308.260; 2476.350;  182.350;    0.000
308.322; 2428.350;  177.350;    0.000
308.384; 2372.350;  207.350;    0.000
308.446; 2305.350;  170.350;    0.000
308.508; 2423.350;  177.350;    0.000
308.570; 2338.350;  195.350;    0.000
308.632; 2400.350;  190.350;    0.000
308.694; 2400.350;  161.350;    0.000
308.756; 2472.350;  173.350;    0.000
308.818; 2473.350;  190.350;    0.000
308.880; 2449.350;  197.350;    0.000
308.942; 2386.350;  223.350;    0.000
309.004; 2524.350;  176.350;    0.000
309.066; 2534.350;  182.350;    0.000
309.128; 2616.350;  185.350;    0.000
309.190; 2624.350;  166.350;    0.000
309.252; 2683.350;  191.350;    0.000
309.314; 2790.350;  208.350;    0.000
309.376; 2809.350;  205.350;    0.000
309.438; 2686.350;  166.350;    0.000
309.500; 2580.350;  195.350;    0.000
309.562; 2689.350;  163.350;    0.000
309.624; 2787.350;  162.350;    0.000
309.686; 2768.350;  194.350;    0.000
309.747; 2773.350;  179.350;    0.000
309.809; 2782.350;  211.350;    0.000
309.871; 2764.350;  191.350;    0.000
309.933; 2621.350;  151.350;    0.000
309.995; 2554.350;  179.350;    0.000
310.057; 2592.350;  175.350;    0.000
310.119; 2529.350;  161.350;    0.000
310.180; 2462.350;  167.350;    0.000
310.242; 2514.350;  171.350;    0.000
310.304; 2417.350;  209.350;    0.000
310.366; 2522.350;  229.350;    0.000
310.428; 2468.350;  132.350;    0.000
310.489; 2517.350;  165.350;    0.000
310.551; 2547.350;  193.350;    0.000
310.613; 2430.350;  182.350;    0.000
310.675; 2397.350;  186.350;    0.000
310.737; 2538.350;  192.350;    0.000
310.798; 2406.350;  194.350;    0.000
310.860; 2413.350;  220.350;    0.000
310.922; 2367.350;  161.350;    0.000
310.983; 2454.350;  203.350;    0.000
311.045; 2491.350;  198.350;    0.000
311.107; 2351.350;  179.350;    0.000
311.169; 2430.350;  154.350;    0.000
311.230; 2423.350;  134.350;    0.000
311.292; 2443.350;  215.350;    0.000
311.354; 2419.350;  171.350;    0.000
311.415; 2427.350;  195.350;    0.000
311.477; 2403.350;  185.350;    0.000
311.539; 2427.350;  183.350;    0.000
311.600; 2389.350;  183.350;    0.000
311.662; 2531.350;  207.350;    0.000
311.724; 2419.350;  193.350;    0.000
311.785; 2405.350;  180.350;    0.000
311.847; 2419.350;  155.350;    0.000
311.908; 2354.350;  179.350;    0.000
311.970; 2437.350;  193.350;    0.000
312.032; 2311.350;  188.350;    0.000
312.093; 2534.350;  166.350;    0.000
312.155; 2375.350;  147.350;    0.000
312.216; 2391.350;  177.350;    0.000
312.278; 2446.350;  162.350;    0.000
312.339; 2415.350;  158.350;    0.000
312.401; 2441.350;  181.350;    0.000
312.462; 2355.350;  153.350;    0.000
312.524; 2355.350;  186.350;    0.000
312.585; 2443.350;  191.350;    0.000
312.647; 2399.350;  131.350;    0.000
312.708; 2458.350;  170.350;    0.000
312.770; 2439.350;  194.350;    0.000
312.831; 2515.350;  161.350;    0.000
312.893; 2407.350;  179.350;    0.000
312.954; 2453.350;  183.350;    0.000
313.016; 2455.350;  189.350;    0.000
313.077; 2519.350;  169.350;    0.000
313.139; 2451.350;  148.350;    0.000
313.200; 2407.350;  155.350;    0.000
313.261; 2474.350;  213.350;    0.000
313.323; 2443.350;  162.350;    0.000
313.384; 2411.350;  160.350;    0.000
313.446; 2483.350;  202.350;    0.000
313.507; 2309.350;  149.350;    0.000
313.568; 2443.350;  194.350;    0.000
313.630; 2375.350;  163.350;    0.000
313.691; 2467.350;  158.350;    0.000
313.752; 2533.350;  179.350;    0.000
313.814; 2458.350;  180.350;    0.000
313.875; 2431.350;  191.350;    0.000
313.936; 2377.350;  169.350;    0.000
313.998; 2463.350;  165.350;    0.000
314.059; 2390.350;  211.350;    0.000
314.120; 2395.350;  190.350;    0.000
314.182; 2479.350;  185.350;    0.000
314.243; 2386.350;  186.350;    0.000
314.304; 2445.350;  178.350;    0.000
314.365; 2503.350;  187.350;    0.000
314.427; 2459.350;  145.350;    0.000
314.488; 2493.350;  184.350;    0.000
314.549; 2443.350;  181.350;    0.000
314.610; 2386.350;  151.350;    0.000
314.672; 2491.350;  153.350;    0.000
314.733; 2511.350;  148.350;    0.000
314.794; 2466.350;  156.350;    0.000
314.855; 2389.350;  196.350;    0.000
314.917; 2383.350;  157.350;    0.000
314.978; 2515.350;  174.350;    0.000
315.039; 2365.350;  168.350;    0.000
315.100; 2449.350;  154.350;    0.000
315.161; 2434.350;  176.350;    0.000
315.222; 2423.350;  198.350;    0.000
315.283; 2411.350;  169.350;    0.000
315.345; 2398.350;  162.350;    0.000
315.406; 2370.350;  199.350;    0.000
315.467; 2361.350;  180.350;    0.000
315.528; 2371.350;  179.350;    0.000
315.589; 2295.350;  166.350;    0.000
315.650; 2397.350;  179.350;    0.000
315.711; 2363.350;  177.350;    0.000
315.772; 2422.350;  180.350;    0.000
315.833; 2391.350;  157.350;    0.000
315.894; 2383.350;  133.350;    0.000
315.955; 2402.350;  205.350;    0.000
316.016; 2413.350;  190.350;    0.000
316.078; 2391.350;  174.350;    0.000
316.139; 2415.350;  208.350;    0.000
316.200; 2369.350;  166.350;    0.000
316.261; 2283.350;  186.350;    0.000
316.322; 2390.350;  185.350;    0.000
316.383; 2323.350;  179.350;    0.000
316.444; 2389.350;  172.350;    0.000
316.504; 2290.350;  181.350;    0.000
316.565; 2405.350;  197.350;    0.000
316.626; 2309.350;  196.350;    0.000
316.687; 2371.350;  173.350;    0.000
316.748; 2386.350;  178.350;    0.000
316.809; 2397.350;  178.350;    0.000
316.870; 2342.350;  134.350;    0.000
316.931; 2406.350;  166.350;    0.000
316.992; 2451.350;  200.350;    0.000
317.053; 2459.350;  169.350;    0.000
317.114; 2346.350;  185.350;    0.000
317.175; 2369.350;  213.350;    0.000
317.235; 2375.350;  199.350;    0.000
317.296; 2359.350;  190.350;    0.000
317.357; 2377.350;  152.350;    0.000
317.418; 2411.350;  192.350;    0.000
317.479; 2334.350;  170.350;    0.000
317.540; 2343.350;  179.350;    0.000
317.601; 2255.350;  155.350;    0.000
317.661; 2334.350;  154.350;    0.000
317.722; 2389.350;  190.350;    0.000
317.783; 2365.350;  149.350;    0.000
317.844; 2399.350;  207.350;    0.000
317.904; 2357.350;  153.350;    0.000
317.965; 2387.350;  179.350;    0.000
318.026; 2458.350;  235.350;    0.000
318.087; 2412.350;  184.350;    0.000
318.148; 2391.350;  201.350;    0.000
318.208; 2370.350;  220.350;    0.000
318.269; 2335.350;  175.350;    0.000
318.330; 2361.350;  185.350;    0.000
318.390; 2378.350;  180.350;    0.000
318.451; 2355.350;  164.350;    0.000
318.512; 2325.350;  150.350;    0.000
318.572; 2379.350;  205.350;    0.000
318.633; 2330.350;  224.350;    0.000
318.694; 2307.350;  202.350;    0.000
318.754; 2407.350;  196.350;    0.000
318.815; 2446.350;  187.350;    0.000
318.876; 2397.350;  200.350;    0.000
318.936; 2399.350;  232.350;    0.000
318.997; 2291.350;  211.350;    0.000
319.058; 2397.350;  194.350;    0.000
319.118; 2397.350;  197.350;    0.000
319.179; 2326.350;  162.350;    0.000
319.239; 2427.350;  188.350;    0.000
319.300; 2353.350;  205.350;    0.000
319.361; 2238.350;  179.350;    0.000
319.421; 2282.350;  182.350;    0.000
319.482; 2303.350;  189.350;    0.000
319.542; 2247.350;  180.350;    0.000
319.603; 2336.350;  204.350;    0.000
319.663; 2317.350;  195.350;    0.000
319.724; 2251.350;  135.350;    0.000
319.784; 2255.350;  184.350;    0.000
319.845; 2371.350;  160.350;    0.000
319.905; 2342.350;  206.350;    0.000
319.966; 2318.350;  203.350;    0.000
320.026; 2209.350;  203.350;    0.000
320.087; 2315.350;  206.350;    0.000
320.147; 2287.350;  180.350;    0.000
320.208; 2297.350;  189.350;    0.000
320.268; 2267.350;  179.350;    0.000
320.329; 2322.350;  215.350;    0.000
320.389; 2367.350;  193.350;    0.000
320.449; 2369.350;  210.350;    0.000
320.510; 2306.350;  206.350;    0.000
320.570; 2233.350;  221.350;    0.000
320.631; 2219.350;  203.350;    0.000
320.691; 2347.350;  190.350;    0.000
320.751; 2298.350;  205.350;    0.000
320.812; 2245.350;  191.350;    0.000
320.872; 2330.350;  216.350;    0.000
320.932; 2381.350;  209.350;    0.000
320.993; 2285.350;  189.350;    0.000
321.053; 2407.350;  228.350;    0.000
321.113; 2316.350;  163.350;    0.000
321.174; 2325.350;  204.350;    0.000
321.234; 2374.350;  214.350;    0.000
321.294; 2330.350;  184.350;    0.000
321.355; 2289.350;  216.350;    0.000
321.415; 2386.350;  187.350;    0.000
321.475; 2270.350;  216.350;    0.000
321.535; 2327.350;  189.350;    0.000
321.596; 2323.350;  186.350;    0.000
321.656; 2362.350;  204.350;    0.000
321.716; 2297.350;  183.350;    0.000
321.776; 2333.350;  194.350;    0.000
321.837; 2343.350;  190.350;    0.000
321.897; 2241.350;  219.350;    0.000
321.957; 2357.350;  222.350;    0.000
322.017; 2206.350;  183.350;    0.000
322.077; 2312.350;  239.350;    0.000
322.138; 2309.350;  219.350;    0.000
322.198; 2358.350;  185.350;    0.000
322.258; 2300.350;  231.350;    0.000
322.318; 2163.350;  197.350;    0.000
322.378; 2298.350;  179.350;    0.000
322.438; 2274.350;  217.350;    0.000
322.499; 2343.350;  238.350;    0.000
322.559; 2278.350;  197.350;    0.000
322.619; 2285.350;  204.350;    0.000
322.679; 2263.350;  199.350;    0.000
322.739; 2279.350;  194.350;    0.000
322.799; 2247.350;  203.350;    0.000
322.859; 2301.350;  234.350;    0.000
322.919; 2314.350;  194.350;    0.000
322.979; 2319.350;  219.350;    0.000
323.039; 2281.350;  193.350;    0.000
323.099; 2329.350;  207.350;    0.000
323.159; 2294.350;  213.350;    0.000
323.219; 2235.350;  171.350;    0.000
323.279; 2275.350;  215.350;    0.000
323.339; 2314.350;  170.350;    0.000
323.399; 2330.350;  195.350;    0.000
323.459; 2311.350;  234.350;    0.000
323.519; 2323.350;  201.350;    0.000
323.579; 2279.350;  167.350;    0.000
323.639; 2313.350;  209.350;    0.000
323.699; 2279.350;  217.350;    0.000
323.759; 2305.350;  213.350;    0.000
323.819; 2315.350;  216.350;    0.000
323.879; 2375.350;  193.350;    0.000
323.939; 2244.350;  182.350;    0.000
323.999; 2355.350;  206.350;    0.000
324.059; 2226.350;  196.350;    0.000
324.119; 2265.350;  240.350;    0.000
324.178; 2237.350;  186.350;    0.000
324.238; 2186.350;  179.350;    0.000
324.298; 2191.350;  195.350;    0.000
324.358; 2271.350;  208.350;    0.000
324.418; 2244.350;  190.350;    0.000
324.478; 2230.350;  197.350;    0.000
324.538; 2269.350;  157.350;    0.000
324.597; 2249.350;  219.350;    0.000
324.657; 2231.350;  176.350;    0.000
324.717; 2218.350;  179.350;    0.000
324.777; 2223.350;  190.350;    0.000
324.837; 2214.350;  172.350;    0.000
324.896; 2306.350;  199.350;    0.000
324.956; 2261.350;  216.350;    0.000
325.016; 2275.350;  191.350;    0.000
325.076; 2233.350;  185.350;    0.000
325.135; 2281.350;  174.350;    0.000
325.195; 2231.350;  175.350;    0.000
325.255; 2158.350;  144.350;    0.000
325.315; 2303.350;  201.350;    0.000
325.374; 2338.350;  198.350;    0.000
325.434; 2170.350;  181.350;    0.000
325.494; 2233.350;  183.350;    0.000
325.553; 2299.350;  172.350;    0.000
325.613; 2317.350;  200.350;    0.000
325.673; 2245.350;  177.350;    0.000
325.732; 2193.350;  174.350;    0.000
325.792; 2258.350;  181.350;    0.000
325.852; 2241.350;  214.350;    0.000
325.911; 2326.350;  230.350;    0.000
325.971; 2238.350;  198.350;    0.000
326.031; 2256.350;  201.350;    0.000
326.090; 2241.350;  214.350;    0.000
326.150; 2334.350;  163.350;    0.000
326.209; 2251.350;  207.350;    0.000
326.269; 2301.350;  201.350;    0.000
326.328; 2330.350;  208.350;    0.000
326.388; 2272.350;  169.350;    0.000
326.448; 2307.350;  229.350;    0.000
326.507; 2267.350;  243.350;    0.000
326.567; 2236.350;  162.350;    0.000
326.626; 2261.350;  200.350;    0.000
326.686; 2242.350;  166.350;    0.000
326.745; 2211.350;  178.350;    0.000
326.805; 2201.350;  185.350;    0.000
326.864; 2222.350;  209.350;    0.000
326.924; 2268.350;  234.350;    0.000
326.983; 2167.350;  197.350;    0.000
327.043; 2257.350;  217.350;    0.000
327.102; 2244.350;  174.350;    0.000
327.161; 2175.350;  172.350;    0.000
327.221; 2176.350;  183.350;    0.000
327.280; 2211.350;  200.350;    0.000
327.340; 2146.350;  200.350;    0.000
327.399; 2164.350;  219.350;    0.000
327.459; 2179.350;  246.350;    0.000
327.518; 2160.350;  217.350;    0.000
327.577; 2219.350;  212.350;    0.000
327.637; 2175.350;  188.350;    0.000
327.696; 2132.350;  201.350;    0.000
327.755; 2157.350;  199.350;    0.000
327.815; 2266.350;  224.350;    0.000
327.874; 2267.350;  236.350;    0.000
327.933; 2241.350;  182.350;    0.000
327.993; 2238.350;  206.350;    0.000
328.052; 2204.350;  191.350;    0.000
328.111; 2175.350;  222.350;    0.000
328.171; 2231.350;  200.350;    0.000
328.230; 2240.350;  203.350;    0.000
328.289; 2221.350;  219.350;    0.000
328.349; 2224.350;  231.350;    0.000
328.408; 2183.350;  223.350;    0.000
328.467; 2211.350;  226.350;    0.000
328.526; 2214.350;  197.350;    0.000
328.586; 2176.350;  221.350;    0.000
328.645; 2158.350;  199.350;    0.000
328.704; 2115.350;  227.350;    0.000
328.763; 2175.350;  201.350;    0.000
328.822; 2197.350;  230.350;    0.000
328.882; 2164.350;  244.350;    0.000
328.941; 2103.350;  221.350;    0.000
329.000; 2155.350;  207.350;    0.000
329.059; 2141.350;  208.350;    0.000
329.118; 2198.350;  203.350;    0.000
329.177; 2148.350;  198.350;    0.000
329.237; 2211.350;  218.350;    0.000
329.296; 2131.350;  213.350;    0.000
329.355; 2236.350;  208.350;    0.000
329.414; 2221.350;  231.350;    0.000
329.473; 2154.350;  221.350;    0.000
329.532; 2203.350;  243.350;    0.000
329.591; 2173.350;  210.350;    0.000
329.650; 2272.350;  232.350;    0.000
329.709; 2336.350;  211.350;    0.000
329.768; 2221.350;  194.350;    0.000
329.827; 2381.350;  237.350;    0.000
329.886; 2432.350;  213.350;    0.000
329.945; 2366.350;  190.350;    0.000
330.004; 2482.350;  233.350;    0.000
330.063; 2444.350;  191.350;    0.000
330.122; 2676.350;  234.350;    0.000
330.181; 2988.350;  220.350;    0.000
330.240; 3175.350;  191.350;    0.000
330.299; 2765.350;  210.350;    0.000
330.358; 2494.350;  191.350;    0.000
330.417; 2286.350;  225.350;    0.000
330.476; 2264.350;  226.350;    0.000
330.535; 2305.350;  217.350;    0.000
330.594; 2190.350;  205.350;    0.000
330.653; 2191.350;  193.350;    0.000
330.712; 2213.350;  206.350;    0.000
330.771; 2178.350;  175.350;    0.000
330.830; 2176.350;  204.350;    0.000
330.889; 2215.350;  198.350;    0.000
330.948; 2213.350;  198.350;    0.000
331.006; 2096.350;  207.350;    0.000
331.065; 2115.350;  203.350;    0.000
331.124; 2190.350;  210.350;    0.000
331.183; 2083.350;  165.350;    0.000
331.242; 2108.350;  195.350;    0.000
331.301; 2156.350;  191.350;    0.000
331.359; 2187.350;  205.350;    0.000
331.418; 2161.350;  183.350;    0.000
331.477; 2121.350;  198.350;    0.000
331.536; 2196.350;  211.350;    0.000
331.595; 2102.350;  191.350;    0.000
331.653; 2101.350;  232.350;    0.000
331.712; 2118.350;  225.350;    0.000
331.771; 2094.350;  199.350;    0.000
331.830; 2152.350;  189.350;    0.000
331.888; 2123.350;  219.350;    0.000
331.947; 2004.350;  188.350;    0.000
332.006; 2111.350;  180.350;    0.000
332.065; 2083.350;  177.350;    0.000
332.123; 2156.350;  214.350;    0.000
332.182; 2101.350;  223.350;    0.000
332.241; 2144.350;  202.350;    0.000
332.299; 2087.350;  180.350;    0.000
332.358; 2163.350;  206.350;    0.000
332.417; 2108.350;  195.350;    0.000
332.475; 2108.350;  221.350;    0.000
332.534; 2100.350;  207.350;    0.000
332.592; 2137.350;  190.350;    0.000
332.651; 2099.350;  203.350;    0.000
332.710; 2150.350;  219.350;    0.000
332.768; 2174.350;  210.350;    0.000
332.827; 2220.350;  173.350;    0.000
332.885; 2192.350;  239.350;    0.000
332.944; 2143.350;  145.350;    0.000
333.003; 2189.350;  197.350;    0.000
333.061; 2207.350;  179.350;    0.000
333.120; 2286.350;  198.350;    0.000
333.178; 2342.350;  185.350;    0.000
333.237; 2265.350;  204.350;    0.000
333.295; 2356.350;  266.350;    0.000
333.354; 2275.350;  181.350;    0.000
333.412; 2367.350;  189.350;    0.000
333.471; 2213.350;  216.350;    0.000
333.529; 2232.350;  220.350;    0.000
333.588; 2260.350;  193.350;    0.000
333.646; 2397.350;  186.350;    0.000
333.705; 2431.350;  210.350;    0.000
333.763; 2348.350;  222.350;    0.000
333.822; 2352.350;  222.350;    0.000
333.880; 2306.350;  202.350;    0.000
333.938; 2360.350;  205.350;    0.000
333.997; 2357.350;  199.350;    0.000
334.055; 2364.350;  199.350;    0.000
334.114; 2264.350;  237.350;    0.000
334.172; 2313.350;  155.350;    0.000
334.230; 2294.350;  208.350;    0.000
334.289; 2274.350;  191.350;    0.000
334.347; 2308.350;  211.350;    0.000
334.405; 2282.350;  212.350;    0.000
334.464; 2368.350;  179.350;    0.000
334.522; 2173.350;  160.350;    0.000
334.580; 2249.350;  195.350;    0.000
334.639; 2274.350;  191.350;    0.000
334.697; 2149.350;  194.350;    0.000
334.755; 2206.350;  185.350;    0.000
334.814; 2232.350;  214.350;    0.000
334.872; 2204.350;  179.350;    0.000
334.930; 2199.350;  169.350;    0.000
334.988; 2276.350;  201.350;    0.000
335.047; 2231.350;  188.350;    0.000
335.105; 2198.350;  175.350;    0.000
335.163; 2206.350;  191.350;    0.000
335.221; 2231.350;  196.350;    0.000
335.280; 2206.350;  182.350;    0.000
335.338; 2109.350;  202.350;    0.000
335.396; 2187.350;  219.350;    0.000
335.454; 2255.350;  187.350;    0.000
335.512; 2317.350;  236.350;    0.000
335.570; 2257.350;  209.350;    0.000
335.629; 2346.350;  247.350;    0.000
335.687; 2299.350;  219.350;    0.000
335.745; 2325.350;  203.350;    0.000
335.803; 2286.350;  220.350;    0.000
335.861; 2296.350;  208.350;    0.000
335.919; 2281.350;  223.350;    0.000
335.977; 2179.350;  201.350;    0.000
336.035; 2232.350;  193.350;    0.000
336.094; 2237.350;  178.350;    0.000
336.152; 2250.350;  182.350;    0.000
336.210; 2238.350;  199.350;    0.000
336.268; 2287.350;  216.350;    0.000
336.326; 2296.350;  216.350;    0.000
336.384; 2262.350;  201.350;    0.000
336.442; 2257.350;  197.350;    0.000
336.500; 2155.350;  203.350;    0.000
336.558; 2171.350;  198.350;    0.000
336.616; 2288.350;  210.350;    0.000
336.674; 2195.350;  192.350;    0.000
336.732; 2158.350;  182.350;    0.000
336.790; 2171.350;  189.350;    0.000
336.848; 2185.350;  233.350;    0.000
336.906; 2218.350;  235.350;    0.000
336.964; 2173.350;  208.350;    0.000
337.022; 2207.350;  249.350;    0.000
337.080; 2179.350;  204.350;    0.000
337.138; 2216.350;  176.350;    0.000
337.195; 2259.350;  207.350;    0.000
337.253; 2218.350;  214.350;    0.000
337.311; 2179.350;  210.350;    0.000
337.369; 2191.350;  222.350;    0.000
337.427; 2146.350;  236.350;    0.000
337.485; 2237.350;  241.350;    0.000
337.543; 2125.350;  217.350;    0.000
337.601; 2177.350;  221.350;    0.000
337.658; 2187.350;  205.350;    0.000
337.716; 2101.350;  210.350;    0.000
337.774; 2108.350;  196.350;    0.000
337.832; 2122.350;  200.350;    0.000
337.890; 2026.350;  192.350;    0.000
337.947; 2115.350;  192.350;    0.000
338.005; 2162.350;  211.350;    0.000
338.063; 2040.350;  176.350;    0.000
338.121; 2225.350;  222.350;    0.000
338.178; 2115.350;  198.350;    0.000
338.236; 2101.350;  210.350;    0.000
338.294; 2145.350;  211.350;    0.000
338.352; 2198.350;  212.350;    0.000
338.409; 2114.350;  199.350;    0.000
338.467; 2115.350;  205.350;    0.000
338.525; 2090.350;  217.350;    0.000
338.583; 2088.350;  197.350;    0.000
338.640; 2063.350;  226.350;    0.000
338.698; 2147.350;  201.350;    0.000
338.756; 2117.350;  192.350;    0.000
338.813; 2109.350;  220.350;    0.000
338.871; 2132.350;  258.350;    0.000
338.928; 2153.350;  223.350;    0.000
338.986; 2171.350;  200.350;    0.000
339.044; 2182.350;  206.350;    0.000
339.101; 2022.350;  250.350;    0.000
339.159; 2028.350;  245.350;    0.000
339.216; 2164.350;  227.350;    0.000
339.274; 2059.350;  260.350;    0.000
339.332; 2129.350;  223.350;    0.000
339.389; 2049.350;  233.350;    0.000
339.447; 2054.350;  206.350;    0.000
339.504; 2090.350;  229.350;    0.000
339.562; 2103.350;  194.350;    0.000
339.619; 2114.350;  245.350;    0.000
339.677; 2176.350;  238.350;    0.000
339.734; 2113.350;  197.350;    0.000
339.792; 2095.350;  210.350;    0.000
339.849; 2053.350;  201.350;    0.000
339.907; 2127.350;  252.350;    0.000
339.964; 2022.350;  191.350;    0.000
340.022; 2074.350;  246.350;    0.000
340.079; 2093.350;  213.350;    0.000
340.137; 2052.350;  240.350;    0.000
340.194; 2139.350;  208.350;    0.000
340.252; 2061.350;  215.350;    0.000
340.309; 2121.350;  203.350;    0.000
340.366; 2060.350;  194.350;    0.000
340.424; 2012.350;  226.350;    0.000
340.481; 2141.350;  234.350;    0.000
340.538; 2074.350;  205.350;    0.000
340.596; 2050.350;  197.350;    0.000
340.653; 2030.350;  233.350;    0.000
340.711; 2054.350;  273.350;    0.000
340.768; 2148.350;  237.350;    0.000
340.825; 2033.350;  224.350;    0.000
340.883; 2071.350;  240.350;    0.000
340.940; 2105.350;  216.350;    0.000
340.997; 2025.350;  228.350;    0.000
341.054; 2126.350;  200.350;    0.000
341.112; 2138.350;  220.350;    0.000
341.169; 1965.350;  226.350;    0.000
341.226; 2046.350;  206.350;    0.000
341.284; 2092.350;  204.350;    0.000
341.341; 2089.350;  214.350;    0.000
341.398; 2081.350;  160.350;    0.000
341.455; 2166.350;  209.350;    0.000
341.512; 2087.350;  233.350;    0.000
341.570; 2074.350;  240.350;    0.000
341.627; 2152.350;  209.350;    0.000
341.684; 2014.350;  178.350;    0.000
341.741; 2207.350;  254.350;    0.000
341.798; 2141.350;  232.350;    0.000
341.856; 2029.350;  196.350;    0.000
341.913; 2084.350;  244.350;    0.000
341.970; 2123.350;  203.350;    0.000
342.027; 2109.350;  235.350;    0.000
342.084; 2104.350;  214.350;    0.000
342.141; 2066.350;  194.350;    0.000
342.198; 2110.350;  194.350;    0.000
342.255; 2127.350;  219.350;    0.000
342.313; 2078.350;  195.350;    0.000
342.370; 2044.350;  207.350;    0.000
342.427; 2031.350;  217.350;    0.000
342.484; 2051.350;  213.350;    0.000
342.541; 2133.350;  215.350;    0.000
342.598; 2063.350;  247.350;    0.000
342.655; 2072.350;  205.350;    0.000
342.712; 2129.350;  226.350;    0.000
342.769; 2037.350;  212.350;    0.000
342.826; 2080.350;  203.350;    0.000
342.883; 2081.350;  207.350;    0.000
342.940; 2066.350;  204.350;    0.000
342.997; 2046.350;  237.350;    0.000
343.054; 2166.350;  210.350;    0.000
343.111; 2040.350;  209.350;    0.000
343.168; 2060.350;  201.350;    0.000
343.225; 2153.350;  208.350;    0.000
343.282; 2079.350;  216.350;    0.000
343.339; 2167.350;  237.350;    0.000
343.395; 2154.350;  218.350;    0.000
343.452; 2184.350;  234.350;    0.000
343.509; 2236.350;  214.350;    0.000
343.566; 2235.350;  222.350;    0.000
343.623; 2201.350;  226.350;    0.000
343.680; 2219.350;  245.350;    0.000
343.737; 2238.350;  209.350;    0.000
343.794; 2282.350;  227.350;    0.000
343.850; 2267.350;  197.350;    0.000
343.907; 2376.350;  211.350;    0.000
343.964; 2271.350;  190.350;    0.000
344.021; 2261.350;  252.350;    0.000
344.078; 2339.350;  261.350;    0.000
344.134; 2343.350;  206.350;    0.000
344.191; 2284.350;  231.350;    0.000
344.248; 2273.350;  225.350;    0.000
344.305; 2272.350;  210.350;    0.000
344.361; 2325.350;  194.350;    0.000
344.418; 2245.350;  219.350;    0.000
344.475; 2216.350;  245.350;    0.000
344.532; 2228.350;  238.350;    0.000
344.588; 2220.350;  235.350;    0.000
344.645; 2252.350;  229.350;    0.000
344.702; 2268.350;  145.350;    0.000
344.758; 2200.350;  240.350;    0.000
344.815; 2298.350;  215.350;    0.000
344.872; 2166.350;  203.350;    0.000
344.928; 2244.350;  208.350;    0.000
344.985; 2186.350;  216.350;    0.000
345.042; 2244.350;  234.350;    0.000
345.098; 2183.350;  183.350;    0.000
345.155; 2189.350;  241.350;    0.000
345.212; 2250.350;  222.350;    0.000
345.268; 2305.350;  234.350;    0.000
345.325; 2204.350;  181.350;    0.000
345.381; 2187.350;  251.350;    0.000
345.438; 2170.350;  256.350;    0.000
345.495; 2213.350;  247.350;    0.000
345.551; 2272.350;  231.350;    0.000
345.608; 2190.350;  206.350;    0.000
345.664; 2255.350;  201.350;    0.000
345.721; 2251.350;  216.350;    0.000
345.777; 2194.350;  195.350;    0.000
345.834; 2094.350;  195.350;    0.000
345.890; 2143.350;  227.350;    0.000
345.947; 2211.350;  240.350;    0.000
346.003; 2175.350;  248.350;    0.000
346.060; 2149.350;  213.350;    0.000
346.116; 2201.350;  225.350;    0.000
346.173; 2175.350;  199.350;    0.000
346.229; 2243.350;  264.350;    0.000
346.285; 2245.350;  246.350;    0.000
346.342; 2216.350;  240.350;    0.000
346.398; 2248.350;  222.350;    0.000
346.455; 2241.350;  231.350;    0.000
346.511; 2349.350;  214.350;    0.000
346.567; 2234.350;  231.350;    0.000
346.624; 2198.350;  222.350;    0.000
346.680; 2240.350;  197.350;    0.000
346.737; 2282.350;  225.350;    0.000
346.793; 2288.350;  255.350;    0.000
346.849; 2203.350;  245.350;    0.000
346.906; 2265.350;  221.350;    0.000
346.962; 2268.350;  260.350;    0.000
347.018; 2327.350;  238.350;    0.000
347.074; 2310.350;  257.350;    0.000
347.131; 2319.350;  200.350;    0.000
347.187; 2210.350;  232.350;    0.000
347.243; 2210.350;  240.350;    0.000
347.300; 2209.350;  249.350;    0.000
347.356; 2245.350;  250.350;    0.000
347.412; 2287.350;  252.350;    0.000
347.468; 2249.350;  254.350;    0.000
347.524; 2215.350;  280.350;    0.000
347.581; 2220.350;  228.350;    0.000
347.637; 2192.350;  261.350;    0.000
347.693; 2183.350;  238.350;    0.000
347.749; 2290.350;  261.350;    0.000
347.805; 2193.350;  238.350;    0.000
347.862; 2344.350;  246.350;    0.000
347.918; 2238.350;  256.350;    0.000
347.974; 2235.350;  277.350;    0.000
348.030; 2281.350;  242.350;    0.000
348.086; 2204.350;  223.350;    0.000
348.142; 2236.350;  215.350;    0.000
348.198; 2215.350;  272.350;    0.000
348.254; 2243.350;  292.350;    0.000
348.311; 2232.350;  235.350;    0.000
348.367; 2344.350;  263.350;    0.000
348.423; 2238.350;  193.350;    0.000
348.479; 2211.350;  266.350;    0.000
348.535; 2257.350;  238.350;    0.000
348.591; 2304.350;  237.350;    0.000
348.647; 2306.350;  239.350;    0.000
348.703; 2267.350;  240.350;    0.000
348.759; 2305.350;  253.350;    0.000
348.815; 2260.350;  255.350;    0.000
348.871; 2314.350;  256.350;    0.000
348.927; 2227.350;  261.350;    0.000
348.983; 2349.350;  258.350;    0.000
349.039; 2250.350;  204.350;    0.000
349.095; 2248.350;  215.350;    0.000
349.151; 2267.350;  230.350;    0.000
349.207; 2197.350;  216.350;    0.000
349.263; 2390.350;  235.350;    0.000
349.319; 2333.350;  244.350;    0.000
349.374; 2224.350;  213.350;    0.000
349.430; 2293.350;  241.350;    0.000
349.486; 2352.350;  248.350;    0.000
349.542; 2331.350;  259.350;    0.000
349.598; 2348.350;  208.350;    0.000
349.654; 2294.350;  242.350;    0.000
349.710; 2244.350;  246.350;    0.000
349.766; 2282.350;  226.350;    0.000
349.821; 2309.350;  227.350;    0.000
349.877; 2278.350;  226.350;    0.000
349.933; 2377.350;  249.350;    0.000
349.989; 2302.350;  263.350;    0.000
350.045; 2305.350;  267.350;    0.000
350.100; 2346.350;  219.350;    0.000
350.156; 2341.350;  207.350;    0.000
350.212; 2310.350;  230.350;    0.000
350.268; 2219.350;  223.350;    0.000
350.323; 2320.350;  217.350;    0.000
350.379; 2241.350;  227.350;    0.000
350.435; 2256.350;  219.350;    0.000
350.491; 2317.350;  195.350;    0.000
350.546; 2293.350;  229.350;    0.000
350.602; 2238.350;  222.350;    0.000
350.658; 2216.350;  225.350;    0.000
350.713; 2266.350;  231.350;    0.000
350.769; 2256.350;  193.350;    0.000
350.825; 2230.350;  182.350;    0.000
350.880; 2213.350;  193.350;    0.000
350.936; 2264.350;  222.350;    0.000
350.992; 2245.350;  217.350;    0.000
351.047; 2284.350;  226.350;    0.000
351.103; 2293.350;  187.350;    0.000
351.158; 2312.350;  212.350;    0.000
351.214; 2284.350;  207.350;    0.000
351.270; 2252.350;  194.350;    0.000
351.325; 2280.350;  213.350;    0.000
351.381; 2284.350;  223.350;    0.000
351.436; 2324.350;  222.350;    0.000
351.492; 2434.350;  219.350;    0.000
351.547; 2390.350;  205.350;    0.000
351.603; 2352.350;  218.350;    0.000
351.658; 2348.350;  199.350;    0.000
351.714; 2318.350;  201.350;    0.000
351.769; 2371.350;  209.350;    0.000
351.825; 2361.350;  226.350;    0.000
351.880; 2306.350;  189.350;    0.000
351.936; 2324.350;  201.350;    0.000
351.991; 2305.350;  220.350;    0.000
352.047; 2273.350;  232.350;    0.000
352.102; 2300.350;  185.350;    0.000
352.158; 2227.350;  228.350;    0.000
352.213; 2212.350;  204.350;    0.000
352.268; 2246.350;  220.350;    0.000
352.324; 2206.350;  206.350;    0.000
352.379; 2270.350;  182.350;    0.000
352.434; 2303.350;  214.350;    0.000
352.490; 2310.350;  250.350;    0.000
352.545; 2359.350;  290.350;    0.000
352.601; 2415.350;  247.350;    0.000
352.656; 2247.350;  203.350;    0.000
352.711; 2305.350;  197.350;    0.000
352.767; 2249.350;  169.350;    0.000
352.822; 2203.350;  191.350;    0.000
352.877; 2297.350;  235.350;    0.000
352.932; 2303.350;  231.350;    0.000
352.988; 2364.350;  224.350;    0.000
353.043; 2370.350;  226.350;    0.000
353.098; 2359.350;  227.350;    0.000
353.153; 2364.350;  239.350;    0.000
353.209; 2379.350;  217.350;    0.000
353.264; 2372.350;  198.350;    0.000
353.319; 2327.350;  247.350;    0.000
353.374; 2341.350;  199.350;    0.000
353.430; 2282.350;  247.350;    0.000
353.485; 2349.350;  242.350;    0.000
353.540; 2338.350;  237.350;    0.000
353.595; 2309.350;  233.350;    0.000
353.650; 2286.350;  221.350;    0.000
353.705; 2347.350;  259.350;    0.000
353.761; 2222.350;  223.350;    0.000
353.816; 2347.350;  234.350;    0.000
353.871; 2298.350;  226.350;    0.000
353.926; 2369.350;  232.350;    0.000
353.981; 2333.350;  245.350;    0.000
354.036; 2331.350;  247.350;    0.000
354.091; 2403.350;  233.350;    0.000
354.146; 2301.350;  253.350;    0.000
354.201; 2380.350;  236.350;    0.000
354.256; 2308.350;  210.350;    0.000
354.311; 2315.350;  279.350;    0.000
354.367; 2343.350;  208.350;    0.000
354.422; 2330.350;  228.350;    0.000
354.477; 2296.350;  202.350;    0.000
354.532; 2304.350;  215.350;    0.000
354.587; 2329.350;  249.350;    0.000
354.642; 2341.350;  206.350;    0.000
354.697; 2397.350;  226.350;    0.000
354.751; 2352.350;  241.350;    0.000
354.806; 2312.350;  249.350;    0.000
354.861; 2344.350;  216.350;    0.000
354.916; 2322.350;  249.350;    0.000
354.971; 2312.350;  217.350;    0.000
355.026; 2294.350;  236.350;    0.000
355.081; 2386.350;  242.350;    0.000
355.136; 2364.350;  216.350;    0.000
355.191; 2241.350;  216.350;    0.000
355.246; 2390.350;  258.350;    0.000
355.301; 2305.350;  250.350;    0.000
355.355; 2323.350;  251.350;    0.000
355.410; 2364.350;  216.350;    0.000
355.465; 2324.350;  224.350;    0.000
355.520; 2337.350;  221.350;    0.000
355.575; 2332.350;  255.350;    0.000
355.630; 2341.350;  225.350;    0.000
355.684; 2376.350;  210.350;    0.000
355.739; 2360.350;  232.350;    0.000
355.794; 2436.350;  202.350;    0.000
355.849; 2318.350;  211.350;    0.000
355.904; 2298.350;  226.350;    0.000
355.958; 2366.350;  191.350;    0.000
356.013; 2290.350;  208.350;    0.000
356.068; 2350.350;  229.350;    0.000
356.123; 2417.350;  243.350;    0.000
356.177; 2327.350;  227.350;    0.000
356.232; 2429.350;  243.350;    0.000
356.287; 2443.350;  216.350;    0.000
356.341; 2411.350;  242.350;    0.000
356.396; 2324.350;  175.350;    0.000
356.451; 2283.350;  271.350;    0.000
356.505; 2450.350;  225.350;    0.000
356.560; 2257.350;  260.350;    0.000
356.615; 2333.350;  213.350;    0.000
356.669; 2366.350;  213.350;    0.000
356.724; 2345.350;  221.350;    0.000
356.778; 2387.350;  232.350;    0.000
356.833; 2274.350;  178.350;    0.000
356.888; 2374.350;  236.350;    0.000
356.942; 2327.350;  224.350;    0.000
356.997; 2426.350;  228.350;    0.000
357.051; 2361.350;  226.350;    0.000
357.106; 2353.350;  185.350;    0.000
357.160; 2329.350;  202.350;    0.000
357.215; 2315.350;  232.350;    0.000
357.269; 2331.350;  224.350;    0.000
357.324; 2308.350;  219.350;    0.000
357.378; 2366.350;  196.350;    0.000
357.433; 2272.350;  241.350;    0.000
357.487; 2317.350;  244.350;    0.000
357.542; 2331.350;  210.350;    0.000
357.596; 2318.350;  231.350;    0.000
357.651; 2335.350;  248.350;    0.000
357.705; 2402.350;  232.350;    0.000
357.760; 2330.350;  224.350;    0.000
357.814; 2261.350;  221.350;    0.000
357.868; 2359.350;  207.350;    0.000
357.923; 2407.350;  234.350;    0.000
357.977; 2341.350;  218.350;    0.000
358.032; 2315.350;  244.350;    0.000
358.086; 2404.350;  246.350;    0.000
358.140; 2367.350;  235.350;    0.000
358.195; 2407.350;  237.350;    0.000
358.249; 2292.350;  233.350;    0.000
358.303; 2309.350;  254.350;    0.000
358.358; 2396.350;  217.350;    0.000
358.412; 2353.350;  245.350;    0.000
358.466; 2413.350;  230.350;    0.000
358.521; 2366.350;  214.350;    0.000
358.575; 2334.350;  243.350;    0.000
358.629; 2296.350;  230.350;    0.000
358.683; 2322.350;  232.350;    0.000
358.738; 2338.350;  249.350;    0.000
358.792; 2341.350;  249.350;    0.000
358.846; 2409.350;  271.350;    0.000
358.900; 2374.350;  265.350;    0.000
358.954; 2359.350;  236.350;    0.000
359.009; 2293.350;  254.350;    0.000
359.063; 2378.350;  216.350;    0.000
359.117; 2330.350;  245.350;    0.000
359.171; 2439.350;  252.350;    0.000
359.225; 2415.350;  240.350;    0.000
359.280; 2308.350;  239.350;    0.000
359.334; 2357.350;  234.350;    0.000
359.388; 2311.350;  258.350;    0.000
359.442; 2359.350;  220.350;    0.000
359.496; 2289.350;  206.350;    0.000
359.550; 2392.350;  279.350;    0.000
359.604; 2346.350;  263.350;    0.000
359.658; 2327.350;  251.350;    0.000
359.712; 2409.350;  244.350;    0.000
359.766; 2320.350;  217.350;    0.000
359.820; 2278.350;  235.350;    0.000
359.875; 2295.350;  249.350;    0.000
359.929; 2343.350;  269.350;    0.000
359.983; 2278.350;  240.350;    0.000
360.037; 2220.350;  252.350;    0.000
360.091; 2275.350;  271.350;    0.000
360.145; 2349.350;  222.350;    0.000
360.199; 2299.350;  302.350;    0.000
360.253; 2279.350;  234.350;    0.000
360.306; 2342.350;  258.350;    0.000
360.360; 2285.350;  249.350;    0.000
360.414; 2318.350;  231.350;    0.000
360.468; 2345.350;  261.350;    0.000
360.522; 2321.350;  277.350;    0.000
360.576; 2311.350;  273.350;    0.000
360.630; 2392.350;  264.350;    0.000
360.684; 2363.350;  223.350;    0.000
360.738; 2336.350;  266.350;    0.000
360.792; 2398.350;  252.350;    0.000
360.846; 2345.350;  234.350;    0.000
360.899; 2334.350;  296.350;    0.000
360.953; 2433.350;  273.350;    0.000
361.007; 2314.350;  251.350;    0.000
361.061; 2345.350;  250.350;    0.000
361.115; 2336.350;  267.350;    0.000
361.168; 2335.350;  308.350;    0.000
361.222; 2252.350;  246.350;    0.000
361.276; 2323.350;  261.350;    0.000
361.330; 2324.350;  233.350;    0.000
361.384; 2252.350;  269.350;    0.000
361.437; 2379.350;  270.350;    0.000
361.491; 2404.350;  263.350;    0.000
361.545; 2253.350;  288.350;    0.000
361.599; 2366.350;  270.350;    0.000
361.652; 2368.350;  256.350;    0.000
361.706; 2323.350;  263.350;    0.000
361.760; 2362.350;  237.350;    0.000
361.813; 2266.350;  278.350;    0.000
361.867; 2365.350;  317.350;    0.000
361.921; 2332.350;  260.350;    0.000
361.974; 2409.350;  239.350;    0.000
362.028; 2301.350;  266.350;    0.000
362.082; 2369.350;  269.350;    0.000
362.135; 2236.350;  262.350;    0.000
362.189; 2292.350;  258.350;    0.000
362.242; 2328.350;  273.350;    0.000
362.296; 2398.350;  261.350;    0.000
362.350; 2346.350;  272.350;    0.000
362.403; 2334.350;  291.350;    0.000
362.457; 2308.350;  253.350;    0.000
362.510; 2368.350;  266.350;    0.000
362.564; 2327.350;  260.350;    0.000
362.617; 2311.350;  280.350;    0.000
362.671; 2367.350;  281.350;    0.000
362.724; 2314.350;  234.350;    0.000
362.778; 2342.350;  311.350;    0.000
362.831; 2383.350;  276.350;    0.000
362.885; 2369.350;  288.350;    0.000
362.938; 2239.350;  284.350;    0.000
362.992;  365.350;  245.350;    0.000
363.045;  265.350;  277.350;    0.000
363.099;  277.350;  246.350;    0.000
363.152;  292.350;  290.350;    0.000
363.205;  279.350;  256.350;    0.000
363.259;  270.350;  238.350;    0.000
363.312;  318.350;  290.350;    0.000
363.366;  282.350;  287.350;    0.000
363.419;  298.350;  279.350;    0.000
363.472;  301.350;  304.350;    0.000
363.526;  301.350;  305.350;    0.000
363.579;  289.350;  281.350;    0.000
363.632;  265.350;  279.350;    0.000
363.686;  273.350;  277.350;    0.000
363.739;  290.350;  268.350;    0.000
363.792;  280.350;  274.350;    0.000

