
Integration time [ms]:   0.300
Averaging Nr. [scans]: 1
Smoothing Nr. [pixels]: 0
Data measured with spectrometer [name]: UV1
Wave   ;Sample   ;Dark     ;Reference
[nm]   ;[counts] ;[counts] ;[counts] 

236.381;  160.175;  160.350;    0.000
236.451;  179.175;  198.350;    0.000
236.520;  185.175;  179.350;    0.000
236.590;  199.175;  205.350;    0.000
236.660;  212.175;  199.350;    0.000
236.730;  147.175;  178.350;    0.000
236.799;  200.175;  201.350;    0.000
236.869;  189.175;  197.350;    0.000
236.939;  162.175;  180.350;    0.000
237.009;  167.175;  165.350;    0.000
237.078;  172.175;  191.350;    0.000
237.148;  173.175;  146.350;    0.000
237.218;  193.175;  142.350;    0.000
237.287;  186.175;  190.350;    0.000
237.357;  158.175;  182.350;    0.000
237.427;  169.175;  139.350;    0.000
237.496;  931.175;  221.350;    0.000
237.566;  877.175;  183.350;    0.000
237.636;  886.175;  157.350;    0.000
237.705;  916.175;  189.350;    0.000
237.775;  803.175;  169.350;    0.000
237.845;  954.175;  156.350;    0.000
237.914;  881.175;  185.350;    0.000
237.984;  890.175;  194.350;    0.000
238.054;  811.175;  138.350;    0.000
238.123;  890.175;  166.350;    0.000
238.193;  874.175;  174.350;    0.000
238.263;  879.175;  158.350;    0.000
238.332;  838.175;  167.350;    0.000
238.402;  860.175;  173.350;    0.000
238.471;  880.175;  153.350;    0.000
238.541;  850.175;  167.350;    0.000
238.611;  836.175;  165.350;    0.000
238.680;  854.175;  157.350;    0.000
238.750;  863.175;  152.350;    0.000
238.819;  835.175;  190.350;    0.000
238.889;  826.175;  151.350;    0.000
238.958;  877.175;  166.350;    0.000
239.028;  884.175;  180.350;    0.000
239.097;  846.175;  170.350;    0.000
239.167;  886.175;  177.350;    0.000
239.237;  866.175;  195.350;    0.000
239.306;  883.175;  145.350;    0.000
239.376;  877.175;  158.350;    0.000
239.445;  940.175;  187.350;    0.000
239.515;  824.175;  160.350;    0.000
239.584;  868.175;  173.350;    0.000
239.654;  810.175;  184.350;    0.000
239.723;  805.175;  195.350;    0.000
239.793;  893.175;  183.350;    0.000
239.862;  837.175;  190.350;    0.000
239.932;  867.175;  168.350;    0.000
240.001;  842.175;  164.350;    0.000
240.070;  845.175;  183.350;    0.000
240.140;  837.175;  175.350;    0.000
240.209;  827.175;  135.350;    0.000
240.279;  816.175;  176.350;    0.000
240.348;  822.175;  184.350;    0.000
240.418;  829.175;  157.350;    0.000
240.487;  815.175;  189.350;    0.000
240.556;  846.175;  157.350;    0.000
240.626;  877.175;  174.350;    0.000
240.695;  826.175;  180.350;    0.000
240.765;  867.175;  152.350;    0.000
240.834;  880.175;  136.350;    0.000
240.903;  838.175;  196.350;    0.000
240.973;  847.175;  183.350;    0.000
241.042;  850.175;  150.350;    0.000
241.112;  828.175;  168.350;    0.000
241.181;  851.175;  152.350;    0.000
241.250;  816.175;  132.350;    0.000
241.320;  828.175;  209.350;    0.000
241.389;  814.175;  169.350;    0.000
241.458;  863.175;  204.350;    0.000
241.528;  782.175;  176.350;    0.000
241.597;  885.175;  170.350;    0.000
241.666;  811.175;  168.350;    0.000
241.736;  844.175;  172.350;    0.000
241.805;  828.175;  160.350;    0.000
241.874;  858.175;  176.350;    0.000
241.943;  831.175;  165.350;    0.000
242.013;  826.175;  206.350;    0.000
242.082;  873.175;  162.350;    0.000
242.151;  837.175;  180.350;    0.000
242.221;  780.175;  154.350;    0.000
242.290;  816.175;  122.350;    0.000
242.359;  788.175;  121.350;    0.000
242.428;  841.175;  187.350;    0.000
242.498;  845.175;  140.350;    0.000
242.567;  811.175;  173.350;    0.000
242.636;  771.175;  155.350;    0.000
242.705;  793.175;  108.350;    0.000
242.774;  787.175;  145.350;    0.000
242.844;  845.175;  162.350;    0.000
242.913;  840.175;  178.350;    0.000
242.982;  802.175;  163.350;    0.000
243.051;  787.175;  138.350;    0.000
243.120;  778.175;  172.350;    0.000
243.190;  797.175;  155.350;    0.000
243.259;  795.175;  159.350;    0.000
243.328;  808.175;  173.350;    0.000
243.397;  820.175;  175.350;    0.000
243.466;  806.175;  170.350;    0.000
243.535;  799.175;  161.350;    0.000
243.605;  758.175;  149.350;    0.000
243.674;  847.175;  162.350;    0.000
243.743;  783.175;  175.350;    0.000
243.812;  768.175;  159.350;    0.000
243.881;  844.175;  158.350;    0.000
243.950;  804.175;  154.350;    0.000
244.019;  844.175;  185.350;    0.000
244.088;  734.175;  175.350;    0.000
244.158;  831.175;  167.350;    0.000
244.227;  769.175;  159.350;    0.000
244.296;  841.175;  143.350;    0.000
244.365;  851.175;  182.350;    0.000
244.434;  840.175;  117.350;    0.000
244.503;  808.175;  109.350;    0.000
244.572;  803.175;  147.350;    0.000
244.641;  771.175;  129.350;    0.000
244.710;  766.175;  159.350;    0.000
244.779;  797.175;  166.350;    0.000
244.848;  723.175;  122.350;    0.000
244.917;  768.175;  167.350;    0.000
244.986;  788.175;  158.350;    0.000
245.055;  830.175;  175.350;    0.000
245.124;  783.175;  153.350;    0.000
245.193;  752.175;  155.350;    0.000
245.262;  733.175;  137.350;    0.000
245.331;  775.175;  145.350;    0.000
245.400;  726.175;  107.350;    0.000
245.469;  722.175;  162.350;    0.000
245.538;  713.175;  165.350;    0.000
245.607;  747.175;  178.350;    0.000
245.676;  762.175;  166.350;    0.000
245.745;  744.175;  169.350;    0.000
245.814;  686.175;  155.350;    0.000
245.883;  721.175;  186.350;    0.000
245.952;  732.175;  165.350;    0.000
246.021;  760.175;  169.350;    0.000
246.090;  745.175;  170.350;    0.000
246.159;  734.175;  155.350;    0.000
246.227;  695.175;  161.350;    0.000
246.296;  699.175;  142.350;    0.000
246.365;  709.175;  160.350;    0.000
246.434;  727.175;  199.350;    0.000
246.503;  680.175;  155.350;    0.000
246.572;  748.175;  206.350;    0.000
246.641;  674.175;  177.350;    0.000
246.710;  725.175;  178.350;    0.000
246.779;  674.175;  193.350;    0.000
246.847;  733.175;  147.350;    0.000
246.916;  707.175;  131.350;    0.000
246.985;  706.175;  168.350;    0.000
247.054;  619.175;  143.350;    0.000
247.123;  708.175;  130.350;    0.000
247.192;  669.175;  175.350;    0.000
247.260;  636.175;  171.350;    0.000
247.329;  740.175;  162.350;    0.000
247.398;  706.175;  163.350;    0.000
247.467;  705.175;  155.350;    0.000
247.536;  735.175;  149.350;    0.000
247.604;  737.175;  191.350;    0.000
247.673;  687.175;  193.350;    0.000
247.742;  678.175;  159.350;    0.000
247.811;  715.175;  167.350;    0.000
247.879;  698.175;  176.350;    0.000
247.948;  713.175;  157.350;    0.000
248.017;  682.175;  150.350;    0.000
248.086;  672.175;  153.350;    0.000
248.154;  680.175;  157.350;    0.000
248.223;  656.175;  198.350;    0.000
248.292;  663.175;  188.350;    0.000
248.361;  666.175;  157.350;    0.000
248.429;  707.175;  138.350;    0.000
248.498;  661.175;  166.350;    0.000
248.567;  647.175;  179.350;    0.000
248.635;  722.175;  210.350;    0.000
248.704;  690.175;  168.350;    0.000
248.773;  630.175;  147.350;    0.000
248.841;  713.175;  155.350;    0.000
248.910;  650.175;  183.350;    0.000
248.979;  652.175;  171.350;    0.000
249.047;  690.175;  152.350;    0.000
249.116;  722.175;  155.350;    0.000
249.185;  727.175;  217.350;    0.000
249.253;  660.175;  149.350;    0.000
249.322;  663.175;  167.350;    0.000
249.390;  680.175;  182.350;    0.000
249.459;  654.175;  173.350;    0.000
249.528;  676.175;  162.350;    0.000
249.596;  671.175;  162.350;    0.000
249.665;  700.175;  163.350;    0.000
249.733;  651.175;  147.350;    0.000
249.802;  662.175;  170.350;    0.000
249.871;  663.175;  179.350;    0.000
249.939;  626.175;  179.350;    0.000
250.008;  687.175;  201.350;    0.000
250.076;  700.175;  189.350;    0.000
250.145;  632.175;  171.350;    0.000
250.213;  670.175;  161.350;    0.000
250.282;  656.175;  171.350;    0.000
250.350;  650.175;  138.350;    0.000
250.419;  637.175;  172.350;    0.000
250.487;  679.175;  207.350;    0.000
250.556;  666.175;  160.350;    0.000
250.624;  661.175;  187.350;    0.000
250.693;  554.175;  141.350;    0.000
250.761;  655.175;  182.350;    0.000
250.830;  700.175;  203.350;    0.000
250.898;  650.175;  160.350;    0.000
250.967;  635.175;  143.350;    0.000
251.035;  598.175;  142.350;    0.000
251.104;  618.175;  159.350;    0.000
251.172;  655.175;  189.350;    0.000
251.241;  562.175;  134.350;    0.000
251.309;  604.175;  179.350;    0.000
251.378;  666.175;  203.350;    0.000
251.446;  588.175;  151.350;    0.000
251.514;  700.175;  176.350;    0.000
251.583;  666.175;  173.350;    0.000
251.651;  591.175;  163.350;    0.000
251.720;  680.175;  151.350;    0.000
251.788;  681.175;  205.350;    0.000
251.856;  587.175;  126.350;    0.000
251.925;  622.175;  118.350;    0.000
251.993;  638.175;  139.350;    0.000
252.062;  625.175;  161.350;    0.000
252.130;  705.175;  180.350;    0.000
252.198;  632.175;  141.350;    0.000
252.267;  596.175;  145.350;    0.000
252.335;  608.175;  159.350;    0.000
252.403;  593.175;  158.350;    0.000
252.472;  605.175;  142.350;    0.000
252.540;  631.175;  162.350;    0.000
252.608;  609.175;  180.350;    0.000
252.677;  561.175;  137.350;    0.000
252.745;  601.175;  183.350;    0.000
252.813;  579.175;  151.350;    0.000
252.881;  560.175;  109.350;    0.000
252.950;  611.175;  174.350;    0.000
253.018;  569.175;  136.350;    0.000
253.086;  557.175;  149.350;    0.000
253.155;  522.175;  127.350;    0.000
253.223;  553.175;  156.350;    0.000
253.291;  510.175;  163.350;    0.000
253.359;  529.175;  174.350;    0.000
253.428;  575.175;  174.350;    0.000
253.496;  482.175;  161.350;    0.000
253.564;  495.175;  128.350;    0.000
253.632;  470.175;  153.350;    0.000
253.700;  523.175;  185.350;    0.000
253.769;  464.175;  163.350;    0.000
253.837;  536.175;  176.350;    0.000
253.905;  500.175;  164.350;    0.000
253.973;  476.175;  156.350;    0.000
254.041;  530.175;  154.350;    0.000
254.110;  509.175;  165.350;    0.000
254.178;  521.175;  148.350;    0.000
254.246;  471.175;  138.350;    0.000
254.314;  487.175;  164.350;    0.000
254.382;  536.175;  167.350;    0.000
254.450;  475.175;  134.350;    0.000
254.518;  551.175;  192.350;    0.000
254.587;  456.175;  139.350;    0.000
254.655;  492.175;  162.350;    0.000
254.723;  485.175;  131.350;    0.000
254.791;  494.175;  181.350;    0.000
254.859;  494.175;  146.350;    0.000
254.927;  519.175;  189.350;    0.000
254.995;  493.175;  141.350;    0.000
255.063;  515.175;  181.350;    0.000
255.131;  516.175;  156.350;    0.000
255.199;  472.175;  175.350;    0.000
255.267;  498.175;  120.350;    0.000
255.336;  511.175;  186.350;    0.000
255.404;  434.175;  134.350;    0.000
255.472;  517.175;  172.350;    0.000
255.540;  519.175;  157.350;    0.000
255.608;  520.175;  186.350;    0.000
255.676;  492.175;  155.350;    0.000
255.744;  540.175;  143.350;    0.000
255.812;  531.175;  134.350;    0.000
255.880;  540.175;  188.350;    0.000
255.948;  497.175;  163.350;    0.000
256.016;  533.175;  175.350;    0.000
256.084;  533.175;  191.350;    0.000
256.152;  538.175;  187.350;    0.000
256.220;  539.175;  152.350;    0.000
256.288;  555.175;  141.350;    0.000
256.356;  531.175;  139.350;    0.000
256.424;  523.175;  121.350;    0.000
256.491;  554.175;  139.350;    0.000
256.559;  580.175;  144.350;    0.000
256.627;  554.175;  158.350;    0.000
256.695;  532.175;  121.350;    0.000
256.763;  564.175;  150.350;    0.000
256.831;  594.175;  181.350;    0.000
256.899;  587.175;  146.350;    0.000
256.967;  530.175;   71.350;    0.000
257.035;  585.175;  164.350;    0.000
257.103;  611.175;  191.350;    0.000
257.171;  576.175;  140.350;    0.000
257.238;  582.175;  165.350;    0.000
257.306;  598.175;  127.350;    0.000
257.374;  589.175;  120.350;    0.000
257.442;  652.175;  139.350;    0.000
257.510;  595.175;  158.350;    0.000
257.578;  592.175;  164.350;    0.000
257.646;  678.175;  151.350;    0.000
257.713;  651.175;  136.350;    0.000
257.781;  635.175;  137.350;    0.000
257.849;  680.175;  151.350;    0.000
257.917;  621.175;  154.350;    0.000
257.985;  640.175;  113.350;    0.000
258.052;  682.175;  140.350;    0.000
258.120;  672.175;  176.350;    0.000
258.188;  683.175;  157.350;    0.000
258.256;  673.175;  153.350;    0.000
258.324;  697.175;  184.350;    0.000
258.391;  674.175;  144.350;    0.000
258.459;  779.175;  162.350;    0.000
258.527;  734.175;  154.350;    0.000
258.595;  729.175;  122.350;    0.000
258.662;  731.175;  164.350;    0.000
258.730;  778.175;  114.350;    0.000
258.798;  760.175;  131.350;    0.000
258.865;  796.175;  171.350;    0.000
258.933;  783.175;  145.350;    0.000
259.001;  812.175;  150.350;    0.000
259.069;  796.175;  123.350;    0.000
259.136;  771.175;  139.350;    0.000
259.204;  833.175;  165.350;    0.000
259.272;  866.175;  114.350;    0.000
259.339;  855.175;  179.350;    0.000
259.407;  843.175;  153.350;    0.000
259.475;  786.175;  143.350;    0.000
259.542;  807.175;  136.350;    0.000
259.610;  832.175;  133.350;    0.000
259.677;  854.175;  159.350;    0.000
259.745;  862.175;  130.350;    0.000
259.813;  908.175;  175.350;    0.000
259.880;  888.175;  158.350;    0.000
259.948;  915.175;  124.350;    0.000
260.016;  882.175;  105.350;    0.000
260.083;  934.175;  169.350;    0.000
260.151;  889.175;  133.350;    0.000
260.218;  885.175;  143.350;    0.000
260.286;  900.175;  134.350;    0.000
260.353;  998.175;  160.350;    0.000
260.421;  976.175;  128.350;    0.000
260.489; 1053.175;  150.350;    0.000
260.556; 1009.175;  179.350;    0.000
260.624; 1013.175;  113.350;    0.000
260.691;  972.175;  128.350;    0.000
260.759; 1047.175;  146.350;    0.000
260.826; 1013.175;  111.350;    0.000
260.894; 1059.175;  115.350;    0.000
260.961; 1017.175;  138.350;    0.000
261.029; 1089.175;  152.350;    0.000
261.096; 1054.175;  175.350;    0.000
261.164; 1093.175;  131.350;    0.000
261.231; 1080.175;  141.350;    0.000
261.299; 1105.175;  125.350;    0.000
261.366; 1039.175;  142.350;    0.000
261.434; 1112.175;  133.350;    0.000
261.501; 1127.175;  137.350;    0.000
261.568; 1115.175;  184.350;    0.000
261.636; 1127.175;  138.350;    0.000
261.703; 1210.175;  161.350;    0.000
261.771; 1135.175;  160.350;    0.000
261.838; 1202.175;  178.350;    0.000
261.906; 1132.175;  128.350;    0.000
261.973; 1240.175;  139.350;    0.000
262.040; 1270.175;  148.350;    0.000
262.108; 1228.175;  130.350;    0.000
262.175; 1244.175;  117.350;    0.000
262.243; 1219.175;  174.350;    0.000
262.310; 1217.175;  145.350;    0.000
262.377; 1246.175;  108.350;    0.000
262.445; 1247.175;  147.350;    0.000
262.512; 1261.175;  124.350;    0.000
262.579; 1248.175;  127.350;    0.000
262.647; 1349.175;  166.350;    0.000
262.714; 1344.175;  150.350;    0.000
262.781; 1290.175;  121.350;    0.000
262.849; 1327.175;  126.350;    0.000
262.916; 1341.175;  119.350;    0.000
262.983; 1303.175;  155.350;    0.000
263.051; 1309.175;  137.350;    0.000
263.118; 1394.175;  160.350;    0.000
263.185; 1368.175;  151.350;    0.000
263.252; 1409.175;  167.350;    0.000
263.320; 1392.175;  123.350;    0.000
263.387; 1387.175;  134.350;    0.000
263.454; 1462.175;  144.350;    0.000
263.522; 1377.175;  153.350;    0.000
263.589; 1369.175;  161.350;    0.000
263.656; 1413.175;  117.350;    0.000
263.723; 1436.175;  101.350;    0.000
263.790; 1420.175;  128.350;    0.000
263.858; 1447.175;  142.350;    0.000
263.925; 1421.175;  182.350;    0.000
263.992; 1429.175;  146.350;    0.000
264.059; 1523.175;  132.350;    0.000
264.126; 1551.175;  154.350;    0.000
264.194; 1528.175;  153.350;    0.000
264.261; 1531.175;  157.350;    0.000
264.328; 1547.175;  171.350;    0.000
264.395; 1568.175;  166.350;    0.000
264.462; 1512.175;  165.350;    0.000
264.529; 1583.175;  124.350;    0.000
264.597; 1538.175;  120.350;    0.000
264.664; 1562.175;  159.350;    0.000
264.731; 1557.175;  145.350;    0.000
264.798; 1487.175;  100.350;    0.000
264.865; 1610.175;  166.350;    0.000
264.932; 1622.175;  132.350;    0.000
264.999; 1608.175;  137.350;    0.000
265.066; 1627.175;  124.350;    0.000
265.133; 1546.175;  162.350;    0.000
265.201; 1668.175;  163.350;    0.000
265.268; 1532.175;  174.350;    0.000
265.335; 1619.175;  132.350;    0.000
265.402; 1624.175;  116.350;    0.000
265.469; 1756.175;  121.350;    0.000
265.536; 1605.175;  157.350;    0.000
265.603; 1675.175;  151.350;    0.000
265.670; 1668.175;  164.350;    0.000
265.737; 1685.175;  142.350;    0.000
265.804; 1677.175;  146.350;    0.000
265.871; 1737.175;  168.350;    0.000
265.938; 1702.175;  131.350;    0.000
266.005; 1741.175;  208.350;    0.000
266.072; 1703.175;  125.350;    0.000
266.139; 1807.175;  161.350;    0.000
266.206; 1831.175;  134.350;    0.000
266.273; 1768.175;  155.350;    0.000
266.340; 1773.175;  122.350;    0.000
266.407; 1710.175;  134.350;    0.000
266.474; 1682.175;  126.350;    0.000
266.541; 1740.175;  153.350;    0.000
266.608; 1741.175;  129.350;    0.000
266.675; 1857.175;  185.350;    0.000
266.742; 1802.175;  153.350;    0.000
266.808; 1812.175;  169.350;    0.000
266.875; 1869.175;  156.350;    0.000
266.942; 1861.175;  172.350;    0.000
267.009; 1875.175;  150.350;    0.000
267.076; 1838.175;  184.350;    0.000
267.143; 1817.175;  170.350;    0.000
267.210; 1829.175;  132.350;    0.000
267.277; 1803.175;  146.350;    0.000
267.344; 1872.175;  159.350;    0.000
267.410; 1854.175;  174.350;    0.000
267.477; 1913.175;  169.350;    0.000
267.544; 1951.175;  130.350;    0.000
267.611; 1840.175;  169.350;    0.000
267.678; 1851.175;  197.350;    0.000
267.745; 1798.175;  185.350;    0.000
267.811; 1899.175;  160.350;    0.000
267.878; 1924.175;  143.350;    0.000
267.945; 1951.175;  126.350;    0.000
268.012; 1884.175;  172.350;    0.000
268.079; 1910.175;  156.350;    0.000
268.145; 1858.175;  128.350;    0.000
268.212; 1843.175;  107.350;    0.000
268.279; 1812.175;  135.350;    0.000
268.346; 1945.175;  166.350;    0.000
268.412; 1878.175;  150.350;    0.000
268.479; 1870.175;  176.350;    0.000
268.546; 1918.175;  119.350;    0.000
268.613; 1829.175;  201.350;    0.000
268.679; 1823.175;  141.350;    0.000
268.746; 1892.175;  177.350;    0.000
268.813; 1860.175;  134.350;    0.000
268.879; 1910.175;  141.350;    0.000
268.946; 1919.175;  172.350;    0.000
269.013; 1934.175;  150.350;    0.000
269.079; 1943.175;  124.350;    0.000
269.146; 1935.175;  135.350;    0.000
269.213; 1924.175;  200.350;    0.000
269.280; 1926.175;  142.350;    0.000
269.346; 1922.175;  153.350;    0.000
269.413; 1896.175;  140.350;    0.000
269.479; 1866.175;  171.350;    0.000
269.546; 1919.175;  156.350;    0.000
269.613; 1848.175;  145.350;    0.000
269.679; 1918.175;  168.350;    0.000
269.746; 1863.175;  136.350;    0.000
269.813; 1886.175;  153.350;    0.000
269.879; 1968.175;  162.350;    0.000
269.946; 1923.175;  156.350;    0.000
270.012; 1894.175;  178.350;    0.000
270.079; 1854.175;  132.350;    0.000
270.145; 1860.175;  146.350;    0.000
270.212; 1819.175;  145.350;    0.000
270.279; 1912.175;  184.350;    0.000
270.345; 1844.175;  143.350;    0.000
270.412; 1866.175;  158.350;    0.000
270.478; 1843.175;  143.350;    0.000
270.545; 1944.175;  150.350;    0.000
270.611; 1817.175;  156.350;    0.000
270.678; 1855.175;  121.350;    0.000
270.744; 1848.175;  161.350;    0.000
270.811; 1824.175;  173.350;    0.000
270.877; 1809.175;  115.350;    0.000
270.944; 1913.175;  114.350;    0.000
271.010; 1844.175;  122.350;    0.000
271.077; 1809.175;  142.350;    0.000
271.143; 1861.175;  152.350;    0.000
271.210; 1873.175;  135.350;    0.000
271.276; 1795.175;  107.350;    0.000
271.342; 1851.175;  173.350;    0.000
271.409; 1933.175;  171.350;    0.000
271.475; 1829.175;  136.350;    0.000
271.542; 1743.175;  121.350;    0.000
271.608; 1802.175;  133.350;    0.000
271.675; 1892.175;  136.350;    0.000
271.741; 1859.175;  151.350;    0.000
271.807; 1845.175;  130.350;    0.000
271.874; 1836.175;  168.350;    0.000
271.940; 1830.175;  156.350;    0.000
272.007; 1865.175;  122.350;    0.000
272.073; 1870.175;  121.350;    0.000
272.139; 1817.175;  137.350;    0.000
272.206; 1865.175;  152.350;    0.000
272.272; 1844.175;  162.350;    0.000
272.338; 1887.175;  197.350;    0.000
272.405; 1928.175;  144.350;    0.000
272.471; 1793.175;  160.350;    0.000
272.537; 1905.175;  142.350;    0.000
272.604; 1937.175;  141.350;    0.000
272.670; 1820.175;  182.350;    0.000
272.736; 1811.175;  126.350;    0.000
272.802; 1851.175;  146.350;    0.000
272.869; 1773.175;  163.350;    0.000
272.935; 1855.175;  132.350;    0.000
273.001; 1817.175;  119.350;    0.000
273.068; 1790.175;  137.350;    0.000
273.134; 1848.175;  155.350;    0.000
273.200; 1889.175;  165.350;    0.000
273.266; 1850.175;  156.350;    0.000
273.333; 1897.175;  143.350;    0.000
273.399; 1852.175;  128.350;    0.000
273.465; 1885.175;  167.350;    0.000
273.531; 1875.175;  122.350;    0.000
273.597; 1910.175;  182.350;    0.000
273.664; 1917.175;  177.350;    0.000
273.730; 1867.175;  124.350;    0.000
273.796; 1879.175;  143.350;    0.000
273.862; 1920.175;  155.350;    0.000
273.928; 1872.175;  137.350;    0.000
273.995; 1931.175;  188.350;    0.000
274.061; 1932.175;  154.350;    0.000
274.127; 1916.175;  161.350;    0.000
274.193; 1915.175;   95.350;    0.000
274.259; 1879.175;  128.350;    0.000
274.325; 1964.175;  146.350;    0.000
274.391; 1889.175;  113.350;    0.000
274.457; 1947.175;  150.350;    0.000
274.524; 2058.175;  165.350;    0.000
274.590; 1946.175;  140.350;    0.000
274.656; 2013.175;  165.350;    0.000
274.722; 1969.175;  118.350;    0.000
274.788; 1928.175;  143.350;    0.000
274.854; 1988.175;  150.350;    0.000
274.920; 2002.175;   88.350;    0.000
274.986; 1983.175;  178.350;    0.000
275.052; 2015.175;  145.350;    0.000
275.118; 2045.175;  105.350;    0.000
275.184; 2073.175;  129.350;    0.000
275.250; 2024.175;  138.350;    0.000
275.316; 2104.175;  173.350;    0.000
275.382; 2122.175;  106.350;    0.000
275.448; 2121.175;  160.350;    0.000
275.514; 2101.175;  162.350;    0.000
275.580; 2065.175;  135.350;    0.000
275.646; 2125.175;  120.350;    0.000
275.712; 2126.175;  157.350;    0.000
275.778; 2221.175;  128.350;    0.000
275.844; 2211.175;  117.350;    0.000
275.910; 2185.175;  121.350;    0.000
275.976; 2267.175;  172.350;    0.000
276.042; 2254.175;  114.350;    0.000
276.108; 2271.175;  200.350;    0.000
276.174; 2290.175;  132.350;    0.000
276.240; 2315.175;  128.350;    0.000
276.306; 2360.175;  124.350;    0.000
276.372; 2382.175;  133.350;    0.000
276.437; 2442.175;  146.350;    0.000
276.503; 2554.175;  136.350;    0.000
276.569; 2506.175;  162.350;    0.000
276.635; 2519.175;  128.350;    0.000
276.701; 2558.175;  148.350;    0.000
276.767; 2628.175;  155.350;    0.000
276.833; 2618.175;  128.350;    0.000
276.899; 2728.175;  145.350;    0.000
276.964; 2748.175;  124.350;    0.000
277.030; 2894.175;  130.350;    0.000
277.096; 2897.175;  139.350;    0.000
277.162; 2962.175;  164.350;    0.000
277.228; 3113.175;  108.350;    0.000
277.293; 3007.175;  138.350;    0.000
277.359; 3134.175;  123.350;    0.000
277.425; 3419.175;  183.350;    0.000
277.491; 3604.175;  144.350;    0.000
277.557; 4207.175;  130.350;    0.000
277.622; 5344.175;  151.350;    0.000
277.688; 5340.175;  169.350;    0.000
277.754; 5550.175;  199.350;    0.000
277.820; 6069.175;  170.350;    0.000
277.885; 6992.175;  173.350;    0.000
277.951; 8711.175;  187.350;    0.000
278.017; 7625.175;  152.350;    0.000
278.083; 6616.175;  137.350;    0.000
278.148; 6441.175;  147.350;    0.000
278.214; 6511.175;  162.350;    0.000
278.280; 6788.175;  171.350;    0.000
278.345; 6251.175;  174.350;    0.000
278.411; 5945.175;  152.350;    0.000
278.477; 6145.175;  173.350;    0.000
278.542; 6568.175;  161.350;    0.000
278.608; 6959.175;  155.350;    0.000
278.674; 7718.175;  169.350;    0.000
278.739; 8399.175;  142.350;    0.000
278.805; 9565.175;  164.350;    0.000
278.871;11399.175;  160.350;    0.000
278.936;14238.175;  121.350;    0.000
279.002;20604.176;  166.350;    0.000
279.067;27146.176;  199.350;    0.000
279.133;26609.176;  150.350;    0.000
279.199;24352.176;  154.350;    0.000
279.264;25760.176;  154.350;    0.000
279.330;29977.176;  159.350;    0.000
279.395;39208.176;  143.350;    0.000
279.461;52465.176;  173.350;    0.000
279.527;59825.176;  163.350;    0.000
279.592;54451.176;  167.350;    0.000
279.658;43991.176;  189.350;    0.000
279.723;42225.176;  153.350;    0.000
279.789;44075.176;  174.350;    0.000
279.854;39543.176;  129.350;    0.000
279.920;32368.176;  165.350;    0.000
279.985;29426.176;  152.350;    0.000
280.051;29939.176;  164.350;    0.000
280.116;35242.176;  187.350;    0.000
280.182;48410.176;  160.350;    0.000
280.247;55911.176;  124.350;    0.000
280.313;46324.176;  154.350;    0.000
280.378;32020.176;  152.350;    0.000
280.444;23392.176;  165.350;    0.000
280.509;18548.176;  164.350;    0.000
280.574;15442.175;  160.350;    0.000
280.640;13297.175;  167.350;    0.000
280.705;11859.175;  190.350;    0.000
280.771;10713.175;  154.350;    0.000
280.836; 9781.175;  158.350;    0.000
280.902; 9128.175;  124.350;    0.000
280.967; 8441.175;  179.350;    0.000
281.032; 7966.175;  187.350;    0.000
281.098; 7607.175;  155.350;    0.000
281.163; 7069.175;  133.350;    0.000
281.229; 6957.175;  170.350;    0.000
281.294; 6473.175;  175.350;    0.000
281.359; 6176.175;  163.350;    0.000
281.425; 6072.175;  161.350;    0.000
281.490; 5677.175;  162.350;    0.000
281.555; 5655.175;  137.350;    0.000
281.621; 5377.175;  163.350;    0.000
281.686; 5317.175;  155.350;    0.000
281.751; 5111.175;  158.350;    0.000
281.816; 4951.175;  139.350;    0.000
281.882; 4846.175;  150.350;    0.000
281.947; 4737.175;  165.350;    0.000
282.012; 4579.175;  171.350;    0.000
282.078; 4424.175;  177.350;    0.000
282.143; 4306.175;  149.350;    0.000
282.208; 4386.175;  181.350;    0.000
282.273; 4233.175;  166.350;    0.000
282.339; 4130.175;  165.350;    0.000
282.404; 4149.175;  166.350;    0.000
282.469; 4122.175;  150.350;    0.000
282.534; 4142.175;  176.350;    0.000
282.600; 3937.175;  117.350;    0.000
282.665; 3830.175;  134.350;    0.000
282.730; 3791.175;  155.350;    0.000
282.795; 3784.175;  193.350;    0.000
282.860; 3748.175;  160.350;    0.000
282.926; 3697.175;  174.350;    0.000
282.991; 3714.175;  161.350;    0.000
283.056; 3704.175;  157.350;    0.000
283.121; 3621.175;  178.350;    0.000
283.186; 3521.175;  152.350;    0.000
283.251; 3639.175;  167.350;    0.000
283.316; 3570.175;  186.350;    0.000
283.382; 3631.175;  148.350;    0.000
283.447; 3553.175;  191.350;    0.000
283.512; 3483.175;  132.350;    0.000
283.577; 3598.175;  179.350;    0.000
283.642; 3532.175;  185.350;    0.000
283.707; 3312.175;  136.350;    0.000
283.772; 3421.175;  119.350;    0.000
283.837; 3526.175;  136.350;    0.000
283.902; 3354.175;  135.350;    0.000
283.967; 3513.175;  146.350;    0.000
284.032; 3405.175;  140.350;    0.000
284.097; 3477.175;  199.350;    0.000
284.163; 3320.175;  144.350;    0.000
284.228; 3416.175;  183.350;    0.000
284.293; 3499.175;  141.350;    0.000
284.358; 3535.175;  146.350;    0.000
284.423; 3455.175;  127.350;    0.000
284.488; 3589.175;  186.350;    0.000
284.553; 3637.175;  155.350;    0.000
284.618; 3766.175;  118.350;    0.000
284.683; 3826.175;  145.350;    0.000
284.748; 3966.175;  139.350;    0.000
284.812; 4163.175;  147.350;    0.000
284.877; 4459.175;  123.350;    0.000
284.942; 5088.175;  153.350;    0.000
285.007; 6080.175;  168.350;    0.000
285.072; 8100.175;  181.350;    0.000
285.137;13258.175;  147.350;    0.000
285.202;17438.176;  175.350;    0.000
285.267;14663.175;  182.350;    0.000
285.332;10059.175;  136.350;    0.000
285.397; 7365.175;  138.350;    0.000
285.462; 6082.175;  151.350;    0.000
285.527; 5338.175;  159.350;    0.000
285.591; 4784.175;  177.350;    0.000
285.656; 4564.175;  144.350;    0.000
285.721; 4131.175;  125.350;    0.000
285.786; 4034.175;  169.350;    0.000
285.851; 3962.175;  175.350;    0.000
285.916; 3823.175;  164.350;    0.000
285.981; 3783.175;  134.350;    0.000
286.045; 3644.175;  154.350;    0.000
286.110; 3558.175;  136.350;    0.000
286.175; 3642.175;  155.350;    0.000
286.240; 3508.175;  138.350;    0.000
286.305; 3484.175;  213.350;    0.000
286.369; 3347.175;  221.350;    0.000
286.434; 3330.175;  172.350;    0.000
286.499; 3350.175;  161.350;    0.000
286.564; 3355.175;  189.350;    0.000
286.628; 3191.175;  144.350;    0.000
286.693; 3290.175;  176.350;    0.000
286.758; 3252.175;  168.350;    0.000
286.823; 3190.175;  142.350;    0.000
286.887; 3200.175;  134.350;    0.000
286.952; 3152.175;  180.350;    0.000
287.017; 3256.175;  204.350;    0.000
287.082; 3195.175;  120.350;    0.000
287.146; 3204.175;  173.350;    0.000
287.211; 3111.175;  167.350;    0.000
287.276; 3131.175;  164.350;    0.000
287.340; 3017.175;  138.350;    0.000
287.405; 3056.175;  172.350;    0.000
287.470; 3111.175;  142.350;    0.000
287.534; 3048.175;  155.350;    0.000
287.599; 3080.175;  166.350;    0.000
287.663; 3129.175;  171.350;    0.000
287.728; 3083.175;  190.350;    0.000
287.793; 3096.175;  197.350;    0.000
287.857; 3107.175;  165.350;    0.000
287.922; 3059.175;  147.350;    0.000
287.987; 3017.175;  167.350;    0.000
288.051; 3100.175;  151.350;    0.000
288.116; 3101.175;  154.350;    0.000
288.180; 3010.175;  186.350;    0.000
288.245; 2960.175;  161.350;    0.000
288.309; 3059.175;  177.350;    0.000
288.374; 3077.175;  151.350;    0.000
288.439; 3019.175;  169.350;    0.000
288.503; 2958.175;  133.350;    0.000
288.568; 2949.175;  206.350;    0.000
288.632; 3002.175;  192.350;    0.000
288.697; 2921.175;  183.350;    0.000
288.761; 3024.175;  148.350;    0.000
288.826; 2982.175;  136.350;    0.000
288.890; 2917.175;  185.350;    0.000
288.955; 2920.175;  150.350;    0.000
289.019; 2921.175;  165.350;    0.000
289.084; 2907.175;  150.350;    0.000
289.148; 3050.175;  146.350;    0.000
289.212; 2957.175;  172.350;    0.000
289.277; 2935.175;  177.350;    0.000
289.341; 2889.175;  190.350;    0.000
289.406; 2852.175;  117.350;    0.000
289.470; 2958.175;  173.350;    0.000
289.535; 2935.175;  170.350;    0.000
289.599; 3006.175;  154.350;    0.000
289.663; 2977.175;  173.350;    0.000
289.728; 2899.175;  176.350;    0.000
289.792; 2966.175;  138.350;    0.000
289.857; 2950.175;  203.350;    0.000
289.921; 2964.175;  143.350;    0.000
289.985; 2921.175;  150.350;    0.000
290.050; 2896.175;  170.350;    0.000
290.114; 2890.175;  125.350;    0.000
290.178; 2928.175;  161.350;    0.000
290.243; 2965.175;  119.350;    0.000
290.307; 2985.175;  169.350;    0.000
290.371; 2897.175;  169.350;    0.000
290.436; 2938.175;  170.350;    0.000
290.500; 2951.175;  144.350;    0.000
290.564; 3027.175;  179.350;    0.000
290.629; 2881.175;  166.350;    0.000
290.693; 2977.175;  156.350;    0.000
290.757; 2950.175;  147.350;    0.000
290.821; 2992.175;  170.350;    0.000
290.886; 2856.175;  167.350;    0.000
290.950; 2971.175;  187.350;    0.000
291.014; 3035.175;  164.350;    0.000
291.078; 2906.175;  115.350;    0.000
291.143; 3113.175;  149.350;    0.000
291.207; 3025.175;  163.350;    0.000
291.271; 2974.175;  177.350;    0.000
291.335; 3018.175;  148.350;    0.000
291.399; 3166.175;  155.350;    0.000
291.464; 3267.175;  114.350;    0.000
291.528; 3279.175;  153.350;    0.000
291.592; 3312.175;  156.350;    0.000
291.656; 3212.175;  170.350;    0.000
291.720; 3138.175;  159.350;    0.000
291.784; 3164.175;  159.350;    0.000
291.849; 3090.175;  154.350;    0.000
291.913; 3083.175;  118.350;    0.000
291.977; 3111.175;  157.350;    0.000
292.041; 3142.175;  163.350;    0.000
292.105; 3139.175;  135.350;    0.000
292.169; 3096.175;  155.350;    0.000
292.233; 3208.175;  163.350;    0.000
292.297; 3212.175;  144.350;    0.000
292.361; 3168.175;  143.350;    0.000
292.425; 3378.175;  177.350;    0.000
292.490; 3371.175;  159.350;    0.000
292.554; 3479.175;  137.350;    0.000
292.618; 3695.175;  144.350;    0.000
292.682; 3877.175;  169.350;    0.000
292.746; 4350.175;  166.350;    0.000
292.810; 5366.175;  147.350;    0.000
292.874; 6636.175;  160.350;    0.000
292.938; 6808.175;  174.350;    0.000
293.002; 6087.175;  148.350;    0.000
293.066; 5690.175;  115.350;    0.000
293.130; 5264.175;  133.350;    0.000
293.194; 5117.175;  148.350;    0.000
293.258; 5007.175;  167.350;    0.000
293.322; 4980.175;  166.350;    0.000
293.386; 4910.175;  193.350;    0.000
293.450; 5085.175;  142.350;    0.000
293.514; 5633.175;  170.350;    0.000
293.577; 7126.175;  153.350;    0.000
293.641; 9503.175;  171.350;    0.000
293.705;10258.175;  168.350;    0.000
293.769; 9485.175;  155.350;    0.000
293.833; 8275.175;  161.350;    0.000
293.897; 7546.175;  124.350;    0.000
293.961; 6766.175;  165.350;    0.000
294.025; 6152.175;  118.350;    0.000
294.089; 5659.175;  125.350;    0.000
294.152; 5276.175;  160.350;    0.000
294.216; 4968.175;  160.350;    0.000
294.280; 4816.175;  158.350;    0.000
294.344; 4579.175;  119.350;    0.000
294.408; 4400.175;  168.350;    0.000
294.472; 4211.175;  156.350;    0.000
294.536; 3985.175;  192.350;    0.000
294.599; 3947.175;  171.350;    0.000
294.663; 3648.175;  139.350;    0.000
294.727; 3785.175;  136.350;    0.000
294.791; 3642.175;  118.350;    0.000
294.855; 3403.175;  118.350;    0.000
294.918; 3492.175;  127.350;    0.000
294.982; 3413.175;  167.350;    0.000
295.046; 3427.175;  178.350;    0.000
295.110; 3374.175;  157.350;    0.000
295.173; 3246.175;  101.350;    0.000
295.237; 3277.175;  145.350;    0.000
295.301; 3305.175;  135.350;    0.000
295.364; 3218.175;  185.350;    0.000
295.428; 3226.175;  112.350;    0.000
295.492; 3200.175;  142.350;    0.000
295.556; 3139.175;  170.350;    0.000
295.619; 3141.175;  193.350;    0.000
295.683; 3102.175;  144.350;    0.000
295.747; 3110.175;  152.350;    0.000
295.810; 3113.175;  139.350;    0.000
295.874; 2998.175;  157.350;    0.000
295.938; 2955.175;  128.350;    0.000
296.001; 2966.175;  164.350;    0.000
296.065; 2954.175;  184.350;    0.000
296.128; 2957.175;  127.350;    0.000
296.192; 2912.175;  166.350;    0.000
296.256; 2862.175;  154.350;    0.000
296.319; 2820.175;  128.350;    0.000
296.383; 2866.175;  146.350;    0.000
296.447; 2901.175;  155.350;    0.000
296.510; 2799.175;  177.350;    0.000
296.574; 2970.175;  169.350;    0.000
296.637; 2835.175;  140.350;    0.000
296.701; 2766.175;  181.350;    0.000
296.764; 2737.175;  131.350;    0.000
296.828; 2878.175;  194.350;    0.000
296.891; 2776.175;  146.350;    0.000
296.955; 2772.175;  160.350;    0.000
297.018; 2774.175;  174.350;    0.000
297.082; 2743.175;  153.350;    0.000
297.145; 2720.175;  133.350;    0.000
297.209; 2725.175;  149.350;    0.000
297.272; 2737.175;  150.350;    0.000
297.336; 2716.175;  119.350;    0.000
297.399; 2698.175;  160.350;    0.000
297.463; 2681.175;  158.350;    0.000
297.526; 2683.175;  160.350;    0.000
297.590; 2731.175;  173.350;    0.000
297.653; 2629.175;  121.350;    0.000
297.717; 2700.175;  168.350;    0.000
297.780; 2687.175;  131.350;    0.000
297.843; 2574.175;  154.350;    0.000
297.907; 2662.175;  126.350;    0.000
297.970; 2549.175;  180.350;    0.000
298.034; 2639.175;  140.350;    0.000
298.097; 2636.175;  207.350;    0.000
298.160; 2650.175;  177.350;    0.000
298.224; 2652.175;  165.350;    0.000
298.287; 2623.175;  160.350;    0.000
298.350; 2620.175;  176.350;    0.000
298.414; 2681.175;  155.350;    0.000
298.477; 2546.175;  132.350;    0.000
298.540; 2685.175;  162.350;    0.000
298.604; 2514.175;  180.350;    0.000
298.667; 2683.175;  208.350;    0.000
298.730; 2629.175;  177.350;    0.000
298.794; 2530.175;  126.350;    0.000
298.857; 2585.175;  171.350;    0.000
298.920; 2502.175;  124.350;    0.000
298.984; 2492.175;  146.350;    0.000
299.047; 2541.175;  140.350;    0.000
299.110; 2554.175;  159.350;    0.000
299.173; 2553.175;  177.350;    0.000
299.237; 2570.175;  196.350;    0.000
299.300; 2491.175;  121.350;    0.000
299.363; 2475.175;  172.350;    0.000
299.426; 2448.175;  117.350;    0.000
299.489; 2435.175;  138.350;    0.000
299.553; 2546.175;  198.350;    0.000
299.616; 2474.175;  158.350;    0.000
299.679; 2466.175;  148.350;    0.000
299.742; 2407.175;  138.350;    0.000
299.805; 2396.175;  157.350;    0.000
299.868; 2476.175;  183.350;    0.000
299.932; 2412.175;  137.350;    0.000
299.995; 2410.175;  152.350;    0.000
300.058; 2452.175;  171.350;    0.000
300.121; 2381.175;  172.350;    0.000
300.184; 2369.175;  161.350;    0.000
300.247; 2367.175;  156.350;    0.000
300.310; 2390.175;  154.350;    0.000
300.374; 2399.175;  147.350;    0.000
300.437; 2325.175;  144.350;    0.000
300.500; 2449.175;  152.350;    0.000
300.563; 2408.175;  160.350;    0.000
300.626; 2382.175;  167.350;    0.000
300.689; 2308.175;  193.350;    0.000
300.752; 2399.175;  134.350;    0.000
300.815; 2331.175;  194.350;    0.000
300.878; 2389.175;  156.350;    0.000
300.941; 2276.175;  177.350;    0.000
301.004; 2411.175;  160.350;    0.000
301.067; 2408.175;  153.350;    0.000
301.130; 2356.175;  167.350;    0.000
301.193; 2255.175;  156.350;    0.000
301.256; 2339.175;  176.350;    0.000
301.319; 2410.175;  172.350;    0.000
301.382; 2279.175;  150.350;    0.000
301.445; 2361.175;  183.350;    0.000
301.508; 2332.175;  118.350;    0.000
301.571; 2314.175;  142.350;    0.000
301.634; 2354.175;  164.350;    0.000
301.697; 2326.175;  169.350;    0.000
301.760; 2411.175;  197.350;    0.000
301.823; 2327.175;  155.350;    0.000
301.885; 2362.175;  165.350;    0.000
301.948; 2242.175;  168.350;    0.000
302.011; 2370.175;  172.350;    0.000
302.074; 2332.175;  182.350;    0.000
302.137; 2294.175;  161.350;    0.000
302.200; 2296.175;  174.350;    0.000
302.263; 2356.175;  158.350;    0.000
302.326; 2298.175;  168.350;    0.000
302.388; 2321.175;  165.350;    0.000
302.451; 2272.175;  158.350;    0.000
302.514; 2253.175;  181.350;    0.000
302.577; 2289.175;  147.350;    0.000
302.640; 2282.175;  178.350;    0.000
302.703; 2283.175;  164.350;    0.000
302.765; 2369.175;  149.350;    0.000
302.828; 2339.175;  192.350;    0.000
302.891; 2319.175;  201.350;    0.000
302.954; 2220.175;  135.350;    0.000
303.016; 2242.175;  180.350;    0.000
303.079; 2355.175;  192.350;    0.000
303.142; 2260.175;  176.350;    0.000
303.205; 2304.175;  176.350;    0.000
303.267; 2181.175;  163.350;    0.000
303.330; 2328.175;  162.350;    0.000
303.393; 2324.175;  164.350;    0.000
303.456; 2339.175;  180.350;    0.000
303.518; 2277.175;  162.350;    0.000
303.581; 2235.175;  137.350;    0.000
303.644; 2273.175;  135.350;    0.000
303.706; 2257.175;  170.350;    0.000
303.769; 2244.175;  216.350;    0.000
303.832; 2257.175;  143.350;    0.000
303.894; 2222.175;  162.350;    0.000
303.957; 2289.175;  149.350;    0.000
304.020; 2247.175;  111.350;    0.000
304.082; 2375.175;  158.350;    0.000
304.145; 2337.175;  149.350;    0.000
304.207; 2356.175;  169.350;    0.000
304.270; 2265.175;  170.350;    0.000
304.333; 2264.175;  185.350;    0.000
304.395; 2312.175;  179.350;    0.000
304.458; 2309.175;  174.350;    0.000
304.520; 2265.175;  160.350;    0.000
304.583; 2375.175;  175.350;    0.000
304.646; 2287.175;  160.350;    0.000
304.708; 2225.175;  173.350;    0.000
304.771; 2273.175;  115.350;    0.000
304.833; 2339.175;  172.350;    0.000
304.896; 2180.175;  187.350;    0.000
304.958; 2326.175;  142.350;    0.000
305.021; 2263.175;  164.350;    0.000
305.083; 2205.175;  139.350;    0.000
305.146; 2242.175;  162.350;    0.000
305.208; 2265.175;  135.350;    0.000
305.271; 2246.175;  159.350;    0.000
305.333; 2348.175;  210.350;    0.000
305.396; 2279.175;  151.350;    0.000
305.458; 2404.175;  195.350;    0.000
305.520; 2345.175;  179.350;    0.000
305.583; 2330.175;  157.350;    0.000
305.645; 2371.175;  187.350;    0.000
305.708; 2312.175;  159.350;    0.000
305.770; 2297.175;  189.350;    0.000
305.833; 2317.175;  147.350;    0.000
305.895; 2244.175;  154.350;    0.000
305.957; 2302.175;  143.350;    0.000
306.020; 2315.175;  133.350;    0.000
306.082; 2357.175;  146.350;    0.000
306.144; 2327.175;  171.350;    0.000
306.207; 2281.175;  151.350;    0.000
306.269; 2296.175;  169.350;    0.000
306.331; 2334.175;  162.350;    0.000
306.394; 2261.175;  171.350;    0.000
306.456; 2248.175;  155.350;    0.000
306.518; 2357.175;  183.350;    0.000
306.581; 2347.175;  180.350;    0.000
306.643; 2290.175;  199.350;    0.000
306.705; 2391.175;  163.350;    0.000
306.768; 2395.175;  183.350;    0.000
306.830; 2259.175;  183.350;    0.000
306.892; 2384.175;  190.350;    0.000
306.954; 2392.175;  161.350;    0.000
307.017; 2290.175;  151.350;    0.000
307.079; 2340.175;  147.350;    0.000
307.141; 2306.175;  179.350;    0.000
307.203; 2379.175;  143.350;    0.000
307.266; 2385.175;  142.350;    0.000
307.328; 2326.175;  161.350;    0.000
307.390; 2383.175;  189.350;    0.000
307.452; 2336.175;  155.350;    0.000
307.514; 2348.175;  211.350;    0.000
307.577; 2411.175;  201.350;    0.000
307.639; 2476.175;  192.350;    0.000
307.701; 2400.175;  162.350;    0.000
307.763; 2525.175;  155.350;    0.000
307.825; 2465.175;  193.350;    0.000
307.887; 2470.175;  214.350;    0.000
307.949; 2435.175;  208.350;    0.000
308.012; 2403.175;  175.350;    0.000
308.074; 2467.175;  155.350;    0.000
308.136; 2497.175;  172.350;    0.000
308.198; 2460.175;  171.350;    0.000
308.260; 2414.175;  182.350;    0.000
308.322; 2482.175;  177.350;    0.000
308.384; 2472.175;  207.350;    0.000
308.446; 2377.175;  170.350;    0.000
308.508; 2459.175;  177.350;    0.000
308.570; 2516.175;  195.350;    0.000
308.632; 2472.175;  190.350;    0.000
308.694; 2481.175;  161.350;    0.000
308.756; 2525.175;  173.350;    0.000
308.818; 2580.175;  190.350;    0.000
308.880; 2483.175;  197.350;    0.000
308.942; 2589.175;  223.350;    0.000
309.004; 2589.175;  176.350;    0.000
309.066; 2649.175;  182.350;    0.000
309.128; 2635.175;  185.350;    0.000
309.190; 2744.175;  166.350;    0.000
309.252; 2771.175;  191.350;    0.000
309.314; 2779.175;  208.350;    0.000
309.376; 2831.175;  205.350;    0.000
309.438; 2728.175;  166.350;    0.000
309.500; 2695.175;  195.350;    0.000
309.562; 2722.175;  163.350;    0.000
309.624; 2812.175;  162.350;    0.000
309.686; 2882.175;  194.350;    0.000
309.747; 2805.175;  179.350;    0.000
309.809; 2734.175;  211.350;    0.000
309.871; 2668.175;  191.350;    0.000
309.933; 2709.175;  151.350;    0.000
309.995; 2672.175;  179.350;    0.000
310.057; 2695.175;  175.350;    0.000
310.119; 2696.175;  161.350;    0.000
310.180; 2609.175;  167.350;    0.000
310.242; 2575.175;  171.350;    0.000
310.304; 2553.175;  209.350;    0.000
310.366; 2560.175;  229.350;    0.000
310.428; 2467.175;  132.350;    0.000
310.489; 2587.175;  165.350;    0.000
310.551; 2500.175;  193.350;    0.000
310.613; 2539.175;  182.350;    0.000
310.675; 2585.175;  186.350;    0.000
310.737; 2510.175;  192.350;    0.000
310.798; 2474.175;  194.350;    0.000
310.860; 2489.175;  220.350;    0.000
310.922; 2548.175;  161.350;    0.000
310.983; 2521.175;  203.350;    0.000
311.045; 2500.175;  198.350;    0.000
311.107; 2430.175;  179.350;    0.000
311.169; 2491.175;  154.350;    0.000
311.230; 2515.175;  134.350;    0.000
311.292; 2537.175;  215.350;    0.000
311.354; 2563.175;  171.350;    0.000
311.415; 2590.175;  195.350;    0.000
311.477; 2412.175;  185.350;    0.000
311.539; 2580.175;  183.350;    0.000
311.600; 2433.175;  183.350;    0.000
311.662; 2556.175;  207.350;    0.000
311.724; 2516.175;  193.350;    0.000
311.785; 2489.175;  180.350;    0.000
311.847; 2451.175;  155.350;    0.000
311.908; 2441.175;  179.350;    0.000
311.970; 2545.175;  193.350;    0.000
312.032; 2567.175;  188.350;    0.000
312.093; 2543.175;  166.350;    0.000
312.155; 2516.175;  147.350;    0.000
312.216; 2425.175;  177.350;    0.000
312.278; 2479.175;  162.350;    0.000
312.339; 2514.175;  158.350;    0.000
312.401; 2472.175;  181.350;    0.000
312.462; 2499.175;  153.350;    0.000
312.524; 2523.175;  186.350;    0.000
312.585; 2510.175;  191.350;    0.000
312.647; 2578.175;  131.350;    0.000
312.708; 2389.175;  170.350;    0.000
312.770; 2632.175;  194.350;    0.000
312.831; 2548.175;  161.350;    0.000
312.893; 2594.175;  179.350;    0.000
312.954; 2630.175;  183.350;    0.000
313.016; 2613.175;  189.350;    0.000
313.077; 2597.175;  169.350;    0.000
313.139; 2609.175;  148.350;    0.000
313.200; 2622.175;  155.350;    0.000
313.261; 2536.175;  213.350;    0.000
313.323; 2609.175;  162.350;    0.000
313.384; 2577.175;  160.350;    0.000
313.446; 2531.175;  202.350;    0.000
313.507; 2672.175;  149.350;    0.000
313.568; 2599.175;  194.350;    0.000
313.630; 2457.175;  163.350;    0.000
313.691; 2539.175;  158.350;    0.000
313.752; 2544.175;  179.350;    0.000
313.814; 2501.175;  180.350;    0.000
313.875; 2556.175;  191.350;    0.000
313.936; 2467.175;  169.350;    0.000
313.998; 2540.175;  165.350;    0.000
314.059; 2503.175;  211.350;    0.000
314.120; 2595.175;  190.350;    0.000
314.182; 2599.175;  185.350;    0.000
314.243; 2614.175;  186.350;    0.000
314.304; 2579.175;  178.350;    0.000
314.365; 2528.175;  187.350;    0.000
314.427; 2618.175;  145.350;    0.000
314.488; 2534.175;  184.350;    0.000
314.549; 2618.175;  181.350;    0.000
314.610; 2580.175;  151.350;    0.000
314.672; 2617.175;  153.350;    0.000
314.733; 2530.175;  148.350;    0.000
314.794; 2538.175;  156.350;    0.000
314.855; 2596.175;  196.350;    0.000
314.917; 2507.175;  157.350;    0.000
314.978; 2495.175;  174.350;    0.000
315.039; 2534.175;  168.350;    0.000
315.100; 2602.175;  154.350;    0.000
315.161; 2517.175;  176.350;    0.000
315.222; 2562.175;  198.350;    0.000
315.283; 2542.175;  169.350;    0.000
315.345; 2492.175;  162.350;    0.000
315.406; 2510.175;  199.350;    0.000
315.467; 2509.175;  180.350;    0.000
315.528; 2434.175;  179.350;    0.000
315.589; 2576.175;  166.350;    0.000
315.650; 2513.175;  179.350;    0.000
315.711; 2498.175;  177.350;    0.000
315.772; 2501.175;  180.350;    0.000
315.833; 2444.175;  157.350;    0.000
315.894; 2555.175;  133.350;    0.000
315.955; 2471.175;  205.350;    0.000
316.016; 2518.175;  190.350;    0.000
316.078; 2477.175;  174.350;    0.000
316.139; 2535.175;  208.350;    0.000
316.200; 2440.175;  166.350;    0.000
316.261; 2492.175;  186.350;    0.000
316.322; 2468.175;  185.350;    0.000
316.383; 2479.175;  179.350;    0.000
316.444; 2428.175;  172.350;    0.000
316.504; 2551.175;  181.350;    0.000
316.565; 2505.175;  197.350;    0.000
316.626; 2545.175;  196.350;    0.000
316.687; 2524.175;  173.350;    0.000
316.748; 2477.175;  178.350;    0.000
316.809; 2486.175;  178.350;    0.000
316.870; 2447.175;  134.350;    0.000
316.931; 2451.175;  166.350;    0.000
316.992; 2465.175;  200.350;    0.000
317.053; 2505.175;  169.350;    0.000
317.114; 2464.175;  185.350;    0.000
317.175; 2496.175;  213.350;    0.000
317.235; 2492.175;  199.350;    0.000
317.296; 2443.175;  190.350;    0.000
317.357; 2463.175;  152.350;    0.000
317.418; 2451.175;  192.350;    0.000
317.479; 2505.175;  170.350;    0.000
317.540; 2471.175;  179.350;    0.000
317.601; 2432.175;  155.350;    0.000
317.661; 2458.175;  154.350;    0.000
317.722; 2466.175;  190.350;    0.000
317.783; 2469.175;  149.350;    0.000
317.844; 2550.175;  207.350;    0.000
317.904; 2483.175;  153.350;    0.000
317.965; 2440.175;  179.350;    0.000
318.026; 2534.175;  235.350;    0.000
318.087; 2529.175;  184.350;    0.000
318.148; 2430.175;  201.350;    0.000
318.208; 2566.175;  220.350;    0.000
318.269; 2387.175;  175.350;    0.000
318.330; 2438.175;  185.350;    0.000
318.390; 2451.175;  180.350;    0.000
318.451; 2490.175;  164.350;    0.000
318.512; 2500.175;  150.350;    0.000
318.572; 2532.175;  205.350;    0.000
318.633; 2438.175;  224.350;    0.000
318.694; 2478.175;  202.350;    0.000
318.754; 2502.175;  196.350;    0.000
318.815; 2439.175;  187.350;    0.000
318.876; 2449.175;  200.350;    0.000
318.936; 2546.175;  232.350;    0.000
318.997; 2418.175;  211.350;    0.000
319.058; 2480.175;  194.350;    0.000
319.118; 2508.175;  197.350;    0.000
319.179; 2385.175;  162.350;    0.000
319.239; 2472.175;  188.350;    0.000
319.300; 2472.175;  205.350;    0.000
319.361; 2493.175;  179.350;    0.000
319.421; 2495.175;  182.350;    0.000
319.482; 2419.175;  189.350;    0.000
319.542; 2477.175;  180.350;    0.000
319.603; 2471.175;  204.350;    0.000
319.663; 2473.175;  195.350;    0.000
319.724; 2376.175;  135.350;    0.000
319.784; 2412.175;  184.350;    0.000
319.845; 2355.175;  160.350;    0.000
319.905; 2394.175;  206.350;    0.000
319.966; 2453.175;  203.350;    0.000
320.026; 2407.175;  203.350;    0.000
320.087; 2415.175;  206.350;    0.000
320.147; 2360.175;  180.350;    0.000
320.208; 2378.175;  189.350;    0.000
320.268; 2389.175;  179.350;    0.000
320.329; 2424.175;  215.350;    0.000
320.389; 2384.175;  193.350;    0.000
320.449; 2431.175;  210.350;    0.000
320.510; 2414.175;  206.350;    0.000
320.570; 2349.175;  221.350;    0.000
320.631; 2405.175;  203.350;    0.000
320.691; 2433.175;  190.350;    0.000
320.751; 2386.175;  205.350;    0.000
320.812; 2514.175;  191.350;    0.000
320.872; 2449.175;  216.350;    0.000
320.932; 2421.175;  209.350;    0.000
320.993; 2423.175;  189.350;    0.000
321.053; 2540.175;  228.350;    0.000
321.113; 2406.175;  163.350;    0.000
321.174; 2415.175;  204.350;    0.000
321.234; 2359.175;  214.350;    0.000
321.294; 2436.175;  184.350;    0.000
321.355; 2437.175;  216.350;    0.000
321.415; 2376.175;  187.350;    0.000
321.475; 2380.175;  216.350;    0.000
321.535; 2484.175;  189.350;    0.000
321.596; 2435.175;  186.350;    0.000
321.656; 2409.175;  204.350;    0.000
321.716; 2375.175;  183.350;    0.000
321.776; 2499.175;  194.350;    0.000
321.837; 2447.175;  190.350;    0.000
321.897; 2432.175;  219.350;    0.000
321.957; 2407.175;  222.350;    0.000
322.017; 2370.175;  183.350;    0.000
322.077; 2366.175;  239.350;    0.000
322.138; 2470.175;  219.350;    0.000
322.198; 2349.175;  185.350;    0.000
322.258; 2434.175;  231.350;    0.000
322.318; 2424.175;  197.350;    0.000
322.378; 2408.175;  179.350;    0.000
322.438; 2322.175;  217.350;    0.000
322.499; 2389.175;  238.350;    0.000
322.559; 2378.175;  197.350;    0.000
322.619; 2415.175;  204.350;    0.000
322.679; 2331.175;  199.350;    0.000
322.739; 2362.175;  194.350;    0.000
322.799; 2425.175;  203.350;    0.000
322.859; 2360.175;  234.350;    0.000
322.919; 2394.175;  194.350;    0.000
322.979; 2388.175;  219.350;    0.000
323.039; 2362.175;  193.350;    0.000
323.099; 2317.175;  207.350;    0.000
323.159; 2359.175;  213.350;    0.000
323.219; 2442.175;  171.350;    0.000
323.279; 2433.175;  215.350;    0.000
323.339; 2356.175;  170.350;    0.000
323.399; 2443.175;  195.350;    0.000
323.459; 2388.175;  234.350;    0.000
323.519; 2478.175;  201.350;    0.000
323.579; 2417.175;  167.350;    0.000
323.639; 2407.175;  209.350;    0.000
323.699; 2444.175;  217.350;    0.000
323.759; 2397.175;  213.350;    0.000
323.819; 2368.175;  216.350;    0.000
323.879; 2463.175;  193.350;    0.000
323.939; 2376.175;  182.350;    0.000
323.999; 2355.175;  206.350;    0.000
324.059; 2425.175;  196.350;    0.000
324.119; 2467.175;  240.350;    0.000
324.178; 2362.175;  186.350;    0.000
324.238; 2361.175;  179.350;    0.000
324.298; 2340.175;  195.350;    0.000
324.358; 2271.175;  208.350;    0.000
324.418; 2410.175;  190.350;    0.000
324.478; 2366.175;  197.350;    0.000
324.538; 2425.175;  157.350;    0.000
324.597; 2349.175;  219.350;    0.000
324.657; 2334.175;  176.350;    0.000
324.717; 2328.175;  179.350;    0.000
324.777; 2392.175;  190.350;    0.000
324.837; 2343.175;  172.350;    0.000
324.896; 2439.175;  199.350;    0.000
324.956; 2390.175;  216.350;    0.000
325.016; 2323.175;  191.350;    0.000
325.076; 2489.175;  185.350;    0.000
325.135; 2354.175;  174.350;    0.000
325.195; 2386.175;  175.350;    0.000
325.255; 2436.175;  144.350;    0.000
325.315; 2338.175;  201.350;    0.000
325.374; 2299.175;  198.350;    0.000
325.434; 2362.175;  181.350;    0.000
325.494; 2372.175;  183.350;    0.000
325.553; 2349.175;  172.350;    0.000
325.613; 2410.175;  200.350;    0.000
325.673; 2392.175;  177.350;    0.000
325.732; 2302.175;  174.350;    0.000
325.792; 2331.175;  181.350;    0.000
325.852; 2307.175;  214.350;    0.000
325.911; 2430.175;  230.350;    0.000
325.971; 2381.175;  198.350;    0.000
326.031; 2436.175;  201.350;    0.000
326.090; 2340.175;  214.350;    0.000
326.150; 2372.175;  163.350;    0.000
326.209; 2354.175;  207.350;    0.000
326.269; 2343.175;  201.350;    0.000
326.328; 2353.175;  208.350;    0.000
326.388; 2323.175;  169.350;    0.000
326.448; 2457.175;  229.350;    0.000
326.507; 2468.175;  243.350;    0.000
326.567; 2376.175;  162.350;    0.000
326.626; 2369.175;  200.350;    0.000
326.686; 2244.175;  166.350;    0.000
326.745; 2327.175;  178.350;    0.000
326.805; 2327.175;  185.350;    0.000
326.864; 2347.175;  209.350;    0.000
326.924; 2445.175;  234.350;    0.000
326.983; 2301.175;  197.350;    0.000
327.043; 2306.175;  217.350;    0.000
327.102; 2268.175;  174.350;    0.000
327.161; 2434.175;  172.350;    0.000
327.221; 2281.175;  183.350;    0.000
327.280; 2363.175;  200.350;    0.000
327.340; 2362.175;  200.350;    0.000
327.399; 2311.175;  219.350;    0.000
327.459; 2300.175;  246.350;    0.000
327.518; 2283.175;  217.350;    0.000
327.577; 2230.175;  212.350;    0.000
327.637; 2324.175;  188.350;    0.000
327.696; 2320.175;  201.350;    0.000
327.755; 2231.175;  199.350;    0.000
327.815; 2212.175;  224.350;    0.000
327.874; 2326.175;  236.350;    0.000
327.933; 2265.175;  182.350;    0.000
327.993; 2381.175;  206.350;    0.000
328.052; 2298.175;  191.350;    0.000
328.111; 2287.175;  222.350;    0.000
328.171; 2238.175;  200.350;    0.000
328.230; 2239.175;  203.350;    0.000
328.289; 2175.175;  219.350;    0.000
328.349; 2332.175;  231.350;    0.000
328.408; 2236.175;  223.350;    0.000
328.467; 2294.175;  226.350;    0.000
328.526; 2258.175;  197.350;    0.000
328.586; 2306.175;  221.350;    0.000
328.645; 2285.175;  199.350;    0.000
328.704; 2255.175;  227.350;    0.000
328.763; 2262.175;  201.350;    0.000
328.822; 2312.175;  230.350;    0.000
328.882; 2320.175;  244.350;    0.000
328.941; 2281.175;  221.350;    0.000
329.000; 2330.175;  207.350;    0.000
329.059; 2268.175;  208.350;    0.000
329.118; 2285.175;  203.350;    0.000
329.177; 2299.175;  198.350;    0.000
329.237; 2287.175;  218.350;    0.000
329.296; 2344.175;  213.350;    0.000
329.355; 2341.175;  208.350;    0.000
329.414; 2255.175;  231.350;    0.000
329.473; 2282.175;  221.350;    0.000
329.532; 2244.175;  243.350;    0.000
329.591; 2305.175;  210.350;    0.000
329.650; 2291.175;  232.350;    0.000
329.709; 2306.175;  211.350;    0.000
329.768; 2348.175;  194.350;    0.000
329.827; 2479.175;  237.350;    0.000
329.886; 2411.175;  213.350;    0.000
329.945; 2434.175;  190.350;    0.000
330.004; 2500.175;  233.350;    0.000
330.063; 2661.175;  191.350;    0.000
330.122; 2776.175;  234.350;    0.000
330.181; 3042.175;  220.350;    0.000
330.240; 3006.175;  191.350;    0.000
330.299; 2863.175;  210.350;    0.000
330.358; 2585.175;  191.350;    0.000
330.417; 2505.175;  225.350;    0.000
330.476; 2436.175;  226.350;    0.000
330.535; 2302.175;  217.350;    0.000
330.594; 2288.175;  205.350;    0.000
330.653; 2263.175;  193.350;    0.000
330.712; 2357.175;  206.350;    0.000
330.771; 2231.175;  175.350;    0.000
330.830; 2204.175;  204.350;    0.000
330.889; 2243.175;  198.350;    0.000
330.948; 2248.175;  198.350;    0.000
331.006; 2227.175;  207.350;    0.000
331.065; 2220.175;  203.350;    0.000
331.124; 2277.175;  210.350;    0.000
331.183; 2188.175;  165.350;    0.000
331.242; 2207.175;  195.350;    0.000
331.301; 2266.175;  191.350;    0.000
331.359; 2227.175;  205.350;    0.000
331.418; 2139.175;  183.350;    0.000
331.477; 2227.175;  198.350;    0.000
331.536; 2206.175;  211.350;    0.000
331.595; 2170.175;  191.350;    0.000
331.653; 2134.175;  232.350;    0.000
331.712; 2158.175;  225.350;    0.000
331.771; 2206.175;  199.350;    0.000
331.830; 2182.175;  189.350;    0.000
331.888; 2168.175;  219.350;    0.000
331.947; 2222.175;  188.350;    0.000
332.006; 2182.175;  180.350;    0.000
332.065; 2226.175;  177.350;    0.000
332.123; 2230.175;  214.350;    0.000
332.182; 2243.175;  223.350;    0.000
332.241; 2226.175;  202.350;    0.000
332.299; 2170.175;  180.350;    0.000
332.358; 2190.175;  206.350;    0.000
332.417; 2224.175;  195.350;    0.000
332.475; 2246.175;  221.350;    0.000
332.534; 2182.175;  207.350;    0.000
332.592; 2194.175;  190.350;    0.000
332.651; 2238.175;  203.350;    0.000
332.710; 2265.175;  219.350;    0.000
332.768; 2164.175;  210.350;    0.000
332.827; 2208.175;  173.350;    0.000
332.885; 2228.175;  239.350;    0.000
332.944; 2252.175;  145.350;    0.000
333.003; 2189.175;  197.350;    0.000
333.061; 2261.175;  179.350;    0.000
333.120; 2269.175;  198.350;    0.000
333.178; 2343.175;  185.350;    0.000
333.237; 2285.175;  204.350;    0.000
333.295; 2341.175;  266.350;    0.000
333.354; 2351.175;  181.350;    0.000
333.412; 2381.175;  189.350;    0.000
333.471; 2276.175;  216.350;    0.000
333.529; 2329.175;  220.350;    0.000
333.588; 2385.175;  193.350;    0.000
333.646; 2460.175;  186.350;    0.000
333.705; 2395.175;  210.350;    0.000
333.763; 2361.175;  222.350;    0.000
333.822; 2409.175;  222.350;    0.000
333.880; 2371.175;  202.350;    0.000
333.938; 2385.175;  205.350;    0.000
333.997; 2318.175;  199.350;    0.000
334.055; 2403.175;  199.350;    0.000
334.114; 2251.175;  237.350;    0.000
334.172; 2308.175;  155.350;    0.000
334.230; 2377.175;  208.350;    0.000
334.289; 2296.175;  191.350;    0.000
334.347; 2308.175;  211.350;    0.000
334.405; 2296.175;  212.350;    0.000
334.464; 2279.175;  179.350;    0.000
334.522; 2313.175;  160.350;    0.000
334.580; 2261.175;  195.350;    0.000
334.639; 2217.175;  191.350;    0.000
334.697; 2177.175;  194.350;    0.000
334.755; 2264.175;  185.350;    0.000
334.814; 2263.175;  214.350;    0.000
334.872; 2289.175;  179.350;    0.000
334.930; 2293.175;  169.350;    0.000
334.988; 2231.175;  201.350;    0.000
335.047; 2373.175;  188.350;    0.000
335.105; 2284.175;  175.350;    0.000
335.163; 2201.175;  191.350;    0.000
335.221; 2341.175;  196.350;    0.000
335.280; 2190.175;  182.350;    0.000
335.338; 2217.175;  202.350;    0.000
335.396; 2323.175;  219.350;    0.000
335.454; 2283.175;  187.350;    0.000
335.512; 2283.175;  236.350;    0.000
335.570; 2202.175;  209.350;    0.000
335.629; 2305.175;  247.350;    0.000
335.687; 2324.175;  219.350;    0.000
335.745; 2326.175;  203.350;    0.000
335.803; 2348.175;  220.350;    0.000
335.861; 2256.175;  208.350;    0.000
335.919; 2307.175;  223.350;    0.000
335.977; 2285.175;  201.350;    0.000
336.035; 2372.175;  193.350;    0.000
336.094; 2335.175;  178.350;    0.000
336.152; 2269.175;  182.350;    0.000
336.210; 2188.175;  199.350;    0.000
336.268; 2325.175;  216.350;    0.000
336.326; 2265.175;  216.350;    0.000
336.384; 2320.175;  201.350;    0.000
336.442; 2315.175;  197.350;    0.000
336.500; 2273.175;  203.350;    0.000
336.558; 2319.175;  198.350;    0.000
336.616; 2337.175;  210.350;    0.000
336.674; 2267.175;  192.350;    0.000
336.732; 2268.175;  182.350;    0.000
336.790; 2267.175;  189.350;    0.000
336.848; 2280.175;  233.350;    0.000
336.906; 2303.175;  235.350;    0.000
336.964; 2270.175;  208.350;    0.000
337.022; 2357.175;  249.350;    0.000
337.080; 2260.175;  204.350;    0.000
337.138; 2333.175;  176.350;    0.000
337.195; 2180.175;  207.350;    0.000
337.253; 2280.175;  214.350;    0.000
337.311; 2181.175;  210.350;    0.000
337.369; 2241.175;  222.350;    0.000
337.427; 2213.175;  236.350;    0.000
337.485; 2229.175;  241.350;    0.000
337.543; 2235.175;  217.350;    0.000
337.601; 2249.175;  221.350;    0.000
337.658; 2161.175;  205.350;    0.000
337.716; 2215.175;  210.350;    0.000
337.774; 2205.175;  196.350;    0.000
337.832; 2218.175;  200.350;    0.000
337.890; 2215.175;  192.350;    0.000
337.947; 2147.175;  192.350;    0.000
338.005; 2174.175;  211.350;    0.000
338.063; 2111.175;  176.350;    0.000
338.121; 2234.175;  222.350;    0.000
338.178; 2142.175;  198.350;    0.000
338.236; 2216.175;  210.350;    0.000
338.294; 2192.175;  211.350;    0.000
338.352; 2190.175;  212.350;    0.000
338.409; 2162.175;  199.350;    0.000
338.467; 2120.175;  205.350;    0.000
338.525; 2221.175;  217.350;    0.000
338.583; 2157.175;  197.350;    0.000
338.640; 2108.175;  226.350;    0.000
338.698; 2152.175;  201.350;    0.000
338.756; 2193.175;  192.350;    0.000
338.813; 2143.175;  220.350;    0.000
338.871; 2197.175;  258.350;    0.000
338.928; 2209.175;  223.350;    0.000
338.986; 2177.175;  200.350;    0.000
339.044; 2241.175;  206.350;    0.000
339.101; 2122.175;  250.350;    0.000
339.159; 2161.175;  245.350;    0.000
339.216; 2199.175;  227.350;    0.000
339.274; 2245.175;  260.350;    0.000
339.332; 2189.175;  223.350;    0.000
339.389; 2156.175;  233.350;    0.000
339.447; 2157.175;  206.350;    0.000
339.504; 2198.175;  229.350;    0.000
339.562; 2139.175;  194.350;    0.000
339.619; 2153.175;  245.350;    0.000
339.677; 2131.175;  238.350;    0.000
339.734; 2085.175;  197.350;    0.000
339.792; 2122.175;  210.350;    0.000
339.849; 2122.175;  201.350;    0.000
339.907; 2189.175;  252.350;    0.000
339.964; 2200.175;  191.350;    0.000
340.022; 2189.175;  246.350;    0.000
340.079; 2078.175;  213.350;    0.000
340.137; 2128.175;  240.350;    0.000
340.194; 2117.175;  208.350;    0.000
340.252; 2055.175;  215.350;    0.000
340.309; 2061.175;  203.350;    0.000
340.366; 2234.175;  194.350;    0.000
340.424; 2085.175;  226.350;    0.000
340.481; 2231.175;  234.350;    0.000
340.538; 2098.175;  205.350;    0.000
340.596; 2133.175;  197.350;    0.000
340.653; 2174.175;  233.350;    0.000
340.711; 2213.175;  273.350;    0.000
340.768; 2206.175;  237.350;    0.000
340.825; 2134.175;  224.350;    0.000
340.883; 2125.175;  240.350;    0.000
340.940; 2180.175;  216.350;    0.000
340.997; 2203.175;  228.350;    0.000
341.054; 2122.175;  200.350;    0.000
341.112; 2088.175;  220.350;    0.000
341.169; 2173.175;  226.350;    0.000
341.226; 2183.175;  206.350;    0.000
341.284; 2222.175;  204.350;    0.000
341.341; 2202.175;  214.350;    0.000
341.398; 2153.175;  160.350;    0.000
341.455; 2225.175;  209.350;    0.000
341.512; 2256.175;  233.350;    0.000
341.570; 2216.175;  240.350;    0.000
341.627; 2162.175;  209.350;    0.000
341.684; 2115.175;  178.350;    0.000
341.741; 2223.175;  254.350;    0.000
341.798; 2105.175;  232.350;    0.000
341.856; 2133.175;  196.350;    0.000
341.913; 2172.175;  244.350;    0.000
341.970; 2210.175;  203.350;    0.000
342.027; 2170.175;  235.350;    0.000
342.084; 2165.175;  214.350;    0.000
342.141; 2121.175;  194.350;    0.000
342.198; 2227.175;  194.350;    0.000
342.255; 2192.175;  219.350;    0.000
342.313; 2222.175;  195.350;    0.000
342.370; 2133.175;  207.350;    0.000
342.427; 2115.175;  217.350;    0.000
342.484; 2096.175;  213.350;    0.000
342.541; 2111.175;  215.350;    0.000
342.598; 2186.175;  247.350;    0.000
342.655; 2099.175;  205.350;    0.000
342.712; 2094.175;  226.350;    0.000
342.769; 2139.175;  212.350;    0.000
342.826; 2148.175;  203.350;    0.000
342.883; 2178.175;  207.350;    0.000
342.940; 2142.175;  204.350;    0.000
342.997; 2094.175;  237.350;    0.000
343.054; 2138.175;  210.350;    0.000
343.111; 2131.175;  209.350;    0.000
343.168; 2202.175;  201.350;    0.000
343.225; 2202.175;  208.350;    0.000
343.282; 2210.175;  216.350;    0.000
343.339; 2240.175;  237.350;    0.000
343.395; 2262.175;  218.350;    0.000
343.452; 2256.175;  234.350;    0.000
343.509; 2240.175;  214.350;    0.000
343.566; 2258.175;  222.350;    0.000
343.623; 2199.175;  226.350;    0.000
343.680; 2238.175;  245.350;    0.000
343.737; 2247.175;  209.350;    0.000
343.794; 2407.175;  227.350;    0.000
343.850; 2364.175;  197.350;    0.000
343.907; 2366.175;  211.350;    0.000
343.964; 2364.175;  190.350;    0.000
344.021; 2376.175;  252.350;    0.000
344.078; 2410.175;  261.350;    0.000
344.134; 2345.175;  206.350;    0.000
344.191; 2360.175;  231.350;    0.000
344.248; 2295.175;  225.350;    0.000
344.305; 2261.175;  210.350;    0.000
344.361; 2388.175;  194.350;    0.000
344.418; 2357.175;  219.350;    0.000
344.475; 2313.175;  245.350;    0.000
344.532; 2328.175;  238.350;    0.000
344.588; 2315.175;  235.350;    0.000
344.645; 2285.175;  229.350;    0.000
344.702; 2335.175;  145.350;    0.000
344.758; 2281.175;  240.350;    0.000
344.815; 2269.175;  215.350;    0.000
344.872; 2234.175;  203.350;    0.000
344.928; 2243.175;  208.350;    0.000
344.985; 2360.175;  216.350;    0.000
345.042; 2269.175;  234.350;    0.000
345.098; 2239.175;  183.350;    0.000
345.155; 2284.175;  241.350;    0.000
345.212; 2294.175;  222.350;    0.000
345.268; 2237.175;  234.350;    0.000
345.325; 2177.175;  181.350;    0.000
345.381; 2272.175;  251.350;    0.000
345.438; 2349.175;  256.350;    0.000
345.495; 2432.175;  247.350;    0.000
345.551; 2353.175;  231.350;    0.000
345.608; 2205.175;  206.350;    0.000
345.664; 2307.175;  201.350;    0.000
345.721; 2297.175;  216.350;    0.000
345.777; 2221.175;  195.350;    0.000
345.834; 2227.175;  195.350;    0.000
345.890; 2261.175;  227.350;    0.000
345.947; 2338.175;  240.350;    0.000
346.003; 2243.175;  248.350;    0.000
346.060; 2341.175;  213.350;    0.000
346.116; 2304.175;  225.350;    0.000
346.173; 2295.175;  199.350;    0.000
346.229; 2264.175;  264.350;    0.000
346.285; 2334.175;  246.350;    0.000
346.342; 2285.175;  240.350;    0.000
346.398; 2253.175;  222.350;    0.000
346.455; 2370.175;  231.350;    0.000
346.511; 2395.175;  214.350;    0.000
346.567; 2280.175;  231.350;    0.000
346.624; 2311.175;  222.350;    0.000
346.680; 2345.175;  197.350;    0.000
346.737; 2352.175;  225.350;    0.000
346.793; 2324.175;  255.350;    0.000
346.849; 2325.175;  245.350;    0.000
346.906; 2350.175;  221.350;    0.000
346.962; 2393.175;  260.350;    0.000
347.018; 2405.175;  238.350;    0.000
347.074; 2413.175;  257.350;    0.000
347.131; 2321.175;  200.350;    0.000
347.187; 2318.175;  232.350;    0.000
347.243; 2413.175;  240.350;    0.000
347.300; 2317.175;  249.350;    0.000
347.356; 2411.175;  250.350;    0.000
347.412; 2325.175;  252.350;    0.000
347.468; 2352.175;  254.350;    0.000
347.524; 2367.175;  280.350;    0.000
347.581; 2351.175;  228.350;    0.000
347.637; 2320.175;  261.350;    0.000
347.693; 2437.175;  238.350;    0.000
347.749; 2387.175;  261.350;    0.000
347.805; 2336.175;  238.350;    0.000
347.862; 2320.175;  246.350;    0.000
347.918; 2359.175;  256.350;    0.000
347.974; 2365.175;  277.350;    0.000
348.030; 2354.175;  242.350;    0.000
348.086; 2361.175;  223.350;    0.000
348.142; 2419.175;  215.350;    0.000
348.198; 2372.175;  272.350;    0.000
348.254; 2357.175;  292.350;    0.000
348.311; 2422.175;  235.350;    0.000
348.367; 2305.175;  263.350;    0.000
348.423; 2322.175;  193.350;    0.000
348.479; 2337.175;  266.350;    0.000
348.535; 2301.175;  238.350;    0.000
348.591; 2364.175;  237.350;    0.000
348.647; 2345.175;  239.350;    0.000
348.703; 2348.175;  240.350;    0.000
348.759; 2377.175;  253.350;    0.000
348.815; 2331.175;  255.350;    0.000
348.871; 2405.175;  256.350;    0.000
348.927; 2307.175;  261.350;    0.000
348.983; 2381.175;  258.350;    0.000
349.039; 2361.175;  204.350;    0.000
349.095; 2356.175;  215.350;    0.000
349.151; 2361.175;  230.350;    0.000
349.207; 2396.175;  216.350;    0.000
349.263; 2391.175;  235.350;    0.000
349.319; 2351.175;  244.350;    0.000
349.374; 2391.175;  213.350;    0.000
349.430; 2371.175;  241.350;    0.000
349.486; 2381.175;  248.350;    0.000
349.542; 2560.175;  259.350;    0.000
349.598; 2396.175;  208.350;    0.000
349.654; 2426.175;  242.350;    0.000
349.710; 2410.175;  246.350;    0.000
349.766; 2397.175;  226.350;    0.000
349.821; 2371.175;  227.350;    0.000
349.877; 2385.175;  226.350;    0.000
349.933; 2420.175;  249.350;    0.000
349.989; 2448.175;  263.350;    0.000
350.045; 2371.175;  267.350;    0.000
350.100; 2348.175;  219.350;    0.000
350.156; 2463.175;  207.350;    0.000
350.212; 2339.175;  230.350;    0.000
350.268; 2345.175;  223.350;    0.000
350.323; 2398.175;  217.350;    0.000
350.379; 2357.175;  227.350;    0.000
350.435; 2380.175;  219.350;    0.000
350.491; 2398.175;  195.350;    0.000
350.546; 2367.175;  229.350;    0.000
350.602; 2374.175;  222.350;    0.000
350.658; 2333.175;  225.350;    0.000
350.713; 2367.175;  231.350;    0.000
350.769; 2390.175;  193.350;    0.000
350.825; 2418.175;  182.350;    0.000
350.880; 2330.175;  193.350;    0.000
350.936; 2395.175;  222.350;    0.000
350.992; 2372.175;  217.350;    0.000
351.047; 2444.175;  226.350;    0.000
351.103; 2298.175;  187.350;    0.000
351.158; 2420.175;  212.350;    0.000
351.214; 2422.175;  207.350;    0.000
351.270; 2427.175;  194.350;    0.000
351.325; 2481.175;  213.350;    0.000
351.381; 2406.175;  223.350;    0.000
351.436; 2397.175;  222.350;    0.000
351.492; 2484.175;  219.350;    0.000
351.547; 2500.175;  205.350;    0.000
351.603; 2395.175;  218.350;    0.000
351.658; 2492.175;  199.350;    0.000
351.714; 2461.175;  201.350;    0.000
351.769; 2411.175;  209.350;    0.000
351.825; 2415.175;  226.350;    0.000
351.880; 2454.175;  189.350;    0.000
351.936; 2377.175;  201.350;    0.000
351.991; 2453.175;  220.350;    0.000
352.047; 2470.175;  232.350;    0.000
352.102; 2380.175;  185.350;    0.000
352.158; 2420.175;  228.350;    0.000
352.213; 2351.175;  204.350;    0.000
352.268; 2379.175;  220.350;    0.000
352.324; 2300.175;  206.350;    0.000
352.379; 2401.175;  182.350;    0.000
352.434; 2451.175;  214.350;    0.000
352.490; 2364.175;  250.350;    0.000
352.545; 2512.175;  290.350;    0.000
352.601; 2401.175;  247.350;    0.000
352.656; 2447.175;  203.350;    0.000
352.711; 2408.175;  197.350;    0.000
352.767; 2327.175;  169.350;    0.000
352.822; 2507.175;  191.350;    0.000
352.877; 2429.175;  235.350;    0.000
352.932; 2484.175;  231.350;    0.000
352.988; 2437.175;  224.350;    0.000
353.043; 2534.175;  226.350;    0.000
353.098; 2446.175;  227.350;    0.000
353.153; 2475.175;  239.350;    0.000
353.209; 2495.175;  217.350;    0.000
353.264; 2441.175;  198.350;    0.000
353.319; 2424.175;  247.350;    0.000
353.374; 2404.175;  199.350;    0.000
353.430; 2468.175;  247.350;    0.000
353.485; 2402.175;  242.350;    0.000
353.540; 2417.175;  237.350;    0.000
353.595; 2387.175;  233.350;    0.000
353.650; 2505.175;  221.350;    0.000
353.705; 2481.175;  259.350;    0.000
353.761; 2416.175;  223.350;    0.000
353.816; 2423.175;  234.350;    0.000
353.871; 2450.175;  226.350;    0.000
353.926; 2305.175;  232.350;    0.000
353.981; 2459.175;  245.350;    0.000
354.036; 2385.175;  247.350;    0.000
354.091; 2416.175;  233.350;    0.000
354.146; 2410.175;  253.350;    0.000
354.201; 2371.175;  236.350;    0.000
354.256; 2442.175;  210.350;    0.000
354.311; 2451.175;  279.350;    0.000
354.367; 2511.175;  208.350;    0.000
354.422; 2448.175;  228.350;    0.000
354.477; 2390.175;  202.350;    0.000
354.532; 2474.175;  215.350;    0.000
354.587; 2446.175;  249.350;    0.000
354.642; 2456.175;  206.350;    0.000
354.697; 2519.175;  226.350;    0.000
354.751; 2504.175;  241.350;    0.000
354.806; 2398.175;  249.350;    0.000
354.861; 2414.175;  216.350;    0.000
354.916; 2437.175;  249.350;    0.000
354.971; 2502.175;  217.350;    0.000
355.026; 2443.175;  236.350;    0.000
355.081; 2378.175;  242.350;    0.000
355.136; 2388.175;  216.350;    0.000
355.191; 2425.175;  216.350;    0.000
355.246; 2494.175;  258.350;    0.000
355.301; 2408.175;  250.350;    0.000
355.355; 2440.175;  251.350;    0.000
355.410; 2419.175;  216.350;    0.000
355.465; 2427.175;  224.350;    0.000
355.520; 2476.175;  221.350;    0.000
355.575; 2425.175;  255.350;    0.000
355.630; 2455.175;  225.350;    0.000
355.684; 2392.175;  210.350;    0.000
355.739; 2444.175;  232.350;    0.000
355.794; 2451.175;  202.350;    0.000
355.849; 2431.175;  211.350;    0.000
355.904; 2332.175;  226.350;    0.000
355.958; 2411.175;  191.350;    0.000
356.013; 2371.175;  208.350;    0.000
356.068; 2360.175;  229.350;    0.000
356.123; 2436.175;  243.350;    0.000
356.177; 2493.175;  227.350;    0.000
356.232; 2428.175;  243.350;    0.000
356.287; 2402.175;  216.350;    0.000
356.341; 2471.175;  242.350;    0.000
356.396; 2411.175;  175.350;    0.000
356.451; 2457.175;  271.350;    0.000
356.505; 2433.175;  225.350;    0.000
356.560; 2500.175;  260.350;    0.000
356.615; 2448.175;  213.350;    0.000
356.669; 2466.175;  213.350;    0.000
356.724; 2465.175;  221.350;    0.000
356.778; 2439.175;  232.350;    0.000
356.833; 2429.175;  178.350;    0.000
356.888; 2485.175;  236.350;    0.000
356.942; 2484.175;  224.350;    0.000
356.997; 2485.175;  228.350;    0.000
357.051; 2518.175;  226.350;    0.000
357.106; 2493.175;  185.350;    0.000
357.160; 2441.175;  202.350;    0.000
357.215; 2465.175;  232.350;    0.000
357.269; 2417.175;  224.350;    0.000
357.324; 2426.175;  219.350;    0.000
357.378; 2447.175;  196.350;    0.000
357.433; 2461.175;  241.350;    0.000
357.487; 2363.175;  244.350;    0.000
357.542; 2431.175;  210.350;    0.000
357.596; 2454.175;  231.350;    0.000
357.651; 2574.175;  248.350;    0.000
357.705; 2519.175;  232.350;    0.000
357.760; 2466.175;  224.350;    0.000
357.814; 2484.175;  221.350;    0.000
357.868; 2398.175;  207.350;    0.000
357.923; 2436.175;  234.350;    0.000
357.977; 2374.175;  218.350;    0.000
358.032; 2382.175;  244.350;    0.000
358.086; 2377.175;  246.350;    0.000
358.140; 2422.175;  235.350;    0.000
358.195; 2413.175;  237.350;    0.000
358.249; 2410.175;  233.350;    0.000
358.303; 2444.175;  254.350;    0.000
358.358; 2513.175;  217.350;    0.000
358.412; 2450.175;  245.350;    0.000
358.466; 2397.175;  230.350;    0.000
358.521; 2346.175;  214.350;    0.000
358.575; 2519.175;  243.350;    0.000
358.629; 2413.175;  230.350;    0.000
358.683; 2448.175;  232.350;    0.000
358.738; 2453.175;  249.350;    0.000
358.792; 2422.175;  249.350;    0.000
358.846; 2400.175;  271.350;    0.000
358.900; 2489.175;  265.350;    0.000
358.954; 2453.175;  236.350;    0.000
359.009; 2347.175;  254.350;    0.000
359.063; 2452.175;  216.350;    0.000
359.117; 2439.175;  245.350;    0.000
359.171; 2475.175;  252.350;    0.000
359.225; 2465.175;  240.350;    0.000
359.280; 2484.175;  239.350;    0.000
359.334; 2501.175;  234.350;    0.000
359.388; 2442.175;  258.350;    0.000
359.442; 2434.175;  220.350;    0.000
359.496; 2427.175;  206.350;    0.000
359.550; 2465.175;  279.350;    0.000
359.604; 2449.175;  263.350;    0.000
359.658; 2456.175;  251.350;    0.000
359.712; 2450.175;  244.350;    0.000
359.766; 2464.175;  217.350;    0.000
359.820; 2433.175;  235.350;    0.000
359.875; 2471.175;  249.350;    0.000
359.929; 2423.175;  269.350;    0.000
359.983; 2382.175;  240.350;    0.000
360.037; 2433.175;  252.350;    0.000
360.091; 2517.175;  271.350;    0.000
360.145; 2430.175;  222.350;    0.000
360.199; 2382.175;  302.350;    0.000
360.253; 2408.175;  234.350;    0.000
360.306; 2435.175;  258.350;    0.000
360.360; 2413.175;  249.350;    0.000
360.414; 2344.175;  231.350;    0.000
360.468; 2454.175;  261.350;    0.000
360.522; 2395.175;  277.350;    0.000
360.576; 2394.175;  273.350;    0.000
360.630; 2447.175;  264.350;    0.000
360.684; 2483.175;  223.350;    0.000
360.738; 2394.175;  266.350;    0.000
360.792; 2510.175;  252.350;    0.000
360.846; 2390.175;  234.350;    0.000
360.899; 2518.175;  296.350;    0.000
360.953; 2460.175;  273.350;    0.000
361.007; 2432.175;  251.350;    0.000
361.061; 2476.175;  250.350;    0.000
361.115; 2390.175;  267.350;    0.000
361.168; 2474.175;  308.350;    0.000
361.222; 2519.175;  246.350;    0.000
361.276; 2415.175;  261.350;    0.000
361.330; 2413.175;  233.350;    0.000
361.384; 2386.175;  269.350;    0.000
361.437; 2548.175;  270.350;    0.000
361.491; 2388.175;  263.350;    0.000
361.545; 2454.175;  288.350;    0.000
361.599; 2417.175;  270.350;    0.000
361.652; 2444.175;  256.350;    0.000
361.706; 2467.175;  263.350;    0.000
361.760; 2411.175;  237.350;    0.000
361.813; 2360.175;  278.350;    0.000
361.867; 2429.175;  317.350;    0.000
361.921; 2453.175;  260.350;    0.000
361.974; 2428.175;  239.350;    0.000
362.028; 2416.175;  266.350;    0.000
362.082; 2501.175;  269.350;    0.000
362.135; 2427.175;  262.350;    0.000
362.189; 2363.175;  258.350;    0.000
362.242; 2435.175;  273.350;    0.000
362.296; 2435.175;  261.350;    0.000
362.350; 2479.175;  272.350;    0.000
362.403; 2418.175;  291.350;    0.000
362.457; 2420.175;  253.350;    0.000
362.510; 2482.175;  266.350;    0.000
362.564; 2392.175;  260.350;    0.000
362.617; 2406.175;  280.350;    0.000
362.671; 2396.175;  281.350;    0.000
362.724; 2453.175;  234.350;    0.000
362.778; 2360.175;  311.350;    0.000
362.831; 2441.175;  276.350;    0.000
362.885; 2344.175;  288.350;    0.000
362.938; 2315.175;  284.350;    0.000
362.992;  289.175;  245.350;    0.000
363.045;  295.175;  277.350;    0.000
363.099;  283.175;  246.350;    0.000
363.152;  309.175;  290.350;    0.000
363.205;  296.175;  256.350;    0.000
363.259;  213.175;  238.350;    0.000
363.312;  290.175;  290.350;    0.000
363.366;  314.175;  287.350;    0.000
363.419;  259.175;  279.350;    0.000
363.472;  301.175;  304.350;    0.000
363.526;  329.175;  305.350;    0.000
363.579;  276.175;  281.350;    0.000
363.632;  318.175;  279.350;    0.000
363.686;  296.175;  277.350;    0.000
363.739;  279.175;  268.350;    0.000
363.792;  291.175;  274.350;    0.000

