
Integration time [ms]:   0.300
Averaging Nr. [scans]: 1
Smoothing Nr. [pixels]: 0
Data measured with spectrometer [name]: NIR
Wave   ;Sample   ;Dark     ;Reference
[nm]   ;[counts] ;[counts] ;[counts] 

691.496;  -16.875;  155.525;    0.000
691.696;   24.125;  186.525;    0.000
691.896;  -26.875;  113.525;    0.000
692.096;   21.125;  169.525;    0.000
692.296;  -12.875;  119.525;    0.000
692.496;   31.125;  182.525;    0.000
692.695;  -42.875;  119.525;    0.000
692.895;   26.125;  183.525;    0.000
693.095;  -39.875;  119.525;    0.000
693.295;   15.125;  156.525;    0.000
693.495;   23.125;  145.525;    0.000
693.695;  -19.875;  144.525;    0.000
693.894;   -1.875;  174.525;    0.000
694.094;   15.125;  148.525;    0.000
694.294;    9.125;  114.525;    0.000
694.494;  327.125;  137.525;    0.000
694.693; 2729.125;  112.525;    0.000
694.893; 3062.125;   85.525;    0.000
695.093; 3021.125;  152.525;    0.000
695.293; 3096.125;  159.525;    0.000
695.492; 3069.125;  131.525;    0.000
695.692; 3000.125;  134.525;    0.000
695.891; 3086.125;  161.525;    0.000
696.091; 3074.125;  180.525;    0.000
696.291; 3115.125;  120.525;    0.000
696.490; 3104.125;  146.525;    0.000
696.690; 3161.125;  145.525;    0.000
696.889; 3128.125;  171.525;    0.000
697.089; 3150.125;   98.525;    0.000
697.288; 3203.125;  172.525;    0.000
697.488; 3157.125;  137.525;    0.000
697.687; 3144.125;  171.525;    0.000
697.887; 3127.125;  142.525;    0.000
698.086; 3226.125;  159.525;    0.000
698.286; 3231.125;  122.525;    0.000
698.485; 3182.125;  121.525;    0.000
698.684; 3275.125;   94.525;    0.000
698.884; 3187.125;  131.525;    0.000
699.083; 3184.125;  112.525;    0.000
699.282; 3221.125;  119.525;    0.000
699.482; 3252.125;  117.525;    0.000
699.681; 3215.125;  115.525;    0.000
699.880; 3249.125;  166.525;    0.000
700.080; 3083.125;  194.525;    0.000
700.279; 3232.125;   98.525;    0.000
700.478; 3265.125;  159.525;    0.000
700.677; 3225.125;  134.525;    0.000
700.877; 3256.125;  171.525;    0.000
701.076; 3245.125;  141.525;    0.000
701.275; 3265.125;  119.525;    0.000
701.474; 3232.125;  132.525;    0.000
701.673; 3184.125;  141.525;    0.000
701.872; 3275.125;  158.525;    0.000
702.071; 3288.125;  129.525;    0.000
702.271; 3330.125;  122.525;    0.000
702.470; 3257.125;  158.525;    0.000
702.669; 3313.125;  145.525;    0.000
702.868; 3295.125;  135.525;    0.000
703.067; 3331.125;  169.525;    0.000
703.266; 3414.125;  125.525;    0.000
703.465; 3344.125;  153.525;    0.000
703.664; 3276.125;  113.525;    0.000
703.863; 3257.125;  170.525;    0.000
704.062; 3309.125;  115.525;    0.000
704.260; 3418.125;  133.525;    0.000
704.459; 3381.125;  123.525;    0.000
704.658; 3373.125;  105.525;    0.000
704.857; 3298.125;  125.525;    0.000
705.056; 3372.125;  108.525;    0.000
705.255; 3290.125;  117.525;    0.000
705.454; 3358.125;  126.525;    0.000
705.652; 3378.125;  137.525;    0.000
705.851; 3410.125;   95.525;    0.000
706.050; 3379.125;  120.525;    0.000
706.249; 3316.125;   81.525;    0.000
706.447; 3254.125;  105.525;    0.000
706.646; 3348.125;  107.525;    0.000
706.845; 3400.125;  104.525;    0.000
707.043; 3379.125;  136.525;    0.000
707.242; 3419.125;   89.525;    0.000
707.441; 3492.125;  147.525;    0.000
707.639; 3369.125;  156.525;    0.000
707.838; 3481.125;  114.525;    0.000
708.037; 3417.125;  100.525;    0.000
708.235; 3461.125;  103.525;    0.000
708.434; 3335.125;  102.525;    0.000
708.632; 3396.125;  100.525;    0.000
708.831; 3474.125;  121.525;    0.000
709.029; 3314.125;  102.525;    0.000
709.228; 3478.125;   88.525;    0.000
709.426; 3431.125;  135.525;    0.000
709.625; 3529.125;  128.525;    0.000
709.823; 3462.125;  123.525;    0.000
710.022; 3464.125;  137.525;    0.000
710.220; 3518.125;  134.525;    0.000
710.418; 3583.125;  122.525;    0.000
710.617; 3484.125;   64.525;    0.000
710.815; 3570.125;   94.525;    0.000
711.013; 3549.125;  127.525;    0.000
711.212; 3550.125;  105.525;    0.000
711.410; 3499.125;  117.525;    0.000
711.608; 3621.125;  114.525;    0.000
711.807; 3442.125;  119.525;    0.000
712.005; 3504.125;   92.525;    0.000
712.203; 3560.125;   95.525;    0.000
712.401; 3679.125;  107.525;    0.000
712.599; 3674.125;  127.525;    0.000
712.798; 3628.125;  120.525;    0.000
712.996; 3559.125;   76.525;    0.000
713.194; 3637.125;  118.525;    0.000
713.392; 3647.125;   60.525;    0.000
713.590; 3720.125;   92.525;    0.000
713.788; 3683.125;  110.525;    0.000
713.986; 3745.125;  130.525;    0.000
714.184; 3826.125;   71.525;    0.000
714.382; 3737.125;   86.525;    0.000
714.580; 3757.125;   74.525;    0.000
714.778; 3835.125;  133.525;    0.000
714.976; 3798.125;   81.525;    0.000
715.174; 3862.125;  100.525;    0.000
715.372; 4104.125;  141.525;    0.000
715.570; 4308.125;   73.525;    0.000
715.768; 4563.125;  119.525;    0.000
715.966; 4482.125;   81.525;    0.000
716.164; 4650.125;  130.525;    0.000
716.362; 4381.125;  125.525;    0.000
716.560; 4315.125;  109.525;    0.000
716.758; 4207.125;   96.525;    0.000
716.955; 4172.125;   83.525;    0.000
717.153; 4150.125;   87.525;    0.000
717.351; 4114.125;  123.525;    0.000
717.549; 4021.125;  121.525;    0.000
717.746; 4101.125;  128.525;    0.000
717.944; 4061.125;  132.525;    0.000
718.142; 4016.125;  120.525;    0.000
718.340; 4044.125;   94.525;    0.000
718.537; 4040.125;   95.525;    0.000
718.735; 4132.125;  152.525;    0.000
718.933; 3990.125;  124.525;    0.000
719.130; 4075.125;  114.525;    0.000
719.328; 3969.125;   63.525;    0.000
719.525; 4189.125;  146.525;    0.000
719.723; 4049.125;   96.525;    0.000
719.920; 3984.125;  120.525;    0.000
720.118; 3995.125;   59.525;    0.000
720.316; 4044.125;  116.525;    0.000
720.513; 3960.125;  127.525;    0.000
720.711; 3968.125;  110.525;    0.000
720.908; 4039.125;   92.525;    0.000
721.105; 3931.125;  138.525;    0.000
721.303; 4039.125;   90.525;    0.000
721.500; 4095.125;  126.525;    0.000
721.698; 3983.125;  103.525;    0.000
721.895; 3987.125;  206.525;    0.000
722.092; 3941.125;   63.525;    0.000
722.290; 4053.125;  123.525;    0.000
722.487; 3943.125;  137.525;    0.000
722.684; 4003.125;  126.525;    0.000
722.882; 4047.125;  119.525;    0.000
723.079; 4066.125;  132.525;    0.000
723.276; 3968.125;   98.525;    0.000
723.473; 4125.125;   97.525;    0.000
723.671; 3999.125;   43.525;    0.000
723.868; 3965.125;  142.525;    0.000
724.065; 4072.125;  102.525;    0.000
724.262; 4131.125;  119.525;    0.000
724.459; 4048.125;   73.525;    0.000
724.656; 4163.125;  128.525;    0.000
724.854; 4106.125;  135.525;    0.000
725.051; 4061.125;   81.525;    0.000
725.248; 4209.125;   88.525;    0.000
725.445; 4113.125;  129.525;    0.000
725.642; 4165.125;   76.525;    0.000
725.839; 4206.125;  134.525;    0.000
726.036; 4150.125;  101.525;    0.000
726.233; 4094.125;   68.525;    0.000
726.430; 4080.125;  121.525;    0.000
726.627; 4056.125;  136.525;    0.000
726.824; 4086.125;   87.525;    0.000
727.021; 4044.125;  141.525;    0.000
727.218; 4184.125;   92.525;    0.000
727.414; 4175.125;  121.525;    0.000
727.611; 4149.125;  100.525;    0.000
727.808; 4240.125;  130.525;    0.000
728.005; 4119.125;   83.525;    0.000
728.202; 4227.125;  120.525;    0.000
728.399; 4179.125;   75.525;    0.000
728.595; 4070.125;  148.525;    0.000
728.792; 4263.125;   79.525;    0.000
728.989; 4237.125;   86.525;    0.000
729.186; 4155.125;   80.525;    0.000
729.382; 4243.125;   72.525;    0.000
729.579; 4092.125;  112.525;    0.000
729.776; 4209.125;  106.525;    0.000
729.972; 4194.125;   77.525;    0.000
730.169; 4113.125;  118.525;    0.000
730.366; 4261.125;   92.525;    0.000
730.562; 4249.125;  104.525;    0.000
730.759; 4292.125;   95.525;    0.000
730.955; 4228.125;   85.525;    0.000
731.152; 4246.125;   79.525;    0.000
731.348; 4290.125;   72.525;    0.000
731.545; 4230.125;   56.525;    0.000
731.741; 4235.125;  106.525;    0.000
731.938; 4359.125;  113.525;    0.000
732.134; 4242.125;  106.525;    0.000
732.331; 4322.125;   82.525;    0.000
732.527; 4312.125;   80.525;    0.000
732.724; 4301.125;   97.525;    0.000
732.920; 4271.125;  127.525;    0.000
733.116; 4214.125;  115.525;    0.000
733.313; 4276.125;  153.525;    0.000
733.509; 4379.125;   76.525;    0.000
733.705; 4298.125;  159.525;    0.000
733.902; 4287.125;   82.525;    0.000
734.098; 4312.125;   70.525;    0.000
734.294; 4415.125;  105.525;    0.000
734.490; 4347.125;  110.525;    0.000
734.687; 4422.125;  102.525;    0.000
734.883; 4337.125;   77.525;    0.000
735.079; 4319.125;   93.525;    0.000
735.275; 4259.125;  109.525;    0.000
735.471; 4253.125;   99.525;    0.000
735.667; 4324.125;  107.525;    0.000
735.863; 4456.125;   89.525;    0.000
736.060; 4359.125;  105.525;    0.000
736.256; 4359.125;  113.525;    0.000
736.452; 4398.125;   90.525;    0.000
736.648; 4387.125;   88.525;    0.000
736.844; 4481.125;  129.525;    0.000
737.040; 4505.125;  139.525;    0.000
737.236; 4479.125;  129.525;    0.000
737.432; 4372.125;   67.525;    0.000
737.628; 4527.125;  104.525;    0.000
737.824; 4550.125;  111.525;    0.000
738.019; 4386.125;  116.525;    0.000
738.215; 4497.125;  135.525;    0.000
738.411; 4517.125;  118.525;    0.000
738.607; 4399.125;   58.525;    0.000
738.803; 4466.125;   32.525;    0.000
738.999; 4564.125;  120.525;    0.000
739.195; 4640.125;   76.525;    0.000
739.390; 4706.125;  119.525;    0.000
739.586; 4587.125;   83.525;    0.000
739.782; 4642.125;  134.525;    0.000
739.978; 4689.125;  122.525;    0.000
740.173; 4669.125;   96.525;    0.000
740.369; 4652.125;   86.525;    0.000
740.565; 4677.125;  122.525;    0.000
740.760; 4772.125;   99.525;    0.000
740.956; 4782.125;  137.525;    0.000
741.152; 4808.125;  108.525;    0.000
741.347; 4721.125;   65.525;    0.000
741.543; 4870.125;   73.525;    0.000
741.738; 4927.125;  142.525;    0.000
741.934; 5136.125;  131.525;    0.000
742.129; 5323.125;   66.525;    0.000
742.325; 5996.125;  143.525;    0.000
742.520; 6576.125;  119.525;    0.000
742.716; 6145.125;  109.525;    0.000
742.911; 5919.125;   62.525;    0.000
743.107; 5813.125;  119.525;    0.000
743.302; 5759.125;   78.525;    0.000
743.498; 5793.125;  130.525;    0.000
743.693; 5806.125;   75.525;    0.000
743.888; 6105.125;  135.525;    0.000
744.084; 6896.125;  106.525;    0.000
744.279; 8413.125;  101.525;    0.000
744.474; 8328.125;   91.525;    0.000
744.670; 7588.125;  144.525;    0.000
744.865; 7018.125;  128.525;    0.000
745.060; 6679.125;   63.525;    0.000
745.255; 6460.125;  155.525;    0.000
745.451; 6355.125;  110.525;    0.000
745.646; 6243.125;  150.525;    0.000
745.841; 6190.125;  128.525;    0.000
746.036; 6109.125;  110.525;    0.000
746.231; 6267.125;  126.525;    0.000
746.426; 6675.125;   83.525;    0.000
746.622; 7597.125;  157.525;    0.000
746.817; 9818.125;  112.525;    0.000
747.012;11052.125;  115.525;    0.000
747.207; 9949.125;  161.525;    0.000
747.402; 8603.125;   88.525;    0.000
747.597; 8144.125;  103.525;    0.000
747.792; 7900.125;  152.525;    0.000
747.987; 7493.125;   80.525;    0.000
748.182; 7328.125;   89.525;    0.000
748.377; 6955.125;  104.525;    0.000
748.572; 6741.125;  138.525;    0.000
748.767; 6311.125;  100.525;    0.000
748.961; 6182.125;  106.525;    0.000
749.156; 6125.125;  113.525;    0.000
749.351; 5993.125;  116.525;    0.000
749.546; 5982.125;  107.525;    0.000
749.741; 5767.125;  102.525;    0.000
749.936; 5746.125;  105.525;    0.000
750.130; 5664.125;  111.525;    0.000
750.325; 5456.125;   72.525;    0.000
750.520; 5542.125;   96.525;    0.000
750.715; 5543.125;  135.525;    0.000
750.909; 5402.125;  107.525;    0.000
751.104; 5395.125;  106.525;    0.000
751.299; 5445.125;  144.525;    0.000
751.493; 5458.125;  116.525;    0.000
751.688; 5339.125;   96.525;    0.000
751.882; 5294.125;   92.525;    0.000
752.077; 5279.125;  109.525;    0.000
752.272; 5304.125;   96.525;    0.000
752.466; 5186.125;  110.525;    0.000
752.661; 5125.125;  120.525;    0.000
752.855; 5086.125;   70.525;    0.000
753.050; 5041.125;  129.525;    0.000
753.244; 5135.125;  126.525;    0.000
753.439; 5054.125;  115.525;    0.000
753.633; 5008.125;  120.525;    0.000
753.828; 5018.125;  129.525;    0.000
754.022; 5072.125;  139.525;    0.000
754.216; 4901.125;  121.525;    0.000
754.411; 4988.125;  108.525;    0.000
754.605; 4909.125;   94.525;    0.000
754.799; 4982.125;  125.525;    0.000
754.994; 4989.125;  160.525;    0.000
755.188; 5100.125;  151.525;    0.000
755.382; 4923.125;  102.525;    0.000
755.576; 4896.125;  103.525;    0.000
755.771; 5018.125;   99.525;    0.000
755.965; 4922.125;  158.525;    0.000
756.159; 4929.125;   96.525;    0.000
756.353; 4991.125;  157.525;    0.000
756.547; 4901.125;  132.525;    0.000
756.742; 4862.125;  106.525;    0.000
756.936; 4788.125;  113.525;    0.000
757.130; 4828.125;  114.525;    0.000
757.324; 4885.125;  111.525;    0.000
757.518; 4840.125;  142.525;    0.000
757.712; 4878.125;  137.525;    0.000
757.906; 4903.125;   93.525;    0.000
758.100; 4939.125;  119.525;    0.000
758.294; 4944.125;  132.525;    0.000
758.488; 4931.125;  153.525;    0.000
758.682; 4908.125;  101.525;    0.000
758.876; 4847.125;  129.525;    0.000
759.070; 4885.125;  168.525;    0.000
759.264; 4855.125;   96.525;    0.000
759.458; 4827.125;  117.525;    0.000
759.651; 4915.125;  135.525;    0.000
759.845; 4935.125;  127.525;    0.000
760.039; 4872.125;  120.525;    0.000
760.233; 4783.125;  124.525;    0.000
760.427; 4915.125;  115.525;    0.000
760.620; 4871.125;  130.525;    0.000
760.814; 4825.125;  102.525;    0.000
761.008; 4833.125;  174.525;    0.000
761.202; 4909.125;  132.525;    0.000
761.395; 4827.125;  126.525;    0.000
761.589; 4801.125;  133.525;    0.000
761.783; 4842.125;  147.525;    0.000
761.976; 4892.125;  147.525;    0.000
762.170; 4800.125;  174.525;    0.000
762.363; 4829.125;   97.525;    0.000
762.557; 4944.125;  141.525;    0.000
762.750; 4990.125;  112.525;    0.000
762.944; 4833.125;  110.525;    0.000
763.138; 4901.125;  125.525;    0.000
763.331; 4864.125;  101.525;    0.000
763.524; 4981.125;  101.525;    0.000
763.718; 4998.125;  156.525;    0.000
763.911; 4888.125;  143.525;    0.000
764.105; 4990.125;  139.525;    0.000
764.298; 5065.125;   89.525;    0.000
764.492; 4974.125;  111.525;    0.000
764.685; 4878.125;  136.525;    0.000
764.878; 4989.125;  146.525;    0.000
765.072; 4884.125;  110.525;    0.000
765.265; 5036.125;  141.525;    0.000
765.458; 4988.125;   82.525;    0.000
765.651; 5056.125;  144.525;    0.000
765.845; 5202.125;   79.525;    0.000
766.038; 4993.125;  123.525;    0.000
766.231; 5577.125;  125.525;    0.000
766.424; 7703.125;  131.525;    0.000
766.617; 8093.125;   62.525;    0.000
766.811; 5470.125;  142.525;    0.000
767.004; 5160.125;  134.525;    0.000
767.197; 5058.125;  147.525;    0.000
767.390; 5127.125;  100.525;    0.000
767.583; 5092.125;  121.525;    0.000
767.776; 5030.125;   91.525;    0.000
767.969; 5113.125;  113.525;    0.000
768.162; 5130.125;  170.525;    0.000
768.355; 5033.125;  134.525;    0.000
768.548; 5113.125;  177.525;    0.000
768.741; 5072.125;   96.525;    0.000
768.934; 5174.125;  143.525;    0.000
769.127; 5326.125;  147.525;    0.000
769.320; 5304.125;   93.525;    0.000
769.513; 5360.125;  137.525;    0.000
769.706; 5943.125;   96.525;    0.000
769.898; 7654.125;  118.525;    0.000
770.091; 6400.125;  138.525;    0.000
770.284; 5395.125;  133.525;    0.000
770.477; 5427.125;  137.525;    0.000
770.670; 5431.125;  124.525;    0.000
770.862; 5362.125;  125.525;    0.000
771.055; 5505.125;  135.525;    0.000
771.248; 5605.125;  109.525;    0.000
771.441; 5593.125;  141.525;    0.000
771.633; 5671.125;  142.525;    0.000
771.826; 5542.125;  123.525;    0.000
772.018; 5778.125;  136.525;    0.000
772.211; 5712.125;  145.525;    0.000
772.404; 5804.125;  127.525;    0.000
772.596; 5769.125;  193.525;    0.000
772.789; 5778.125;   64.525;    0.000
772.981; 6004.125;  142.525;    0.000
773.174; 5985.125;  105.525;    0.000
773.366; 6089.125;  166.525;    0.000
773.559; 6110.125;  125.525;    0.000
773.751; 6120.125;  126.525;    0.000
773.944; 6371.125;  147.525;    0.000
774.136; 6520.125;  155.525;    0.000
774.329; 6614.125;  127.525;    0.000
774.521; 6854.125;  133.525;    0.000
774.713; 7131.125;  139.525;    0.000
774.906; 7165.125;  170.525;    0.000
775.098; 7447.125;  144.525;    0.000
775.290; 7944.125;  162.525;    0.000
775.483; 8216.125;  137.525;    0.000
775.675; 8741.125;  148.525;    0.000
775.867; 9036.125;   81.525;    0.000
776.059;10089.125;  134.525;    0.000
776.251;11025.125;  137.525;    0.000
776.444;12625.125;  155.525;    0.000
776.636;14696.125;  148.525;    0.000
776.828;18381.125;  129.525;    0.000
777.020;25520.125;  133.525;    0.000
777.212;38290.125;  137.525;    0.000
777.404;42826.125;  124.525;    0.000
777.596;39517.125;  142.525;    0.000
777.788;29296.125;  155.525;    0.000
777.980;22299.125;  119.525;    0.000
778.172;18376.125;  129.525;    0.000
778.364;15456.125;  122.525;    0.000
778.556;13932.125;  129.525;    0.000
778.748;12395.125;  178.525;    0.000
778.940;11181.125;  128.525;    0.000
779.132;10273.125;  145.525;    0.000
779.324; 9499.125;   89.525;    0.000
779.516; 9089.125;  161.525;    0.000
779.708; 8815.125;  183.525;    0.000
779.900; 8136.125;  124.525;    0.000
780.091; 7642.125;  143.525;    0.000
780.283; 7487.125;  135.525;    0.000
780.475; 7318.125;  129.525;    0.000
780.667; 6899.125;  178.525;    0.000
780.859; 6787.125;  146.525;    0.000
781.050; 6498.125;  156.525;    0.000
781.242; 6291.125;  138.525;    0.000
781.434; 6368.125;  117.525;    0.000
781.625; 6245.125;  161.525;    0.000
781.817; 6111.125;  127.525;    0.000
782.008; 6004.125;  138.525;    0.000
782.200; 5903.125;  139.525;    0.000
782.392; 5935.125;  179.525;    0.000
782.583; 5810.125;  137.525;    0.000
782.775; 5729.125;  162.525;    0.000
782.966; 5549.125;  159.525;    0.000
783.158; 5467.125;  118.525;    0.000
783.349; 5515.125;  160.525;    0.000
783.541; 5430.125;  139.525;    0.000
783.732; 5442.125;  145.525;    0.000
783.924; 5380.125;  146.525;    0.000
784.115; 5389.125;  125.525;    0.000
784.306; 5349.125;  118.525;    0.000
784.498; 5266.125;  144.525;    0.000
784.689; 5240.125;  145.525;    0.000
784.880; 5247.125;  137.525;    0.000
785.072; 5234.125;  157.525;    0.000
785.263; 5134.125;  149.525;    0.000
785.454; 5222.125;  128.525;    0.000
785.645; 5125.125;  131.525;    0.000
785.837; 5309.125;  137.525;    0.000
786.028; 5174.125;  161.525;    0.000
786.219; 5086.125;  155.525;    0.000
786.410; 5032.125;  146.525;    0.000
786.601; 5086.125;  120.525;    0.000
786.792; 5032.125;  179.525;    0.000
786.984; 5100.125;  113.525;    0.000
787.175; 4992.125;  156.525;    0.000
787.366; 5027.125;  131.525;    0.000
787.557; 5028.125;  138.525;    0.000
787.748; 5057.125;  112.525;    0.000
787.939; 5063.125;  115.525;    0.000
788.130; 5057.125;  150.525;    0.000
788.321; 5021.125;  122.525;    0.000
788.512; 5145.125;  147.525;    0.000
788.703; 5136.125;  126.525;    0.000
788.894; 5107.125;   80.525;    0.000
789.084; 5128.125;  127.525;    0.000
789.275; 5198.125;  141.525;    0.000
789.466; 5188.125;  108.525;    0.000
789.657; 5199.125;  137.525;    0.000
789.848; 5233.125;  126.525;    0.000
790.039; 5121.125;  144.525;    0.000
790.229; 5134.125;  105.525;    0.000
790.420; 5165.125;   96.525;    0.000
790.611; 5083.125;  171.525;    0.000
790.801; 5174.125;   89.525;    0.000
790.992; 5160.125;  140.525;    0.000
791.183; 5162.125;  143.525;    0.000
791.373; 5148.125;  128.525;    0.000
791.564; 4949.125;   96.525;    0.000
791.755; 5170.125;  111.525;    0.000
791.945; 5123.125;  112.525;    0.000
792.136; 5166.125;  124.525;    0.000
792.326; 5115.125;   88.525;    0.000
792.517; 5126.125;  130.525;    0.000
792.707; 5236.125;  144.525;    0.000
792.898; 5175.125;  120.525;    0.000
793.088; 5288.125;  106.525;    0.000
793.279; 5335.125;  104.525;    0.000
793.469; 5360.125;  103.525;    0.000
793.660; 5461.125;  120.525;    0.000
793.850; 5641.125;  106.525;    0.000
794.040; 5677.125;  135.525;    0.000
794.231; 6115.125;   80.525;    0.000
794.421; 6359.125;  120.525;    0.000
794.611; 7206.125;  154.525;    0.000
794.802; 8204.125;  103.525;    0.000
794.992; 8806.125;  120.525;    0.000
795.182; 8895.125;  156.525;    0.000
795.372; 8391.125;  104.525;    0.000
795.563; 7692.125;  153.525;    0.000
795.753; 7019.125;  112.525;    0.000
795.943; 6426.125;  128.525;    0.000
796.133; 6285.125;  128.525;    0.000
796.323; 6081.125;  152.525;    0.000
796.513; 5791.125;  123.525;    0.000
796.703; 5507.125;  134.525;    0.000
796.893; 5460.125;  120.525;    0.000
797.083; 5394.125;  136.525;    0.000
797.273; 5292.125;  128.525;    0.000
797.463; 5153.125;  140.525;    0.000
797.653; 5077.125;   75.525;    0.000
797.843; 5111.125;  114.525;    0.000
798.033; 4860.125;   90.525;    0.000
798.223; 4991.125;  136.525;    0.000
798.413; 4880.125;  164.525;    0.000
798.603; 4784.125;  150.525;    0.000
798.793; 4733.125;  137.525;    0.000
798.983; 4701.125;  119.525;    0.000
799.172; 4711.125;  136.525;    0.000
799.362; 4703.125;  138.525;    0.000
799.552; 4653.125;  123.525;    0.000
799.742; 4540.125;  117.525;    0.000
799.932; 4518.125;  108.525;    0.000
800.121; 4659.125;  152.525;    0.000
800.311; 4587.125;  117.525;    0.000
800.501; 4580.125;  100.525;    0.000
800.690; 4523.125;  139.525;    0.000
800.880; 4488.125;  138.525;    0.000
801.070; 4343.125;  120.525;    0.000
801.259; 4423.125;  143.525;    0.000
801.449; 4369.125;  110.525;    0.000
801.638; 4527.125;  140.525;    0.000
801.828; 4457.125;  103.525;    0.000
802.017; 4389.125;   78.525;    0.000
802.207; 4391.125;  126.525;    0.000
802.396; 4400.125;  151.525;    0.000
802.586; 4333.125;  106.525;    0.000
802.775; 4298.125;  152.525;    0.000
802.965; 4388.125;  117.525;    0.000
803.154; 4279.125;  171.525;    0.000
803.343; 4325.125;  126.525;    0.000
803.533; 4320.125;  135.525;    0.000
803.722; 4290.125;  144.525;    0.000
803.911; 4213.125;  109.525;    0.000
804.101; 4331.125;  146.525;    0.000
804.290; 4308.125;  115.525;    0.000
804.479; 4313.125;  128.525;    0.000
804.668; 4408.125;  156.525;    0.000
804.857; 4286.125;  151.525;    0.000
805.047; 4209.125;  131.525;    0.000
805.236; 4277.125;  144.525;    0.000
805.425; 4314.125;  160.525;    0.000
805.614; 4231.125;  112.525;    0.000
805.803; 4334.125;  120.525;    0.000
805.992; 4284.125;  148.525;    0.000
806.181; 4290.125;  108.525;    0.000
806.370; 4306.125;  142.525;    0.000
806.559; 4307.125;  116.525;    0.000
806.748; 4334.125;  108.525;    0.000
806.937; 4227.125;  110.525;    0.000
807.126; 4286.125;  126.525;    0.000
807.315; 4384.125;  121.525;    0.000
807.504; 4233.125;  102.525;    0.000
807.693; 4398.125;  134.525;    0.000
807.882; 4295.125;  135.525;    0.000
808.071; 4318.125;  135.525;    0.000
808.260; 4257.125;   93.525;    0.000
808.448; 4436.125;  151.525;    0.000
808.637; 4310.125;  105.525;    0.000
808.826; 4313.125;  178.525;    0.000
809.015; 4300.125;  152.525;    0.000
809.203; 4370.125;  147.525;    0.000
809.392; 4495.125;  144.525;    0.000
809.581; 4386.125;  167.525;    0.000
809.770; 4340.125;  151.525;    0.000
809.958; 4361.125;  128.525;    0.000
810.147; 4444.125;  152.525;    0.000
810.335; 4515.125;  160.525;    0.000
810.524; 4502.125;  130.525;    0.000
810.713; 4573.125;  128.525;    0.000
810.901; 4506.125;  140.525;    0.000
811.090; 4667.125;  152.525;    0.000
811.278; 4623.125;  126.525;    0.000
811.467; 4804.125;  161.525;    0.000
811.655; 4928.125;  184.525;    0.000
811.844; 4794.125;  148.525;    0.000
812.032; 4769.125;  138.525;    0.000
812.220; 4801.125;  157.525;    0.000
812.409; 4761.125;  143.525;    0.000
812.597; 4929.125;  124.525;    0.000
812.785; 4954.125;  170.525;    0.000
812.974; 4962.125;  135.525;    0.000
813.162; 4994.125;  135.525;    0.000
813.350; 4934.125;  182.525;    0.000
813.539; 4928.125;  126.525;    0.000
813.727; 5124.125;  127.525;    0.000
813.915; 5040.125;  140.525;    0.000
814.103; 5172.125;  176.525;    0.000
814.291; 5200.125;  115.525;    0.000
814.479; 5201.125;  119.525;    0.000
814.668; 5301.125;  134.525;    0.000
814.856; 5479.125;  120.525;    0.000
815.044; 5451.125;  164.525;    0.000
815.232; 5607.125;  146.525;    0.000
815.420; 5712.125;  154.525;    0.000
815.608; 5920.125;  137.525;    0.000
815.796; 5721.125;  108.525;    0.000
815.984; 6051.125;  134.525;    0.000
816.172; 6199.125;  123.525;    0.000
816.360; 6419.125;  181.525;    0.000
816.548; 6553.125;  139.525;    0.000
816.736; 6842.125;  138.525;    0.000
816.924; 7321.125;  151.525;    0.000
817.111; 7557.125;  156.525;    0.000
817.299; 8073.125;  147.525;    0.000
817.487; 8758.125;  188.525;    0.000
817.675; 9824.125;  129.525;    0.000
817.863;11648.125;  128.525;    0.000
818.050;15940.125;  110.525;    0.000
818.238;27998.125;  166.525;    0.000
818.426;39170.125;  136.525;    0.000
818.613;28379.125;  143.525;    0.000
818.801;22979.125;  150.525;    0.000
818.989;21705.125;  179.525;    0.000
819.176;23688.125;  123.525;    0.000
819.364;34280.125;  148.525;    0.000
819.552;48325.125;   86.525;    0.000
819.739;35641.125;  169.525;    0.000
819.927;25644.125;  130.525;    0.000
820.114;21065.125;  144.525;    0.000
820.302;18353.125;  166.525;    0.000
820.489;16512.125;  145.525;    0.000
820.677;15088.125;  101.525;    0.000
820.864;14259.125;  149.525;    0.000
821.052;14428.125;  130.525;    0.000
821.239;14570.125;  147.525;    0.000
821.426;14801.125;  121.525;    0.000
821.614;17033.125;  187.525;    0.000
821.801;18063.125;  105.525;    0.000
821.988;15803.125;  167.525;    0.000
822.176;15072.125;  130.525;    0.000
822.363;15220.125;  143.525;    0.000
822.550;14256.125;  108.525;    0.000
822.737;12617.125;  109.525;    0.000
822.924;11907.125;  156.525;    0.000
823.112;11117.125;  123.525;    0.000
823.299;10469.125;  128.525;    0.000
823.486;10081.125;  138.525;    0.000
823.673; 9546.125;  125.525;    0.000
823.860; 9339.125;  138.525;    0.000
824.047; 9454.125;  122.525;    0.000
824.234;10250.125;  134.525;    0.000
824.421;10198.125;   95.525;    0.000
824.608; 9230.125;  151.525;    0.000
824.795; 8371.125;  117.525;    0.000
824.982; 7936.125;  143.525;    0.000
825.169; 7370.125;   83.525;    0.000
825.356; 7212.125;  126.525;    0.000
825.543; 6920.125;   92.525;    0.000
825.730; 6503.125;  113.525;    0.000
825.917; 6347.125;  142.525;    0.000
826.104; 6088.125;  182.525;    0.000
826.290; 5923.125;  137.525;    0.000
826.477; 5833.125;  126.525;    0.000
826.664; 5701.125;  135.525;    0.000
826.851; 5607.125;  139.525;    0.000
827.038; 5437.125;  135.525;    0.000
827.224; 5475.125;  143.525;    0.000
827.411; 5190.125;  153.525;    0.000
827.598; 5184.125;  122.525;    0.000
827.784; 5061.125;  138.525;    0.000
827.971; 4928.125;  134.525;    0.000
828.157; 4937.125;  152.525;    0.000
828.344; 4782.125;  135.525;    0.000
828.531; 4787.125;  137.525;    0.000
828.717; 4606.125;  117.525;    0.000
828.904; 4739.125;  127.525;    0.000
829.090; 4544.125;  172.525;    0.000
829.277; 4510.125;  144.525;    0.000
829.463; 4477.125;  159.525;    0.000
829.650; 4326.125;  187.525;    0.000
829.836; 4315.125;  138.525;    0.000
830.022; 4245.125;  196.525;    0.000
830.209; 4282.125;  118.525;    0.000
830.395; 4134.125;  148.525;    0.000
830.581; 4156.125;  108.525;    0.000
830.768; 4043.125;  137.525;    0.000
830.954; 4046.125;  162.525;    0.000
831.140; 4054.125;  117.525;    0.000
831.327; 4064.125;  176.525;    0.000
831.513; 4019.125;  162.525;    0.000
831.699; 3931.125;  157.525;    0.000
831.885; 3920.125;  153.525;    0.000
832.071; 3784.125;  123.525;    0.000
832.257; 3763.125;  142.525;    0.000
832.444; 3909.125;  165.525;    0.000
832.630; 3685.125;  159.525;    0.000
832.816; 3833.125;  145.525;    0.000
833.002; 3711.125;  120.525;    0.000
833.188; 3701.125;  145.525;    0.000
833.374; 3698.125;  137.525;    0.000
833.560; 3732.125;  152.525;    0.000
833.746; 3620.125;  139.525;    0.000
833.932; 3583.125;  170.525;    0.000
834.118; 3566.125;  111.525;    0.000
834.303; 3562.125;  141.525;    0.000
834.489; 3463.125;  146.525;    0.000
834.675; 3543.125;  156.525;    0.000
834.861; 3515.125;   87.525;    0.000
835.047; 3606.125;  134.525;    0.000
835.233; 3524.125;   89.525;    0.000
835.418; 3377.125;  145.525;    0.000
835.604; 3383.125;  136.525;    0.000
835.790; 3339.125;  132.525;    0.000
835.976; 3490.125;  161.525;    0.000
836.161; 3421.125;  157.525;    0.000
836.347; 3374.125;  147.525;    0.000
836.533; 3383.125;  116.525;    0.000
836.718; 3399.125;  168.525;    0.000
836.904; 3396.125;  199.525;    0.000
837.089; 3396.125;  165.525;    0.000
837.275; 3426.125;  166.525;    0.000
837.460; 3429.125;  144.525;    0.000
837.646; 3349.125;  164.525;    0.000
837.831; 3387.125;  122.525;    0.000
838.017; 3383.125;  163.525;    0.000
838.202; 3336.125;  139.525;    0.000
838.388; 3340.125;  174.525;    0.000
838.573; 3362.125;  140.525;    0.000
838.759; 3383.125;  167.525;    0.000
838.944; 3395.125;  142.525;    0.000
839.129; 3331.125;  164.525;    0.000
839.315; 3333.125;  129.525;    0.000
839.500; 3312.125;  150.525;    0.000
839.685; 3307.125;  118.525;    0.000
839.870; 3301.125;  177.525;    0.000
840.056; 3293.125;  144.525;    0.000
840.241; 3396.125;  121.525;    0.000
840.426; 3419.125;  131.525;    0.000
840.611; 3383.125;  177.525;    0.000
840.796; 3364.125;  173.525;    0.000
840.981; 3448.125;  156.525;    0.000
841.166; 3377.125;  145.525;    0.000
841.352; 3495.125;  150.525;    0.000
841.537; 3403.125;  143.525;    0.000
841.722; 3495.125;  165.525;    0.000
841.907; 3551.125;  184.525;    0.000
842.092; 3588.125;  171.525;    0.000
842.277; 3619.125;  155.525;    0.000
842.461; 3637.125;  152.525;    0.000
842.646; 3803.125;  107.525;    0.000
842.831; 3921.125;  160.525;    0.000
843.016; 3937.125;  160.525;    0.000
843.201; 4011.125;  164.525;    0.000
843.386; 4228.125;  134.525;    0.000
843.571; 4365.125;  132.525;    0.000
843.755; 4730.125;  158.525;    0.000
843.940; 4958.125;  152.525;    0.000
844.125; 5643.125;  154.525;    0.000
844.310; 6553.125;  147.525;    0.000
844.494; 8700.125;  158.525;    0.000
844.679;11648.125;  173.525;    0.000
844.864;11666.125;  152.525;    0.000
845.048; 9401.125;  139.525;    0.000
845.233; 7912.125;  200.525;    0.000
845.418; 7101.125;  139.525;    0.000
845.602; 6145.125;  147.525;    0.000
845.787; 5576.125;  148.525;    0.000
845.971; 5218.125;  170.525;    0.000
846.156; 4853.125;  136.525;    0.000
846.340; 4638.125;  146.525;    0.000
846.525; 4404.125;  188.525;    0.000
846.709; 4185.125;  128.525;    0.000
846.893; 4128.125;  151.525;    0.000
847.078; 3846.125;  164.525;    0.000
847.262; 3746.125;  155.525;    0.000
847.447; 3787.125;  114.525;    0.000
847.631; 3522.125;  148.525;    0.000
847.815; 3519.125;  114.525;    0.000
848.000; 3400.125;  134.525;    0.000
848.184; 3420.125;  154.525;    0.000
848.368; 3437.125;  145.525;    0.000
848.552; 3332.125;  122.525;    0.000
848.736; 3189.125;  139.525;    0.000
848.921; 3261.125;  143.525;    0.000
849.105; 3175.125;  145.525;    0.000
849.289; 3138.125;  173.525;    0.000
849.473; 3205.125;  147.525;    0.000
849.657; 3138.125;  144.525;    0.000
849.841; 3070.125;  168.525;    0.000
850.025; 3089.125;  205.525;    0.000
850.209; 2998.125;  171.525;    0.000
850.393; 2892.125;  130.525;    0.000
850.577; 2968.125;  146.525;    0.000
850.761; 2966.125;  188.525;    0.000
850.945; 2924.125;  137.525;    0.000
851.129; 2936.125;  192.525;    0.000
851.313; 2897.125;  199.525;    0.000
851.497; 2877.125;  165.525;    0.000
851.680; 2902.125;  196.525;    0.000
851.864; 2883.125;  169.525;    0.000
852.048; 2913.125;  156.525;    0.000
852.232; 2840.125;  150.525;    0.000
852.416; 2884.125;  219.525;    0.000
852.599; 2846.125;  168.525;    0.000
852.783; 2895.125;  165.525;    0.000
852.967; 2974.125;  166.525;    0.000
853.150; 2817.125;  191.525;    0.000
853.334; 2829.125;  158.525;    0.000
853.518; 3010.125;  168.525;    0.000
853.701; 2827.125;  125.525;    0.000
853.885; 2798.125;  165.525;    0.000
854.068; 2830.125;  142.525;    0.000
854.252; 2750.125;  167.525;    0.000
854.435; 2776.125;  146.525;    0.000
854.619; 2723.125;  163.525;    0.000
854.802; 2846.125;  167.525;    0.000
854.986; 2738.125;  163.525;    0.000
855.169; 2874.125;  146.525;    0.000
855.353; 2877.125;  183.525;    0.000
855.536; 2835.125;  140.525;    0.000
855.719; 2820.125;  168.525;    0.000
855.903; 2972.125;  170.525;    0.000
856.086; 2834.125;  145.525;    0.000
856.269; 2880.125;  126.525;    0.000
856.452; 2917.125;  142.525;    0.000
856.636; 3013.125;  140.525;    0.000
856.819; 3181.125;  127.525;    0.000
857.002; 3292.125;  165.525;    0.000
857.185; 3137.125;  111.525;    0.000
857.368; 2980.125;  143.525;    0.000
857.552; 3026.125;  174.525;    0.000
857.735; 3108.125;  194.525;    0.000
857.918; 3001.125;  171.525;    0.000
858.101; 2974.125;  142.525;    0.000
858.284; 3059.125;  118.525;    0.000
858.467; 3052.125;  163.525;    0.000
858.650; 3067.125;  149.525;    0.000
858.833; 3138.125;  120.525;    0.000
859.016; 3176.125;  169.525;    0.000
859.199; 3399.125;  121.525;    0.000
859.382; 3653.125;  184.525;    0.000
859.564; 3987.125;  139.525;    0.000
859.747; 3800.125;  126.525;    0.000
859.930; 3575.125;  109.525;    0.000
860.113; 3415.125;  137.525;    0.000
860.296; 3510.125;  182.525;    0.000
860.478; 3291.125;  136.525;    0.000
860.661; 3293.125;  157.525;    0.000
860.844; 3351.125;  129.525;    0.000
861.027; 3259.125;  163.525;    0.000
861.209; 3234.125;  151.525;    0.000
861.392; 3255.125;  124.525;    0.000
861.575; 3256.125;  163.525;    0.000
861.757; 3219.125;  205.525;    0.000
861.940; 3415.125;  180.525;    0.000
862.122; 3378.125;  148.525;    0.000
862.305; 3401.125;  128.525;    0.000
862.487; 3671.125;  172.525;    0.000
862.670; 3859.125;  123.525;    0.000
862.852; 4587.125;  126.525;    0.000
863.035; 5450.125;  174.525;    0.000
863.217; 5294.125;  160.525;    0.000
863.400; 4881.125;  164.525;    0.000
863.582; 4549.125;  118.525;    0.000
863.764; 4341.125;  143.525;    0.000
863.947; 4024.125;  137.525;    0.000
864.129; 3974.125;  166.525;    0.000
864.311; 3904.125;  128.525;    0.000
864.493; 3814.125;  153.525;    0.000
864.676; 3748.125;  156.525;    0.000
864.858; 3743.125;  159.525;    0.000
865.040; 3758.125;  163.525;    0.000
865.222; 3705.125;  138.525;    0.000
865.404; 3822.125;  157.525;    0.000
865.587; 4029.125;  184.525;    0.000
865.769; 4127.125;  178.525;    0.000
865.951; 4042.125;  104.525;    0.000
866.133; 4008.125;  147.525;    0.000
866.315; 4024.125;  141.525;    0.000
866.497; 4182.125;  132.525;    0.000
866.679; 4203.125;  139.525;    0.000
866.861; 4276.125;  118.525;    0.000
867.043; 4595.125;  154.525;    0.000
867.225; 4875.125;  147.525;    0.000
867.407; 5252.125;  158.525;    0.000
867.589; 6037.125;  172.525;    0.000
867.770; 7273.125;  159.525;    0.000
867.952;10119.125;  149.525;    0.000
868.134;13061.125;  156.525;    0.000
868.316;13131.125;  171.525;    0.000
868.498;12564.125;  200.525;    0.000
868.679;10940.125;  174.525;    0.000
868.861; 9089.125;  175.525;    0.000
869.043; 7614.125;  174.525;    0.000
869.224; 6791.125;  122.525;    0.000
869.406; 6199.125;  166.525;    0.000
869.588; 5673.125;  143.525;    0.000
869.769; 5420.125;  152.525;    0.000
869.951; 5398.125;  165.525;    0.000
870.132; 5323.125;  115.525;    0.000
870.314; 5949.125;  139.525;    0.000
870.495; 6126.125;  168.525;    0.000
870.677; 5609.125;  188.525;    0.000
870.858; 5318.125;  123.525;    0.000
871.040; 5675.125;  170.525;    0.000
871.221; 6250.125;  148.525;    0.000
871.403; 6062.125;  140.525;    0.000
871.584; 5528.125;  174.525;    0.000
871.765; 5544.125;  168.525;    0.000
871.947; 5933.125;  191.525;    0.000
872.128; 5306.125;  132.525;    0.000
872.309; 4788.125;  140.525;    0.000
872.491; 4225.125;  157.525;    0.000
872.672; 4071.125;  130.525;    0.000
872.853; 3900.125;  148.525;    0.000
873.034; 3836.125;  138.525;    0.000
873.215; 3641.125;  152.525;    0.000
873.396; 3392.125;  149.525;    0.000
873.578; 3397.125;  173.525;    0.000
873.759; 3333.125;  158.525;    0.000
873.940; 3151.125;  147.525;    0.000
874.121; 3088.125;  136.525;    0.000
874.302; 3051.125;  151.525;    0.000
874.483; 2954.125;  137.525;    0.000
874.664; 3032.125;  163.525;    0.000
874.845; 2977.125;  124.525;    0.000
875.026; 2863.125;  134.525;    0.000
875.207; 2837.125;  164.525;    0.000
875.388; 2814.125;  163.525;    0.000
875.568; 2733.125;  176.525;    0.000
875.749; 2716.125;  108.525;    0.000
875.930; 2729.125;  191.525;    0.000
876.111; 2664.125;  170.525;    0.000
876.292; 2574.125;  180.525;    0.000
876.472; 2538.125;  150.525;    0.000
876.653; 2551.125;  162.525;    0.000
876.834; 2594.125;  176.525;    0.000
877.015; 2475.125;  203.525;    0.000
877.195; 2620.125;  178.525;    0.000
877.376; 2506.125;  141.525;    0.000
877.556; 2495.125;  135.525;    0.000
877.737; 2518.125;  174.525;    0.000
877.918; 2429.125;  150.525;    0.000
878.098; 2403.125;  133.525;    0.000
878.279; 2380.125;  129.525;    0.000
878.459; 2423.125;  162.525;    0.000
878.640; 2386.125;  187.525;    0.000
878.820; 2516.125;  151.525;    0.000
879.000; 2523.125;  159.525;    0.000
879.181; 2335.125;  171.525;    0.000
879.361; 2293.125;  167.525;    0.000
879.542; 2392.125;  126.525;    0.000
879.722; 2379.125;  152.525;    0.000
879.902; 2473.125;  144.525;    0.000
880.083; 2427.125;  154.525;    0.000
880.263; 2408.125;  148.525;    0.000
880.443; 2597.125;  185.525;    0.000
880.623; 2857.125;  172.525;    0.000
880.803; 3234.125;  152.525;    0.000
880.984; 2847.125;  165.525;    0.000
881.164; 2661.125;  164.525;    0.000
881.344; 2542.125;  141.525;    0.000
881.524; 2554.125;  160.525;    0.000
881.704; 2560.125;  164.525;    0.000
881.884; 2665.125;  159.525;    0.000
882.064; 2814.125;  158.525;    0.000
882.244; 2820.125;  147.525;    0.000
882.424; 2748.125;  160.525;    0.000
882.604; 2595.125;  150.525;    0.000
882.784; 2546.125;  138.525;    0.000
882.964; 2482.125;  157.525;    0.000
883.144; 2343.125;  128.525;    0.000
883.324; 2543.125;  220.525;    0.000
883.504; 2453.125;  177.525;    0.000
883.683; 2222.125;  159.525;    0.000
883.863; 2382.125;  143.525;    0.000
884.043; 2249.125;  156.525;    0.000
884.223; 2341.125;  152.525;    0.000
884.402; 2294.125;  169.525;    0.000
884.582; 2260.125;  162.525;    0.000
884.762; 2252.125;  172.525;    0.000
884.941; 2236.125;  220.525;    0.000
885.121; 2182.125;  128.525;    0.000
885.301; 2230.125;  141.525;    0.000
885.480; 2211.125;  141.525;    0.000
885.660; 2203.125;  132.525;    0.000
885.839; 2265.125;  146.525;    0.000
886.019; 2174.125;  170.525;    0.000
886.198; 2170.125;  143.525;    0.000
886.378; 2111.125;  159.525;    0.000
886.557; 2167.125;  148.525;    0.000
886.737; 2124.125;  125.525;    0.000
886.916; 2140.125;  177.525;    0.000
887.095; 2122.125;  186.525;    0.000
887.275; 2123.125;  134.525;    0.000
887.454; 2109.125;  148.525;    0.000
887.633; 2135.125;  171.525;    0.000
887.813; 2139.125;  187.525;    0.000
887.992; 2118.125;  157.525;    0.000
888.171; 2085.125;  143.525;    0.000
888.350; 2094.125;  182.525;    0.000
888.530; 2043.125;  142.525;    0.000
888.709; 2115.125;  160.525;    0.000
888.888; 2024.125;  197.525;    0.000
889.067; 2072.125;  126.525;    0.000
889.246; 2084.125;  197.525;    0.000
889.425; 2057.125;  161.525;    0.000
889.604; 2127.125;  180.525;    0.000
889.783; 2093.125;  135.525;    0.000
889.962; 1991.125;  107.525;    0.000
890.141; 2119.125;  167.525;    0.000
890.320; 2068.125;  149.525;    0.000
890.499; 2079.125;  194.525;    0.000
890.678; 2020.125;  138.525;    0.000
890.857; 2081.125;  146.525;    0.000
891.036; 2119.125;  178.525;    0.000
891.214; 2021.125;  151.525;    0.000
891.393; 2031.125;  137.525;    0.000
891.572; 2083.125;  177.525;    0.000
891.751; 2050.125;  149.525;    0.000
891.930; 2105.125;  189.525;    0.000
892.108; 2084.125;  136.525;    0.000
892.287; 2043.125;  129.525;    0.000
892.466; 2079.125;  163.525;    0.000
892.644; 2080.125;  147.525;    0.000
892.823; 1968.125;  127.525;    0.000
893.001; 1949.125;  192.525;    0.000
893.180; 2065.125;  157.525;    0.000
893.359; 2103.125;  176.525;    0.000
893.537; 2069.125;  146.525;    0.000
893.716; 2055.125;  154.525;    0.000
893.894; 2084.125;  166.525;    0.000
894.073; 2130.125;  163.525;    0.000
894.251; 1995.125;  166.525;    0.000
894.429; 2066.125;  149.525;    0.000
894.608; 2029.125;  141.525;    0.000
894.786; 2023.125;  139.525;    0.000
894.964; 2130.125;  180.525;    0.000
895.143; 2039.125;  193.525;    0.000
895.321; 2080.125;  163.525;    0.000
895.499; 2038.125;  163.525;    0.000
895.677; 2081.125;  194.525;    0.000
895.856; 2060.125;  176.525;    0.000
896.034; 2069.125;  173.525;    0.000
896.212; 2111.125;  180.525;    0.000
896.390; 2124.125;  146.525;    0.000
896.568; 2118.125;  167.525;    0.000
896.746; 2149.125;  158.525;    0.000
896.924; 2040.125;  163.525;    0.000
897.102; 2079.125;  170.525;    0.000
897.280; 2089.125;  159.525;    0.000
897.458; 2170.125;  182.525;    0.000
897.636; 2044.125;  151.525;    0.000
897.814; 2117.125;  130.525;    0.000
897.992; 2073.125;  213.525;    0.000
898.170; 2026.125;  164.525;    0.000
898.348; 2100.125;  159.525;    0.000
898.526; 2125.125;  182.525;    0.000
898.704; 2114.125;  209.525;    0.000
898.882; 2066.125;  145.525;    0.000
899.059; 2148.125;  172.525;    0.000
899.237; 2105.125;  172.525;    0.000
899.415; 2250.125;  211.525;    0.000
899.593; 2136.125;  151.525;    0.000
899.770; 2134.125;  147.525;    0.000
899.948; 2193.125;  218.525;    0.000
900.125; 2164.125;  166.525;    0.000
900.303; 2218.125;  146.525;    0.000
900.481; 2201.125;  174.525;    0.000
900.658; 2212.125;  198.525;    0.000
900.836; 2250.125;  125.525;    0.000
901.013; 2187.125;  197.525;    0.000
901.191; 2234.125;  181.525;    0.000
901.368; 2256.125;  185.525;    0.000
901.546; 2349.125;  197.525;    0.000
901.723; 2302.125;  205.525;    0.000
901.901; 2401.125;  187.525;    0.000
902.078; 2440.125;  163.525;    0.000
902.255; 2435.125;  141.525;    0.000
902.433; 2482.125;  183.525;    0.000
902.610; 2538.125;  181.525;    0.000
902.787; 2428.125;  174.525;    0.000
902.964; 2567.125;  174.525;    0.000
903.142; 2585.125;  141.525;    0.000
903.319; 2682.125;  214.525;    0.000
903.496; 2598.125;  187.525;    0.000
903.673; 2733.125;  183.525;    0.000
903.850; 2685.125;  125.525;    0.000
904.027; 2778.125;  197.525;    0.000
904.204; 2842.125;  197.525;    0.000
904.381; 3246.125;  196.525;    0.000
904.558; 3526.125;  176.525;    0.000
904.735; 4074.125;  179.525;    0.000
904.912; 3956.125;  203.525;    0.000
905.089; 4100.125;  159.525;    0.000
905.266; 3736.125;  176.525;    0.000
905.443; 3504.125;  184.525;    0.000
905.620; 3294.125;  168.525;    0.000
905.797; 3107.125;  214.525;    0.000
905.974; 3123.125;  154.525;    0.000
906.151; 3043.125;  132.525;    0.000
906.327; 2941.125;  192.525;    0.000
906.504; 2864.125;  186.525;    0.000
906.681; 2853.125;  171.525;    0.000
906.858; 2843.125;  181.525;    0.000
907.034; 2701.125;  164.525;    0.000
907.211; 2776.125;  184.525;    0.000
907.388; 2627.125;  177.525;    0.000
907.564; 2526.125;  150.525;    0.000
907.741; 2557.125;  195.525;    0.000
907.917; 2518.125;  190.525;    0.000
908.094; 2593.125;  214.525;    0.000
908.271; 2509.125;  173.525;    0.000
908.447; 2358.125;  229.525;    0.000
908.623; 2350.125;  162.525;    0.000
908.800; 2404.125;  195.525;    0.000
908.976; 2348.125;  171.525;    0.000
909.153; 2380.125;  167.525;    0.000
909.329; 2326.125;  227.525;    0.000
909.505; 2300.125;  167.525;    0.000
909.682; 2273.125;  174.525;    0.000
909.858; 2285.125;  158.525;    0.000
910.034; 2311.125;  188.525;    0.000
910.211; 2220.125;  158.525;    0.000
910.387; 2245.125;  208.525;    0.000
910.563; 2232.125;  203.525;    0.000
910.739; 2268.125;  201.525;    0.000
910.915; 2255.125;  170.525;    0.000
911.091; 2263.125;  171.525;    0.000
911.268; 2214.125;  220.525;    0.000
911.444; 2209.125;  202.525;    0.000
911.620; 2195.125;  175.525;    0.000
911.796; 2215.125;  175.525;    0.000
911.972; 2217.125;  164.525;    0.000
912.148; 2206.125;  174.525;    0.000
912.324; 2226.125;  155.525;    0.000
912.500; 2229.125;  156.525;    0.000
912.676; 2147.125;  138.525;    0.000
912.851; 2212.125;  158.525;    0.000
913.027; 2260.125;  161.525;    0.000
913.203; 2244.125;  168.525;    0.000
913.379; 2190.125;  172.525;    0.000
913.555; 2151.125;  193.525;    0.000
913.730; 2253.125;  149.525;    0.000
913.906; 2253.125;  159.525;    0.000
914.082; 2259.125;  184.525;    0.000
914.258; 2142.125;  194.525;    0.000
914.433; 2205.125;  175.525;    0.000
914.609; 2122.125;  175.525;    0.000
914.784; 2244.125;  170.525;    0.000
914.960; 2221.125;  212.525;    0.000
915.136; 2136.125;  157.525;    0.000
915.311; 2232.125;  204.525;    0.000
915.487; 2098.125;  180.525;    0.000
915.662; 2255.125;  203.525;    0.000
915.838; 2202.125;  194.525;    0.000
916.013; 2227.125;  217.525;    0.000
916.189; 2235.125;  196.525;    0.000
916.364; 2206.125;  236.525;    0.000
916.539; 2247.125;  192.525;    0.000
916.715; 2180.125;  181.525;    0.000
916.890; 2207.125;  185.525;    0.000
917.065; 2149.125;  166.525;    0.000
917.240; 2200.125;  182.525;    0.000
917.416; 2245.125;  188.525;    0.000
917.591; 2303.125;  185.525;    0.000
917.766; 2273.125;  187.525;    0.000
917.941; 2254.125;  181.525;    0.000
918.116; 2149.125;  207.525;    0.000
918.292; 2186.125;  140.525;    0.000
918.467; 2251.125;  187.525;    0.000
918.642; 2160.125;  208.525;    0.000
918.817; 2246.125;  203.525;    0.000
918.992; 2132.125;  162.525;    0.000
919.167; 2298.125;  206.525;    0.000
919.342; 2265.125;  188.525;    0.000
919.517; 2289.125;  190.525;    0.000
919.692; 2312.125;  174.525;    0.000
919.867; 2303.125;  181.525;    0.000
920.041; 2402.125;  179.525;    0.000
920.216; 2310.125;  186.525;    0.000
920.391; 2422.125;  209.525;    0.000
920.566; 2465.125;  205.525;    0.000
920.741; 2459.125;  205.525;    0.000
920.915; 2696.125;  206.525;    0.000
921.090; 2782.125;  219.525;    0.000
921.265; 3292.125;  185.525;    0.000
921.439; 3680.125;  171.525;    0.000
921.614; 3335.125;  197.525;    0.000
921.789; 3009.125;  189.525;    0.000
921.963; 2956.125;  210.525;    0.000
922.138; 2673.125;  171.525;    0.000
922.312; 2819.125;  194.525;    0.000
922.487; 2703.125;  231.525;    0.000
922.661; 2906.125;  179.525;    0.000
922.836; 3193.125;  213.525;    0.000
923.010; 3312.125;  182.525;    0.000
923.185; 3073.125;  239.525;    0.000
923.359; 2971.125;  200.525;    0.000
923.534; 2896.125;  232.525;    0.000
923.708; 2944.125;  221.525;    0.000
923.882; 3253.125;  193.525;    0.000
924.057; 2956.125;  204.525;    0.000
924.231; 2883.125;  172.525;    0.000
924.405; 2777.125;  202.525;    0.000
924.579; 2763.125;  207.525;    0.000
924.753; 2672.125;  167.525;    0.000
924.928; 2677.125;  202.525;    0.000
925.102; 2597.125;  200.525;    0.000
925.276; 2706.125;  185.525;    0.000
925.450; 2783.125;  170.525;    0.000
925.624; 2763.125;  176.525;    0.000
925.798; 2850.125;  221.525;    0.000
925.972; 2960.125;  162.525;    0.000
926.146; 3036.125;  207.525;    0.000
926.320; 3377.125;  185.525;    0.000
926.494; 3625.125;  192.525;    0.000
926.668; 3836.125;  179.525;    0.000
926.842; 3893.125;  181.525;    0.000
927.016; 3957.125;  224.525;    0.000
927.190; 3776.125;  193.525;    0.000
927.363; 3594.125;  194.525;    0.000
927.537; 3555.125;  210.525;    0.000
927.711; 3508.125;  153.525;    0.000
927.885; 3334.125;  184.525;    0.000
928.058; 3381.125;  197.525;    0.000
928.232; 3446.125;  219.525;    0.000
928.406; 3097.125;  175.525;    0.000
928.579; 3193.125;  179.525;    0.000
928.753; 3070.125;  208.525;    0.000
928.927; 3080.125;  163.525;    0.000
929.100; 3028.125;  138.525;    0.000
929.274; 2828.125;  160.525;    0.000
929.447; 2828.125;  152.525;    0.000
929.621; 2794.125;  168.525;    0.000
929.794; 2733.125;  152.525;    0.000
929.968; 2773.125;  163.525;    0.000
930.141; 2637.125;  164.525;    0.000
930.315; 2651.125;  170.525;    0.000
930.488; 2634.125;  216.525;    0.000
930.661; 2626.125;  184.525;    0.000
930.835; 2510.125;  156.525;    0.000
931.008; 2626.125;  206.525;    0.000
931.181; 2457.125;  163.525;    0.000
931.354; 2596.125;  198.525;    0.000
931.528; 2402.125;  156.525;    0.000
931.701; 2398.125;  170.525;    0.000
931.874; 2436.125;  167.525;    0.000
932.047; 2380.125;  146.525;    0.000
932.220; 2405.125;  159.525;    0.000
932.393; 2278.125;  186.525;    0.000
932.566; 2262.125;  147.525;    0.000
932.739; 2323.125;  192.525;    0.000
932.912; 2303.125;  197.525;    0.000
933.085; 2320.125;  176.525;    0.000
933.258; 2358.125;  171.525;    0.000
933.431; 2232.125;  150.525;    0.000
933.604; 2363.125;  176.525;    0.000
933.777; 2299.125;  215.525;    0.000
933.950; 2201.125;  164.525;    0.000
934.123; 2232.125;  174.525;    0.000
934.296; 2213.125;  203.525;    0.000
934.468; 2193.125;  208.525;    0.000
934.641; 2171.125;  182.525;    0.000
934.814; 2234.125;  170.525;    0.000
934.987; 2149.125;  183.525;    0.000
935.159; 2228.125;  154.525;    0.000
935.332; 2178.125;  178.525;    0.000
935.505; 2189.125;  213.525;    0.000
935.677; 2134.125;  173.525;    0.000
935.850; 2140.125;  190.525;    0.000
936.022; 2217.125;  205.525;    0.000
936.195; 2224.125;  201.525;    0.000
936.367; 2236.125;  189.525;    0.000
936.540; 2200.125;  179.525;    0.000
936.712; 2271.125;  195.525;    0.000
936.885; 2292.125;  207.525;    0.000
937.057; 2263.125;  163.525;    0.000
937.229; 2261.125;  175.525;    0.000
937.402; 2289.125;  168.525;    0.000
937.574; 2307.125;  136.525;    0.000
937.746; 2387.125;  166.525;    0.000
937.919; 2457.125;  178.525;    0.000
938.091; 2548.125;  192.525;    0.000
938.263; 2726.125;  164.525;    0.000
938.435; 2869.125;  204.525;    0.000
938.608; 3285.125;  153.525;    0.000
938.780; 3910.125;  159.525;    0.000
938.952; 3985.125;  160.525;    0.000
939.124; 4006.125;  156.525;    0.000
939.296; 4550.125;  110.525;    0.000
939.468; 4720.125;  135.525;    0.000
939.640; 4116.125;  144.525;    0.000
939.812; 3658.125;  232.525;    0.000
939.984; 3460.125;  128.525;    0.000
940.156; 3154.125;  195.525;    0.000
940.328; 3075.125;  226.525;    0.000
940.500; 2873.125;  146.525;    0.000
940.672; 2702.125;  190.525;    0.000
940.843; 2701.125;  156.525;    0.000
941.015; 2600.125;  200.525;    0.000
941.187; 2499.125;  159.525;    0.000
941.359; 2562.125;  183.525;    0.000
941.531; 2588.125;  137.525;    0.000
941.702; 2406.125;  186.525;    0.000
941.874; 2365.125;  164.525;    0.000
942.046; 2311.125;  202.525;    0.000
942.217; 2354.125;  146.525;    0.000
942.389; 2275.125;  165.525;    0.000
942.560; 2250.125;  191.525;    0.000
942.732; 2302.125;  240.525;    0.000
942.904; 2237.125;  173.525;    0.000
943.075; 2202.125;  157.525;    0.000
943.247; 2151.125;  155.525;    0.000
943.418; 2068.125;  164.525;    0.000
943.589; 2142.125;  150.525;    0.000
943.761; 2114.125;  143.525;    0.000
943.932; 2088.125;  151.525;    0.000
944.104; 2103.125;  194.525;    0.000
944.275; 2095.125;  154.525;    0.000
944.446; 2030.125;  169.525;    0.000
944.617; 1900.125;  138.525;    0.000
944.789; 1975.125;  158.525;    0.000
944.960; 1971.125;  197.525;    0.000
945.131; 1969.125;  139.525;    0.000
945.302; 2066.125;  169.525;    0.000
945.473; 1939.125;  149.525;    0.000
945.645; 2057.125;  171.525;    0.000
945.816; 2017.125;  167.525;    0.000
945.987; 2050.125;  156.525;    0.000
946.158; 2068.125;  185.525;    0.000
946.329; 2079.125;  201.525;    0.000
946.500; 2058.125;  182.525;    0.000
946.671; 1968.125;  156.525;    0.000
946.842; 1934.125;  190.525;    0.000
947.013; 1979.125;  159.525;    0.000
947.183; 1975.125;  209.525;    0.000
947.354; 1942.125;  171.525;    0.000
947.525; 1911.125;  180.525;    0.000
947.696; 1902.125;  163.525;    0.000
947.867; 1955.125;  168.525;    0.000
948.037; 1847.125;  153.525;    0.000
948.208; 1944.125;  178.525;    0.000
948.379; 1925.125;  192.525;    0.000
948.550; 1958.125;  180.525;    0.000
948.720; 1899.125;  196.525;    0.000
948.891; 1979.125;  173.525;    0.000
949.061; 1859.125;  207.525;    0.000
949.232; 1870.125;  176.525;    0.000
949.403; 1858.125;  152.525;    0.000
949.573; 1853.125;  186.525;    0.000
949.744; 1903.125;  181.525;    0.000
949.914; 1863.125;  174.525;    0.000
950.085; 1848.125;  146.525;    0.000
950.255; 1926.125;  162.525;    0.000
950.425; 1870.125;  189.525;    0.000
950.596; 1923.125;  175.525;    0.000
950.766; 1927.125;  209.525;    0.000
950.936; 1845.125;  201.525;    0.000
951.107; 1826.125;  141.525;    0.000
951.277; 1850.125;  211.525;    0.000
951.447; 1915.125;  218.525;    0.000
951.617; 1923.125;  191.525;    0.000
951.788; 1786.125;  193.525;    0.000
951.958; 1864.125;  217.525;    0.000
952.128; 1796.125;  192.525;    0.000
952.298; 1835.125;  237.525;    0.000
952.468; 1805.125;  194.525;    0.000
952.638; 1828.125;  201.525;    0.000
952.808; 1815.125;  203.525;    0.000
952.978; 1811.125;  216.525;    0.000
953.148; 1771.125;  209.525;    0.000
953.318; 1792.125;  213.525;    0.000
953.488; 1735.125;  161.525;    0.000
953.658; 1707.125;  222.525;    0.000
953.828; 1727.125;  196.525;    0.000
953.998; 1823.125;  227.525;    0.000
954.167; 1755.125;  163.525;    0.000
954.337; 1773.125;  201.525;    0.000
954.507; 1867.125;  227.525;    0.000
954.677; 1645.125;  204.525;    0.000
954.846; 1827.125;  210.525;    0.000
955.016; 1763.125;  198.525;    0.000
955.186; 1720.125;  203.525;    0.000
955.355; 1739.125;  198.525;    0.000
955.525; 1694.125;  198.525;    0.000
955.695; 1809.125;  187.525;    0.000
955.864; 1781.125;  243.525;    0.000
956.034; 1631.125;  192.525;    0.000
956.203; 1723.125;  259.525;    0.000
956.373; 1690.125;  185.525;    0.000
956.542; 1706.125;  230.525;    0.000
956.711; 1724.125;  218.525;    0.000
956.881; 1689.125;  232.525;    0.000
957.050; 1797.125;  246.525;    0.000
957.220; 1694.125;  229.525;    0.000
957.389; 1658.125;  211.525;    0.000
957.558; 1625.125;  173.525;    0.000
957.727; 1642.125;  226.525;    0.000
957.897; 1654.125;  209.525;    0.000
958.066; 1640.125;  217.525;    0.000
958.235; 1630.125;  160.525;    0.000
958.404; 1656.125;  199.525;    0.000
958.573; 1596.125;  223.525;    0.000
958.743; 1550.125;  189.525;    0.000
958.912; 1655.125;  199.525;    0.000
959.081; 1634.125;  216.525;    0.000
959.250; 1611.125;  192.525;    0.000
959.419; 1587.125;  216.525;    0.000
959.588; 1580.125;  209.525;    0.000
959.757; 1623.125;  194.525;    0.000
959.926; 1616.125;  200.525;    0.000
960.094; 1585.125;  174.525;    0.000
960.263; 1651.125;  218.525;    0.000
960.432; 1589.125;  173.525;    0.000
960.601; 1565.125;  177.525;    0.000
960.770; 1577.125;  188.525;    0.000
960.939; 1584.125;  167.525;    0.000
961.107; 1597.125;  195.525;    0.000
961.276; 1602.125;  183.525;    0.000
961.445; 1574.125;  195.525;    0.000
961.613; 1634.125;  198.525;    0.000
961.782; 1559.125;  224.525;    0.000
961.951; 1566.125;  178.525;    0.000
962.119; 1612.125;  214.525;    0.000
962.288; 1526.125;  174.525;    0.000
962.456; 1546.125;  197.525;    0.000
962.625; 1593.125;  212.525;    0.000
962.793; 1580.125;  183.525;    0.000
962.962; 1551.125;  189.525;    0.000
963.130; 1566.125;  151.525;    0.000
963.298; 1576.125;  197.525;    0.000
963.467; 1570.125;  202.525;    0.000
963.635; 1525.125;  172.525;    0.000
963.803; 1559.125;  203.525;    0.000
963.972; 1570.125;  204.525;    0.000
964.140; 1611.125;  193.525;    0.000
964.308; 1518.125;  159.525;    0.000
964.477; 1536.125;  142.525;    0.000
964.645; 1587.125;  202.525;    0.000
964.813; 1586.125;  158.525;    0.000
964.981; 1649.125;  179.525;    0.000
965.149; 1564.125;  176.525;    0.000
965.317; 1625.125;  229.525;    0.000
965.485; 1519.125;  179.525;    0.000
965.653; 1546.125;  205.525;    0.000
965.821; 1508.125;  196.525;    0.000
965.989; 1599.125;  202.525;    0.000
966.157; 1562.125;  199.525;    0.000
966.325; 1551.125;  178.525;    0.000
966.493; 1516.125;  177.525;    0.000
966.661; 1551.125;  172.525;    0.000
966.829; 1481.125;  167.525;    0.000
966.996; 1634.125;  202.525;    0.000
967.164; 1567.125;  175.525;    0.000
967.332; 1637.125;  207.525;    0.000
967.500; 1581.125;  170.525;    0.000
967.667; 1546.125;  222.525;    0.000
967.835; 1568.125;  245.525;    0.000
968.003; 1631.125;  180.525;    0.000
968.170; 1540.125;  222.525;    0.000
968.338; 1554.125;  183.525;    0.000
968.505; 1554.125;  197.525;    0.000
968.673; 1539.125;  209.525;    0.000
968.841; 1529.125;  162.525;    0.000
969.008; 1541.125;  187.525;    0.000
969.175; 1548.125;  204.525;    0.000
969.343; 1516.125;  157.525;    0.000
969.510; 1627.125;  189.525;    0.000
969.678; 1510.125;  153.525;    0.000
969.845; 1474.125;  190.525;    0.000
970.012; 1549.125;  162.525;    0.000
970.180; 1569.125;  223.525;    0.000
970.347; 1531.125;  195.525;    0.000
970.514; 1552.125;  185.525;    0.000
970.681; 1564.125;  187.525;    0.000
970.849; 1514.125;  183.525;    0.000
971.016; 1498.125;  168.525;    0.000
971.183; 1557.125;  160.525;    0.000
971.350; 1543.125;  193.525;    0.000
971.517; 1543.125;  202.525;    0.000
971.684; 1596.125;  242.525;    0.000
971.851; 1588.125;  192.525;    0.000
972.018; 1524.125;  194.525;    0.000
972.185; 1583.125;  193.525;    0.000
972.352; 1545.125;  187.525;    0.000
972.519; 1561.125;  233.525;    0.000
972.686; 1501.125;  186.525;    0.000
972.853; 1549.125;  165.525;    0.000
973.020; 1543.125;  183.525;    0.000
973.186; 1480.125;  186.525;    0.000
973.353; 1532.125;  177.525;    0.000
973.520; 1596.125;  203.525;    0.000
973.687; 1520.125;  211.525;    0.000
973.853; 1469.125;  194.525;    0.000
974.020; 1563.125;  201.525;    0.000
974.187; 1563.125;  187.525;    0.000
974.353; 1559.125;  188.525;    0.000
974.520; 1535.125;  136.525;    0.000
974.687; 1516.125;  169.525;    0.000
974.853; 1547.125;  207.525;    0.000
975.020; 1471.125;  190.525;    0.000
975.186; 1531.125;  182.525;    0.000
975.353; 1579.125;  202.525;    0.000
975.519; 1465.125;  189.525;    0.000
975.685; 1477.125;  176.525;    0.000
975.852; 1525.125;  175.525;    0.000
976.018; 1511.125;  155.525;    0.000
976.184; 1563.125;  179.525;    0.000
976.351; 1532.125;  191.525;    0.000
976.517; 1510.125;  246.525;    0.000
976.683; 1536.125;  222.525;    0.000
976.849; 1495.125;  216.525;    0.000
977.016; 1475.125;  212.525;    0.000
977.182; 1561.125;  192.525;    0.000
977.348; 1494.125;  145.525;    0.000
977.514; 1471.125;  195.525;    0.000
977.680; 1485.125;  210.525;    0.000
977.846; 1453.125;  172.525;    0.000
978.012; 1488.125;  190.525;    0.000
978.178; 1510.125;  201.525;    0.000
978.344; 1421.125;  190.525;    0.000
978.510; 1414.125;  199.525;    0.000
978.676; 1494.125;  174.525;    0.000
978.842; 1477.125;  195.525;    0.000
979.008; 1462.125;  205.525;    0.000
979.174; 1480.125;  187.525;    0.000
979.340; 1568.125;  194.525;    0.000
979.505; 1572.125;  221.525;    0.000
979.671; 1492.125;  178.525;    0.000
979.837; 1476.125;  215.525;    0.000
980.003; 1463.125;  176.525;    0.000
980.168; 1471.125;  185.525;    0.000
980.334; 1417.125;  165.525;    0.000
980.499; 1537.125;  231.525;    0.000
980.665; 1503.125;  238.525;    0.000
980.831; 1523.125;  194.525;    0.000
980.996; 1471.125;  169.525;    0.000
981.162; 1526.125;  199.525;    0.000
981.327; 1466.125;  158.525;    0.000
981.493; 1517.125;  193.525;    0.000
981.658; 1549.125;  181.525;    0.000
981.823; 1521.125;  199.525;    0.000
981.989; 1542.125;  186.525;    0.000
982.154; 1572.125;  225.525;    0.000
982.319; 1502.125;  191.525;    0.000
982.485; 1538.125;  205.525;    0.000
982.650; 1590.125;  234.525;    0.000
982.815; 1544.125;  193.525;    0.000
982.980; 1567.125;  177.525;    0.000
983.146; 1512.125;  212.525;    0.000
983.311; 1502.125;  177.525;    0.000
983.476; 1474.125;  185.525;    0.000
983.641; 1481.125;  149.525;    0.000
983.806; 1541.125;  175.525;    0.000
983.971; 1479.125;  234.525;    0.000
984.136; 1524.125;  191.525;    0.000
984.301; 1490.125;  215.525;    0.000
984.466; 1408.125;  207.525;    0.000
984.631; 1492.125;  206.525;    0.000
984.796; 1475.125;  229.525;    0.000
984.961; 1467.125;  220.525;    0.000
985.126; 1536.125;  204.525;    0.000
985.291; 1509.125;  210.525;    0.000
985.455; 1473.125;  193.525;    0.000
985.620; 1521.125;  207.525;    0.000
985.785; 1467.125;  188.525;    0.000
985.950; 1433.125;  168.525;    0.000
986.114; 1494.125;  239.525;    0.000
986.279; 1504.125;  223.525;    0.000
986.444; 1468.125;  154.525;    0.000
986.608; 1583.125;  232.525;    0.000
986.773; 1552.125;  214.525;    0.000
986.937; 1612.125;  220.525;    0.000
987.102; 1575.125;  224.525;    0.000
987.266; 1467.125;  157.525;    0.000
987.431; 1533.125;  246.525;    0.000
987.595; 1555.125;  203.525;    0.000
987.760; 1599.125;  202.525;    0.000
987.924; 1493.125;  208.525;    0.000
988.088; 1573.125;  169.525;    0.000
988.253; 1550.125;  237.525;    0.000
988.417; 1527.125;  202.525;    0.000
988.581; 1477.125;  215.525;    0.000
988.746; 1494.125;  210.525;    0.000
988.910; 1452.125;  191.525;    0.000
989.074; 1512.125;  197.525;    0.000
989.238; 1471.125;  191.525;    0.000
989.402; 1548.125;  222.525;    0.000
989.566; 1486.125;  221.525;    0.000
989.731; 1469.125;  216.525;    0.000
989.895; 1493.125;  183.525;    0.000
990.059; 1455.125;  150.525;    0.000
990.223; 1447.125;  183.525;    0.000
990.387; 1466.125;  241.525;    0.000
990.551; 1446.125;  198.525;    0.000
990.714; 1506.125;  176.525;    0.000
990.878; 1557.125;  203.525;    0.000
991.042; 1491.125;  146.525;    0.000
991.206; 1470.125;  199.525;    0.000
991.370; 1462.125;  223.525;    0.000
991.534; 1474.125;  158.525;    0.000
991.697; 1432.125;  182.525;    0.000
991.861; 1531.125;  195.525;    0.000
992.025; 1456.125;  206.525;    0.000
992.188; 1418.125;  174.525;    0.000
992.352; 1486.125;  183.525;    0.000
992.516; 1465.125;  181.525;    0.000
992.679; 1475.125;  162.525;    0.000
992.843; 1463.125;  173.525;    0.000
993.006; 1482.125;  189.525;    0.000
993.170; 1572.125;  200.525;    0.000
993.333; 1484.125;  167.525;    0.000
993.497; 1419.125;  217.525;    0.000
993.660; 1523.125;  179.525;    0.000
993.824; 1476.125;  195.525;    0.000
993.987; 1485.125;  186.525;    0.000
994.150; 1435.125;  164.525;    0.000
994.314; 1427.125;  215.525;    0.000
994.477; 1465.125;  186.525;    0.000
994.640; 1427.125;  192.525;    0.000
994.803; 1478.125;  215.525;    0.000
994.967; 1477.125;  208.525;    0.000
995.130; 1471.125;  196.525;    0.000
995.293; 1380.125;  221.525;    0.000
995.456; 1463.125;  164.525;    0.000
995.619; 1512.125;  224.525;    0.000
995.782; 1404.125;  184.525;    0.000
995.945; 1483.125;  220.525;    0.000
996.108; 1455.125;  187.525;    0.000
996.271; 1423.125;  192.525;    0.000
996.434; 1423.125;  162.525;    0.000
996.597; 1489.125;  148.525;    0.000
996.760; 1445.125;  186.525;    0.000
996.923; 1361.125;  154.525;    0.000
997.086; 1435.125;  156.525;    0.000
997.248; 1461.125;  215.525;    0.000
997.411; 1382.125;  160.525;    0.000
997.574; 1424.125;  159.525;    0.000
997.737; 1442.125;  179.525;    0.000
997.899; 1433.125;  184.525;    0.000
998.062; 1366.125;  180.525;    0.000
998.225; 1362.125;  168.525;    0.000
998.387; 1403.125;  192.525;    0.000
998.550; 1358.125;  178.525;    0.000
998.712; 1442.125;  192.525;    0.000
998.875; 1500.125;  230.525;    0.000
999.037; 1380.125;  200.525;    0.000
999.200; 1445.125;  196.525;    0.000
999.362; 1446.125;  173.525;    0.000
999.525; 1410.125;  196.525;    0.000
999.687; 1421.125;  159.525;    0.000
999.849; 1425.125;  180.525;    0.000
1000.012; 1346.125;  210.525;    0.000
1000.174; 1448.125;  175.525;    0.000
1000.336; 1492.125;  174.525;    0.000
1000.499; 1444.125;  180.525;    0.000
1000.661; 1456.125;  204.525;    0.000
1000.823; 1422.125;  181.525;    0.000
1000.985; 1445.125;  178.525;    0.000
1001.147; 1521.125;  215.525;    0.000
1001.309; 1397.125;  212.525;    0.000
1001.471; 1533.125;  192.525;    0.000
1001.633; 1568.125;  207.525;    0.000
1001.796; 1466.125;  211.525;    0.000
1001.958; 1480.125;  200.525;    0.000
1002.119; 1566.125;  210.525;    0.000
1002.281; 1606.125;  204.525;    0.000
1002.443; 1605.125;  230.525;    0.000
1002.605; 1768.125;  178.525;    0.000
1002.767; 1781.125;  228.525;    0.000
1002.929; 1836.125;  199.525;    0.000
1003.091; 1920.125;  220.525;    0.000
1003.252; 2030.125;  219.525;    0.000
1003.414; 2109.125;  213.525;    0.000
1003.576; 2166.125;  202.525;    0.000
1003.738; 2287.125;  184.525;    0.000
1003.899; 2403.125;  218.525;    0.000
1004.061; 2444.125;  210.525;    0.000
1004.222; 2574.125;  179.525;    0.000
1004.384; 2668.125;  183.525;    0.000
1004.546; 2747.125;  206.525;    0.000
1004.707; 2779.125;  191.525;    0.000
1004.869; 2781.125;  197.525;    0.000
1005.030; 2702.125;  186.525;    0.000
1005.191; 2551.125;  188.525;    0.000
1005.353; 2485.125;  215.525;    0.000
1005.514; 2439.125;  184.525;    0.000
1005.675; 2384.125;  209.525;    0.000
1005.837; 2318.125;  239.525;    0.000
1005.998; 2311.125;  218.525;    0.000
1006.159; 2208.125;  212.525;    0.000
1006.321; 2225.125;  220.525;    0.000
1006.482; 2355.125;  201.525;    0.000
1006.643; 2398.125;  222.525;    0.000
1006.804; 2373.125;  191.525;    0.000
1006.965; 2519.125;  214.525;    0.000
1007.126; 2616.125;  214.525;    0.000
1007.287; 2603.125;  243.525;    0.000
1007.448; 2552.125;  251.525;    0.000
1007.609; 2452.125;  244.525;    0.000
1007.770; 2375.125;  211.525;    0.000
1007.931; 2397.125;  225.525;    0.000
1008.092; 2501.125;  188.525;    0.000
1008.253; 2555.125;  224.525;    0.000
1008.414; 2539.125;  198.525;    0.000
1008.575; 2683.125;  244.525;    0.000
1008.736; 2574.125;  219.525;    0.000
1008.896; 2662.125;  206.525;    0.000
1009.057; 2559.125;  258.525;    0.000
1009.218; 2601.125;  209.525;    0.000
1009.379; 2521.125;  204.525;    0.000
1009.539; 2594.125;  242.525;    0.000
1009.700; 2666.125;  205.525;    0.000
1009.860; 2645.125;  211.525;    0.000
1010.021; 2582.125;  219.525;    0.000
1010.182; 2712.125;  206.525;    0.000
1010.342; 2630.125;  219.525;    0.000
1010.503; 2734.125;  231.525;    0.000
1010.663; 2876.125;  260.525;    0.000
1010.823; 2872.125;  200.525;    0.000
1010.984; 2913.125;  189.525;    0.000
1011.144; 2998.125;  234.525;    0.000
1011.305; 3066.125;  212.525;    0.000
1011.465; 3171.125;  202.525;    0.000
1011.625; 3291.125;  236.525;    0.000
1011.785; 3314.125;  203.525;    0.000
1011.946; 3216.125;  195.525;    0.000
1012.106; 3204.125;  176.525;    0.000
1012.266; 3235.125;  211.525;    0.000
1012.426; 3179.125;  244.525;    0.000
1012.586; 3150.125;  202.525;    0.000
1012.746; 3097.125;  234.525;    0.000
1012.906; 3089.125;  246.525;    0.000
1013.066; 3151.125;  232.525;    0.000
1013.226; 3209.125;  248.525;    0.000
1013.386; 3118.125;  231.525;    0.000
1013.546; 3042.125;  233.525;    0.000
1013.706; 3040.125;  211.525;    0.000
1013.866; 3121.125;  240.525;    0.000
1014.026; 3090.125;  188.525;    0.000
1014.186; 3102.125;  186.525;    0.000
1014.346; 2916.125;  203.525;    0.000
1014.505; 3141.125;  238.525;    0.000
1014.665; 3188.125;  206.525;    0.000
1014.825; 3124.125;  200.525;    0.000
1014.985; 3080.125;  215.525;    0.000
1015.144; 3187.125;  250.525;    0.000
1015.304; 3482.125;  195.525;    0.000
1015.464; 3341.125;  237.525;    0.000
1015.623; 3157.125;  232.525;    0.000
1015.783; 3559.125;  220.525;    0.000
1015.942; 3785.125;  219.525;    0.000
1016.102; 3804.125;  202.525;    0.000
1016.261; 3660.125;  225.525;    0.000
1016.420; 3900.125;  246.525;    0.000
1016.580; 4559.125;  226.525;    0.000
1016.739; 4406.125;  214.525;    0.000
1016.899; 4045.125;  205.525;    0.000
1017.058; 4063.125;  217.525;    0.000
1017.217; 4623.125;  199.525;    0.000
1017.376; 4349.125;  219.525;    0.000
1017.536; 3830.125;  209.525;    0.000
1017.695; 3864.125;  213.525;    0.000
1017.854; 3971.125;  187.525;    0.000
1018.013; 3921.125;  222.525;    0.000
1018.172; 3776.125;  204.525;    0.000
1018.331; 3638.125;  195.525;    0.000
1018.490; 3867.125;  213.525;    0.000
1018.649; 4253.125;  216.525;    0.000
1018.808; 4304.125;  227.525;    0.000
1018.967; 4147.125;  206.525;    0.000
1019.126; 4108.125;  206.525;    0.000
1019.285; 4359.125;  219.525;    0.000
1019.444; 4474.125;  218.525;    0.000
1019.603; 4187.125;  206.525;    0.000
1019.762; 3901.125;  189.525;    0.000
1019.921; 4031.125;  217.525;    0.000
1020.079; 4341.125;  200.525;    0.000
1020.238; 4436.125;  219.525;    0.000
1020.397; 4263.125;  227.525;    0.000
1020.555; 4066.125;  207.525;    0.000
1020.714; 4343.125;  253.525;    0.000
1020.873; 4434.125;  230.525;    0.000
1021.031; 4403.125;  232.525;    0.000
1021.190; 4209.125;  226.525;    0.000
1021.348; 4196.125;  224.525;    0.000
1021.507; 4597.125;  215.525;    0.000
1021.665; 4886.125;  233.525;    0.000
1021.824; 4415.125;  196.525;    0.000
1021.982; 4280.125;  215.525;    0.000
1022.141; 4391.125;  200.525;    0.000
1022.299; 4852.125;  200.525;    0.000
1022.457; 4906.125;  179.525;    0.000
1022.616; 4491.125;  226.525;    0.000
1022.774; 4241.125;  216.525;    0.000
1022.932; 4567.125;  212.525;    0.000
1023.090; 4997.125;  220.525;    0.000
1023.249; 4976.125;  194.525;    0.000
1023.407; 4667.125;  227.525;    0.000
1023.565; 4284.125;  190.525;    0.000
1023.723; 4663.125;  190.525;    0.000
1023.881; 5126.125;  214.525;    0.000
1024.039; 4993.125;  179.525;    0.000
1024.197; 4745.125;  274.525;    0.000
1024.355; 4515.125;  269.525;    0.000
1024.513; 4675.125;  259.525;    0.000
1024.671; 5192.125;  211.525;    0.000
1024.829; 5028.125;  230.525;    0.000
1024.987; 4700.125;  239.525;    0.000
1025.145; 4525.125;  231.525;    0.000
1025.302; 4781.125;  212.525;    0.000
1025.460; 5211.125;  224.525;    0.000
1025.618; 5243.125;  217.525;    0.000
1025.776; 4985.125;  232.525;    0.000
1025.933; 4636.125;  212.525;    0.000
1026.091; 4730.125;  214.525;    0.000
1026.249; 5235.125;  224.525;    0.000
1026.406; 5459.125;  219.525;    0.000
1026.564; 5084.125;  262.525;    0.000
1026.721; 4787.125;  206.525;    0.000
1026.879; 4718.125;  227.525;    0.000
1027.036; 5119.125;  234.525;    0.000
1027.194; 5549.125;  256.525;    0.000
1027.351; 5543.125;  229.525;    0.000
1027.509; 5107.125;  253.525;    0.000
1027.666; 5020.125;  248.525;    0.000
1027.823; 5151.125;  215.525;    0.000
1027.981; 5452.125;  248.525;    0.000
1028.138; 5587.125;  257.525;    0.000
1028.295; 5197.125;  215.525;    0.000
1028.452; 4909.125;  236.525;    0.000
1028.609; 5023.125;  240.525;    0.000
1028.767; 5575.125;  258.525;    0.000
1028.924; 5721.125;  211.525;    0.000
1029.081; 5604.125;  226.525;    0.000
1029.238; 5394.125;  228.525;    0.000
1029.395; 5093.125;  264.525;    0.000
1029.552; 5351.125;  227.525;    0.000
1029.709; 5544.125;  232.525;    0.000
1029.866; 5965.125;  223.525;    0.000
1030.023; 5728.125;  220.525;    0.000
1030.180; 5114.125;  222.525;    0.000
1030.337; 5203.125;  224.525;    0.000
1030.494; 5481.125;  228.525;    0.000
1030.650; 5508.125;  242.525;    0.000
1030.807; 6087.125;  214.525;    0.000
1030.964; 5638.125;  207.525;    0.000
1031.121; 5459.125;  236.525;    0.000
1031.277; 5294.125;  206.525;    0.000
1031.434; 5509.125;  249.525;    0.000
1031.591; 5873.125;  253.525;    0.000
1031.747; 5968.125;  240.525;    0.000
1031.904; 6159.125;  212.525;    0.000
1032.060; 5830.125;  185.525;    0.000
1032.217; 5756.125;  201.525;    0.000
1032.373; 6102.125;  207.525;    0.000
1032.530; 6201.125;  226.525;    0.000
1032.686; 6999.125;  226.525;    0.000
1032.843; 6934.125;  203.525;    0.000
1032.999; 6761.125;  233.525;    0.000
1033.155; 6848.125;  232.525;    0.000
1033.312; 6838.125;  239.525;    0.000
1033.468; 7613.125;  207.525;    0.000
1033.624; 8008.125;  238.525;    0.000
1033.780; 8552.125;  255.525;    0.000
1033.937; 8339.125;  188.525;    0.000
1034.093; 8188.125;  244.525;    0.000
1034.249; 8166.125;  182.525;    0.000
1034.405; 7709.125;  251.525;    0.000
1034.561; 8461.125;  250.525;    0.000
1034.717; 8591.125;  208.525;    0.000
1034.873; 8765.125;  210.525;    0.000
1035.029; 9308.125;  245.525;    0.000
1035.185; 8732.125;  230.525;    0.000
1035.341; 8660.125;  209.525;    0.000
1035.497; 8825.125;  244.525;    0.000
1035.653; 9102.125;  229.525;    0.000
1035.809; 9787.125;  275.525;    0.000
1035.964;10397.125;  203.525;    0.000
1036.120; 9973.125;  215.525;    0.000
1036.276;10246.125;  228.525;    0.000
1036.432;10126.125;  183.525;    0.000
1036.587; 9653.125;  214.525;    0.000
1036.743; 9790.125;  240.525;    0.000
1036.899;10522.125;  202.525;    0.000
1037.054;10302.125;  182.525;    0.000
1037.210;11736.125;  228.525;    0.000
1037.365;12240.125;  239.525;    0.000
1037.521;11646.125;  230.525;    0.000
1037.676;11184.125;  217.525;    0.000
1037.832;10564.125;  235.525;    0.000
1037.987;10571.125;  210.525;    0.000
1038.143;10459.125;  206.525;    0.000
1038.298;12094.125;  177.525;    0.000
1038.453;11847.125;  215.525;    0.000
1038.609;13301.125;  210.525;    0.000
1038.764;13835.125;  227.525;    0.000
1038.919;12859.125;  197.525;    0.000
1039.074;12748.125;  183.525;    0.000
1039.229;11649.125;  218.525;    0.000
1039.385;11470.125;  251.525;    0.000
1039.540;11273.125;  222.525;    0.000
1039.695;12795.125;  215.525;    0.000
1039.850;14197.125;  204.525;    0.000
1040.005;14966.125;  241.525;    0.000
1040.160;15478.125;  180.525;    0.000
1040.315;15326.125;  197.525;    0.000
1040.470;14505.125;  180.525;    0.000
1040.625;13908.125;  196.525;    0.000
1040.780;13572.125;  245.525;    0.000
1040.935;13442.125;  204.525;    0.000
1041.089;14030.125;  213.525;    0.000
1041.244;16026.125;  200.525;    0.000
1041.399;17443.125;  212.525;    0.000
1041.554;18673.125;  239.525;    0.000
1041.708;19976.125;  238.525;    0.000
1041.863;19390.125;  213.525;    0.000
1042.018;18616.125;  236.525;    0.000
1042.172;17467.125;  238.525;    0.000
1042.327;17266.125;  254.525;    0.000
1042.481;17255.125;  197.525;    0.000
1042.636;17144.125;  205.525;    0.000
1042.791;17351.125;  218.525;    0.000
1042.945;20731.125;  261.525;    0.000
1043.099;23656.125;  201.525;    0.000
1043.254;22161.125;  191.525;    0.000
1043.408;23301.125;  279.525;    0.000
1043.563;25115.125;  203.525;    0.000
1043.717;23121.125;  229.525;    0.000
1043.871;20941.125;  213.525;    0.000
1044.025;20596.125;  240.525;    0.000
1044.180;21300.125;  220.525;    0.000
1044.334;20925.125;  268.525;    0.000
1044.488;21068.125;  261.525;    0.000
1044.642;22588.125;  205.525;    0.000
1044.796;25559.125;  240.525;    0.000
1044.950;29001.125;  258.525;    0.000
1045.104;30988.125;  218.525;    0.000
1045.258;31347.125;  213.525;    0.000
1045.412;29991.125;  223.525;    0.000
1045.566;30793.125;  240.525;    0.000
1045.720;28658.125;  235.525;    0.000
1045.874;26081.125;  221.525;    0.000
1046.028;24669.125;  247.525;    0.000
1046.182;23491.125;  200.525;    0.000
1046.336;24846.125;  220.525;    0.000
1046.489;25982.125;  228.525;    0.000
1046.643;27156.125;  249.525;    0.000
1046.797;29552.125;  230.525;    0.000
1046.951;30653.125;  234.525;    0.000
1047.104;31986.125;  262.525;    0.000
1047.258;33138.125;  210.525;    0.000
1047.411;34233.125;  235.525;    0.000
1047.565;33539.125;  237.525;    0.000
1047.719;33630.125;  237.525;    0.000
1047.872;32150.125;  225.525;    0.000
1048.026;29802.125;  237.525;    0.000
1048.179;29920.125;  220.525;    0.000
1048.332;29487.125;  219.525;    0.000
1048.486;29094.125;  195.525;    0.000
1048.639;29954.125;  213.525;    0.000
1048.792;30556.125;  245.525;    0.000
1048.946;34003.125;  234.525;    0.000
1049.099;35835.125;  226.525;    0.000
1049.252;35956.125;  282.525;    0.000
1049.406;34158.125;  255.525;    0.000
1049.559;36787.125;  223.525;    0.000
1049.712;41309.125;  253.525;    0.000
1049.865;41393.125;  271.525;    0.000
1050.018;40841.125;  241.525;    0.000
1050.171;35452.125;  202.525;    0.000
1050.324;35685.125;  250.525;    0.000
1050.477;38764.125;  251.525;    0.000
1050.630;41220.125;  216.525;    0.000
1050.783;41834.125;  205.525;    0.000
1050.936;37623.125;  219.525;    0.000
1051.089;36886.125;  247.525;    0.000
1051.242;38501.125;  238.525;    0.000
1051.394;42527.125;  252.525;    0.000
1051.547;43172.125;  245.525;    0.000
1051.700;42091.125;  206.525;    0.000
1051.853;40962.125;  270.525;    0.000
1052.005;43288.125;  245.525;    0.000
1052.158;48837.125;  290.525;    0.000
1052.311;52047.125;  237.525;    0.000
1052.463;50447.125;  271.525;    0.000
1052.616;45722.125;  255.525;    0.000
1052.768;40663.125;  257.525;    0.000
1052.921;39726.125;  289.525;    0.000
1053.073;42567.125;  287.525;    0.000
1053.226;47953.125;  268.525;    0.000
1053.378;53724.125;  294.525;    0.000
1053.531;56199.125;  255.525;    0.000
1053.683;52874.125;  293.525;    0.000
1053.835;45023.125;  274.525;    0.000
1053.988;36550.125;  282.525;    0.000
1054.140; 6529.125;  291.525;    0.000
1054.292; 1541.125;  292.525;    0.000
1054.444; 1280.125;  299.525;    0.000
1054.596; 1177.125;  319.525;    0.000
1054.749; 1010.125;  295.525;    0.000
1054.901;  992.125;  266.525;    0.000
1055.053;  924.125;  300.525;    0.000
1055.205;  815.125;  290.525;    0.000
1055.357;  822.125;  304.525;    0.000
1055.509;  728.125;  292.525;    0.000
1055.661;  755.125;  339.525;    0.000
1055.813;  709.125;  306.525;    0.000
1055.965;  749.125;  293.525;    0.000
1056.116;  718.125;  300.525;    0.000
1056.268;  679.125;  306.525;    0.000
1056.420;  739.125;  288.525;    0.000

