
Integration time [ms]:   0.300
Averaging Nr. [scans]: 1
Smoothing Nr. [pixels]: 0
Data measured with spectrometer [name]: UV2
Wave   ;Sample   ;Dark     ;Reference
[nm]   ;[counts] ;[counts] ;[counts] 

353.533;  259.275;  178.050;    0.000
353.597;  246.275;  251.050;    0.000
353.660;  215.275;  213.050;    0.000
353.723;  145.275;  185.050;    0.000
353.786;  207.275;  191.050;    0.000
353.850;  218.275;  238.050;    0.000
353.913;  153.275;  181.050;    0.000
353.976;  224.275;  190.050;    0.000
354.039;  183.275;  184.050;    0.000
354.102;  238.275;  231.050;    0.000
354.166;  187.275;  188.050;    0.000
354.229;  221.275;  224.050;    0.000
354.292;  154.275;  186.050;    0.000
354.355;  218.275;  175.050;    0.000
354.418;  165.275;  191.050;    0.000
354.481;  212.275;  181.050;    0.000
354.545;  649.275;  193.050;    0.000
354.608;  671.275;  210.050;    0.000
354.671;  569.275;  183.050;    0.000
354.734;  673.275;  189.050;    0.000
354.797;  656.275;  168.050;    0.000
354.860;  653.275;  178.050;    0.000
354.923;  622.275;  236.050;    0.000
354.986;  643.275;  181.050;    0.000
355.050;  665.275;  168.050;    0.000
355.113;  678.275;  201.050;    0.000
355.176;  721.275;  206.050;    0.000
355.239;  705.275;  213.050;    0.000
355.302;  704.275;  198.050;    0.000
355.365;  775.275;  199.050;    0.000
355.428;  789.275;  200.050;    0.000
355.491;  795.275;  232.050;    0.000
355.554;  703.275;  184.050;    0.000
355.617;  810.275;  214.050;    0.000
355.680;  764.275;  191.050;    0.000
355.743;  757.275;  161.050;    0.000
355.806;  744.275;  153.050;    0.000
355.869;  858.275;  221.050;    0.000
355.932;  823.275;  152.050;    0.000
355.995;  870.275;  195.050;    0.000
356.058;  805.275;  172.050;    0.000
356.121;  816.275;  186.050;    0.000
356.184;  875.275;  196.050;    0.000
356.247;  836.275;  183.050;    0.000
356.310;  823.275;  159.050;    0.000
356.373;  851.275;  183.050;    0.000
356.436;  824.275;  176.050;    0.000
356.498;  860.275;  191.050;    0.000
356.561;  818.275;  145.050;    0.000
356.624;  832.275;  187.050;    0.000
356.687;  854.275;  181.050;    0.000
356.750;  866.275;  227.050;    0.000
356.813;  816.275;  147.050;    0.000
356.876;  851.275;  184.050;    0.000
356.939;  804.275;  141.050;    0.000
357.001;  899.275;  188.050;    0.000
357.064;  887.275;  173.050;    0.000
357.127;  846.275;  159.050;    0.000
357.190;  858.275;  185.050;    0.000
357.253;  886.275;  180.050;    0.000
357.316;  918.275;  199.050;    0.000
357.378;  870.275;  196.050;    0.000
357.441;  859.275;  175.050;    0.000
357.504;  903.275;  164.050;    0.000
357.567;  853.275;  145.050;    0.000
357.629;  881.275;  205.050;    0.000
357.692;  839.275;  175.050;    0.000
357.755;  924.275;  205.050;    0.000
357.818;  856.275;  141.050;    0.000
357.880;  927.275;  170.050;    0.000
357.943;  861.275;  152.050;    0.000
358.006;  888.275;  145.050;    0.000
358.069;  930.275;  164.050;    0.000
358.131;  892.275;  148.050;    0.000
358.194;  876.275;  122.050;    0.000
358.257;  917.275;  147.050;    0.000
358.319;  874.275;  156.050;    0.000
358.382;  899.275;  193.050;    0.000
358.445;  880.275;  155.050;    0.000
358.507;  958.275;  160.050;    0.000
358.570;  937.275;  159.050;    0.000
358.633;  905.275;  163.050;    0.000
358.695;  920.275;  174.050;    0.000
358.758;  952.275;  127.050;    0.000
358.821;  937.275;  165.050;    0.000
358.883;  905.275;  145.050;    0.000
358.946;  955.275;  127.050;    0.000
359.008;  934.275;  180.050;    0.000
359.071;  968.275;  173.050;    0.000
359.134;  929.275;  150.050;    0.000
359.196;  969.275;  158.050;    0.000
359.259;  924.275;  159.050;    0.000
359.321;  993.275;  159.050;    0.000
359.384;  892.275;  182.050;    0.000
359.446;  889.275;  140.050;    0.000
359.509;  989.275;  146.050;    0.000
359.571;  920.275;  133.050;    0.000
359.634;  935.275;   93.050;    0.000
359.696;  978.275;  142.050;    0.000
359.759;  975.275;  161.050;    0.000
359.821;  965.275;  110.050;    0.000
359.884;  956.275;  114.050;    0.000
359.946; 1050.275;  180.050;    0.000
360.009;  993.275;  158.050;    0.000
360.071;  994.275;  116.050;    0.000
360.134;  949.275;  170.050;    0.000
360.196;  956.275;  128.050;    0.000
360.259;  973.275;  157.050;    0.000
360.321;  971.275;  122.050;    0.000
360.384;  971.275;  119.050;    0.000
360.446; 1005.275;  122.050;    0.000
360.508;  990.275;  195.050;    0.000
360.571; 1059.275;  128.050;    0.000
360.633;  996.275;  172.050;    0.000
360.696;  960.275;  115.050;    0.000
360.758; 1001.275;  162.050;    0.000
360.820;  937.275;  149.050;    0.000
360.883;  988.275;  151.050;    0.000
360.945; 1040.275;  149.050;    0.000
361.007;  998.275;  135.050;    0.000
361.070;  979.275;  162.050;    0.000
361.132; 1047.275;  198.050;    0.000
361.194; 1010.275;  141.050;    0.000
361.257;  978.275;  154.050;    0.000
361.319; 1037.275;  147.050;    0.000
361.381; 1060.275;  154.050;    0.000
361.443;  974.275;  144.050;    0.000
361.506; 1043.275;  164.050;    0.000
361.568;  985.275;  148.050;    0.000
361.630; 1039.275;  127.050;    0.000
361.693;  990.275;  158.050;    0.000
361.755; 1087.275;  161.050;    0.000
361.817; 1080.275;  173.050;    0.000
361.879; 1101.275;  159.050;    0.000
361.941; 1080.275;  153.050;    0.000
362.004; 1073.275;  148.050;    0.000
362.066; 1002.275;  150.050;    0.000
362.128; 1034.275;  132.050;    0.000
362.190; 1073.275;  207.050;    0.000
362.252; 1076.275;  142.050;    0.000
362.315; 1061.275;  153.050;    0.000
362.377; 1027.275;  164.050;    0.000
362.439; 1023.275;  155.050;    0.000
362.501; 1075.275;  157.050;    0.000
362.563; 1084.275;  188.050;    0.000
362.625; 1085.275;  194.050;    0.000
362.688; 1034.275;  159.050;    0.000
362.750; 1094.275;  205.050;    0.000
362.812; 1036.275;  148.050;    0.000
362.874; 1030.275;  173.050;    0.000
362.936; 1101.275;  152.050;    0.000
362.998; 1025.275;  145.050;    0.000
363.060; 1077.275;  184.050;    0.000
363.122; 1170.275;  147.050;    0.000
363.184; 1091.275;  136.050;    0.000
363.246; 1115.275;  171.050;    0.000
363.308; 1091.275;  154.050;    0.000
363.370; 1153.275;  175.050;    0.000
363.432; 1103.275;  139.050;    0.000
363.494; 1058.275;  163.050;    0.000
363.556; 1064.275;  117.050;    0.000
363.618; 1070.275;  126.050;    0.000
363.680; 1063.275;  147.050;    0.000
363.742; 1118.275;  161.050;    0.000
363.804; 1127.275;  159.050;    0.000
363.866; 1094.275;  170.050;    0.000
363.928; 1055.275;  122.050;    0.000
363.990; 1102.275;  167.050;    0.000
364.052; 1141.275;  180.050;    0.000
364.114; 1102.275;  119.050;    0.000
364.176; 1097.275;  184.050;    0.000
364.238; 1112.275;  180.050;    0.000
364.300; 1111.275;  159.050;    0.000
364.362; 1101.275;  163.050;    0.000
364.424; 1115.275;  139.050;    0.000
364.486; 1111.275;  189.050;    0.000
364.548; 1134.275;  167.050;    0.000
364.609; 1110.275;  165.050;    0.000
364.671; 1165.275;  171.050;    0.000
364.733; 1086.275;  165.050;    0.000
364.795; 1044.275;  122.050;    0.000
364.857; 1089.275;  147.050;    0.000
364.919; 1065.275;  104.050;    0.000
364.981; 1101.275;  143.050;    0.000
365.042; 1145.275;  166.050;    0.000
365.104; 1150.275;  162.050;    0.000
365.166; 1041.275;  155.050;    0.000
365.228; 1109.275;  179.050;    0.000
365.290; 1093.275;  133.050;    0.000
365.351; 1105.275;  142.050;    0.000
365.413; 1163.275;  144.050;    0.000
365.475; 1081.275;  139.050;    0.000
365.537; 1143.275;  181.050;    0.000
365.598; 1189.275;  166.050;    0.000
365.660; 1125.275;  130.050;    0.000
365.722; 1084.275;  177.050;    0.000
365.784; 1119.275;  149.050;    0.000
365.845; 1128.275;  156.050;    0.000
365.907; 1103.275;  122.050;    0.000
365.969; 1161.275;  140.050;    0.000
366.030; 1162.275;  156.050;    0.000
366.092; 1148.275;  140.050;    0.000
366.154; 1146.275;  169.050;    0.000
366.215; 1128.275;  170.050;    0.000
366.277; 1135.275;  143.050;    0.000
366.339; 1141.275;  139.050;    0.000
366.400; 1148.275;  139.050;    0.000
366.462; 1111.275;  140.050;    0.000
366.524; 1140.275;  150.050;    0.000
366.585; 1124.275;  163.050;    0.000
366.647; 1191.275;  193.050;    0.000
366.708; 1156.275;  135.050;    0.000
366.770; 1134.275;  165.050;    0.000
366.832; 1148.275;  168.050;    0.000
366.893; 1166.275;  157.050;    0.000
366.955; 1210.275;  132.050;    0.000
367.016; 1136.275;  127.050;    0.000
367.078; 1155.275;  146.050;    0.000
367.139; 1130.275;  129.050;    0.000
367.201; 1185.275;  148.050;    0.000
367.262; 1139.275;  165.050;    0.000
367.324; 1154.275;  171.050;    0.000
367.385; 1150.275;  118.050;    0.000
367.447; 1207.275;  144.050;    0.000
367.508; 1195.275;  135.050;    0.000
367.570; 1194.275;  160.050;    0.000
367.631; 1211.275;  157.050;    0.000
367.693; 1223.275;  168.050;    0.000
367.754; 1196.275;  139.050;    0.000
367.816; 1184.275;  141.050;    0.000
367.877; 1225.275;  195.050;    0.000
367.939; 1204.275;  166.050;    0.000
368.000; 1204.275;  127.050;    0.000
368.062; 1152.275;  143.050;    0.000
368.123; 1278.275;  156.050;    0.000
368.184; 1163.275;  179.050;    0.000
368.246; 1202.275;  168.050;    0.000
368.307; 1220.275;  203.050;    0.000
368.369; 1136.275;  149.050;    0.000
368.430; 1205.275;  121.050;    0.000
368.491; 1188.275;  131.050;    0.000
368.553; 1221.275;  161.050;    0.000
368.614; 1160.275;  157.050;    0.000
368.675; 1164.275;  152.050;    0.000
368.737; 1167.275;  168.050;    0.000
368.798; 1268.275;  147.050;    0.000
368.859; 1229.275;  174.050;    0.000
368.921; 1220.275;  168.050;    0.000
368.982; 1216.275;  151.050;    0.000
369.043; 1216.275;  169.050;    0.000
369.104; 1214.275;  149.050;    0.000
369.166; 1203.275;  178.050;    0.000
369.227; 1154.275;  149.050;    0.000
369.288; 1184.275;  131.050;    0.000
369.349; 1240.275;  128.050;    0.000
369.411; 1201.275;  198.050;    0.000
369.472; 1234.275;  156.050;    0.000
369.533; 1127.275;  142.050;    0.000
369.594; 1194.275;  125.050;    0.000
369.656; 1198.275;  153.050;    0.000
369.717; 1171.275;  124.050;    0.000
369.778; 1183.275;  163.050;    0.000
369.839; 1212.275;  130.050;    0.000
369.900; 1261.275;  170.050;    0.000
369.961; 1281.275;  142.050;    0.000
370.023; 1280.275;  197.050;    0.000
370.084; 1290.275;  151.050;    0.000
370.145; 1212.275;  128.050;    0.000
370.206; 1229.275;  152.050;    0.000
370.267; 1211.275;  154.050;    0.000
370.328; 1196.275;  154.050;    0.000
370.389; 1269.275;  173.050;    0.000
370.451; 1218.275;  191.050;    0.000
370.512; 1259.275;  155.050;    0.000
370.573; 1230.275;  134.050;    0.000
370.634; 1302.275;  160.050;    0.000
370.695; 1191.275;  124.050;    0.000
370.756; 1259.275;  169.050;    0.000
370.817; 1242.275;  169.050;    0.000
370.878; 1243.275;  200.050;    0.000
370.939; 1227.275;  157.050;    0.000
371.000; 1228.275;  131.050;    0.000
371.061; 1256.275;  136.050;    0.000
371.122; 1281.275;  176.050;    0.000
371.183; 1190.275;   81.050;    0.000
371.244; 1270.275;  156.050;    0.000
371.305; 1194.275;  131.050;    0.000
371.366; 1276.275;  161.050;    0.000
371.427; 1203.275;  127.050;    0.000
371.488; 1269.275;  184.050;    0.000
371.549; 1265.275;  159.050;    0.000
371.610; 1245.275;  147.050;    0.000
371.671; 1284.275;  132.050;    0.000
371.732; 1272.275;  163.050;    0.000
371.793; 1281.275;  179.050;    0.000
371.853; 1239.275;  179.050;    0.000
371.914; 1271.275;  149.050;    0.000
371.975; 1240.275;  117.050;    0.000
372.036; 1284.275;  141.050;    0.000
372.097; 1325.275;  101.050;    0.000
372.158; 1272.275;  115.050;    0.000
372.219; 1284.275;  174.050;    0.000
372.280; 1316.275;  134.050;    0.000
372.340; 1282.275;  180.050;    0.000
372.401; 1259.275;  166.050;    0.000
372.462; 1386.275;  171.050;    0.000
372.523; 1250.275;  132.050;    0.000
372.584; 1286.275;  182.050;    0.000
372.645; 1227.275;  149.050;    0.000
372.705; 1286.275;  182.050;    0.000
372.766; 1269.275;  145.050;    0.000
372.827; 1283.275;  161.050;    0.000
372.888; 1249.275;  156.050;    0.000
372.948; 1274.275;  158.050;    0.000
373.009; 1301.275;  178.050;    0.000
373.070; 1289.275;  166.050;    0.000
373.131; 1308.275;  154.050;    0.000
373.191; 1355.275;  193.050;    0.000
373.252; 1243.275;  148.050;    0.000
373.313; 1237.275;  152.050;    0.000
373.373; 1319.275;  156.050;    0.000
373.434; 1358.275;  166.050;    0.000
373.495; 1252.275;  152.050;    0.000
373.555; 1320.275;  145.050;    0.000
373.616; 1257.275;  141.050;    0.000
373.677; 1302.275;  169.050;    0.000
373.737; 1315.275;  166.050;    0.000
373.798; 1338.275;  151.050;    0.000
373.859; 1312.275;  170.050;    0.000
373.919; 1361.275;  206.050;    0.000
373.980; 1285.275;  140.050;    0.000
374.041; 1268.275;  148.050;    0.000
374.101; 1243.275;  165.050;    0.000
374.162; 1288.275;  166.050;    0.000
374.222; 1291.275;  156.050;    0.000
374.283; 1315.275;  161.050;    0.000
374.343; 1342.275;  185.050;    0.000
374.404; 1348.275;  148.050;    0.000
374.465; 1286.275;  162.050;    0.000
374.525; 1278.275;  177.050;    0.000
374.586; 1326.275;  164.050;    0.000
374.646; 1333.275;  180.050;    0.000
374.707; 1396.275;  203.050;    0.000
374.767; 1437.275;  148.050;    0.000
374.828; 1349.275;  142.050;    0.000
374.888; 1327.275;  187.050;    0.000
374.949; 1387.275;  137.050;    0.000
375.009; 1394.275;  155.050;    0.000
375.070; 1407.275;  165.050;    0.000
375.130; 1367.275;  168.050;    0.000
375.190; 1382.275;  157.050;    0.000
375.251; 1426.275;  206.050;    0.000
375.311; 1319.275;  141.050;    0.000
375.372; 1388.275;  144.050;    0.000
375.432; 1406.275;  153.050;    0.000
375.493; 1409.275;  168.050;    0.000
375.553; 1319.275;  146.050;    0.000
375.613; 1364.275;  142.050;    0.000
375.674; 1418.275;  153.050;    0.000
375.734; 1407.275;  166.050;    0.000
375.794; 1285.275;  145.050;    0.000
375.855; 1420.275;  162.050;    0.000
375.915; 1370.275;  162.050;    0.000
375.975; 1311.275;  144.050;    0.000
376.036; 1386.275;  128.050;    0.000
376.096; 1371.275;  122.050;    0.000
376.156; 1316.275;  140.050;    0.000
376.217; 1371.275;  158.050;    0.000
376.277; 1438.275;  163.050;    0.000
376.337; 1399.275;  139.050;    0.000
376.398; 1404.275;  176.050;    0.000
376.458; 1388.275;  143.050;    0.000
376.518; 1376.275;  136.050;    0.000
376.578; 1389.275;  177.050;    0.000
376.639; 1344.275;  163.050;    0.000
376.699; 1394.275;  183.050;    0.000
376.759; 1420.275;  169.050;    0.000
376.819; 1394.275;  147.050;    0.000
376.880; 1363.275;  188.050;    0.000
376.940; 1438.275;  185.050;    0.000
377.000; 1375.275;  131.050;    0.000
377.060; 1404.275;  182.050;    0.000
377.120; 1405.275;  165.050;    0.000
377.180; 1338.275;  169.050;    0.000
377.241; 1345.275;  146.050;    0.000
377.301; 1438.275;  183.050;    0.000
377.361; 1386.275;  124.050;    0.000
377.421; 1341.275;  186.050;    0.000
377.481; 1399.275;  178.050;    0.000
377.541; 1341.275;  140.050;    0.000
377.601; 1389.275;  175.050;    0.000
377.661; 1391.275;  169.050;    0.000
377.722; 1455.275;  144.050;    0.000
377.782; 1370.275;  182.050;    0.000
377.842; 1451.275;  161.050;    0.000
377.902; 1413.275;  151.050;    0.000
377.962; 1424.275;  134.050;    0.000
378.022; 1390.275;  153.050;    0.000
378.082; 1489.275;  178.050;    0.000
378.142; 1430.275;  118.050;    0.000
378.202; 1517.275;  153.050;    0.000
378.262; 1570.275;  166.050;    0.000
378.322; 1517.275;  174.050;    0.000
378.382; 1503.275;  148.050;    0.000
378.442; 1543.275;  190.050;    0.000
378.502; 1425.275;  136.050;    0.000
378.562; 1425.275;  130.050;    0.000
378.622; 1499.275;  188.050;    0.000
378.682; 1508.275;  163.050;    0.000
378.742; 1432.275;  150.050;    0.000
378.802; 1457.275;  127.050;    0.000
378.862; 1571.275;  186.050;    0.000
378.921; 1460.275;  203.050;    0.000
378.981; 1528.275;  177.050;    0.000
379.041; 1470.275;  134.050;    0.000
379.101; 1515.275;  167.050;    0.000
379.161; 1472.275;  130.050;    0.000
379.221; 1470.275;  169.050;    0.000
379.281; 1582.275;  162.050;    0.000
379.341; 1545.275;  134.050;    0.000
379.401; 1516.275;  151.050;    0.000
379.460; 1534.275;  190.050;    0.000
379.520; 1475.275;  158.050;    0.000
379.580; 1519.275;  162.050;    0.000
379.640; 1607.275;  146.050;    0.000
379.700; 1566.275;  167.050;    0.000
379.759; 1609.275;  194.050;    0.000
379.819; 1496.275;  176.050;    0.000
379.879; 1514.275;  140.050;    0.000
379.939; 1568.275;  184.050;    0.000
379.999; 1565.275;  165.050;    0.000
380.058; 1561.275;  194.050;    0.000
380.118; 1550.275;  137.050;    0.000
380.178; 1643.275;  139.050;    0.000
380.237; 1628.275;  139.050;    0.000
380.297; 1649.275;  160.050;    0.000
380.357; 1701.275;  194.050;    0.000
380.417; 1571.275;  174.050;    0.000
380.476; 1592.275;  153.050;    0.000
380.536; 1636.275;  169.050;    0.000
380.596; 1597.275;  159.050;    0.000
380.655; 1661.275;  178.050;    0.000
380.715; 1622.275;  196.050;    0.000
380.775; 1668.275;  202.050;    0.000
380.834; 1686.275;  186.050;    0.000
380.894; 1663.275;  167.050;    0.000
380.954; 1661.275;  150.050;    0.000
381.013; 1717.275;  187.050;    0.000
381.073; 1646.275;  114.050;    0.000
381.132; 1627.275;  176.050;    0.000
381.192; 1664.275;  197.050;    0.000
381.252; 1665.275;  172.050;    0.000
381.311; 1765.275;  155.050;    0.000
381.371; 1767.275;  172.050;    0.000
381.430; 1670.275;  143.050;    0.000
381.490; 1738.275;  136.050;    0.000
381.549; 1797.275;  131.050;    0.000
381.609; 1747.275;  203.050;    0.000
381.668; 1766.275;  135.050;    0.000
381.728; 1703.275;  163.050;    0.000
381.787; 1697.275;  195.050;    0.000
381.847; 1797.275;  185.050;    0.000
381.906; 1778.275;  187.050;    0.000
381.966; 1777.275;  153.050;    0.000
382.025; 1866.275;  175.050;    0.000
382.085; 1857.275;  195.050;    0.000
382.144; 1951.275;  210.050;    0.000
382.204; 1905.275;  201.050;    0.000
382.263; 1969.275;  178.050;    0.000
382.323; 1951.275;  151.050;    0.000
382.382; 1993.275;  147.050;    0.000
382.441; 1982.275;  144.050;    0.000
382.501; 2109.275;  156.050;    0.000
382.560; 2047.275;  160.050;    0.000
382.619; 2158.275;  173.050;    0.000
382.679; 2235.275;  167.050;    0.000
382.738; 2295.275;  189.050;    0.000
382.798; 2463.275;  181.050;    0.000
382.857; 2550.275;  161.050;    0.000
382.916; 2769.275;  162.050;    0.000
382.976; 2772.275;  169.050;    0.000
383.035; 2810.275;  174.050;    0.000
383.094; 2854.275;  178.050;    0.000
383.154; 3231.275;  188.050;    0.000
383.213; 3517.275;  162.050;    0.000
383.272; 3300.275;  144.050;    0.000
383.331; 2899.275;  144.050;    0.000
383.391; 2711.275;  198.050;    0.000
383.450; 2662.275;  185.050;    0.000
383.509; 2687.275;  132.050;    0.000
383.568; 2800.275;  171.050;    0.000
383.628; 2896.275;  171.050;    0.000
383.687; 3016.275;  172.050;    0.000
383.746; 3535.275;  144.050;    0.000
383.805; 4026.275;  177.050;    0.000
383.864; 3994.275;  145.050;    0.000
383.924; 3208.275;  203.050;    0.000
383.983; 2714.275;  153.050;    0.000
384.042; 2524.275;  171.050;    0.000
384.101; 2385.275;  186.050;    0.000
384.160; 2209.275;  132.050;    0.000
384.219; 2114.275;  157.050;    0.000
384.279; 2107.275;  166.050;    0.000
384.338; 2100.275;  141.050;    0.000
384.397; 2027.275;  142.050;    0.000
384.456; 1983.275;  155.050;    0.000
384.515; 1987.275;  158.050;    0.000
384.574; 1938.275;  208.050;    0.000
384.633; 1912.275;  158.050;    0.000
384.692; 1910.275;  162.050;    0.000
384.751; 1946.275;  179.050;    0.000
384.810; 1928.275;  150.050;    0.000
384.869; 1827.275;  147.050;    0.000
384.929; 1858.275;  132.050;    0.000
384.988; 1907.275;  166.050;    0.000
385.047; 1807.275;  161.050;    0.000
385.106; 1946.275;  180.050;    0.000
385.165; 1846.275;  123.050;    0.000
385.224; 1887.275;  153.050;    0.000
385.283; 1892.275;  158.050;    0.000
385.342; 1850.275;  184.050;    0.000
385.401; 1961.275;  191.050;    0.000
385.459; 1843.275;  143.050;    0.000
385.518; 1866.275;  152.050;    0.000
385.577; 1842.275;  134.050;    0.000
385.636; 1853.275;  187.050;    0.000
385.695; 1737.275;  141.050;    0.000
385.754; 1812.275;  143.050;    0.000
385.813; 1827.275;  145.050;    0.000
385.872; 1909.275;  116.050;    0.000
385.931; 1879.275;  147.050;    0.000
385.990; 1841.275;  170.050;    0.000
386.049; 1872.275;  189.050;    0.000
386.107; 1824.275;  122.050;    0.000
386.166; 1825.275;  155.050;    0.000
386.225; 1836.275;  173.050;    0.000
386.284; 1855.275;  138.050;    0.000
386.343; 1864.275;  216.050;    0.000
386.402; 1848.275;  162.050;    0.000
386.460; 1805.275;  131.050;    0.000
386.519; 1816.275;  122.050;    0.000
386.578; 1810.275;  140.050;    0.000
386.637; 1908.275;  169.050;    0.000
386.696; 1818.275;  176.050;    0.000
386.754; 1807.275;  127.050;    0.000
386.813; 1840.275;  138.050;    0.000
386.872; 1855.275;  135.050;    0.000
386.931; 1842.275;  170.050;    0.000
386.989; 1811.275;  167.050;    0.000
387.048; 1838.275;  131.050;    0.000
387.107; 1794.275;  176.050;    0.000
387.165; 1756.275;  139.050;    0.000
387.224; 1763.275;  150.050;    0.000
387.283; 1818.275;  169.050;    0.000
387.342; 1861.275;  191.050;    0.000
387.400; 1831.275;  131.050;    0.000
387.459; 1800.275;  139.050;    0.000
387.517; 1788.275;  214.050;    0.000
387.576; 1775.275;  146.050;    0.000
387.635; 1845.275;  161.050;    0.000
387.693; 1856.275;  197.050;    0.000
387.752; 1834.275;  159.050;    0.000
387.811; 1760.275;  144.050;    0.000
387.869; 1830.275;  172.050;    0.000
387.928; 1797.275;  160.050;    0.000
387.986; 1798.275;  192.050;    0.000
388.045; 1809.275;  121.050;    0.000
388.103; 1784.275;  129.050;    0.000
388.162; 1813.275;  169.050;    0.000
388.221; 1765.275;  171.050;    0.000
388.279; 1695.275;  135.050;    0.000
388.338; 1881.275;  222.050;    0.000
388.396; 1780.275;  168.050;    0.000
388.455; 1827.275;  178.050;    0.000
388.513; 1773.275;  151.050;    0.000
388.572; 1776.275;  147.050;    0.000
388.630; 1773.275;  158.050;    0.000
388.689; 1804.275;  163.050;    0.000
388.747; 1838.275;  180.050;    0.000
388.806; 1725.275;  119.050;    0.000
388.864; 1796.275;  159.050;    0.000
388.922; 1849.275;  152.050;    0.000
388.981; 1740.275;  125.050;    0.000
389.039; 1817.275;  151.050;    0.000
389.098; 1833.275;  151.050;    0.000
389.156; 1802.275;  175.050;    0.000
389.214; 1799.275;  133.050;    0.000
389.273; 1854.275;  142.050;    0.000
389.331; 1779.275;  179.050;    0.000
389.390; 1801.275;  179.050;    0.000
389.448; 1783.275;  159.050;    0.000
389.506; 1736.275;  140.050;    0.000
389.565; 1779.275;  160.050;    0.000
389.623; 1796.275;  181.050;    0.000
389.681; 1773.275;  181.050;    0.000
389.740; 1808.275;  187.050;    0.000
389.798; 1684.275;  163.050;    0.000
389.856; 1768.275;  185.050;    0.000
389.914; 1790.275;  170.050;    0.000
389.973; 1797.275;  150.050;    0.000
390.031; 1834.275;  149.050;    0.000
390.089; 1796.275;  191.050;    0.000
390.147; 1792.275;  126.050;    0.000
390.206; 1791.275;  174.050;    0.000
390.264; 1729.275;  164.050;    0.000
390.322; 1853.275;  150.050;    0.000
390.380; 1732.275;  137.050;    0.000
390.439; 1734.275;  176.050;    0.000
390.497; 1770.275;  188.050;    0.000
390.555; 1803.275;  143.050;    0.000
390.613; 1785.275;  174.050;    0.000
390.671; 1846.275;  208.050;    0.000
390.729; 1717.275;  135.050;    0.000
390.788; 1723.275;  169.050;    0.000
390.846; 1782.275;  173.050;    0.000
390.904; 1879.275;  176.050;    0.000
390.962; 1857.275;  179.050;    0.000
391.020; 1851.275;  201.050;    0.000
391.078; 1804.275;  192.050;    0.000
391.136; 1777.275;  170.050;    0.000
391.194; 1862.275;  163.050;    0.000
391.253; 1793.275;  203.050;    0.000
391.311; 1818.275;  170.050;    0.000
391.369; 1822.275;  191.050;    0.000
391.427; 1833.275;  226.050;    0.000
391.485; 1837.275;  181.050;    0.000
391.543; 1809.275;  177.050;    0.000
391.601; 1857.275;  150.050;    0.000
391.659; 1859.275;  201.050;    0.000
391.717; 1935.275;  166.050;    0.000
391.775; 1839.275;  200.050;    0.000
391.833; 1859.275;  180.050;    0.000
391.891; 1895.275;  172.050;    0.000
391.949; 1824.275;  174.050;    0.000
392.007; 1882.275;  194.050;    0.000
392.065; 1878.275;  161.050;    0.000
392.123; 1848.275;  159.050;    0.000
392.180; 1898.275;  193.050;    0.000
392.238; 1826.275;  188.050;    0.000
392.296; 1881.275;  206.050;    0.000
392.354; 1859.275;  170.050;    0.000
392.412; 1872.275;  207.050;    0.000
392.470; 1817.275;  168.050;    0.000
392.528; 1857.275;  185.050;    0.000
392.586; 1815.275;  154.050;    0.000
392.644; 1896.275;  190.050;    0.000
392.701; 1940.275;  195.050;    0.000
392.759; 1875.275;  229.050;    0.000
392.817; 1907.275;  176.050;    0.000
392.875; 1812.275;  198.050;    0.000
392.933; 1898.275;  174.050;    0.000
392.991; 1890.275;  237.050;    0.000
393.048; 1894.275;  212.050;    0.000
393.106; 1876.275;  191.050;    0.000
393.164; 1868.275;  136.050;    0.000
393.222; 1935.275;  164.050;    0.000
393.279; 2021.275;  208.050;    0.000
393.337; 1957.275;  203.050;    0.000
393.395; 1932.275;  191.050;    0.000
393.453; 1868.275;  153.050;    0.000
393.510; 1928.275;  171.050;    0.000
393.568; 1897.275;  203.050;    0.000
393.626; 1921.275;  169.050;    0.000
393.684; 1926.275;  201.050;    0.000
393.741; 1900.275;  172.050;    0.000
393.799; 1942.275;  149.050;    0.000
393.857; 1863.275;  151.050;    0.000
393.914; 1933.275;  192.050;    0.000
393.972; 1945.275;  176.050;    0.000
394.030; 1932.275;  165.050;    0.000
394.087; 1891.275;  192.050;    0.000
394.145; 1972.275;  183.050;    0.000
394.202; 1885.275;  161.050;    0.000
394.260; 1897.275;  135.050;    0.000
394.318; 1886.275;  188.050;    0.000
394.375; 1922.275;  163.050;    0.000
394.433; 2014.275;  151.050;    0.000
394.490; 1929.275;  190.050;    0.000
394.548; 1973.275;  157.050;    0.000
394.605; 1973.275;  205.050;    0.000
394.663; 1991.275;  173.050;    0.000
394.720; 1941.275;  171.050;    0.000
394.778; 2021.275;  190.050;    0.000
394.836; 1949.275;  134.050;    0.000
394.893; 1969.275;  142.050;    0.000
394.951; 1938.275;  192.050;    0.000
395.008; 2045.275;  149.050;    0.000
395.065; 1935.275;  194.050;    0.000
395.123; 1965.275;  160.050;    0.000
395.180; 1949.275;  178.050;    0.000
395.238; 1971.275;  191.050;    0.000
395.295; 2027.275;  160.050;    0.000
395.353; 2022.275;  162.050;    0.000
395.410; 1957.275;  165.050;    0.000
395.468; 1985.275;  190.050;    0.000
395.525; 2054.275;  173.050;    0.000
395.582; 2066.275;  161.050;    0.000
395.640; 2075.275;  200.050;    0.000
395.697; 1959.275;  198.050;    0.000
395.754; 2051.275;  136.050;    0.000
395.812; 2035.275;  172.050;    0.000
395.869; 2023.275;  172.050;    0.000
395.927; 1970.275;  145.050;    0.000
395.984; 2052.275;  220.050;    0.000
396.041; 2088.275;  137.050;    0.000
396.098; 1998.275;  161.050;    0.000
396.156; 2012.275;  159.050;    0.000
396.213; 2111.275;  200.050;    0.000
396.270; 1980.275;  209.050;    0.000
396.328; 1978.275;  162.050;    0.000
396.385; 1979.275;  186.050;    0.000
396.442; 2040.275;  177.050;    0.000
396.499; 2060.275;  183.050;    0.000
396.557; 2038.275;  182.050;    0.000
396.614; 2015.275;  186.050;    0.000
396.671; 2042.275;  144.050;    0.000
396.728; 2062.275;  176.050;    0.000
396.785; 2080.275;  169.050;    0.000
396.843; 2135.275;  134.050;    0.000
396.900; 2098.275;  184.050;    0.000
396.957; 2037.275;  197.050;    0.000
397.014; 2049.275;  187.050;    0.000
397.071; 2088.275;  186.050;    0.000
397.128; 2124.275;  200.050;    0.000
397.186; 2121.275;  175.050;    0.000
397.243; 2067.275;  154.050;    0.000
397.300; 2171.275;  191.050;    0.000
397.357; 2132.275;  238.050;    0.000
397.414; 2164.275;  161.050;    0.000
397.471; 2051.275;  135.050;    0.000
397.528; 2110.275;  158.050;    0.000
397.585; 2126.275;  159.050;    0.000
397.642; 2088.275;  180.050;    0.000
397.699; 2156.275;  170.050;    0.000
397.756; 2150.275;  175.050;    0.000
397.814; 2101.275;  182.050;    0.000
397.871; 2143.275;  173.050;    0.000
397.928; 2070.275;  173.050;    0.000
397.985; 2192.275;  176.050;    0.000
398.042; 2247.275;  189.050;    0.000
398.099; 2133.275;  160.050;    0.000
398.156; 2168.275;  218.050;    0.000
398.212; 2125.275;  194.050;    0.000
398.269; 2266.275;  199.050;    0.000
398.326; 2166.275;  188.050;    0.000
398.383; 2205.275;  187.050;    0.000
398.440; 2176.275;  174.050;    0.000
398.497; 2163.275;  214.050;    0.000
398.554; 2263.275;  181.050;    0.000
398.611; 2229.275;  195.050;    0.000
398.668; 2231.275;  145.050;    0.000
398.725; 2232.275;  178.050;    0.000
398.782; 2270.275;  210.050;    0.000
398.839; 2182.275;  216.050;    0.000
398.895; 2279.275;  189.050;    0.000
398.952; 2410.275;  206.050;    0.000
399.009; 2252.275;  142.050;    0.000
399.066; 2281.275;  192.050;    0.000
399.123; 2331.275;  181.050;    0.000
399.180; 2316.275;  200.050;    0.000
399.236; 2313.275;  156.050;    0.000
399.293; 2404.275;  194.050;    0.000
399.350; 2359.275;  167.050;    0.000
399.407; 2520.275;  192.050;    0.000
399.463; 2442.275;  161.050;    0.000
399.520; 2487.275;  149.050;    0.000
399.577; 2502.275;  156.050;    0.000
399.634; 2552.275;  195.050;    0.000
399.690; 2450.275;  163.050;    0.000
399.747; 2577.275;  192.050;    0.000
399.804; 2498.275;  212.050;    0.000
399.861; 2601.275;  203.050;    0.000
399.917; 2580.275;  221.050;    0.000
399.974; 2503.275;  221.050;    0.000
400.031; 2519.275;  195.050;    0.000
400.087; 2397.275;  159.050;    0.000
400.144; 2515.275;  201.050;    0.000
400.201; 2444.275;  206.050;    0.000
400.257; 2374.275;  168.050;    0.000
400.314; 2430.275;  183.050;    0.000
400.370; 2473.275;  209.050;    0.000
400.427; 2356.275;  192.050;    0.000
400.484; 2380.275;  150.050;    0.000
400.540; 2379.275;  213.050;    0.000
400.597; 2415.275;  161.050;    0.000
400.653; 2345.275;  170.050;    0.000
400.710; 2314.275;  173.050;    0.000
400.766; 2380.275;  204.050;    0.000
400.823; 2410.275;  194.050;    0.000
400.879; 2310.275;  188.050;    0.000
400.936; 2401.275;  172.050;    0.000
400.993; 2335.275;  154.050;    0.000
401.049; 2354.275;  157.050;    0.000
401.105; 2375.275;  214.050;    0.000
401.162; 2357.275;  195.050;    0.000
401.218; 2409.275;  195.050;    0.000
401.275; 2410.275;  182.050;    0.000
401.331; 2429.275;  188.050;    0.000
401.388; 2452.275;  194.050;    0.000
401.444; 2247.275;  175.050;    0.000
401.501; 2307.275;  169.050;    0.000
401.557; 2317.275;  176.050;    0.000
401.614; 2329.275;  153.050;    0.000
401.670; 2390.275;  178.050;    0.000
401.726; 2374.275;  179.050;    0.000
401.783; 2378.275;  198.050;    0.000
401.839; 2403.275;  179.050;    0.000
401.895; 2385.275;  154.050;    0.000
401.952; 2305.275;  138.050;    0.000
402.008; 2399.275;  135.050;    0.000
402.064; 2263.275;  154.050;    0.000
402.121; 2384.275;  199.050;    0.000
402.177; 2325.275;  126.050;    0.000
402.233; 2333.275;  190.050;    0.000
402.290; 2356.275;  175.050;    0.000
402.346; 2382.275;  200.050;    0.000
402.402; 2318.275;  191.050;    0.000
402.458; 2431.275;  172.050;    0.000
402.515; 2385.275;  186.050;    0.000
402.571; 2388.275;  189.050;    0.000
402.627; 2349.275;  151.050;    0.000
402.683; 2453.275;  187.050;    0.000
402.740; 2310.275;  147.050;    0.000
402.796; 2357.275;  176.050;    0.000
402.852; 2358.275;  200.050;    0.000
402.908; 2421.275;  201.050;    0.000
402.964; 2403.275;  153.050;    0.000
403.021; 2467.275;  165.050;    0.000
403.077; 2429.275;  195.050;    0.000
403.133; 2271.275;  139.050;    0.000
403.189; 2447.275;  166.050;    0.000
403.245; 2420.275;  194.050;    0.000
403.301; 2438.275;  210.050;    0.000
403.357; 2497.275;  187.050;    0.000
403.414; 2438.275;  195.050;    0.000
403.470; 2410.275;  150.050;    0.000
403.526; 2408.275;  158.050;    0.000
403.582; 2439.275;  184.050;    0.000
403.638; 2495.275;  171.050;    0.000
403.694; 2439.275;  197.050;    0.000
403.750; 2551.275;  196.050;    0.000
403.806; 2482.275;  192.050;    0.000
403.862; 2498.275;  169.050;    0.000
403.918; 2540.275;  199.050;    0.000
403.974; 2562.275;  156.050;    0.000
404.030; 2460.275;  193.050;    0.000
404.086; 2443.275;  161.050;    0.000
404.142; 2591.275;  172.050;    0.000
404.198; 2522.275;  195.050;    0.000
404.254; 2533.275;  167.050;    0.000
404.310; 2512.275;  156.050;    0.000
404.366; 2508.275;  144.050;    0.000
404.422; 2472.275;  161.050;    0.000
404.478; 2589.275;  179.050;    0.000
404.534; 2501.275;  163.050;    0.000
404.590; 2530.275;  183.050;    0.000
404.646; 2426.275;  155.050;    0.000
404.701; 2436.275;  142.050;    0.000
404.757; 2501.275;  175.050;    0.000
404.813; 2421.275;  153.050;    0.000
404.869; 2533.275;  199.050;    0.000
404.925; 2495.275;  153.050;    0.000
404.981; 2500.275;  174.050;    0.000
405.037; 2541.275;  185.050;    0.000
405.092; 2473.275;  166.050;    0.000
405.148; 2463.275;  161.050;    0.000
405.204; 2496.275;  170.050;    0.000
405.260; 2474.275;  154.050;    0.000
405.316; 2515.275;  128.050;    0.000
405.371; 2529.275;  142.050;    0.000
405.427; 2598.275;  196.050;    0.000
405.483; 2554.275;  172.050;    0.000
405.539; 2567.275;  182.050;    0.000
405.594; 2554.275;  153.050;    0.000
405.650; 2477.275;  124.050;    0.000
405.706; 2557.275;  189.050;    0.000
405.761; 2509.275;  165.050;    0.000
405.817; 2490.275;  152.050;    0.000
405.873; 2571.275;  174.050;    0.000
405.928; 2565.275;  167.050;    0.000
405.984; 2587.275;  210.050;    0.000
406.040; 2595.275;  160.050;    0.000
406.095; 2533.275;  163.050;    0.000
406.151; 2626.275;  208.050;    0.000
406.207; 2601.275;  177.050;    0.000
406.262; 2604.275;  176.050;    0.000
406.318; 2570.275;  157.050;    0.000
406.374; 2571.275;  141.050;    0.000
406.429; 2585.275;  189.050;    0.000
406.485; 2699.275;  190.050;    0.000
406.540; 2628.275;  155.050;    0.000
406.596; 2661.275;  182.050;    0.000
406.651; 2712.275;  200.050;    0.000
406.707; 2637.275;  130.050;    0.000
406.763; 2650.275;  174.050;    0.000
406.818; 2680.275;  151.050;    0.000
406.874; 2683.275;  122.050;    0.000
406.929; 2814.275;  153.050;    0.000
406.985; 2727.275;  198.050;    0.000
407.040; 2819.275;  174.050;    0.000
407.095; 2898.275;  161.050;    0.000
407.151; 2848.275;  184.050;    0.000
407.206; 2845.275;  188.050;    0.000
407.262; 2864.275;  180.050;    0.000
407.317; 2932.275;  186.050;    0.000
407.373; 2881.275;  200.050;    0.000
407.428; 2850.275;  211.050;    0.000
407.484; 2913.275;  193.050;    0.000
407.539; 2848.275;  167.050;    0.000
407.594; 2874.275;  178.050;    0.000
407.650; 2897.275;  171.050;    0.000
407.705; 2913.275;  153.050;    0.000
407.760; 2943.275;  196.050;    0.000
407.816; 2844.275;  205.050;    0.000
407.871; 2927.275;  232.050;    0.000
407.926; 2865.275;  215.050;    0.000
407.982; 2827.275;  154.050;    0.000
408.037; 2892.275;  217.050;    0.000
408.092; 2890.275;  190.050;    0.000
408.148; 2944.275;  181.050;    0.000
408.203; 2899.275;  203.050;    0.000
408.258; 2812.275;  154.050;    0.000
408.314; 2828.275;  198.050;    0.000
408.369; 2827.275;  156.050;    0.000
408.424; 2814.275;  216.050;    0.000
408.479; 2814.275;  191.050;    0.000
408.534; 2800.275;  200.050;    0.000
408.590; 2772.275;  182.050;    0.000
408.645; 2850.275;  141.050;    0.000
408.700; 2837.275;  209.050;    0.000
408.755; 2873.275;  205.050;    0.000
408.810; 2800.275;  171.050;    0.000
408.866; 2728.275;  200.050;    0.000
408.921; 2801.275;  188.050;    0.000
408.976; 2741.275;  156.050;    0.000
409.031; 2769.275;  164.050;    0.000
409.086; 2858.275;  155.050;    0.000
409.141; 2830.275;  205.050;    0.000
409.196; 2839.275;  173.050;    0.000
409.252; 2731.275;  179.050;    0.000
409.307; 2803.275;  131.050;    0.000
409.362; 2799.275;  173.050;    0.000
409.417; 2823.275;  120.050;    0.000
409.472; 2794.275;  198.050;    0.000
409.527; 2880.275;  153.050;    0.000
409.582; 2912.275;  177.050;    0.000
409.637; 2758.275;  184.050;    0.000
409.692; 2770.275;  203.050;    0.000
409.747; 2727.275;  158.050;    0.000
409.802; 2802.275;  212.050;    0.000
409.857; 2736.275;  192.050;    0.000
409.912; 2821.275;  179.050;    0.000
409.967; 2777.275;  177.050;    0.000
410.022; 2834.275;  204.050;    0.000
410.077; 2801.275;  175.050;    0.000
410.132; 2812.275;  207.050;    0.000
410.187; 2757.275;  169.050;    0.000
410.242; 2773.275;  186.050;    0.000
410.297; 2751.275;  185.050;    0.000
410.351; 2763.275;  191.050;    0.000
410.406; 2762.275;  215.050;    0.000
410.461; 2721.275;  190.050;    0.000
410.516; 2849.275;  172.050;    0.000
410.571; 2736.275;  190.050;    0.000
410.626; 2796.275;  189.050;    0.000
410.681; 2825.275;  191.050;    0.000
410.736; 2827.275;  166.050;    0.000
410.790; 2807.275;  179.050;    0.000
410.845; 2752.275;  196.050;    0.000
410.900; 2790.275;  168.050;    0.000
410.955; 2807.275;  173.050;    0.000
411.010; 2824.275;  162.050;    0.000
411.064; 2794.275;  205.050;    0.000
411.119; 2802.275;  203.050;    0.000
411.174; 2827.275;  207.050;    0.000
411.229; 2778.275;  218.050;    0.000
411.283; 2820.275;  218.050;    0.000
411.338; 2801.275;  180.050;    0.000
411.393; 2835.275;  191.050;    0.000
411.447; 2744.275;  207.050;    0.000
411.502; 2875.275;  204.050;    0.000
411.557; 2738.275;  208.050;    0.000
411.612; 2867.275;  191.050;    0.000
411.666; 2794.275;  233.050;    0.000
411.721; 2702.275;  193.050;    0.000
411.776; 2798.275;  195.050;    0.000
411.830; 2841.275;  229.050;    0.000
411.885; 2744.275;  181.050;    0.000
411.939; 2823.275;  214.050;    0.000
411.994; 2783.275;  140.050;    0.000
412.049; 2865.275;  205.050;    0.000
412.103; 2793.275;  232.050;    0.000
412.158; 2824.275;  228.050;    0.000
412.212; 2808.275;  204.050;    0.000
412.267; 2808.275;  203.050;    0.000
412.322; 2769.275;  212.050;    0.000
412.376; 2783.275;  195.050;    0.000
412.431; 2836.275;  197.050;    0.000
412.485; 2722.275;  235.050;    0.000
412.540; 2706.275;  197.050;    0.000
412.594; 2837.275;  199.050;    0.000
412.649; 2816.275;  195.050;    0.000
412.703; 2746.275;  214.050;    0.000
412.758; 2893.275;  213.050;    0.000
412.812; 2799.275;  154.050;    0.000
412.866; 2701.275;  159.050;    0.000
412.921; 2784.275;  207.050;    0.000
412.975; 2733.275;  194.050;    0.000
413.030; 2803.275;  214.050;    0.000
413.084; 2758.275;  174.050;    0.000
413.139; 2837.275;  211.050;    0.000
413.193; 2730.275;  223.050;    0.000
413.247; 2809.275;  198.050;    0.000
413.302; 2762.275;  184.050;    0.000
413.356; 2691.275;  194.050;    0.000
413.410; 2781.275;  219.050;    0.000
413.465; 2785.275;  209.050;    0.000
413.519; 2845.275;  178.050;    0.000
413.573; 2747.275;  189.050;    0.000
413.628; 2788.275;  184.050;    0.000
413.682; 2819.275;  189.050;    0.000
413.736; 2753.275;  196.050;    0.000
413.791; 2833.275;  208.050;    0.000
413.845; 2822.275;  206.050;    0.000
413.899; 2772.275;  193.050;    0.000
413.953; 2724.275;  176.050;    0.000
414.008; 2703.275;  163.050;    0.000
414.062; 2799.275;  195.050;    0.000
414.116; 2737.275;  176.050;    0.000
414.170; 2842.275;  218.050;    0.000
414.225; 2766.275;  183.050;    0.000
414.279; 2818.275;  191.050;    0.000
414.333; 2824.275;  215.050;    0.000
414.387; 2821.275;  187.050;    0.000
414.441; 2775.275;  182.050;    0.000
414.496; 2727.275;  205.050;    0.000
414.550; 2857.275;  203.050;    0.000
414.604; 2804.275;  223.050;    0.000
414.658; 2743.275;  159.050;    0.000
414.712; 2798.275;  194.050;    0.000
414.766; 2794.275;  232.050;    0.000
414.820; 2813.275;  235.050;    0.000
414.874; 2726.275;  169.050;    0.000
414.928; 2818.275;  207.050;    0.000
414.982; 2837.275;  174.050;    0.000
415.037; 2777.275;  173.050;    0.000
415.091; 2817.275;  219.050;    0.000
415.145; 2741.275;  174.050;    0.000
415.199; 2769.275;  207.050;    0.000
415.253; 2931.275;  228.050;    0.000
415.307; 2733.275;  182.050;    0.000
415.361; 2841.275;  219.050;    0.000
415.415; 2817.275;  218.050;    0.000
415.469; 2835.275;  233.050;    0.000
415.523; 2802.275;  203.050;    0.000
415.577; 2811.275;  186.050;    0.000
415.631; 2837.275;  215.050;    0.000
415.684; 2787.275;  212.050;    0.000
415.738; 2808.275;  206.050;    0.000
415.792; 2767.275;  219.050;    0.000
415.846; 2752.275;  208.050;    0.000
415.900; 2787.275;  203.050;    0.000
415.954; 2754.275;  237.050;    0.000
416.008; 2774.275;  242.050;    0.000
416.062; 2784.275;  197.050;    0.000
416.116; 2788.275;  189.050;    0.000
416.169; 2732.275;  199.050;    0.000
416.223; 2775.275;  230.050;    0.000
416.277; 2723.275;  226.050;    0.000
416.331; 2768.275;  254.050;    0.000
416.385; 2724.275;  204.050;    0.000
416.439; 2826.275;  201.050;    0.000
416.492; 2808.275;  238.050;    0.000
416.546; 2832.275;  234.050;    0.000
416.600; 2726.275;  244.050;    0.000
416.654; 2786.275;  233.050;    0.000
416.707; 2743.275;  214.050;    0.000
416.761; 2790.275;  214.050;    0.000
416.815; 2782.275;  192.050;    0.000
416.869; 2809.275;  225.050;    0.000
416.922; 2819.275;  214.050;    0.000
416.976; 2810.275;  206.050;    0.000
417.030; 2715.275;  226.050;    0.000
417.083; 2823.275;  207.050;    0.000
417.137; 2837.275;  236.050;    0.000
417.191; 2778.275;  208.050;    0.000
417.244; 2723.275;  260.050;    0.000
417.298; 2722.275;  222.050;    0.000
417.352; 2730.275;  191.050;    0.000
417.405; 2915.275;  229.050;    0.000
417.459; 2787.275;  249.050;    0.000
417.512; 2808.275;  259.050;    0.000
417.566; 2727.275;  220.050;    0.000
417.620; 2817.275;  229.050;    0.000
417.673; 2740.275;  190.050;    0.000
417.727; 2760.275;  204.050;    0.000
417.780; 2800.275;  223.050;    0.000
417.834; 2722.275;  213.050;    0.000
417.887; 2771.275;  238.050;    0.000
417.941; 2852.275;  244.050;    0.000
417.994; 2792.275;  247.050;    0.000
418.048; 2810.275;  225.050;    0.000
418.101; 2777.275;  210.050;    0.000
418.155; 2724.275;  224.050;    0.000
418.208; 2810.275;  229.050;    0.000
418.262; 2780.275;  255.050;    0.000
418.315; 2775.275;  248.050;    0.000
418.369; 2805.275;  212.050;    0.000
418.422; 2756.275;  241.050;    0.000
418.476; 2755.275;  220.050;    0.000
418.529; 2748.275;  257.050;    0.000
418.582; 2836.275;  203.050;    0.000
418.636; 2789.275;  221.050;    0.000
418.689; 2810.275;  202.050;    0.000
418.743; 2764.275;  227.050;    0.000
418.796; 2790.275;  226.050;    0.000
418.849; 2896.275;  199.050;    0.000
418.903; 2767.275;  234.050;    0.000
418.956; 2809.275;  236.050;    0.000
419.009; 2698.275;  305.050;    0.000
419.063; 2835.275;  216.050;    0.000
419.116; 2832.275;  245.050;    0.000
419.169; 2762.275;  208.050;    0.000
419.222; 2837.275;  233.050;    0.000
419.276; 2793.275;  244.050;    0.000
419.329; 2748.275;  197.050;    0.000
419.382; 2788.275;  222.050;    0.000
419.435; 2721.275;  199.050;    0.000
419.489; 2787.275;  226.050;    0.000
419.542; 2771.275;  223.050;    0.000
419.595; 2792.275;  204.050;    0.000
419.648; 2760.275;  234.050;    0.000
419.701; 2845.275;  211.050;    0.000
419.755; 2708.275;  184.050;    0.000
419.808; 2838.275;  223.050;    0.000
419.861; 2702.275;  197.050;    0.000
419.914; 2716.275;  258.050;    0.000
419.967; 2631.275;  205.050;    0.000
420.020; 2726.275;  195.050;    0.000
420.073; 2667.275;  191.050;    0.000
420.127; 2703.275;  256.050;    0.000
420.180; 2694.275;  232.050;    0.000
420.233; 2628.275;  200.050;    0.000
420.286; 2645.275;  207.050;    0.000
420.339; 2676.275;  223.050;    0.000
420.392; 2682.275;  243.050;    0.000
420.445; 2633.275;  195.050;    0.000
420.498; 2634.275;  239.050;    0.000
420.551; 2617.275;  201.050;    0.000
420.604; 2664.275;  245.050;    0.000
420.657; 2655.275;  221.050;    0.000
420.710; 2611.275;  223.050;    0.000
420.763; 2677.275;  241.050;    0.000
420.816; 2563.275;  198.050;    0.000
420.869; 2734.275;  210.050;    0.000
420.922; 2640.275;  206.050;    0.000
420.975; 2650.275;  239.050;    0.000
421.028; 2687.275;  248.050;    0.000
421.081; 2624.275;  236.050;    0.000
421.134; 2677.275;  208.050;    0.000
421.187; 2552.275;  216.050;    0.000
421.239; 2619.275;  199.050;    0.000
421.292; 2704.275;  255.050;    0.000
421.345; 2532.275;  241.050;    0.000
421.398; 2539.275;  221.050;    0.000
421.451; 2606.275;  237.050;    0.000
421.504; 2566.275;  225.050;    0.000
421.557; 2554.275;  213.050;    0.000
421.609; 2540.275;  178.050;    0.000
421.662; 2658.275;  206.050;    0.000
421.715; 2591.275;  212.050;    0.000
421.768; 2581.275;  236.050;    0.000
421.821; 2601.275;  228.050;    0.000
421.873; 2582.275;  200.050;    0.000
421.926; 2541.275;  226.050;    0.000
421.979; 2668.275;  221.050;    0.000
422.032; 2653.275;  219.050;    0.000
422.084; 2681.275;  253.050;    0.000
422.137; 2581.275;  195.050;    0.000
422.190; 2617.275;  192.050;    0.000
422.243; 2564.275;  236.050;    0.000
422.295; 2507.275;  205.050;    0.000
422.348; 2627.275;  198.050;    0.000
422.401; 2587.275;  245.050;    0.000
422.453; 2505.275;  241.050;    0.000
422.506; 2636.275;  255.050;    0.000
422.559; 2452.275;  188.050;    0.000
422.611; 2622.275;  236.050;    0.000
422.664; 2546.275;  218.050;    0.000
422.716; 2665.275;  210.050;    0.000
422.769; 2598.275;  209.050;    0.000
422.822; 2556.275;  213.050;    0.000
422.874; 2569.275;  227.050;    0.000
422.927; 2597.275;  272.050;    0.000
422.979; 2547.275;  204.050;    0.000
423.032; 2609.275;  210.050;    0.000
423.084; 2572.275;  236.050;    0.000
423.137; 2541.275;  223.050;    0.000
423.189; 2559.275;  253.050;    0.000
423.242; 2504.275;  185.050;    0.000
423.294; 2553.275;  232.050;    0.000
423.347; 2468.275;  213.050;    0.000
423.399; 2553.275;  227.050;    0.000
423.452; 2590.275;  236.050;    0.000
423.504; 2550.275;  232.050;    0.000
423.557; 2527.275;  195.050;    0.000
423.609; 2518.275;  238.050;    0.000
423.662; 2551.275;  207.050;    0.000
423.714; 2499.275;  231.050;    0.000
423.766; 2547.275;  211.050;    0.000
423.819; 2566.275;  207.050;    0.000
423.871; 2433.275;  228.050;    0.000
423.923; 2468.275;  223.050;    0.000
423.976; 2542.275;  217.050;    0.000
424.028; 2500.275;  231.050;    0.000
424.081; 2535.275;  219.050;    0.000
424.133; 2499.275;  255.050;    0.000
424.185; 2416.275;  199.050;    0.000
424.238; 2489.275;  238.050;    0.000
424.290; 2490.275;  209.050;    0.000
424.342; 2518.275;  213.050;    0.000
424.394; 2540.275;  215.050;    0.000
424.447; 2528.275;  265.050;    0.000
424.499; 2459.275;  238.050;    0.000
424.551; 2533.275;  256.050;    0.000
424.603; 2555.275;  222.050;    0.000
424.656; 2522.275;  227.050;    0.000
424.708; 2498.275;  250.050;    0.000
424.760; 2516.275;  228.050;    0.000
424.812; 2541.275;  249.050;    0.000
424.864; 2536.275;  222.050;    0.000
424.917; 2481.275;  235.050;    0.000
424.969; 2453.275;  266.050;    0.000
425.021; 2458.275;  233.050;    0.000
425.073; 2459.275;  194.050;    0.000
425.125; 2472.275;  256.050;    0.000
425.177; 2457.275;  225.050;    0.000
425.229; 2443.275;  242.050;    0.000
425.282; 2433.275;  236.050;    0.000
425.334; 2532.275;  250.050;    0.000
425.386; 2486.275;  231.050;    0.000
425.438; 2521.275;  216.050;    0.000
425.490; 2422.275;  240.050;    0.000
425.542; 2457.275;  231.050;    0.000
425.594; 2478.275;  206.050;    0.000
425.646; 2465.275;  201.050;    0.000
425.698; 2445.275;  193.050;    0.000
425.750; 2435.275;  241.050;    0.000
425.802; 2469.275;  199.050;    0.000
425.854; 2491.275;  216.050;    0.000
425.906; 2383.275;  220.050;    0.000
425.958; 2423.275;  200.050;    0.000
426.010; 2422.275;  214.050;    0.000
426.062; 2473.275;  245.050;    0.000
426.114; 2436.275;  241.050;    0.000
426.166; 2418.275;  241.050;    0.000
426.218; 2370.275;  255.050;    0.000
426.270; 2437.275;  228.050;    0.000
426.321; 2431.275;  222.050;    0.000
426.373; 2420.275;  218.050;    0.000
426.425; 2433.275;  258.050;    0.000
426.477; 2489.275;  225.050;    0.000
426.529; 2453.275;  223.050;    0.000
426.581; 2404.275;  198.050;    0.000
426.633; 2374.275;  228.050;    0.000
426.684; 2487.275;  210.050;    0.000
426.736; 2407.275;  208.050;    0.000
426.788; 2399.275;  231.050;    0.000
426.840; 2404.275;  212.050;    0.000
426.892; 2401.275;  221.050;    0.000
426.943; 2436.275;  240.050;    0.000
426.995; 2286.275;  243.050;    0.000
427.047; 2368.275;  231.050;    0.000
427.099; 2410.275;  189.050;    0.000
427.150; 2337.275;  212.050;    0.000
427.202; 2386.275;  219.050;    0.000
427.254; 2331.275;  203.050;    0.000
427.306; 2400.275;  217.050;    0.000
427.357; 2383.275;  232.050;    0.000
427.409; 2441.275;  251.050;    0.000
427.461; 2305.275;  185.050;    0.000
427.512; 2366.275;  239.050;    0.000
427.564; 2400.275;  208.050;    0.000
427.616; 2402.275;  233.050;    0.000
427.667; 2321.275;  223.050;    0.000
427.719; 2277.275;  206.050;    0.000
427.770; 2343.275;  195.050;    0.000
427.822; 2346.275;  223.050;    0.000
427.874; 2291.275;  232.050;    0.000
427.925; 2365.275;  209.050;    0.000
427.977; 2275.275;  208.050;    0.000
428.028; 2266.275;  187.050;    0.000
428.080; 2295.275;  209.050;    0.000
428.131; 2354.275;  237.050;    0.000
428.183; 2361.275;  200.050;    0.000
428.234; 2286.275;  215.050;    0.000
428.286; 2331.275;  229.050;    0.000
428.337; 2318.275;  206.050;    0.000
428.389; 2369.275;  216.050;    0.000
428.440; 2357.275;  287.050;    0.000
428.492; 2349.275;  269.050;    0.000
428.543; 2214.275;  234.050;    0.000
428.595; 2301.275;  214.050;    0.000
428.646; 2405.275;  229.050;    0.000
428.697; 2281.275;  249.050;    0.000
428.749; 2215.275;  250.050;    0.000
428.800; 2455.275;  242.050;    0.000
428.852; 2365.275;  232.050;    0.000
428.903; 2209.275;  196.050;    0.000
428.954; 2295.275;  226.050;    0.000
429.006; 2266.275;  232.050;    0.000
429.057; 2242.275;  188.050;    0.000
429.108; 2225.275;  237.050;    0.000
429.160; 2301.275;  221.050;    0.000
429.211; 2274.275;  222.050;    0.000
429.262; 2317.275;  215.050;    0.000
429.314; 2203.275;  225.050;    0.000
429.365; 2297.275;  220.050;    0.000
429.416; 2301.275;  242.050;    0.000
429.467; 2259.275;  220.050;    0.000
429.519; 2231.275;  217.050;    0.000
429.570; 2242.275;  248.050;    0.000
429.621; 2323.275;  233.050;    0.000
429.672; 2255.275;  220.050;    0.000
429.724; 2224.275;  179.050;    0.000
429.775; 2272.275;  218.050;    0.000
429.826; 2199.275;  197.050;    0.000
429.877; 2198.275;  206.050;    0.000
429.928; 2234.275;  229.050;    0.000
429.980; 2268.275;  207.050;    0.000
430.031; 2214.275;  264.050;    0.000
430.082; 2212.275;  210.050;    0.000
430.133; 2211.275;  218.050;    0.000
430.184; 2115.275;  246.050;    0.000
430.235; 2142.275;  201.050;    0.000
430.286; 2227.275;  207.050;    0.000
430.337; 2160.275;  224.050;    0.000
430.388; 2268.275;  216.050;    0.000
430.439; 2266.275;  210.050;    0.000
430.490; 2135.275;  208.050;    0.000
430.542; 2224.275;  211.050;    0.000
430.593; 2156.275;  203.050;    0.000
430.644; 2274.275;  235.050;    0.000
430.695; 2275.275;  200.050;    0.000
430.746; 2156.275;  215.050;    0.000
430.797; 2172.275;  235.050;    0.000
430.848; 2234.275;  197.050;    0.000
430.898; 2211.275;  209.050;    0.000
430.949; 2168.275;  231.050;    0.000
431.000; 2258.275;  227.050;    0.000
431.051; 2142.275;  225.050;    0.000
431.102; 2211.275;  180.050;    0.000
431.153; 2220.275;  248.050;    0.000
431.204; 2114.275;  185.050;    0.000
431.255; 2175.275;  199.050;    0.000
431.306; 2237.275;  228.050;    0.000
431.357; 2238.275;  237.050;    0.000
431.408; 2168.275;  223.050;    0.000
431.458; 2227.275;  240.050;    0.000
431.509; 2198.275;  207.050;    0.000
431.560; 2261.275;  219.050;    0.000
431.611; 2167.275;  206.050;    0.000
431.662; 2204.275;  253.050;    0.000
431.713; 2210.275;  199.050;    0.000
431.763; 2221.275;  197.050;    0.000
431.814; 2187.275;  205.050;    0.000
431.865; 2308.275;  218.050;    0.000
431.916; 2162.275;  202.050;    0.000
431.966; 2265.275;  203.050;    0.000
432.017; 2275.275;  244.050;    0.000
432.068; 2220.275;  246.050;    0.000
432.118; 2204.275;  212.050;    0.000
432.169; 2249.275;  214.050;    0.000
432.220; 2139.275;  241.050;    0.000
432.271; 2214.275;  237.050;    0.000
432.321; 2204.275;  246.050;    0.000
432.372; 2184.275;  257.050;    0.000
432.423; 2113.275;  198.050;    0.000
432.473; 2228.275;  202.050;    0.000
432.524; 2183.275;  242.050;    0.000
432.574; 2154.275;  202.050;    0.000
432.625; 2140.275;  212.050;    0.000
432.676; 2213.275;  242.050;    0.000
432.726; 2200.275;  268.050;    0.000
432.777; 2182.275;  228.050;    0.000
432.827; 2155.275;  230.050;    0.000
432.878; 2178.275;  221.050;    0.000
432.928; 2163.275;  218.050;    0.000
432.979; 2202.275;  243.050;    0.000
433.029; 2103.275;  217.050;    0.000
433.080; 2166.275;  208.050;    0.000
433.130; 2131.275;  236.050;    0.000
433.181; 2218.275;  282.050;    0.000
433.231; 2205.275;  257.050;    0.000
433.282; 2166.275;  268.050;    0.000
433.332; 2155.275;  241.050;    0.000
433.383; 2234.275;  271.050;    0.000
433.433; 2201.275;  262.050;    0.000
433.484; 2251.275;  266.050;    0.000
433.534; 2163.275;  217.050;    0.000
433.585; 2148.275;  230.050;    0.000
433.635; 2195.275;  245.050;    0.000
433.685; 2223.275;  250.050;    0.000
433.736; 2236.275;  308.050;    0.000
433.786; 2174.275;  242.050;    0.000
433.836; 2246.275;  256.050;    0.000
433.887; 2254.275;  250.050;    0.000
433.937; 2254.275;  250.050;    0.000
433.987; 2146.275;  219.050;    0.000
434.038; 2145.275;  248.050;    0.000
434.088; 2217.275;  231.050;    0.000
434.138; 2233.275;  266.050;    0.000
434.189; 2177.275;  240.050;    0.000
434.239; 2137.275;  245.050;    0.000
434.289; 2197.275;  285.050;    0.000
434.339; 2275.275;  255.050;    0.000
434.389; 2269.275;  242.050;    0.000
434.440; 2221.275;  273.050;    0.000
434.490; 2279.275;  272.050;    0.000
434.540; 2179.275;  264.050;    0.000
434.590; 2296.275;  233.050;    0.000
434.640; 2261.275;  244.050;    0.000
434.691; 2205.275;  226.050;    0.000
434.741; 2244.275;  253.050;    0.000
434.791; 2236.275;  269.050;    0.000
434.841; 2244.275;  252.050;    0.000
434.891; 2221.275;  281.050;    0.000
434.941; 2209.275;  296.050;    0.000
434.991; 2258.275;  264.050;    0.000
435.042; 2288.275;  262.050;    0.000
435.092; 2276.275;  237.050;    0.000
435.142; 2231.275;  232.050;    0.000
435.192; 2295.275;  251.050;    0.000
435.242; 2251.275;  251.050;    0.000
435.292; 2184.275;  246.050;    0.000
435.342; 2176.275;  236.050;    0.000
435.392; 2264.275;  273.050;    0.000
435.442; 2198.275;  273.050;    0.000
435.492; 2168.275;  273.050;    0.000
435.542; 2148.275;  242.050;    0.000
435.592; 2216.275;  213.050;    0.000
435.642; 2162.275;  248.050;    0.000
435.692; 2165.275;  242.050;    0.000
435.742; 2138.275;  222.050;    0.000
435.792; 2142.275;  260.050;    0.000
435.842; 2208.275;  266.050;    0.000
435.891; 2153.275;  227.050;    0.000
435.941; 2141.275;  228.050;    0.000
435.991; 2165.275;  282.050;    0.000
436.041; 2169.275;  231.050;    0.000
436.091; 2138.275;  250.050;    0.000
436.141; 2093.275;  221.050;    0.000
436.191; 2049.275;  223.050;    0.000
436.241; 2061.275;  250.050;    0.000
436.290; 2103.275;  243.050;    0.000
436.340; 2103.275;  236.050;    0.000
436.390; 2179.275;  260.050;    0.000
436.440; 2107.275;  253.050;    0.000
436.490; 2087.275;  236.050;    0.000
436.539; 2150.275;  249.050;    0.000
436.589; 2104.275;  231.050;    0.000
436.639; 2108.275;  237.050;    0.000
436.689; 2018.275;  222.050;    0.000
436.738; 2150.275;  263.050;    0.000
436.788; 2057.275;  230.050;    0.000
436.838; 2030.275;  281.050;    0.000
436.887; 2180.275;  230.050;    0.000
436.937; 2049.275;  250.050;    0.000
436.987; 2059.275;  251.050;    0.000
437.036; 2063.275;  238.050;    0.000
437.086; 2037.275;  234.050;    0.000
437.136; 2100.275;  250.050;    0.000
437.185; 2119.275;  228.050;    0.000
437.235; 2084.275;  309.050;    0.000
437.285; 2060.275;  246.050;    0.000
437.334; 2051.275;  262.050;    0.000
437.384; 2054.275;  228.050;    0.000
437.433; 2050.275;  241.050;    0.000
437.483; 2066.275;  220.050;    0.000
437.532; 2092.275;  252.050;    0.000
437.582; 2076.275;  270.050;    0.000
437.631; 1977.275;  251.050;    0.000
437.681; 1947.275;  284.050;    0.000
437.730; 2063.275;  239.050;    0.000
437.780; 1980.275;  221.050;    0.000
437.829; 1990.275;  254.050;    0.000
437.879; 2037.275;  221.050;    0.000
437.928; 2008.275;  205.050;    0.000
437.978; 2006.275;  223.050;    0.000
438.027; 2096.275;  262.050;    0.000
438.077; 2033.275;  280.050;    0.000
438.126; 2051.275;  254.050;    0.000
438.176; 1968.275;  230.050;    0.000
438.225; 2059.275;  227.050;    0.000
438.274; 2040.275;  264.050;    0.000
438.324; 2073.275;  233.050;    0.000
438.373; 1976.275;  238.050;    0.000
438.422; 2076.275;  260.050;    0.000
438.472; 1998.275;  223.050;    0.000
438.521; 2018.275;  213.050;    0.000
438.570; 2037.275;  236.050;    0.000
438.620; 2026.275;  282.050;    0.000
438.669; 2014.275;  209.050;    0.000
438.718; 1995.275;  245.050;    0.000
438.768; 1903.275;  238.050;    0.000
438.817; 2031.275;  259.050;    0.000
438.866; 1909.275;  232.050;    0.000
438.915; 2029.275;  288.050;    0.000
438.965; 2026.275;  228.050;    0.000
439.014; 1936.275;  246.050;    0.000
439.063; 2044.275;  287.050;    0.000
439.112; 1985.275;  217.050;    0.000
439.162; 1989.275;  275.050;    0.000
439.211; 2021.275;  287.050;    0.000
439.260; 2048.275;  238.050;    0.000
439.309; 2014.275;  225.050;    0.000
439.358; 2103.275;  248.050;    0.000
439.407; 1997.275;  237.050;    0.000
439.456; 1947.275;  223.050;    0.000
439.506; 1996.275;  266.050;    0.000
439.555; 1959.275;  260.050;    0.000
439.604; 2026.275;  233.050;    0.000
439.653; 2005.275;  242.050;    0.000
439.702; 2096.275;  255.050;    0.000
439.751; 1912.275;  202.050;    0.000
439.800; 2010.275;  247.050;    0.000
439.849; 2077.275;  250.050;    0.000
439.898; 1957.275;  216.050;    0.000
439.947; 1918.275;  231.050;    0.000
439.996; 2102.275;  272.050;    0.000
440.045; 1997.275;  217.050;    0.000
440.094; 1981.275;  220.050;    0.000
440.143; 2029.275;  245.050;    0.000
440.192; 2019.275;  267.050;    0.000
440.241; 2053.275;  263.050;    0.000
440.290; 2017.275;  246.050;    0.000
440.339; 1957.275;  225.050;    0.000
440.388; 1975.275;  256.050;    0.000
440.437; 2030.275;  253.050;    0.000
440.486; 2029.275;  249.050;    0.000
440.535; 2009.275;  232.050;    0.000
440.583; 2023.275;  220.050;    0.000
440.632; 2074.275;  239.050;    0.000
440.681; 1941.275;  236.050;    0.000
440.730; 2081.275;  282.050;    0.000
440.779; 2055.275;  245.050;    0.000
440.828; 1982.275;  213.050;    0.000
440.876; 1975.275;  231.050;    0.000
440.925; 2037.275;  271.050;    0.000
440.974; 2057.275;  240.050;    0.000
441.023; 1964.275;  214.050;    0.000
441.072; 2063.275;  236.050;    0.000
441.120; 2188.275;  271.050;    0.000
441.169; 2111.275;  281.050;    0.000
441.218; 2079.275;  255.050;    0.000
441.267; 2086.275;  272.050;    0.000
441.315; 2120.275;  229.050;    0.000
441.364; 2160.275;  241.050;    0.000
441.413; 2078.275;  224.050;    0.000
441.461; 2018.275;  241.050;    0.000
441.510; 2135.275;  289.050;    0.000
441.559; 2080.275;  222.050;    0.000
441.607; 2078.275;  242.050;    0.000
441.656; 2089.275;  255.050;    0.000
441.705; 2175.275;  260.050;    0.000
441.753; 2120.275;  290.050;    0.000
441.802; 2090.275;  264.050;    0.000
441.850; 2077.275;  224.050;    0.000
441.899; 2015.275;  275.050;    0.000
441.948; 2186.275;  227.050;    0.000
441.996; 2126.275;  216.050;    0.000
442.045; 2083.275;  271.050;    0.000
442.093; 2091.275;  227.050;    0.000
442.142; 2086.275;  273.050;    0.000
442.190; 2149.275;  257.050;    0.000
442.239; 2131.275;  269.050;    0.000
442.287; 2064.275;  257.050;    0.000
442.336; 2110.275;  237.050;    0.000
442.384; 2095.275;  214.050;    0.000
442.433; 2087.275;  272.050;    0.000
442.481; 2036.275;  258.050;    0.000
442.529; 2042.275;  242.050;    0.000
442.578; 2223.275;  278.050;    0.000
442.626; 2090.275;  264.050;    0.000
442.675; 2176.275;  293.050;    0.000
442.723; 2074.275;  244.050;    0.000
442.771; 2019.275;  232.050;    0.000
442.820; 2070.275;  266.050;    0.000
442.868; 2011.275;  253.050;    0.000
442.917; 2034.275;  250.050;    0.000
442.965; 2123.275;  279.050;    0.000
443.013; 2120.275;  253.050;    0.000
443.062; 2051.275;  282.050;    0.000
443.110; 2108.275;  258.050;    0.000
443.158; 2037.275;  246.050;    0.000
443.206; 2112.275;  255.050;    0.000
443.255; 2134.275;  296.050;    0.000
443.303; 2168.275;  272.050;    0.000
443.351; 2114.275;  270.050;    0.000
443.399; 2155.275;  258.050;    0.000
443.448; 2032.275;  265.050;    0.000
443.496; 2123.275;  219.050;    0.000
443.544; 2110.275;  205.050;    0.000
443.592; 2185.275;  266.050;    0.000
443.640; 2120.275;  260.050;    0.000
443.689; 2134.275;  232.050;    0.000
443.737; 2174.275;  281.050;    0.000
443.785; 2125.275;  248.050;    0.000
443.833; 2169.275;  286.050;    0.000
443.881; 2058.275;  225.050;    0.000
443.929; 2185.275;  255.050;    0.000
443.977; 2145.275;  248.050;    0.000
444.025; 2121.275;  255.050;    0.000
444.074; 2047.275;  266.050;    0.000
444.122; 2221.275;  266.050;    0.000
444.170; 2123.275;  207.050;    0.000
444.218; 2205.275;  253.050;    0.000
444.266; 2183.275;  263.050;    0.000
444.314; 2290.275;  272.050;    0.000
444.362; 2265.275;  272.050;    0.000
444.410; 2190.275;  255.050;    0.000
444.458; 2173.275;  288.050;    0.000
444.506; 2156.275;  263.050;    0.000
444.554; 2245.275;  243.050;    0.000
444.602; 2221.275;  285.050;    0.000
444.650; 2225.275;  273.050;    0.000
444.698; 2203.275;  221.050;    0.000
444.746; 2184.275;  243.050;    0.000
444.793; 2211.275;  217.050;    0.000
444.841; 2269.275;  262.050;    0.000
444.889; 2263.275;  264.050;    0.000
444.937; 2184.275;  226.050;    0.000
444.985; 2212.275;  257.050;    0.000
445.033; 2176.275;  264.050;    0.000
445.081; 2231.275;  264.050;    0.000
445.129; 2226.275;  187.050;    0.000
445.176; 2168.275;  212.050;    0.000
445.224; 2218.275;  198.050;    0.000
445.272; 2302.275;  265.050;    0.000
445.320; 2174.275;  239.050;    0.000
445.368; 2133.275;  245.050;    0.000
445.415; 2096.275;  215.050;    0.000
445.463; 2233.275;  202.050;    0.000
445.511; 2155.275;  234.050;    0.000
445.559; 2177.275;  269.050;    0.000
445.606; 2239.275;  214.050;    0.000
445.654; 2140.275;  227.050;    0.000
445.702; 2257.275;  276.050;    0.000
445.749; 2218.275;  256.050;    0.000
445.797; 2145.275;  236.050;    0.000
445.845; 2146.275;  230.050;    0.000
445.892; 2210.275;  233.050;    0.000
445.940; 2155.275;  257.050;    0.000
445.988; 2299.275;  253.050;    0.000
446.035; 2221.275;  265.050;    0.000
446.083; 2207.275;  254.050;    0.000
446.130; 2187.275;  228.050;    0.000
446.178; 2214.275;  256.050;    0.000
446.226; 2276.275;  238.050;    0.000
446.273; 2213.275;  228.050;    0.000
446.321; 2224.275;  220.050;    0.000
446.368; 2202.275;  249.050;    0.000
446.416; 2263.275;  221.050;    0.000
446.463; 2286.275;  232.050;    0.000
446.511; 2267.275;  243.050;    0.000
446.558; 2294.275;  217.050;    0.000
446.606; 2265.275;  256.050;    0.000
446.653; 2222.275;  238.050;    0.000
446.701; 2223.275;  259.050;    0.000
446.748; 2252.275;  227.050;    0.000
446.796; 2313.275;  236.050;    0.000
446.843; 2273.275;  241.050;    0.000
446.891; 2323.275;  292.050;    0.000
446.938; 2336.275;  219.050;    0.000
446.985; 2402.275;  255.050;    0.000
447.033; 2317.275;  237.050;    0.000
447.080; 2423.275;  278.050;    0.000
447.128; 2368.275;  237.050;    0.000
447.175; 2456.275;  247.050;    0.000
447.222; 2279.275;  235.050;    0.000
447.270; 2483.275;  274.050;    0.000
447.317; 2386.275;  222.050;    0.000
447.364; 2402.275;  230.050;    0.000
447.411; 2478.275;  297.050;    0.000
447.459; 2454.275;  243.050;    0.000
447.506; 2542.275;  202.050;    0.000
447.553; 2493.275;  232.050;    0.000
447.601; 2465.275;  262.050;    0.000
447.648; 2527.275;  254.050;    0.000
447.695; 2537.275;  287.050;    0.000
447.742; 2613.275;  232.050;    0.000
447.789; 2581.275;  257.050;    0.000
447.837; 2603.275;  260.050;    0.000
447.884; 2574.275;  272.050;    0.000
447.931; 2663.275;  241.050;    0.000
447.978; 2689.275;  241.050;    0.000
448.025; 2787.275;  264.050;    0.000
448.072; 2658.275;  279.050;    0.000
448.120; 2687.275;  263.050;    0.000
448.167; 2790.275;  284.050;    0.000
448.214; 2717.275;  252.050;    0.000
448.261; 2752.275;  247.050;    0.000
448.308; 2595.275;  249.050;    0.000
448.355; 2606.275;  263.050;    0.000
448.402; 2657.275;  251.050;    0.000
448.449; 2533.275;  257.050;    0.000
448.496; 2556.275;  243.050;    0.000
448.543; 2508.275;  274.050;    0.000
448.590; 2459.275;  299.050;    0.000
448.637; 2579.275;  259.050;    0.000
448.684; 2409.275;  266.050;    0.000
448.731; 2408.275;  261.050;    0.000
448.778; 2420.275;  292.050;    0.000
448.825; 2342.275;  253.050;    0.000
448.872; 2306.275;  253.050;    0.000
448.919; 2371.275;  218.050;    0.000
448.966; 2386.275;  254.050;    0.000
449.013; 2358.275;  263.050;    0.000
449.060; 2337.275;  282.050;    0.000
449.107; 2249.275;  244.050;    0.000
449.154; 2318.275;  236.050;    0.000
449.200; 2205.275;  226.050;    0.000
449.247; 2271.275;  273.050;    0.000
449.294; 2235.275;  270.050;    0.000
449.341; 2297.275;  283.050;    0.000
449.388; 2199.275;  261.050;    0.000
449.435; 2261.275;  254.050;    0.000
449.481; 2202.275;  318.050;    0.000
449.528; 2226.275;  274.050;    0.000
449.575; 2185.275;  251.050;    0.000
449.622; 2170.275;  276.050;    0.000
449.668; 2275.275;  242.050;    0.000
449.715; 2213.275;  286.050;    0.000
449.762; 2099.275;  268.050;    0.000
449.809; 2175.275;  285.050;    0.000
449.855; 2215.275;  277.050;    0.000
449.902; 2162.275;  246.050;    0.000
449.949; 2227.275;  268.050;    0.000
449.995; 2196.275;  289.050;    0.000
450.042; 2100.275;  256.050;    0.000
450.089; 2150.275;  290.050;    0.000
450.135; 2099.275;  300.050;    0.000
450.182; 2156.275;  317.050;    0.000
450.229; 2100.275;  282.050;    0.000
450.275; 2122.275;  307.050;    0.000
450.322; 2137.275;  260.050;    0.000
450.368; 2124.275;  315.050;    0.000
450.415; 2204.275;  306.050;    0.000
450.462; 2102.275;  314.050;    0.000
450.508; 2079.275;  303.050;    0.000
450.555; 2121.275;  281.050;    0.000
450.601; 2092.275;  291.050;    0.000
450.648; 2028.275;  288.050;    0.000
450.694; 2045.275;  290.050;    0.000
450.741; 2112.275;  303.050;    0.000
450.787; 1973.275;  298.050;    0.000
450.834; 2036.275;  265.050;    0.000
450.880; 2010.275;  273.050;    0.000
450.927; 2013.275;  312.050;    0.000
450.973; 2108.275;  303.050;    0.000
451.019; 2023.275;  222.050;    0.000
451.066; 2054.275;  284.050;    0.000
451.112; 2061.275;  296.050;    0.000
451.159; 2015.275;  299.050;    0.000
451.205; 2048.275;  311.050;    0.000
451.251; 2118.275;  306.050;    0.000
451.298; 2073.275;  281.050;    0.000
451.344; 2025.275;  311.050;    0.000
451.390; 2088.275;  331.050;    0.000
451.437; 2070.275;  303.050;    0.000
451.483; 2019.275;  284.050;    0.000
451.529; 1947.275;  310.050;    0.000
451.576; 1969.275;  301.050;    0.000
451.622; 1946.275;  275.050;    0.000
451.668; 1935.275;  269.050;    0.000
451.714; 1980.275;  277.050;    0.000
451.761; 1996.275;  298.050;    0.000
451.807; 2021.275;  316.050;    0.000
451.853; 1913.275;  301.050;    0.000
451.899; 2038.275;  292.050;    0.000
451.945; 1924.275;  324.050;    0.000
451.992; 1932.275;  292.050;    0.000
452.038; 1921.275;  261.050;    0.000
452.084; 1943.275;  286.050;    0.000
452.130; 2033.275;  301.050;    0.000
452.176; 1980.275;  287.050;    0.000
452.222; 1938.275;  265.050;    0.000
452.268; 1963.275;  268.050;    0.000
452.315; 1930.275;  272.050;    0.000
452.361; 1989.275;  258.050;    0.000
452.407; 1970.275;  279.050;    0.000
452.453; 1971.275;  252.050;    0.000
452.499; 1942.275;  305.050;    0.000
452.545; 1875.275;  263.050;    0.000
452.591; 1955.275;  284.050;    0.000
452.637; 1985.275;  289.050;    0.000
452.683; 1992.275;  249.050;    0.000
452.729; 1969.275;  290.050;    0.000
452.775; 1982.275;  315.050;    0.000
452.821; 1922.275;  271.050;    0.000
452.867; 1929.275;  258.050;    0.000
452.913; 1966.275;  256.050;    0.000
452.959; 1913.275;  266.050;    0.000
453.005; 1897.275;  299.050;    0.000
453.051; 1919.275;  299.050;    0.000
453.097; 1971.275;  268.050;    0.000
453.142; 1905.275;  251.050;    0.000
453.188; 1929.275;  284.050;    0.000
453.234; 1849.275;  285.050;    0.000
453.280; 1874.275;  263.050;    0.000
453.326; 1890.275;  273.050;    0.000
453.372; 1847.275;  253.050;    0.000
453.418; 1921.275;  269.050;    0.000
453.463; 1925.275;  250.050;    0.000
453.509; 1999.275;  289.050;    0.000
453.555; 1933.275;  262.050;    0.000
453.601; 1848.275;  274.050;    0.000
453.647; 1951.275;  306.050;    0.000
453.692; 1959.275;  264.050;    0.000
453.738; 1842.275;  312.050;    0.000
453.784; 1891.275;  300.050;    0.000
453.829; 1850.275;  284.050;    0.000
453.875; 1880.275;  270.050;    0.000
453.921; 1868.275;  237.050;    0.000
453.967; 1903.275;  263.050;    0.000
454.012; 1916.275;  295.050;    0.000
454.058; 1913.275;  293.050;    0.000
454.104; 1890.275;  264.050;    0.000
454.149; 1896.275;  282.050;    0.000
454.195; 1826.275;  277.050;    0.000
454.240; 1950.275;  307.050;    0.000
454.286; 1867.275;  282.050;    0.000
454.332; 1951.275;  291.050;    0.000
454.377; 1850.275;  302.050;    0.000
454.423; 1843.275;  276.050;    0.000
454.468; 1899.275;  281.050;    0.000
454.514; 1872.275;  290.050;    0.000
454.559; 1856.275;  289.050;    0.000
454.605; 1841.275;  258.050;    0.000
454.650; 1928.275;  281.050;    0.000
454.696; 1862.275;  308.050;    0.000
454.741; 1910.275;  288.050;    0.000
454.787; 1880.275;  284.050;    0.000
454.832; 1961.275;  306.050;    0.000
454.878; 1862.275;  288.050;    0.000
454.923; 1883.275;  287.050;    0.000
454.969; 1873.275;  325.050;    0.000
455.014; 1956.275;  323.050;    0.000
455.060; 1921.275;  290.050;    0.000
455.105; 1917.275;  285.050;    0.000
455.150; 1920.275;  303.050;    0.000
455.196; 1915.275;  282.050;    0.000
455.241; 1844.275;  281.050;    0.000
455.286; 1895.275;  290.050;    0.000
455.332; 1885.275;  280.050;    0.000
455.377; 1860.275;  243.050;    0.000
455.422; 1820.275;  308.050;    0.000
455.468; 1944.275;  308.050;    0.000
455.513; 1830.275;  290.050;    0.000
455.558; 1855.275;  211.050;    0.000
455.604; 1874.275;  289.050;    0.000
455.649; 1964.275;  297.050;    0.000
455.694; 1890.275;  287.050;    0.000
455.739; 1903.275;  296.050;    0.000
455.785; 1964.275;  315.050;    0.000
455.830; 1883.275;  328.050;    0.000
455.875; 1884.275;  310.050;    0.000
455.920; 1871.275;  261.050;    0.000
455.965; 1824.275;  277.050;    0.000
456.010; 1894.275;  317.050;    0.000
456.056; 1886.275;  299.050;    0.000
456.101; 1860.275;  262.050;    0.000
456.146; 1884.275;  318.050;    0.000
456.191; 1910.275;  274.050;    0.000
456.236; 1825.275;  274.050;    0.000
456.281; 1883.275;  275.050;    0.000
456.326; 1834.275;  256.050;    0.000
456.371; 1824.275;  260.050;    0.000
456.416; 1895.275;  304.050;    0.000
456.461; 1845.275;  278.050;    0.000
456.507; 1838.275;  299.050;    0.000
456.552; 1931.275;  305.050;    0.000
456.597; 1802.275;  271.050;    0.000
456.642; 1962.275;  273.050;    0.000
456.687; 1917.275;  290.050;    0.000
456.732; 1929.275;  327.050;    0.000
456.776; 1908.275;  284.050;    0.000
456.821; 1861.275;  321.050;    0.000
456.866; 1871.275;  272.050;    0.000
456.911; 1819.275;  232.050;    0.000
456.956; 1871.275;  263.050;    0.000
457.001; 1898.275;  277.050;    0.000
457.046; 1869.275;  284.050;    0.000
457.091; 1900.275;  269.050;    0.000
457.136; 1834.275;  269.050;    0.000
457.181; 1884.275;  275.050;    0.000
457.225; 1909.275;  310.050;    0.000
457.270; 1911.275;  295.050;    0.000
457.315; 1844.275;  284.050;    0.000
457.360; 1873.275;  264.050;    0.000
457.405; 1848.275;  273.050;    0.000
457.450; 1935.275;  284.050;    0.000
457.494; 1974.275;  273.050;    0.000
457.539; 1816.275;  287.050;    0.000
457.584; 1835.275;  279.050;    0.000
457.629; 1892.275;  288.050;    0.000
457.673; 1894.275;  297.050;    0.000
457.718; 1939.275;  270.050;    0.000
457.763; 1914.275;  295.050;    0.000
457.807; 1904.275;  321.050;    0.000
457.852; 1866.275;  293.050;    0.000
457.897; 1943.275;  282.050;    0.000
457.941; 1998.275;  320.050;    0.000
457.986; 1933.275;  295.050;    0.000
458.031; 1902.275;  314.050;    0.000
458.075; 1931.275;  280.050;    0.000
458.120; 1932.275;  314.050;    0.000
458.165; 1937.275;  289.050;    0.000
458.209; 1977.275;  289.050;    0.000
458.254; 1861.275;  272.050;    0.000
458.298; 1924.275;  305.050;    0.000
458.343; 1932.275;  284.050;    0.000
458.387; 1967.275;  340.050;    0.000
458.432; 2031.275;  306.050;    0.000
458.476; 1943.275;  311.050;    0.000
458.521; 1924.275;  304.050;    0.000
458.565; 2004.275;  329.050;    0.000
458.610; 1902.275;  287.050;    0.000
458.654; 1994.275;  300.050;    0.000
458.699; 2064.275;  295.050;    0.000
458.743; 1946.275;  269.050;    0.000
458.788; 1974.275;  294.050;    0.000
458.832; 2005.275;  301.050;    0.000
458.877; 2041.275;  303.050;    0.000
458.921; 2010.275;  259.050;    0.000
458.965; 2079.275;  308.050;    0.000
459.010; 1989.275;  330.050;    0.000
459.054; 2029.275;  298.050;    0.000
459.099; 2017.275;  303.050;    0.000
459.143; 2023.275;  333.050;    0.000
459.187; 2090.275;  291.050;    0.000
459.231; 2081.275;  316.050;    0.000
459.276; 1997.275;  294.050;    0.000
459.320; 2097.275;  291.050;    0.000
459.364; 2114.275;  318.050;    0.000
459.409; 2035.275;  325.050;    0.000
459.453; 2047.275;  293.050;    0.000
459.497; 2131.275;  354.050;    0.000
459.541; 2119.275;  313.050;    0.000
459.586; 2065.275;  282.050;    0.000
459.630; 2066.275;  286.050;    0.000
459.674; 2084.275;  292.050;    0.000
459.718; 2088.275;  280.050;    0.000
459.762; 2080.275;  304.050;    0.000
459.807; 2101.275;  352.050;    0.000
459.851; 2143.275;  300.050;    0.000
459.895; 2120.275;  311.050;    0.000
459.939; 2086.275;  303.050;    0.000
459.983; 2056.275;  299.050;    0.000
460.027; 2091.275;  307.050;    0.000
460.071; 2062.275;  313.050;    0.000
460.115; 2106.275;  325.050;    0.000
460.159; 2183.275;  331.050;    0.000
460.204; 2152.275;  301.050;    0.000
460.248; 2138.275;  329.050;    0.000
460.292; 2159.275;  310.050;    0.000
460.336; 2115.275;  304.050;    0.000
460.380; 2102.275;  313.050;    0.000
460.424; 2130.275;  300.050;    0.000
460.468; 2177.275;  338.050;    0.000
460.512; 2172.275;  310.050;    0.000
460.556; 2138.275;  337.050;    0.000
460.599; 2093.275;  310.050;    0.000
460.643; 2175.275;  303.050;    0.000
460.687; 2109.275;  316.050;    0.000
460.731; 2110.275;  292.050;    0.000
460.775; 2129.275;  294.050;    0.000
460.819; 2143.275;  310.050;    0.000
460.863; 2160.275;  349.050;    0.000
460.907; 2111.275;  265.050;    0.000
460.951; 2143.275;  325.050;    0.000
460.995; 2131.275;  338.050;    0.000
461.038; 2200.275;  304.050;    0.000
461.082; 2110.275;  312.050;    0.000
461.126; 2196.275;  358.050;    0.000
461.170; 2150.275;  306.050;    0.000
461.214; 2220.275;  330.050;    0.000
461.257; 2208.275;  311.050;    0.000
461.301; 2175.275;  303.050;    0.000
461.345; 2172.275;  310.050;    0.000
461.389; 2117.275;  296.050;    0.000
461.432; 2130.275;  304.050;    0.000
461.476; 2186.275;  305.050;    0.000
461.520; 2172.275;  319.050;    0.000
461.563; 2184.275;  294.050;    0.000
461.607; 2163.275;  295.050;    0.000
461.651; 2135.275;  335.050;    0.000
461.694; 2183.275;  276.050;    0.000
461.738; 2218.275;  327.050;    0.000
461.782; 2246.275;  288.050;    0.000
461.825; 2206.275;  319.050;    0.000
461.869; 2202.275;  305.050;    0.000
461.913; 2180.275;  281.050;    0.000
461.956; 2187.275;  281.050;    0.000
462.000; 2231.275;  339.050;    0.000
462.043; 2241.275;  347.050;    0.000
462.087; 2299.275;  314.050;    0.000
462.130; 2282.275;  332.050;    0.000
462.174; 2282.275;  332.050;    0.000
462.217; 2352.275;  299.050;    0.000
462.261; 2317.275;  323.050;    0.000
462.304; 2204.275;  286.050;    0.000
462.348; 2265.275;  305.050;    0.000
462.391; 2277.275;  293.050;    0.000
462.435; 2298.275;  365.050;    0.000
462.478; 2293.275;  329.050;    0.000
462.522; 2306.275;  316.050;    0.000
462.565; 2257.275;  328.050;    0.000
462.608; 2371.275;  350.050;    0.000
462.652; 2299.275;  328.050;    0.000
462.695; 2405.275;  358.050;    0.000
462.739; 2361.275;  317.050;    0.000
462.782; 2357.275;  329.050;    0.000
462.825; 2336.275;  368.050;    0.000
462.869; 2378.275;  343.050;    0.000
462.912; 2461.275;  404.050;    0.000
462.955; 2333.275;  328.050;    0.000
462.998; 2401.275;  340.050;    0.000
463.042; 2428.275;  361.050;    0.000
463.085; 2393.275;  337.050;    0.000
463.128; 2371.275;  373.050;    0.000
463.172; 2319.275;  347.050;    0.000
463.215;  423.275;  305.050;    0.000
463.258;  318.275;  324.050;    0.000
463.301;  313.275;  296.050;    0.000
463.344;  320.275;  332.050;    0.000
463.388;  326.275;  309.050;    0.000
463.431;  312.275;  298.050;    0.000
463.474;  335.275;  351.050;    0.000
463.517;  279.275;  319.050;    0.000
463.560;  334.275;  325.050;    0.000
463.603;  333.275;  330.050;    0.000
463.646;  352.275;  332.050;    0.000
463.690;  314.275;  325.050;    0.000
463.733;  314.275;  323.050;    0.000
463.776;  309.275;  276.050;    0.000
463.819;  295.275;  320.050;    0.000
463.862;  296.275;  275.050;    0.000

