
Integration time [ms]:   0.300
Averaging Nr. [scans]: 1
Smoothing Nr. [pixels]: 0
Data measured with spectrometer [name]: UV1
Wave   ;Sample   ;Dark     ;Reference
[nm]   ;[counts] ;[counts] ;[counts] 

236.381;  133.900;  160.350;    0.000
236.451;  196.900;  198.350;    0.000
236.520;  161.900;  179.350;    0.000
236.590;  210.900;  205.350;    0.000
236.660;  162.900;  199.350;    0.000
236.730;  191.900;  178.350;    0.000
236.799;  187.900;  201.350;    0.000
236.869;  195.900;  197.350;    0.000
236.939;  190.900;  180.350;    0.000
237.009;  136.900;  165.350;    0.000
237.078;  184.900;  191.350;    0.000
237.148;  166.900;  146.350;    0.000
237.218;  214.900;  142.350;    0.000
237.287;  188.900;  190.350;    0.000
237.357;  167.900;  182.350;    0.000
237.427;  181.900;  139.350;    0.000
237.496;  498.900;  221.350;    0.000
237.566;  388.900;  183.350;    0.000
237.636;  373.900;  157.350;    0.000
237.705;  386.900;  189.350;    0.000
237.775;  375.900;  169.350;    0.000
237.845;  396.900;  156.350;    0.000
237.914;  365.900;  185.350;    0.000
237.984;  439.900;  194.350;    0.000
238.054;  390.900;  138.350;    0.000
238.123;  478.900;  166.350;    0.000
238.193;  395.900;  174.350;    0.000
238.263;  415.900;  158.350;    0.000
238.332;  392.900;  167.350;    0.000
238.402;  368.900;  173.350;    0.000
238.471;  348.900;  153.350;    0.000
238.541;  426.900;  167.350;    0.000
238.611;  394.900;  165.350;    0.000
238.680;  361.900;  157.350;    0.000
238.750;  403.900;  152.350;    0.000
238.819;  429.900;  190.350;    0.000
238.889;  428.900;  151.350;    0.000
238.958;  386.900;  166.350;    0.000
239.028;  387.900;  180.350;    0.000
239.097;  406.900;  170.350;    0.000
239.167;  373.900;  177.350;    0.000
239.237;  429.900;  195.350;    0.000
239.306;  386.900;  145.350;    0.000
239.376;  400.900;  158.350;    0.000
239.445;  402.900;  187.350;    0.000
239.515;  401.900;  160.350;    0.000
239.584;  415.900;  173.350;    0.000
239.654;  402.900;  184.350;    0.000
239.723;  433.900;  195.350;    0.000
239.793;  376.900;  183.350;    0.000
239.862;  387.900;  190.350;    0.000
239.932;  358.900;  168.350;    0.000
240.001;  394.900;  164.350;    0.000
240.070;  459.900;  183.350;    0.000
240.140;  379.900;  175.350;    0.000
240.209;  368.900;  135.350;    0.000
240.279;  420.900;  176.350;    0.000
240.348;  334.900;  184.350;    0.000
240.418;  364.900;  157.350;    0.000
240.487;  348.900;  189.350;    0.000
240.556;  375.900;  157.350;    0.000
240.626;  367.900;  174.350;    0.000
240.695;  366.900;  180.350;    0.000
240.765;  383.900;  152.350;    0.000
240.834;  385.900;  136.350;    0.000
240.903;  412.900;  196.350;    0.000
240.973;  366.900;  183.350;    0.000
241.042;  370.900;  150.350;    0.000
241.112;  394.900;  168.350;    0.000
241.181;  425.900;  152.350;    0.000
241.250;  381.900;  132.350;    0.000
241.320;  402.900;  209.350;    0.000
241.389;  372.900;  169.350;    0.000
241.458;  430.900;  204.350;    0.000
241.528;  407.900;  176.350;    0.000
241.597;  389.900;  170.350;    0.000
241.666;  372.900;  168.350;    0.000
241.736;  415.900;  172.350;    0.000
241.805;  366.900;  160.350;    0.000
241.874;  348.900;  176.350;    0.000
241.943;  401.900;  165.350;    0.000
242.013;  425.900;  206.350;    0.000
242.082;  388.900;  162.350;    0.000
242.151;  398.900;  180.350;    0.000
242.221;  443.900;  154.350;    0.000
242.290;  405.900;  122.350;    0.000
242.359;  343.900;  121.350;    0.000
242.428;  411.900;  187.350;    0.000
242.498;  376.900;  140.350;    0.000
242.567;  410.900;  173.350;    0.000
242.636;  387.900;  155.350;    0.000
242.705;  374.900;  108.350;    0.000
242.774;  366.900;  145.350;    0.000
242.844;  425.900;  162.350;    0.000
242.913;  372.900;  178.350;    0.000
242.982;  366.900;  163.350;    0.000
243.051;  348.900;  138.350;    0.000
243.120;  436.900;  172.350;    0.000
243.190;  379.900;  155.350;    0.000
243.259;  385.900;  159.350;    0.000
243.328;  374.900;  173.350;    0.000
243.397;  409.900;  175.350;    0.000
243.466;  383.900;  170.350;    0.000
243.535;  378.900;  161.350;    0.000
243.605;  377.900;  149.350;    0.000
243.674;  394.900;  162.350;    0.000
243.743;  391.900;  175.350;    0.000
243.812;  348.900;  159.350;    0.000
243.881;  352.900;  158.350;    0.000
243.950;  405.900;  154.350;    0.000
244.019;  408.900;  185.350;    0.000
244.088;  420.900;  175.350;    0.000
244.158;  389.900;  167.350;    0.000
244.227;  367.900;  159.350;    0.000
244.296;  373.900;  143.350;    0.000
244.365;  395.900;  182.350;    0.000
244.434;  319.900;  117.350;    0.000
244.503;  345.900;  109.350;    0.000
244.572;  360.900;  147.350;    0.000
244.641;  349.900;  129.350;    0.000
244.710;  384.900;  159.350;    0.000
244.779;  372.900;  166.350;    0.000
244.848;  339.900;  122.350;    0.000
244.917;  395.900;  167.350;    0.000
244.986;  395.900;  158.350;    0.000
245.055;  353.900;  175.350;    0.000
245.124;  365.900;  153.350;    0.000
245.193;  320.900;  155.350;    0.000
245.262;  340.900;  137.350;    0.000
245.331;  364.900;  145.350;    0.000
245.400;  323.900;  107.350;    0.000
245.469;  367.900;  162.350;    0.000
245.538;  337.900;  165.350;    0.000
245.607;  401.900;  178.350;    0.000
245.676;  357.900;  166.350;    0.000
245.745;  378.900;  169.350;    0.000
245.814;  388.900;  155.350;    0.000
245.883;  399.900;  186.350;    0.000
245.952;  393.900;  165.350;    0.000
246.021;  361.900;  169.350;    0.000
246.090;  342.900;  170.350;    0.000
246.159;  323.900;  155.350;    0.000
246.227;  348.900;  161.350;    0.000
246.296;  349.900;  142.350;    0.000
246.365;  363.900;  160.350;    0.000
246.434;  382.900;  199.350;    0.000
246.503;  378.900;  155.350;    0.000
246.572;  403.900;  206.350;    0.000
246.641;  367.900;  177.350;    0.000
246.710;  370.900;  178.350;    0.000
246.779;  392.900;  193.350;    0.000
246.847;  376.900;  147.350;    0.000
246.916;  342.900;  131.350;    0.000
246.985;  394.900;  168.350;    0.000
247.054;  348.900;  143.350;    0.000
247.123;  331.900;  130.350;    0.000
247.192;  403.900;  175.350;    0.000
247.260;  354.900;  171.350;    0.000
247.329;  364.900;  162.350;    0.000
247.398;  359.900;  163.350;    0.000
247.467;  362.900;  155.350;    0.000
247.536;  392.900;  149.350;    0.000
247.604;  396.900;  191.350;    0.000
247.673;  323.900;  193.350;    0.000
247.742;  328.900;  159.350;    0.000
247.811;  398.900;  167.350;    0.000
247.879;  309.900;  176.350;    0.000
247.948;  363.900;  157.350;    0.000
248.017;  354.900;  150.350;    0.000
248.086;  405.900;  153.350;    0.000
248.154;  400.900;  157.350;    0.000
248.223;  381.900;  198.350;    0.000
248.292;  358.900;  188.350;    0.000
248.361;  398.900;  157.350;    0.000
248.429;  333.900;  138.350;    0.000
248.498;  335.900;  166.350;    0.000
248.567;  357.900;  179.350;    0.000
248.635;  376.900;  210.350;    0.000
248.704;  404.900;  168.350;    0.000
248.773;  319.900;  147.350;    0.000
248.841;  338.900;  155.350;    0.000
248.910;  401.900;  183.350;    0.000
248.979;  321.900;  171.350;    0.000
249.047;  365.900;  152.350;    0.000
249.116;  354.900;  155.350;    0.000
249.185;  396.900;  217.350;    0.000
249.253;  289.900;  149.350;    0.000
249.322;  379.900;  167.350;    0.000
249.390;  367.900;  182.350;    0.000
249.459;  350.900;  173.350;    0.000
249.528;  357.900;  162.350;    0.000
249.596;  385.900;  162.350;    0.000
249.665;  326.900;  163.350;    0.000
249.733;  350.900;  147.350;    0.000
249.802;  382.900;  170.350;    0.000
249.871;  371.900;  179.350;    0.000
249.939;  333.900;  179.350;    0.000
250.008;  348.900;  201.350;    0.000
250.076;  366.900;  189.350;    0.000
250.145;  340.900;  171.350;    0.000
250.213;  334.900;  161.350;    0.000
250.282;  347.900;  171.350;    0.000
250.350;  343.900;  138.350;    0.000
250.419;  300.900;  172.350;    0.000
250.487;  367.900;  207.350;    0.000
250.556;  318.900;  160.350;    0.000
250.624;  342.900;  187.350;    0.000
250.693;  316.900;  141.350;    0.000
250.761;  389.900;  182.350;    0.000
250.830;  420.900;  203.350;    0.000
250.898;  330.900;  160.350;    0.000
250.967;  346.900;  143.350;    0.000
251.035;  287.900;  142.350;    0.000
251.104;  339.900;  159.350;    0.000
251.172;  337.900;  189.350;    0.000
251.241;  334.900;  134.350;    0.000
251.309;  386.900;  179.350;    0.000
251.378;  324.900;  203.350;    0.000
251.446;  334.900;  151.350;    0.000
251.514;  363.900;  176.350;    0.000
251.583;  360.900;  173.350;    0.000
251.651;  312.900;  163.350;    0.000
251.720;  339.900;  151.350;    0.000
251.788;  356.900;  205.350;    0.000
251.856;  326.900;  126.350;    0.000
251.925;  295.900;  118.350;    0.000
251.993;  381.900;  139.350;    0.000
252.062;  340.900;  161.350;    0.000
252.130;  335.900;  180.350;    0.000
252.198;  346.900;  141.350;    0.000
252.267;  294.900;  145.350;    0.000
252.335;  327.900;  159.350;    0.000
252.403;  311.900;  158.350;    0.000
252.472;  322.900;  142.350;    0.000
252.540;  330.900;  162.350;    0.000
252.608;  364.900;  180.350;    0.000
252.677;  298.900;  137.350;    0.000
252.745;  368.900;  183.350;    0.000
252.813;  324.900;  151.350;    0.000
252.881;  296.900;  109.350;    0.000
252.950;  337.900;  174.350;    0.000
253.018;  300.900;  136.350;    0.000
253.086;  297.900;  149.350;    0.000
253.155;  295.900;  127.350;    0.000
253.223;  313.900;  156.350;    0.000
253.291;  265.900;  163.350;    0.000
253.359;  307.900;  174.350;    0.000
253.428;  353.900;  174.350;    0.000
253.496;  288.900;  161.350;    0.000
253.564;  255.900;  128.350;    0.000
253.632;  273.900;  153.350;    0.000
253.700;  274.900;  185.350;    0.000
253.769;  291.900;  163.350;    0.000
253.837;  297.900;  176.350;    0.000
253.905;  296.900;  164.350;    0.000
253.973;  269.900;  156.350;    0.000
254.041;  248.900;  154.350;    0.000
254.110;  282.900;  165.350;    0.000
254.178;  297.900;  148.350;    0.000
254.246;  267.900;  138.350;    0.000
254.314;  285.900;  164.350;    0.000
254.382;  283.900;  167.350;    0.000
254.450;  256.900;  134.350;    0.000
254.518;  301.900;  192.350;    0.000
254.587;  268.900;  139.350;    0.000
254.655;  295.900;  162.350;    0.000
254.723;  252.900;  131.350;    0.000
254.791;  261.900;  181.350;    0.000
254.859;  269.900;  146.350;    0.000
254.927;  313.900;  189.350;    0.000
254.995;  256.900;  141.350;    0.000
255.063;  261.900;  181.350;    0.000
255.131;  281.900;  156.350;    0.000
255.199;  291.900;  175.350;    0.000
255.267;  261.900;  120.350;    0.000
255.336;  277.900;  186.350;    0.000
255.404;  283.900;  134.350;    0.000
255.472;  283.900;  172.350;    0.000
255.540;  284.900;  157.350;    0.000
255.608;  291.900;  186.350;    0.000
255.676;  281.900;  155.350;    0.000
255.744;  278.900;  143.350;    0.000
255.812;  294.900;  134.350;    0.000
255.880;  307.900;  188.350;    0.000
255.948;  286.900;  163.350;    0.000
256.016;  293.900;  175.350;    0.000
256.084;  306.900;  191.350;    0.000
256.152;  254.900;  187.350;    0.000
256.220;  284.900;  152.350;    0.000
256.288;  272.900;  141.350;    0.000
256.356;  259.900;  139.350;    0.000
256.424;  284.900;  121.350;    0.000
256.491;  256.900;  139.350;    0.000
256.559;  261.900;  144.350;    0.000
256.627;  289.900;  158.350;    0.000
256.695;  262.900;  121.350;    0.000
256.763;  285.900;  150.350;    0.000
256.831;  313.900;  181.350;    0.000
256.899;  309.900;  146.350;    0.000
256.967;  255.900;   71.350;    0.000
257.035;  308.900;  164.350;    0.000
257.103;  369.900;  191.350;    0.000
257.171;  263.900;  140.350;    0.000
257.238;  287.900;  165.350;    0.000
257.306;  316.900;  127.350;    0.000
257.374;  303.900;  120.350;    0.000
257.442;  285.900;  139.350;    0.000
257.510;  318.900;  158.350;    0.000
257.578;  292.900;  164.350;    0.000
257.646;  345.900;  151.350;    0.000
257.713;  320.900;  136.350;    0.000
257.781;  279.900;  137.350;    0.000
257.849;  312.900;  151.350;    0.000
257.917;  297.900;  154.350;    0.000
257.985;  257.900;  113.350;    0.000
258.052;  315.900;  140.350;    0.000
258.120;  384.900;  176.350;    0.000
258.188;  339.900;  157.350;    0.000
258.256;  313.900;  153.350;    0.000
258.324;  361.900;  184.350;    0.000
258.391;  334.900;  144.350;    0.000
258.459;  323.900;  162.350;    0.000
258.527;  312.900;  154.350;    0.000
258.595;  285.900;  122.350;    0.000
258.662;  297.900;  164.350;    0.000
258.730;  338.900;  114.350;    0.000
258.798;  324.900;  131.350;    0.000
258.865;  325.900;  171.350;    0.000
258.933;  307.900;  145.350;    0.000
259.001;  359.900;  150.350;    0.000
259.069;  322.900;  123.350;    0.000
259.136;  349.900;  139.350;    0.000
259.204;  383.900;  165.350;    0.000
259.272;  310.900;  114.350;    0.000
259.339;  368.900;  179.350;    0.000
259.407;  360.900;  153.350;    0.000
259.475;  359.900;  143.350;    0.000
259.542;  334.900;  136.350;    0.000
259.610;  364.900;  133.350;    0.000
259.677;  343.900;  159.350;    0.000
259.745;  335.900;  130.350;    0.000
259.813;  364.900;  175.350;    0.000
259.880;  380.900;  158.350;    0.000
259.948;  391.900;  124.350;    0.000
260.016;  320.900;  105.350;    0.000
260.083;  386.900;  169.350;    0.000
260.151;  351.900;  133.350;    0.000
260.218;  415.900;  143.350;    0.000
260.286;  392.900;  134.350;    0.000
260.353;  401.900;  160.350;    0.000
260.421;  384.900;  128.350;    0.000
260.489;  382.900;  150.350;    0.000
260.556;  410.900;  179.350;    0.000
260.624;  407.900;  113.350;    0.000
260.691;  401.900;  128.350;    0.000
260.759;  389.900;  146.350;    0.000
260.826;  380.900;  111.350;    0.000
260.894;  386.900;  115.350;    0.000
260.961;  444.900;  138.350;    0.000
261.029;  443.900;  152.350;    0.000
261.096;  437.900;  175.350;    0.000
261.164;  409.900;  131.350;    0.000
261.231;  436.900;  141.350;    0.000
261.299;  425.900;  125.350;    0.000
261.366;  434.900;  142.350;    0.000
261.434;  425.900;  133.350;    0.000
261.501;  433.900;  137.350;    0.000
261.568;  435.900;  184.350;    0.000
261.636;  473.900;  138.350;    0.000
261.703;  438.900;  161.350;    0.000
261.771;  403.900;  160.350;    0.000
261.838;  459.900;  178.350;    0.000
261.906;  446.900;  128.350;    0.000
261.973;  391.900;  139.350;    0.000
262.040;  490.900;  148.350;    0.000
262.108;  486.900;  130.350;    0.000
262.175;  418.900;  117.350;    0.000
262.243;  446.900;  174.350;    0.000
262.310;  414.900;  145.350;    0.000
262.377;  422.900;  108.350;    0.000
262.445;  480.900;  147.350;    0.000
262.512;  462.900;  124.350;    0.000
262.579;  478.900;  127.350;    0.000
262.647;  528.900;  166.350;    0.000
262.714;  474.900;  150.350;    0.000
262.781;  489.900;  121.350;    0.000
262.849;  450.900;  126.350;    0.000
262.916;  456.900;  119.350;    0.000
262.983;  505.900;  155.350;    0.000
263.051;  524.900;  137.350;    0.000
263.118;  485.900;  160.350;    0.000
263.185;  494.900;  151.350;    0.000
263.252;  489.900;  167.350;    0.000
263.320;  467.900;  123.350;    0.000
263.387;  489.900;  134.350;    0.000
263.454;  521.900;  144.350;    0.000
263.522;  444.900;  153.350;    0.000
263.589;  509.900;  161.350;    0.000
263.656;  464.900;  117.350;    0.000
263.723;  481.900;  101.350;    0.000
263.790;  453.900;  128.350;    0.000
263.858;  545.900;  142.350;    0.000
263.925;  503.900;  182.350;    0.000
263.992;  549.900;  146.350;    0.000
264.059;  553.900;  132.350;    0.000
264.126;  593.900;  154.350;    0.000
264.194;  605.900;  153.350;    0.000
264.261;  550.900;  157.350;    0.000
264.328;  527.900;  171.350;    0.000
264.395;  507.900;  166.350;    0.000
264.462;  593.900;  165.350;    0.000
264.529;  523.900;  124.350;    0.000
264.597;  564.900;  120.350;    0.000
264.664;  578.900;  159.350;    0.000
264.731;  576.900;  145.350;    0.000
264.798;  555.900;  100.350;    0.000
264.865;  558.900;  166.350;    0.000
264.932;  561.900;  132.350;    0.000
264.999;  534.900;  137.350;    0.000
265.066;  609.900;  124.350;    0.000
265.133;  564.900;  162.350;    0.000
265.201;  564.900;  163.350;    0.000
265.268;  529.900;  174.350;    0.000
265.335;  584.900;  132.350;    0.000
265.402;  571.900;  116.350;    0.000
265.469;  537.900;  121.350;    0.000
265.536;  553.900;  157.350;    0.000
265.603;  567.900;  151.350;    0.000
265.670;  561.900;  164.350;    0.000
265.737;  590.900;  142.350;    0.000
265.804;  551.900;  146.350;    0.000
265.871;  567.900;  168.350;    0.000
265.938;  594.900;  131.350;    0.000
266.005;  609.900;  208.350;    0.000
266.072;  534.900;  125.350;    0.000
266.139;  602.900;  161.350;    0.000
266.206;  602.900;  134.350;    0.000
266.273;  562.900;  155.350;    0.000
266.340;  537.900;  122.350;    0.000
266.407;  588.900;  134.350;    0.000
266.474;  620.900;  126.350;    0.000
266.541;  630.900;  153.350;    0.000
266.608;  556.900;  129.350;    0.000
266.675;  663.900;  185.350;    0.000
266.742;  649.900;  153.350;    0.000
266.808;  633.900;  169.350;    0.000
266.875;  674.900;  156.350;    0.000
266.942;  561.900;  172.350;    0.000
267.009;  592.900;  150.350;    0.000
267.076;  665.900;  184.350;    0.000
267.143;  641.900;  170.350;    0.000
267.210;  594.900;  132.350;    0.000
267.277;  613.900;  146.350;    0.000
267.344;  667.900;  159.350;    0.000
267.410;  629.900;  174.350;    0.000
267.477;  639.900;  169.350;    0.000
267.544;  604.900;  130.350;    0.000
267.611;  633.900;  169.350;    0.000
267.678;  650.900;  197.350;    0.000
267.745;  605.900;  185.350;    0.000
267.811;  610.900;  160.350;    0.000
267.878;  607.900;  143.350;    0.000
267.945;  611.900;  126.350;    0.000
268.012;  666.900;  172.350;    0.000
268.079;  653.900;  156.350;    0.000
268.145;  658.900;  128.350;    0.000
268.212;  654.900;  107.350;    0.000
268.279;  600.900;  135.350;    0.000
268.346;  656.900;  166.350;    0.000
268.412;  661.900;  150.350;    0.000
268.479;  640.900;  176.350;    0.000
268.546;  574.900;  119.350;    0.000
268.613;  705.900;  201.350;    0.000
268.679;  663.900;  141.350;    0.000
268.746;  637.900;  177.350;    0.000
268.813;  639.900;  134.350;    0.000
268.879;  638.900;  141.350;    0.000
268.946;  703.900;  172.350;    0.000
269.013;  666.900;  150.350;    0.000
269.079;  665.900;  124.350;    0.000
269.146;  620.900;  135.350;    0.000
269.213;  632.900;  200.350;    0.000
269.280;  734.900;  142.350;    0.000
269.346;  704.900;  153.350;    0.000
269.413;  683.900;  140.350;    0.000
269.479;  669.900;  171.350;    0.000
269.546;  651.900;  156.350;    0.000
269.613;  608.900;  145.350;    0.000
269.679;  645.900;  168.350;    0.000
269.746;  632.900;  136.350;    0.000
269.813;  683.900;  153.350;    0.000
269.879;  670.900;  162.350;    0.000
269.946;  637.900;  156.350;    0.000
270.012;  651.900;  178.350;    0.000
270.079;  621.900;  132.350;    0.000
270.145;  598.900;  146.350;    0.000
270.212;  626.900;  145.350;    0.000
270.279;  631.900;  184.350;    0.000
270.345;  608.900;  143.350;    0.000
270.412;  639.900;  158.350;    0.000
270.478;  588.900;  143.350;    0.000
270.545;  630.900;  150.350;    0.000
270.611;  686.900;  156.350;    0.000
270.678;  623.900;  121.350;    0.000
270.744;  614.900;  161.350;    0.000
270.811;  649.900;  173.350;    0.000
270.877;  646.900;  115.350;    0.000
270.944;  662.900;  114.350;    0.000
271.010;  638.900;  122.350;    0.000
271.077;  690.900;  142.350;    0.000
271.143;  637.900;  152.350;    0.000
271.210;  642.900;  135.350;    0.000
271.276;  658.900;  107.350;    0.000
271.342;  670.900;  173.350;    0.000
271.409;  588.900;  171.350;    0.000
271.475;  613.900;  136.350;    0.000
271.542;  634.900;  121.350;    0.000
271.608;  586.900;  133.350;    0.000
271.675;  672.900;  136.350;    0.000
271.741;  695.900;  151.350;    0.000
271.807;  659.900;  130.350;    0.000
271.874;  596.900;  168.350;    0.000
271.940;  638.900;  156.350;    0.000
272.007;  595.900;  122.350;    0.000
272.073;  684.900;  121.350;    0.000
272.139;  694.900;  137.350;    0.000
272.206;  689.900;  152.350;    0.000
272.272;  682.900;  162.350;    0.000
272.338;  672.900;  197.350;    0.000
272.405;  645.900;  144.350;    0.000
272.471;  586.900;  160.350;    0.000
272.537;  669.900;  142.350;    0.000
272.604;  666.900;  141.350;    0.000
272.670;  705.900;  182.350;    0.000
272.736;  641.900;  126.350;    0.000
272.802;  678.900;  146.350;    0.000
272.869;  635.900;  163.350;    0.000
272.935;  642.900;  132.350;    0.000
273.001;  637.900;  119.350;    0.000
273.068;  659.900;  137.350;    0.000
273.134;  656.900;  155.350;    0.000
273.200;  684.900;  165.350;    0.000
273.266;  700.900;  156.350;    0.000
273.333;  681.900;  143.350;    0.000
273.399;  620.900;  128.350;    0.000
273.465;  701.900;  167.350;    0.000
273.531;  629.900;  122.350;    0.000
273.597;  701.900;  182.350;    0.000
273.664;  723.900;  177.350;    0.000
273.730;  691.900;  124.350;    0.000
273.796;  643.900;  143.350;    0.000
273.862;  713.900;  155.350;    0.000
273.928;  625.900;  137.350;    0.000
273.995;  696.900;  188.350;    0.000
274.061;  686.900;  154.350;    0.000
274.127;  638.900;  161.350;    0.000
274.193;  637.900;   95.350;    0.000
274.259;  609.900;  128.350;    0.000
274.325;  719.900;  146.350;    0.000
274.391;  674.900;  113.350;    0.000
274.457;  714.900;  150.350;    0.000
274.524;  697.900;  165.350;    0.000
274.590;  643.900;  140.350;    0.000
274.656;  724.900;  165.350;    0.000
274.722;  658.900;  118.350;    0.000
274.788;  684.900;  143.350;    0.000
274.854;  677.900;  150.350;    0.000
274.920;  700.900;   88.350;    0.000
274.986;  701.900;  178.350;    0.000
275.052;  736.900;  145.350;    0.000
275.118;  711.900;  105.350;    0.000
275.184;  787.900;  129.350;    0.000
275.250;  763.900;  138.350;    0.000
275.316;  779.900;  173.350;    0.000
275.382;  691.900;  106.350;    0.000
275.448;  814.900;  160.350;    0.000
275.514;  738.900;  162.350;    0.000
275.580;  758.900;  135.350;    0.000
275.646;  700.900;  120.350;    0.000
275.712;  758.900;  157.350;    0.000
275.778;  804.900;  128.350;    0.000
275.844;  702.900;  117.350;    0.000
275.910;  810.900;  121.350;    0.000
275.976;  895.900;  172.350;    0.000
276.042;  804.900;  114.350;    0.000
276.108;  847.900;  200.350;    0.000
276.174;  870.900;  132.350;    0.000
276.240;  794.900;  128.350;    0.000
276.306;  888.900;  124.350;    0.000
276.372;  923.900;  133.350;    0.000
276.437;  832.900;  146.350;    0.000
276.503;  888.900;  136.350;    0.000
276.569;  926.900;  162.350;    0.000
276.635;  855.900;  128.350;    0.000
276.701;  890.900;  148.350;    0.000
276.767;  893.900;  155.350;    0.000
276.833;  933.900;  128.350;    0.000
276.899;  980.900;  145.350;    0.000
276.964;  928.900;  124.350;    0.000
277.030; 1048.900;  130.350;    0.000
277.096;  995.900;  139.350;    0.000
277.162; 1061.900;  164.350;    0.000
277.228; 1051.900;  108.350;    0.000
277.293; 1119.900;  138.350;    0.000
277.359; 1093.900;  123.350;    0.000
277.425; 1242.900;  183.350;    0.000
277.491; 1387.900;  144.350;    0.000
277.557; 1508.900;  130.350;    0.000
277.622; 2100.900;  151.350;    0.000
277.688; 2055.900;  169.350;    0.000
277.754; 2082.900;  199.350;    0.000
277.820; 2216.900;  170.350;    0.000
277.885; 2611.900;  173.350;    0.000
277.951; 3145.900;  187.350;    0.000
278.017; 2792.900;  152.350;    0.000
278.083; 2398.900;  137.350;    0.000
278.148; 2375.900;  147.350;    0.000
278.214; 2334.900;  162.350;    0.000
278.280; 2511.900;  171.350;    0.000
278.345; 2427.900;  174.350;    0.000
278.411; 2036.900;  152.350;    0.000
278.477; 2152.900;  173.350;    0.000
278.542; 2326.900;  161.350;    0.000
278.608; 2376.900;  155.350;    0.000
278.674; 2726.900;  169.350;    0.000
278.739; 2901.900;  142.350;    0.000
278.805; 3349.900;  164.350;    0.000
278.871; 3604.900;  160.350;    0.000
278.936; 4665.900;  121.350;    0.000
279.002; 6160.900;  166.350;    0.000
279.067; 7791.900;  199.350;    0.000
279.133; 7565.900;  150.350;    0.000
279.199; 6487.900;  154.350;    0.000
279.264; 6965.900;  154.350;    0.000
279.330; 7921.900;  159.350;    0.000
279.395;10070.900;  143.350;    0.000
279.461;12229.900;  173.350;    0.000
279.527;13124.900;  163.350;    0.000
279.592;12123.900;  167.350;    0.000
279.658;10559.900;  189.350;    0.000
279.723;10412.900;  153.350;    0.000
279.789;11617.900;  174.350;    0.000
279.854; 9355.900;  129.350;    0.000
279.920; 8230.900;  165.350;    0.000
279.985; 7796.900;  152.350;    0.000
280.051; 8033.900;  164.350;    0.000
280.116; 8983.900;  187.350;    0.000
280.182;12098.900;  160.350;    0.000
280.247;12840.900;  124.350;    0.000
280.313;11467.900;  154.350;    0.000
280.378; 8353.900;  152.350;    0.000
280.444; 6640.900;  165.350;    0.000
280.509; 5410.900;  164.350;    0.000
280.574; 4905.900;  160.350;    0.000
280.640; 4062.900;  167.350;    0.000
280.705; 3715.900;  190.350;    0.000
280.771; 3469.900;  154.350;    0.000
280.836; 3248.900;  158.350;    0.000
280.902; 2997.900;  124.350;    0.000
280.967; 2944.900;  179.350;    0.000
281.032; 2952.900;  187.350;    0.000
281.098; 2455.900;  155.350;    0.000
281.163; 2417.900;  133.350;    0.000
281.229; 2383.900;  170.350;    0.000
281.294; 2237.900;  175.350;    0.000
281.359; 2239.900;  163.350;    0.000
281.425; 2124.900;  161.350;    0.000
281.490; 2015.900;  162.350;    0.000
281.555; 1936.900;  137.350;    0.000
281.621; 1887.900;  163.350;    0.000
281.686; 1764.900;  155.350;    0.000
281.751; 1789.900;  158.350;    0.000
281.816; 1642.900;  139.350;    0.000
281.882; 1673.900;  150.350;    0.000
281.947; 1536.900;  165.350;    0.000
282.012; 1589.900;  171.350;    0.000
282.078; 1591.900;  177.350;    0.000
282.143; 1552.900;  149.350;    0.000
282.208; 1533.900;  181.350;    0.000
282.273; 1559.900;  166.350;    0.000
282.339; 1487.900;  165.350;    0.000
282.404; 1504.900;  166.350;    0.000
282.469; 1281.900;  150.350;    0.000
282.534; 1411.900;  176.350;    0.000
282.600; 1340.900;  117.350;    0.000
282.665; 1354.900;  134.350;    0.000
282.730; 1363.900;  155.350;    0.000
282.795; 1415.900;  193.350;    0.000
282.860; 1298.900;  160.350;    0.000
282.926; 1251.900;  174.350;    0.000
282.991; 1262.900;  161.350;    0.000
283.056; 1314.900;  157.350;    0.000
283.121; 1310.900;  178.350;    0.000
283.186; 1264.900;  152.350;    0.000
283.251; 1168.900;  167.350;    0.000
283.316; 1228.900;  186.350;    0.000
283.382; 1340.900;  148.350;    0.000
283.447; 1274.900;  191.350;    0.000
283.512; 1215.900;  132.350;    0.000
283.577; 1221.900;  179.350;    0.000
283.642; 1233.900;  185.350;    0.000
283.707; 1137.900;  136.350;    0.000
283.772; 1102.900;  119.350;    0.000
283.837; 1152.900;  136.350;    0.000
283.902; 1219.900;  135.350;    0.000
283.967; 1145.900;  146.350;    0.000
284.032; 1145.900;  140.350;    0.000
284.097; 1190.900;  199.350;    0.000
284.163; 1181.900;  144.350;    0.000
284.228; 1254.900;  183.350;    0.000
284.293; 1149.900;  141.350;    0.000
284.358; 1185.900;  146.350;    0.000
284.423; 1272.900;  127.350;    0.000
284.488; 1241.900;  186.350;    0.000
284.553; 1228.900;  155.350;    0.000
284.618; 1215.900;  118.350;    0.000
284.683; 1415.900;  145.350;    0.000
284.748; 1411.900;  139.350;    0.000
284.812; 1517.900;  147.350;    0.000
284.877; 1723.900;  123.350;    0.000
284.942; 2014.900;  153.350;    0.000
285.007; 2512.900;  168.350;    0.000
285.072; 3090.900;  181.350;    0.000
285.137; 4347.900;  147.350;    0.000
285.202; 5430.900;  175.350;    0.000
285.267; 4932.900;  182.350;    0.000
285.332; 3567.900;  136.350;    0.000
285.397; 2650.900;  138.350;    0.000
285.462; 2284.900;  151.350;    0.000
285.527; 1888.900;  159.350;    0.000
285.591; 1829.900;  177.350;    0.000
285.656; 1506.900;  144.350;    0.000
285.721; 1618.900;  125.350;    0.000
285.786; 1437.900;  169.350;    0.000
285.851; 1371.900;  175.350;    0.000
285.916; 1373.900;  164.350;    0.000
285.981; 1300.900;  134.350;    0.000
286.045; 1234.900;  154.350;    0.000
286.110; 1255.900;  136.350;    0.000
286.175; 1162.900;  155.350;    0.000
286.240; 1247.900;  138.350;    0.000
286.305; 1153.900;  213.350;    0.000
286.369; 1136.900;  221.350;    0.000
286.434; 1156.900;  172.350;    0.000
286.499; 1140.900;  161.350;    0.000
286.564; 1172.900;  189.350;    0.000
286.628; 1099.900;  144.350;    0.000
286.693; 1127.900;  176.350;    0.000
286.758; 1089.900;  168.350;    0.000
286.823; 1085.900;  142.350;    0.000
286.887; 1125.900;  134.350;    0.000
286.952; 1090.900;  180.350;    0.000
287.017; 1078.900;  204.350;    0.000
287.082; 1075.900;  120.350;    0.000
287.146;  967.900;  173.350;    0.000
287.211; 1033.900;  167.350;    0.000
287.276;  976.900;  164.350;    0.000
287.340; 1086.900;  138.350;    0.000
287.405; 1032.900;  172.350;    0.000
287.470; 1008.900;  142.350;    0.000
287.534; 1039.900;  155.350;    0.000
287.599;  967.900;  166.350;    0.000
287.663;  996.900;  171.350;    0.000
287.728; 1091.900;  190.350;    0.000
287.793; 1031.900;  197.350;    0.000
287.857;  998.900;  165.350;    0.000
287.922; 1016.900;  147.350;    0.000
287.987; 1001.900;  167.350;    0.000
288.051; 1030.900;  151.350;    0.000
288.116;  962.900;  154.350;    0.000
288.180; 1028.900;  186.350;    0.000
288.245;  995.900;  161.350;    0.000
288.309; 1047.900;  177.350;    0.000
288.374; 1030.900;  151.350;    0.000
288.439; 1030.900;  169.350;    0.000
288.503;  999.900;  133.350;    0.000
288.568; 1000.900;  206.350;    0.000
288.632;  942.900;  192.350;    0.000
288.697;  934.900;  183.350;    0.000
288.761; 1028.900;  148.350;    0.000
288.826;  988.900;  136.350;    0.000
288.890;  969.900;  185.350;    0.000
288.955; 1108.900;  150.350;    0.000
289.019;  982.900;  165.350;    0.000
289.084;  953.900;  150.350;    0.000
289.148; 1045.900;  146.350;    0.000
289.212;  989.900;  172.350;    0.000
289.277;  995.900;  177.350;    0.000
289.341;  978.900;  190.350;    0.000
289.406;  975.900;  117.350;    0.000
289.470;  965.900;  173.350;    0.000
289.535;  983.900;  170.350;    0.000
289.599; 1008.900;  154.350;    0.000
289.663;  888.900;  173.350;    0.000
289.728;  984.900;  176.350;    0.000
289.792; 1023.900;  138.350;    0.000
289.857;  984.900;  203.350;    0.000
289.921;  949.900;  143.350;    0.000
289.985;  983.900;  150.350;    0.000
290.050;  981.900;  170.350;    0.000
290.114;  924.900;  125.350;    0.000
290.178;  969.900;  161.350;    0.000
290.243;  943.900;  119.350;    0.000
290.307; 1002.900;  169.350;    0.000
290.371;  901.900;  169.350;    0.000
290.436;  975.900;  170.350;    0.000
290.500; 1029.900;  144.350;    0.000
290.564;  956.900;  179.350;    0.000
290.629;  954.900;  166.350;    0.000
290.693;  955.900;  156.350;    0.000
290.757; 1030.900;  147.350;    0.000
290.821;  919.900;  170.350;    0.000
290.886;  915.900;  167.350;    0.000
290.950;  944.900;  187.350;    0.000
291.014; 1054.900;  164.350;    0.000
291.078;  988.900;  115.350;    0.000
291.143;  990.900;  149.350;    0.000
291.207; 1122.900;  163.350;    0.000
291.271;  861.900;  177.350;    0.000
291.335;  932.900;  148.350;    0.000
291.399;  969.900;  155.350;    0.000
291.464; 1048.900;  114.350;    0.000
291.528; 1128.900;  153.350;    0.000
291.592; 1083.900;  156.350;    0.000
291.656; 1087.900;  170.350;    0.000
291.720;  987.900;  159.350;    0.000
291.784; 1117.900;  159.350;    0.000
291.849; 1089.900;  154.350;    0.000
291.913; 1090.900;  118.350;    0.000
291.977; 1012.900;  157.350;    0.000
292.041; 1096.900;  163.350;    0.000
292.105; 1103.900;  135.350;    0.000
292.169;  903.900;  155.350;    0.000
292.233; 1052.900;  163.350;    0.000
292.297; 1069.900;  144.350;    0.000
292.361; 1075.900;  143.350;    0.000
292.425; 1084.900;  177.350;    0.000
292.490; 1102.900;  159.350;    0.000
292.554; 1203.900;  137.350;    0.000
292.618; 1257.900;  144.350;    0.000
292.682; 1432.900;  169.350;    0.000
292.746; 1343.900;  166.350;    0.000
292.810; 1902.900;  147.350;    0.000
292.874; 2396.900;  160.350;    0.000
292.938; 2305.900;  174.350;    0.000
293.002; 2035.900;  148.350;    0.000
293.066; 1862.900;  115.350;    0.000
293.130; 1726.900;  133.350;    0.000
293.194; 1651.900;  148.350;    0.000
293.258; 1643.900;  167.350;    0.000
293.322; 1572.900;  166.350;    0.000
293.386; 1656.900;  193.350;    0.000
293.450; 1592.900;  142.350;    0.000
293.514; 2016.900;  170.350;    0.000
293.577; 2422.900;  153.350;    0.000
293.641; 3345.900;  171.350;    0.000
293.705; 3471.900;  168.350;    0.000
293.769; 3025.900;  155.350;    0.000
293.833; 2541.900;  161.350;    0.000
293.897; 2198.900;  124.350;    0.000
293.961; 2093.900;  165.350;    0.000
294.025; 1876.900;  118.350;    0.000
294.089; 1943.900;  125.350;    0.000
294.152; 1749.900;  160.350;    0.000
294.216; 1662.900;  160.350;    0.000
294.280; 1597.900;  158.350;    0.000
294.344; 1467.900;  119.350;    0.000
294.408; 1428.900;  168.350;    0.000
294.472; 1355.900;  156.350;    0.000
294.536; 1322.900;  192.350;    0.000
294.599; 1341.900;  171.350;    0.000
294.663; 1188.900;  139.350;    0.000
294.727; 1283.900;  136.350;    0.000
294.791; 1326.900;  118.350;    0.000
294.855; 1278.900;  118.350;    0.000
294.918; 1193.900;  127.350;    0.000
294.982; 1207.900;  167.350;    0.000
295.046; 1216.900;  178.350;    0.000
295.110; 1166.900;  157.350;    0.000
295.173; 1146.900;  101.350;    0.000
295.237; 1105.900;  145.350;    0.000
295.301; 1000.900;  135.350;    0.000
295.364; 1101.900;  185.350;    0.000
295.428; 1120.900;  112.350;    0.000
295.492; 1012.900;  142.350;    0.000
295.556; 1037.900;  170.350;    0.000
295.619; 1079.900;  193.350;    0.000
295.683;  975.900;  144.350;    0.000
295.747; 1011.900;  152.350;    0.000
295.810; 1099.900;  139.350;    0.000
295.874; 1043.900;  157.350;    0.000
295.938;  948.900;  128.350;    0.000
296.001;  968.900;  164.350;    0.000
296.065;  882.900;  184.350;    0.000
296.128;  912.900;  127.350;    0.000
296.192;  990.900;  166.350;    0.000
296.256;  887.900;  154.350;    0.000
296.319;  823.900;  128.350;    0.000
296.383; 1012.900;  146.350;    0.000
296.447;  959.900;  155.350;    0.000
296.510;  914.900;  177.350;    0.000
296.574;  980.900;  169.350;    0.000
296.637;  992.900;  140.350;    0.000
296.701;  967.900;  181.350;    0.000
296.764; 1010.900;  131.350;    0.000
296.828;  876.900;  194.350;    0.000
296.891;  953.900;  146.350;    0.000
296.955;  841.900;  160.350;    0.000
297.018;  930.900;  174.350;    0.000
297.082;  926.900;  153.350;    0.000
297.145;  839.900;  133.350;    0.000
297.209;  865.900;  149.350;    0.000
297.272;  913.900;  150.350;    0.000
297.336;  890.900;  119.350;    0.000
297.399;  890.900;  160.350;    0.000
297.463;  860.900;  158.350;    0.000
297.526;  913.900;  160.350;    0.000
297.590;  871.900;  173.350;    0.000
297.653;  924.900;  121.350;    0.000
297.717;  882.900;  168.350;    0.000
297.780;  859.900;  131.350;    0.000
297.843;  921.900;  154.350;    0.000
297.907;  920.900;  126.350;    0.000
297.970;  837.900;  180.350;    0.000
298.034;  870.900;  140.350;    0.000
298.097;  876.900;  207.350;    0.000
298.160;  879.900;  177.350;    0.000
298.224;  853.900;  165.350;    0.000
298.287;  887.900;  160.350;    0.000
298.350;  850.900;  176.350;    0.000
298.414;  839.900;  155.350;    0.000
298.477;  742.900;  132.350;    0.000
298.540;  827.900;  162.350;    0.000
298.604;  858.900;  180.350;    0.000
298.667;  834.900;  208.350;    0.000
298.730;  844.900;  177.350;    0.000
298.794;  810.900;  126.350;    0.000
298.857;  916.900;  171.350;    0.000
298.920;  850.900;  124.350;    0.000
298.984;  892.900;  146.350;    0.000
299.047;  865.900;  140.350;    0.000
299.110;  902.900;  159.350;    0.000
299.173;  793.900;  177.350;    0.000
299.237;  844.900;  196.350;    0.000
299.300;  783.900;  121.350;    0.000
299.363;  835.900;  172.350;    0.000
299.426;  786.900;  117.350;    0.000
299.489;  785.900;  138.350;    0.000
299.553;  843.900;  198.350;    0.000
299.616;  846.900;  158.350;    0.000
299.679;  854.900;  148.350;    0.000
299.742;  820.900;  138.350;    0.000
299.805;  735.900;  157.350;    0.000
299.868;  876.900;  183.350;    0.000
299.932;  876.900;  137.350;    0.000
299.995;  876.900;  152.350;    0.000
300.058;  785.900;  171.350;    0.000
300.121;  878.900;  172.350;    0.000
300.184;  789.900;  161.350;    0.000
300.247;  787.900;  156.350;    0.000
300.310;  831.900;  154.350;    0.000
300.374;  871.900;  147.350;    0.000
300.437;  820.900;  144.350;    0.000
300.500;  833.900;  152.350;    0.000
300.563;  764.900;  160.350;    0.000
300.626;  840.900;  167.350;    0.000
300.689;  832.900;  193.350;    0.000
300.752;  751.900;  134.350;    0.000
300.815;  831.900;  194.350;    0.000
300.878;  839.900;  156.350;    0.000
300.941;  837.900;  177.350;    0.000
301.004;  729.900;  160.350;    0.000
301.067;  762.900;  153.350;    0.000
301.130;  798.900;  167.350;    0.000
301.193;  752.900;  156.350;    0.000
301.256;  799.900;  176.350;    0.000
301.319;  817.900;  172.350;    0.000
301.382;  778.900;  150.350;    0.000
301.445;  772.900;  183.350;    0.000
301.508;  719.900;  118.350;    0.000
301.571;  756.900;  142.350;    0.000
301.634;  811.900;  164.350;    0.000
301.697;  692.900;  169.350;    0.000
301.760;  831.900;  197.350;    0.000
301.823;  810.900;  155.350;    0.000
301.885;  779.900;  165.350;    0.000
301.948;  770.900;  168.350;    0.000
302.011;  825.900;  172.350;    0.000
302.074;  820.900;  182.350;    0.000
302.137;  762.900;  161.350;    0.000
302.200;  814.900;  174.350;    0.000
302.263;  718.900;  158.350;    0.000
302.326;  763.900;  168.350;    0.000
302.388;  779.900;  165.350;    0.000
302.451;  824.900;  158.350;    0.000
302.514;  730.900;  181.350;    0.000
302.577;  760.900;  147.350;    0.000
302.640;  772.900;  178.350;    0.000
302.703;  794.900;  164.350;    0.000
302.765;  763.900;  149.350;    0.000
302.828;  854.900;  192.350;    0.000
302.891;  831.900;  201.350;    0.000
302.954;  851.900;  135.350;    0.000
303.016;  802.900;  180.350;    0.000
303.079;  854.900;  192.350;    0.000
303.142;  814.900;  176.350;    0.000
303.205;  768.900;  176.350;    0.000
303.267;  758.900;  163.350;    0.000
303.330;  812.900;  162.350;    0.000
303.393;  718.900;  164.350;    0.000
303.456;  722.900;  180.350;    0.000
303.518;  741.900;  162.350;    0.000
303.581;  718.900;  137.350;    0.000
303.644;  715.900;  135.350;    0.000
303.706;  784.900;  170.350;    0.000
303.769;  744.900;  216.350;    0.000
303.832;  811.900;  143.350;    0.000
303.894;  832.900;  162.350;    0.000
303.957;  814.900;  149.350;    0.000
304.020;  781.900;  111.350;    0.000
304.082;  841.900;  158.350;    0.000
304.145;  770.900;  149.350;    0.000
304.207;  747.900;  169.350;    0.000
304.270;  812.900;  170.350;    0.000
304.333;  737.900;  185.350;    0.000
304.395;  777.900;  179.350;    0.000
304.458;  888.900;  174.350;    0.000
304.520;  812.900;  160.350;    0.000
304.583;  763.900;  175.350;    0.000
304.646;  733.900;  160.350;    0.000
304.708;  711.900;  173.350;    0.000
304.771;  795.900;  115.350;    0.000
304.833;  801.900;  172.350;    0.000
304.896;  788.900;  187.350;    0.000
304.958;  777.900;  142.350;    0.000
305.021;  780.900;  164.350;    0.000
305.083;  820.900;  139.350;    0.000
305.146;  831.900;  162.350;    0.000
305.208;  833.900;  135.350;    0.000
305.271;  741.900;  159.350;    0.000
305.333;  823.900;  210.350;    0.000
305.396;  823.900;  151.350;    0.000
305.458;  824.900;  195.350;    0.000
305.520;  765.900;  179.350;    0.000
305.583;  775.900;  157.350;    0.000
305.645;  892.900;  187.350;    0.000
305.708;  722.900;  159.350;    0.000
305.770;  767.900;  189.350;    0.000
305.833;  865.900;  147.350;    0.000
305.895;  860.900;  154.350;    0.000
305.957;  807.900;  143.350;    0.000
306.020;  816.900;  133.350;    0.000
306.082;  762.900;  146.350;    0.000
306.144;  829.900;  171.350;    0.000
306.207;  753.900;  151.350;    0.000
306.269;  782.900;  169.350;    0.000
306.331;  855.900;  162.350;    0.000
306.394;  752.900;  171.350;    0.000
306.456;  733.900;  155.350;    0.000
306.518;  791.900;  183.350;    0.000
306.581;  732.900;  180.350;    0.000
306.643;  720.900;  199.350;    0.000
306.705;  717.900;  163.350;    0.000
306.768;  787.900;  183.350;    0.000
306.830;  800.900;  183.350;    0.000
306.892;  751.900;  190.350;    0.000
306.954;  797.900;  161.350;    0.000
307.017;  801.900;  151.350;    0.000
307.079;  778.900;  147.350;    0.000
307.141;  805.900;  179.350;    0.000
307.203;  816.900;  143.350;    0.000
307.266;  791.900;  142.350;    0.000
307.328;  853.900;  161.350;    0.000
307.390;  804.900;  189.350;    0.000
307.452;  795.900;  155.350;    0.000
307.514;  807.900;  211.350;    0.000
307.577;  808.900;  201.350;    0.000
307.639;  893.900;  192.350;    0.000
307.701;  871.900;  162.350;    0.000
307.763;  840.900;  155.350;    0.000
307.825;  870.900;  193.350;    0.000
307.887;  889.900;  214.350;    0.000
307.949;  829.900;  208.350;    0.000
308.012;  776.900;  175.350;    0.000
308.074;  779.900;  155.350;    0.000
308.136;  882.900;  172.350;    0.000
308.198;  825.900;  171.350;    0.000
308.260;  819.900;  182.350;    0.000
308.322;  899.900;  177.350;    0.000
308.384;  876.900;  207.350;    0.000
308.446;  816.900;  170.350;    0.000
308.508;  857.900;  177.350;    0.000
308.570;  944.900;  195.350;    0.000
308.632;  900.900;  190.350;    0.000
308.694;  889.900;  161.350;    0.000
308.756;  889.900;  173.350;    0.000
308.818;  869.900;  190.350;    0.000
308.880;  975.900;  197.350;    0.000
308.942;  869.900;  223.350;    0.000
309.004;  947.900;  176.350;    0.000
309.066;  893.900;  182.350;    0.000
309.128;  929.900;  185.350;    0.000
309.190; 1010.900;  166.350;    0.000
309.252; 1015.900;  191.350;    0.000
309.314; 1024.900;  208.350;    0.000
309.376; 1063.900;  205.350;    0.000
309.438; 1015.900;  166.350;    0.000
309.500;  978.900;  195.350;    0.000
309.562; 1048.900;  163.350;    0.000
309.624; 1021.900;  162.350;    0.000
309.686; 1152.900;  194.350;    0.000
309.747; 1148.900;  179.350;    0.000
309.809; 1010.900;  211.350;    0.000
309.871;  959.900;  191.350;    0.000
309.933;  969.900;  151.350;    0.000
309.995;  989.900;  179.350;    0.000
310.057;  977.900;  175.350;    0.000
310.119;  900.900;  161.350;    0.000
310.180;  900.900;  167.350;    0.000
310.242;  951.900;  171.350;    0.000
310.304;  901.900;  209.350;    0.000
310.366;  943.900;  229.350;    0.000
310.428;  827.900;  132.350;    0.000
310.489;  961.900;  165.350;    0.000
310.551;  940.900;  193.350;    0.000
310.613;  863.900;  182.350;    0.000
310.675;  876.900;  186.350;    0.000
310.737;  900.900;  192.350;    0.000
310.798;  921.900;  194.350;    0.000
310.860;  967.900;  220.350;    0.000
310.922;  978.900;  161.350;    0.000
310.983;  899.900;  203.350;    0.000
311.045;  911.900;  198.350;    0.000
311.107;  961.900;  179.350;    0.000
311.169;  946.900;  154.350;    0.000
311.230;  862.900;  134.350;    0.000
311.292;  880.900;  215.350;    0.000
311.354;  938.900;  171.350;    0.000
311.415;  875.900;  195.350;    0.000
311.477;  884.900;  185.350;    0.000
311.539;  812.900;  183.350;    0.000
311.600;  895.900;  183.350;    0.000
311.662;  920.900;  207.350;    0.000
311.724;  974.900;  193.350;    0.000
311.785;  913.900;  180.350;    0.000
311.847;  873.900;  155.350;    0.000
311.908;  870.900;  179.350;    0.000
311.970;  861.900;  193.350;    0.000
312.032;  852.900;  188.350;    0.000
312.093;  897.900;  166.350;    0.000
312.155;  939.900;  147.350;    0.000
312.216;  902.900;  177.350;    0.000
312.278;  867.900;  162.350;    0.000
312.339;  823.900;  158.350;    0.000
312.401;  937.900;  181.350;    0.000
312.462;  842.900;  153.350;    0.000
312.524;  904.900;  186.350;    0.000
312.585;  920.900;  191.350;    0.000
312.647;  860.900;  131.350;    0.000
312.708;  873.900;  170.350;    0.000
312.770;  896.900;  194.350;    0.000
312.831;  849.900;  161.350;    0.000
312.893;  847.900;  179.350;    0.000
312.954;  901.900;  183.350;    0.000
313.016;  869.900;  189.350;    0.000
313.077;  963.900;  169.350;    0.000
313.139;  891.900;  148.350;    0.000
313.200;  900.900;  155.350;    0.000
313.261;  909.900;  213.350;    0.000
313.323;  901.900;  162.350;    0.000
313.384;  792.900;  160.350;    0.000
313.446;  874.900;  202.350;    0.000
313.507;  911.900;  149.350;    0.000
313.568;  863.900;  194.350;    0.000
313.630;  851.900;  163.350;    0.000
313.691;  789.900;  158.350;    0.000
313.752;  890.900;  179.350;    0.000
313.814;  876.900;  180.350;    0.000
313.875;  958.900;  191.350;    0.000
313.936;  820.900;  169.350;    0.000
313.998;  807.900;  165.350;    0.000
314.059;  924.900;  211.350;    0.000
314.120;  817.900;  190.350;    0.000
314.182;  852.900;  185.350;    0.000
314.243;  827.900;  186.350;    0.000
314.304;  768.900;  178.350;    0.000
314.365;  797.900;  187.350;    0.000
314.427;  865.900;  145.350;    0.000
314.488;  807.900;  184.350;    0.000
314.549;  916.900;  181.350;    0.000
314.610;  843.900;  151.350;    0.000
314.672;  855.900;  153.350;    0.000
314.733;  833.900;  148.350;    0.000
314.794;  850.900;  156.350;    0.000
314.855;  895.900;  196.350;    0.000
314.917;  870.900;  157.350;    0.000
314.978;  860.900;  174.350;    0.000
315.039;  871.900;  168.350;    0.000
315.100;  920.900;  154.350;    0.000
315.161;  850.900;  176.350;    0.000
315.222;  898.900;  198.350;    0.000
315.283;  883.900;  169.350;    0.000
315.345;  790.900;  162.350;    0.000
315.406;  871.900;  199.350;    0.000
315.467;  804.900;  180.350;    0.000
315.528;  942.900;  179.350;    0.000
315.589;  838.900;  166.350;    0.000
315.650;  836.900;  179.350;    0.000
315.711;  852.900;  177.350;    0.000
315.772;  895.900;  180.350;    0.000
315.833;  890.900;  157.350;    0.000
315.894;  872.900;  133.350;    0.000
315.955;  867.900;  205.350;    0.000
316.016;  825.900;  190.350;    0.000
316.078;  868.900;  174.350;    0.000
316.139;  892.900;  208.350;    0.000
316.200;  825.900;  166.350;    0.000
316.261;  854.900;  186.350;    0.000
316.322;  807.900;  185.350;    0.000
316.383;  801.900;  179.350;    0.000
316.444;  911.900;  172.350;    0.000
316.504;  915.900;  181.350;    0.000
316.565;  896.900;  197.350;    0.000
316.626;  886.900;  196.350;    0.000
316.687;  849.900;  173.350;    0.000
316.748;  832.900;  178.350;    0.000
316.809;  818.900;  178.350;    0.000
316.870;  813.900;  134.350;    0.000
316.931;  884.900;  166.350;    0.000
316.992;  869.900;  200.350;    0.000
317.053;  819.900;  169.350;    0.000
317.114;  884.900;  185.350;    0.000
317.175;  903.900;  213.350;    0.000
317.235;  833.900;  199.350;    0.000
317.296;  869.900;  190.350;    0.000
317.357;  830.900;  152.350;    0.000
317.418;  833.900;  192.350;    0.000
317.479;  842.900;  170.350;    0.000
317.540;  869.900;  179.350;    0.000
317.601;  891.900;  155.350;    0.000
317.661;  786.900;  154.350;    0.000
317.722;  865.900;  190.350;    0.000
317.783;  840.900;  149.350;    0.000
317.844;  869.900;  207.350;    0.000
317.904;  836.900;  153.350;    0.000
317.965;  860.900;  179.350;    0.000
318.026;  843.900;  235.350;    0.000
318.087;  873.900;  184.350;    0.000
318.148;  873.900;  201.350;    0.000
318.208;  837.900;  220.350;    0.000
318.269;  929.900;  175.350;    0.000
318.330;  862.900;  185.350;    0.000
318.390;  815.900;  180.350;    0.000
318.451;  817.900;  164.350;    0.000
318.512;  863.900;  150.350;    0.000
318.572;  835.900;  205.350;    0.000
318.633;  868.900;  224.350;    0.000
318.694;  892.900;  202.350;    0.000
318.754;  865.900;  196.350;    0.000
318.815;  874.900;  187.350;    0.000
318.876;  810.900;  200.350;    0.000
318.936;  891.900;  232.350;    0.000
318.997;  837.900;  211.350;    0.000
319.058;  905.900;  194.350;    0.000
319.118;  902.900;  197.350;    0.000
319.179;  850.900;  162.350;    0.000
319.239;  860.900;  188.350;    0.000
319.300;  949.900;  205.350;    0.000
319.361;  851.900;  179.350;    0.000
319.421;  768.900;  182.350;    0.000
319.482;  848.900;  189.350;    0.000
319.542;  839.900;  180.350;    0.000
319.603;  829.900;  204.350;    0.000
319.663;  822.900;  195.350;    0.000
319.724;  827.900;  135.350;    0.000
319.784;  881.900;  184.350;    0.000
319.845;  796.900;  160.350;    0.000
319.905;  913.900;  206.350;    0.000
319.966;  848.900;  203.350;    0.000
320.026;  882.900;  203.350;    0.000
320.087;  851.900;  206.350;    0.000
320.147;  843.900;  180.350;    0.000
320.208;  815.900;  189.350;    0.000
320.268;  775.900;  179.350;    0.000
320.329;  858.900;  215.350;    0.000
320.389;  762.900;  193.350;    0.000
320.449;  848.900;  210.350;    0.000
320.510;  906.900;  206.350;    0.000
320.570;  820.900;  221.350;    0.000
320.631;  878.900;  203.350;    0.000
320.691;  892.900;  190.350;    0.000
320.751;  789.900;  205.350;    0.000
320.812;  824.900;  191.350;    0.000
320.872;  921.900;  216.350;    0.000
320.932;  868.900;  209.350;    0.000
320.993;  831.900;  189.350;    0.000
321.053;  881.900;  228.350;    0.000
321.113;  877.900;  163.350;    0.000
321.174;  835.900;  204.350;    0.000
321.234;  871.900;  214.350;    0.000
321.294;  856.900;  184.350;    0.000
321.355;  847.900;  216.350;    0.000
321.415;  791.900;  187.350;    0.000
321.475;  842.900;  216.350;    0.000
321.535;  852.900;  189.350;    0.000
321.596;  849.900;  186.350;    0.000
321.656;  892.900;  204.350;    0.000
321.716;  832.900;  183.350;    0.000
321.776;  834.900;  194.350;    0.000
321.837;  917.900;  190.350;    0.000
321.897;  903.900;  219.350;    0.000
321.957;  943.900;  222.350;    0.000
322.017;  831.900;  183.350;    0.000
322.077;  860.900;  239.350;    0.000
322.138;  859.900;  219.350;    0.000
322.198;  808.900;  185.350;    0.000
322.258;  860.900;  231.350;    0.000
322.318;  830.900;  197.350;    0.000
322.378;  853.900;  179.350;    0.000
322.438;  956.900;  217.350;    0.000
322.499;  877.900;  238.350;    0.000
322.559;  907.900;  197.350;    0.000
322.619;  876.900;  204.350;    0.000
322.679;  769.900;  199.350;    0.000
322.739;  833.900;  194.350;    0.000
322.799;  847.900;  203.350;    0.000
322.859;  874.900;  234.350;    0.000
322.919;  875.900;  194.350;    0.000
322.979;  859.900;  219.350;    0.000
323.039;  805.900;  193.350;    0.000
323.099;  794.900;  207.350;    0.000
323.159;  784.900;  213.350;    0.000
323.219;  842.900;  171.350;    0.000
323.279;  848.900;  215.350;    0.000
323.339;  783.900;  170.350;    0.000
323.399;  846.900;  195.350;    0.000
323.459;  833.900;  234.350;    0.000
323.519;  802.900;  201.350;    0.000
323.579;  829.900;  167.350;    0.000
323.639;  872.900;  209.350;    0.000
323.699;  828.900;  217.350;    0.000
323.759;  885.900;  213.350;    0.000
323.819;  910.900;  216.350;    0.000
323.879;  851.900;  193.350;    0.000
323.939;  853.900;  182.350;    0.000
323.999;  877.900;  206.350;    0.000
324.059;  775.900;  196.350;    0.000
324.119;  806.900;  240.350;    0.000
324.178;  806.900;  186.350;    0.000
324.238;  859.900;  179.350;    0.000
324.298;  813.900;  195.350;    0.000
324.358;  834.900;  208.350;    0.000
324.418;  852.900;  190.350;    0.000
324.478;  846.900;  197.350;    0.000
324.538;  846.900;  157.350;    0.000
324.597;  867.900;  219.350;    0.000
324.657;  870.900;  176.350;    0.000
324.717;  853.900;  179.350;    0.000
324.777;  868.900;  190.350;    0.000
324.837;  848.900;  172.350;    0.000
324.896;  854.900;  199.350;    0.000
324.956;  864.900;  216.350;    0.000
325.016;  855.900;  191.350;    0.000
325.076;  861.900;  185.350;    0.000
325.135;  827.900;  174.350;    0.000
325.195;  834.900;  175.350;    0.000
325.255;  837.900;  144.350;    0.000
325.315;  870.900;  201.350;    0.000
325.374;  857.900;  198.350;    0.000
325.434;  890.900;  181.350;    0.000
325.494;  914.900;  183.350;    0.000
325.553;  897.900;  172.350;    0.000
325.613;  882.900;  200.350;    0.000
325.673;  829.900;  177.350;    0.000
325.732;  802.900;  174.350;    0.000
325.792;  854.900;  181.350;    0.000
325.852;  817.900;  214.350;    0.000
325.911;  834.900;  230.350;    0.000
325.971;  801.900;  198.350;    0.000
326.031;  830.900;  201.350;    0.000
326.090;  846.900;  214.350;    0.000
326.150;  947.900;  163.350;    0.000
326.209;  918.900;  207.350;    0.000
326.269;  873.900;  201.350;    0.000
326.328;  866.900;  208.350;    0.000
326.388;  834.900;  169.350;    0.000
326.448;  890.900;  229.350;    0.000
326.507;  820.900;  243.350;    0.000
326.567;  821.900;  162.350;    0.000
326.626;  856.900;  200.350;    0.000
326.686;  770.900;  166.350;    0.000
326.745;  910.900;  178.350;    0.000
326.805;  845.900;  185.350;    0.000
326.864;  837.900;  209.350;    0.000
326.924;  905.900;  234.350;    0.000
326.983;  814.900;  197.350;    0.000
327.043;  878.900;  217.350;    0.000
327.102;  837.900;  174.350;    0.000
327.161;  837.900;  172.350;    0.000
327.221;  837.900;  183.350;    0.000
327.280;  830.900;  200.350;    0.000
327.340;  878.900;  200.350;    0.000
327.399;  929.900;  219.350;    0.000
327.459;  811.900;  246.350;    0.000
327.518;  845.900;  217.350;    0.000
327.577;  770.900;  212.350;    0.000
327.637;  880.900;  188.350;    0.000
327.696;  857.900;  201.350;    0.000
327.755;  822.900;  199.350;    0.000
327.815;  835.900;  224.350;    0.000
327.874;  930.900;  236.350;    0.000
327.933;  827.900;  182.350;    0.000
327.993;  855.900;  206.350;    0.000
328.052;  822.900;  191.350;    0.000
328.111;  908.900;  222.350;    0.000
328.171;  862.900;  200.350;    0.000
328.230;  802.900;  203.350;    0.000
328.289;  910.900;  219.350;    0.000
328.349;  822.900;  231.350;    0.000
328.408;  829.900;  223.350;    0.000
328.467;  838.900;  226.350;    0.000
328.526;  854.900;  197.350;    0.000
328.586;  834.900;  221.350;    0.000
328.645;  870.900;  199.350;    0.000
328.704;  897.900;  227.350;    0.000
328.763;  804.900;  201.350;    0.000
328.822;  862.900;  230.350;    0.000
328.882;  886.900;  244.350;    0.000
328.941;  918.900;  221.350;    0.000
329.000;  857.900;  207.350;    0.000
329.059;  845.900;  208.350;    0.000
329.118;  898.900;  203.350;    0.000
329.177;  866.900;  198.350;    0.000
329.237;  856.900;  218.350;    0.000
329.296;  965.900;  213.350;    0.000
329.355;  849.900;  208.350;    0.000
329.414;  918.900;  231.350;    0.000
329.473;  908.900;  221.350;    0.000
329.532;  941.900;  243.350;    0.000
329.591;  927.900;  210.350;    0.000
329.650;  917.900;  232.350;    0.000
329.709;  902.900;  211.350;    0.000
329.768;  921.900;  194.350;    0.000
329.827;  949.900;  237.350;    0.000
329.886;  934.900;  213.350;    0.000
329.945;  953.900;  190.350;    0.000
330.004; 1010.900;  233.350;    0.000
330.063;  967.900;  191.350;    0.000
330.122; 1141.900;  234.350;    0.000
330.181; 1230.900;  220.350;    0.000
330.240; 1215.900;  191.350;    0.000
330.299; 1174.900;  210.350;    0.000
330.358; 1042.900;  191.350;    0.000
330.417;  969.900;  225.350;    0.000
330.476;  906.900;  226.350;    0.000
330.535;  884.900;  217.350;    0.000
330.594;  886.900;  205.350;    0.000
330.653;  882.900;  193.350;    0.000
330.712;  847.900;  206.350;    0.000
330.771;  832.900;  175.350;    0.000
330.830;  805.900;  204.350;    0.000
330.889;  864.900;  198.350;    0.000
330.948;  864.900;  198.350;    0.000
331.006;  806.900;  207.350;    0.000
331.065;  767.900;  203.350;    0.000
331.124;  853.900;  210.350;    0.000
331.183;  753.900;  165.350;    0.000
331.242;  861.900;  195.350;    0.000
331.301;  810.900;  191.350;    0.000
331.359;  848.900;  205.350;    0.000
331.418;  873.900;  183.350;    0.000
331.477;  901.900;  198.350;    0.000
331.536;  861.900;  211.350;    0.000
331.595;  782.900;  191.350;    0.000
331.653;  825.900;  232.350;    0.000
331.712;  779.900;  225.350;    0.000
331.771;  793.900;  199.350;    0.000
331.830;  763.900;  189.350;    0.000
331.888;  786.900;  219.350;    0.000
331.947;  793.900;  188.350;    0.000
332.006;  778.900;  180.350;    0.000
332.065;  731.900;  177.350;    0.000
332.123;  854.900;  214.350;    0.000
332.182;  782.900;  223.350;    0.000
332.241;  809.900;  202.350;    0.000
332.299;  826.900;  180.350;    0.000
332.358;  854.900;  206.350;    0.000
332.417;  792.900;  195.350;    0.000
332.475;  802.900;  221.350;    0.000
332.534;  783.900;  207.350;    0.000
332.592;  774.900;  190.350;    0.000
332.651;  796.900;  203.350;    0.000
332.710;  917.900;  219.350;    0.000
332.768;  886.900;  210.350;    0.000
332.827;  768.900;  173.350;    0.000
332.885;  874.900;  239.350;    0.000
332.944;  837.900;  145.350;    0.000
333.003;  839.900;  197.350;    0.000
333.061;  850.900;  179.350;    0.000
333.120;  859.900;  198.350;    0.000
333.178;  848.900;  185.350;    0.000
333.237;  785.900;  204.350;    0.000
333.295;  872.900;  266.350;    0.000
333.354;  848.900;  181.350;    0.000
333.412;  834.900;  189.350;    0.000
333.471;  841.900;  216.350;    0.000
333.529;  919.900;  220.350;    0.000
333.588;  961.900;  193.350;    0.000
333.646;  969.900;  186.350;    0.000
333.705;  900.900;  210.350;    0.000
333.763;  909.900;  222.350;    0.000
333.822;  884.900;  222.350;    0.000
333.880;  827.900;  202.350;    0.000
333.938;  895.900;  205.350;    0.000
333.997;  847.900;  199.350;    0.000
334.055;  825.900;  199.350;    0.000
334.114;  941.900;  237.350;    0.000
334.172;  786.900;  155.350;    0.000
334.230;  854.900;  208.350;    0.000
334.289;  858.900;  191.350;    0.000
334.347;  841.900;  211.350;    0.000
334.405;  895.900;  212.350;    0.000
334.464;  790.900;  179.350;    0.000
334.522;  850.900;  160.350;    0.000
334.580;  818.900;  195.350;    0.000
334.639;  825.900;  191.350;    0.000
334.697;  782.900;  194.350;    0.000
334.755;  748.900;  185.350;    0.000
334.814;  830.900;  214.350;    0.000
334.872;  894.900;  179.350;    0.000
334.930;  833.900;  169.350;    0.000
334.988;  906.900;  201.350;    0.000
335.047;  845.900;  188.350;    0.000
335.105;  848.900;  175.350;    0.000
335.163;  878.900;  191.350;    0.000
335.221;  819.900;  196.350;    0.000
335.280;  830.900;  182.350;    0.000
335.338;  871.900;  202.350;    0.000
335.396;  907.900;  219.350;    0.000
335.454;  888.900;  187.350;    0.000
335.512;  826.900;  236.350;    0.000
335.570;  842.900;  209.350;    0.000
335.629;  894.900;  247.350;    0.000
335.687;  808.900;  219.350;    0.000
335.745;  865.900;  203.350;    0.000
335.803;  918.900;  220.350;    0.000
335.861;  904.900;  208.350;    0.000
335.919;  886.900;  223.350;    0.000
335.977;  845.900;  201.350;    0.000
336.035;  839.900;  193.350;    0.000
336.094;  866.900;  178.350;    0.000
336.152;  853.900;  182.350;    0.000
336.210;  876.900;  199.350;    0.000
336.268;  893.900;  216.350;    0.000
336.326;  914.900;  216.350;    0.000
336.384;  904.900;  201.350;    0.000
336.442;  825.900;  197.350;    0.000
336.500;  831.900;  203.350;    0.000
336.558;  879.900;  198.350;    0.000
336.616;  872.900;  210.350;    0.000
336.674;  741.900;  192.350;    0.000
336.732;  803.900;  182.350;    0.000
336.790;  736.900;  189.350;    0.000
336.848;  892.900;  233.350;    0.000
336.906;  831.900;  235.350;    0.000
336.964;  867.900;  208.350;    0.000
337.022;  878.900;  249.350;    0.000
337.080;  877.900;  204.350;    0.000
337.138;  849.900;  176.350;    0.000
337.195;  806.900;  207.350;    0.000
337.253;  890.900;  214.350;    0.000
337.311;  890.900;  210.350;    0.000
337.369;  789.900;  222.350;    0.000
337.427;  809.900;  236.350;    0.000
337.485;  902.900;  241.350;    0.000
337.543;  842.900;  217.350;    0.000
337.601;  834.900;  221.350;    0.000
337.658;  845.900;  205.350;    0.000
337.716;  753.900;  210.350;    0.000
337.774;  760.900;  196.350;    0.000
337.832;  862.900;  200.350;    0.000
337.890;  820.900;  192.350;    0.000
337.947;  823.900;  192.350;    0.000
338.005;  841.900;  211.350;    0.000
338.063;  749.900;  176.350;    0.000
338.121;  868.900;  222.350;    0.000
338.178;  813.900;  198.350;    0.000
338.236;  882.900;  210.350;    0.000
338.294;  855.900;  211.350;    0.000
338.352;  839.900;  212.350;    0.000
338.409;  819.900;  199.350;    0.000
338.467;  801.900;  205.350;    0.000
338.525;  858.900;  217.350;    0.000
338.583;  874.900;  197.350;    0.000
338.640;  806.900;  226.350;    0.000
338.698;  858.900;  201.350;    0.000
338.756;  841.900;  192.350;    0.000
338.813;  790.900;  220.350;    0.000
338.871;  846.900;  258.350;    0.000
338.928;  838.900;  223.350;    0.000
338.986;  810.900;  200.350;    0.000
339.044;  919.900;  206.350;    0.000
339.101;  818.900;  250.350;    0.000
339.159;  840.900;  245.350;    0.000
339.216;  806.900;  227.350;    0.000
339.274;  862.900;  260.350;    0.000
339.332;  776.900;  223.350;    0.000
339.389;  854.900;  233.350;    0.000
339.447;  869.900;  206.350;    0.000
339.504;  886.900;  229.350;    0.000
339.562;  766.900;  194.350;    0.000
339.619;  915.900;  245.350;    0.000
339.677;  956.900;  238.350;    0.000
339.734;  807.900;  197.350;    0.000
339.792;  848.900;  210.350;    0.000
339.849;  884.900;  201.350;    0.000
339.907;  806.900;  252.350;    0.000
339.964;  845.900;  191.350;    0.000
340.022;  854.900;  246.350;    0.000
340.079;  869.900;  213.350;    0.000
340.137;  833.900;  240.350;    0.000
340.194;  862.900;  208.350;    0.000
340.252;  785.900;  215.350;    0.000
340.309;  808.900;  203.350;    0.000
340.366;  857.900;  194.350;    0.000
340.424;  827.900;  226.350;    0.000
340.481;  856.900;  234.350;    0.000
340.538;  809.900;  205.350;    0.000
340.596;  805.900;  197.350;    0.000
340.653;  873.900;  233.350;    0.000
340.711;  906.900;  273.350;    0.000
340.768;  923.900;  237.350;    0.000
340.825;  809.900;  224.350;    0.000
340.883;  819.900;  240.350;    0.000
340.940;  951.900;  216.350;    0.000
340.997;  816.900;  228.350;    0.000
341.054;  834.900;  200.350;    0.000
341.112;  813.900;  220.350;    0.000
341.169;  868.900;  226.350;    0.000
341.226;  904.900;  206.350;    0.000
341.284;  839.900;  204.350;    0.000
341.341;  866.900;  214.350;    0.000
341.398;  761.900;  160.350;    0.000
341.455;  769.900;  209.350;    0.000
341.512;  869.900;  233.350;    0.000
341.570;  864.900;  240.350;    0.000
341.627;  858.900;  209.350;    0.000
341.684;  815.900;  178.350;    0.000
341.741;  853.900;  254.350;    0.000
341.798;  825.900;  232.350;    0.000
341.856;  779.900;  196.350;    0.000
341.913;  868.900;  244.350;    0.000
341.970;  834.900;  203.350;    0.000
342.027;  839.900;  235.350;    0.000
342.084;  821.900;  214.350;    0.000
342.141;  828.900;  194.350;    0.000
342.198;  873.900;  194.350;    0.000
342.255;  864.900;  219.350;    0.000
342.313;  816.900;  195.350;    0.000
342.370;  847.900;  207.350;    0.000
342.427;  869.900;  217.350;    0.000
342.484;  815.900;  213.350;    0.000
342.541;  895.900;  215.350;    0.000
342.598;  839.900;  247.350;    0.000
342.655;  852.900;  205.350;    0.000
342.712;  819.900;  226.350;    0.000
342.769;  774.900;  212.350;    0.000
342.826;  784.900;  203.350;    0.000
342.883;  898.900;  207.350;    0.000
342.940;  791.900;  204.350;    0.000
342.997;  860.900;  237.350;    0.000
343.054;  790.900;  210.350;    0.000
343.111;  777.900;  209.350;    0.000
343.168;  876.900;  201.350;    0.000
343.225;  822.900;  208.350;    0.000
343.282;  769.900;  216.350;    0.000
343.339;  832.900;  237.350;    0.000
343.395;  855.900;  218.350;    0.000
343.452;  915.900;  234.350;    0.000
343.509;  800.900;  214.350;    0.000
343.566;  937.900;  222.350;    0.000
343.623;  779.900;  226.350;    0.000
343.680;  876.900;  245.350;    0.000
343.737;  882.900;  209.350;    0.000
343.794;  869.900;  227.350;    0.000
343.850;  883.900;  197.350;    0.000
343.907;  902.900;  211.350;    0.000
343.964;  881.900;  190.350;    0.000
344.021;  808.900;  252.350;    0.000
344.078;  885.900;  261.350;    0.000
344.134;  868.900;  206.350;    0.000
344.191;  924.900;  231.350;    0.000
344.248;  873.900;  225.350;    0.000
344.305;  829.900;  210.350;    0.000
344.361;  895.900;  194.350;    0.000
344.418;  889.900;  219.350;    0.000
344.475;  901.900;  245.350;    0.000
344.532;  969.900;  238.350;    0.000
344.588;  881.900;  235.350;    0.000
344.645;  880.900;  229.350;    0.000
344.702;  887.900;  145.350;    0.000
344.758;  921.900;  240.350;    0.000
344.815;  823.900;  215.350;    0.000
344.872;  849.900;  203.350;    0.000
344.928;  945.900;  208.350;    0.000
344.985;  850.900;  216.350;    0.000
345.042;  907.900;  234.350;    0.000
345.098;  838.900;  183.350;    0.000
345.155;  885.900;  241.350;    0.000
345.212;  845.900;  222.350;    0.000
345.268;  926.900;  234.350;    0.000
345.325;  906.900;  181.350;    0.000
345.381;  928.900;  251.350;    0.000
345.438;  897.900;  256.350;    0.000
345.495;  913.900;  247.350;    0.000
345.551;  896.900;  231.350;    0.000
345.608;  830.900;  206.350;    0.000
345.664;  757.900;  201.350;    0.000
345.721;  877.900;  216.350;    0.000
345.777;  831.900;  195.350;    0.000
345.834;  785.900;  195.350;    0.000
345.890;  896.900;  227.350;    0.000
345.947;  903.900;  240.350;    0.000
346.003;  881.900;  248.350;    0.000
346.060;  850.900;  213.350;    0.000
346.116;  859.900;  225.350;    0.000
346.173;  901.900;  199.350;    0.000
346.229;  860.900;  264.350;    0.000
346.285;  887.900;  246.350;    0.000
346.342;  958.900;  240.350;    0.000
346.398;  862.900;  222.350;    0.000
346.455;  891.900;  231.350;    0.000
346.511;  897.900;  214.350;    0.000
346.567;  858.900;  231.350;    0.000
346.624;  900.900;  222.350;    0.000
346.680;  906.900;  197.350;    0.000
346.737;  878.900;  225.350;    0.000
346.793;  893.900;  255.350;    0.000
346.849;  866.900;  245.350;    0.000
346.906;  909.900;  221.350;    0.000
346.962;  992.900;  260.350;    0.000
347.018;  932.900;  238.350;    0.000
347.074;  929.900;  257.350;    0.000
347.131;  964.900;  200.350;    0.000
347.187;  869.900;  232.350;    0.000
347.243;  941.900;  240.350;    0.000
347.300;  943.900;  249.350;    0.000
347.356;  941.900;  250.350;    0.000
347.412;  905.900;  252.350;    0.000
347.468;  923.900;  254.350;    0.000
347.524;  893.900;  280.350;    0.000
347.581;  942.900;  228.350;    0.000
347.637;  999.900;  261.350;    0.000
347.693;  909.900;  238.350;    0.000
347.749;  866.900;  261.350;    0.000
347.805;  857.900;  238.350;    0.000
347.862;  930.900;  246.350;    0.000
347.918;  922.900;  256.350;    0.000
347.974;  849.900;  277.350;    0.000
348.030;  952.900;  242.350;    0.000
348.086;  861.900;  223.350;    0.000
348.142;  870.900;  215.350;    0.000
348.198;  932.900;  272.350;    0.000
348.254;  915.900;  292.350;    0.000
348.311;  933.900;  235.350;    0.000
348.367;  873.900;  263.350;    0.000
348.423;  880.900;  193.350;    0.000
348.479;  925.900;  266.350;    0.000
348.535;  914.900;  238.350;    0.000
348.591;  921.900;  237.350;    0.000
348.647;  845.900;  239.350;    0.000
348.703;  933.900;  240.350;    0.000
348.759;  925.900;  253.350;    0.000
348.815;  982.900;  255.350;    0.000
348.871;  869.900;  256.350;    0.000
348.927;  909.900;  261.350;    0.000
348.983;  925.900;  258.350;    0.000
349.039;  863.900;  204.350;    0.000
349.095;  834.900;  215.350;    0.000
349.151;  861.900;  230.350;    0.000
349.207;  877.900;  216.350;    0.000
349.263;  947.900;  235.350;    0.000
349.319;  890.900;  244.350;    0.000
349.374;  926.900;  213.350;    0.000
349.430;  877.900;  241.350;    0.000
349.486;  987.900;  248.350;    0.000
349.542;  930.900;  259.350;    0.000
349.598;  920.900;  208.350;    0.000
349.654;  878.900;  242.350;    0.000
349.710;  893.900;  246.350;    0.000
349.766;  862.900;  226.350;    0.000
349.821;  920.900;  227.350;    0.000
349.877;  949.900;  226.350;    0.000
349.933;  930.900;  249.350;    0.000
349.989;  917.900;  263.350;    0.000
350.045;  890.900;  267.350;    0.000
350.100;  873.900;  219.350;    0.000
350.156;  925.900;  207.350;    0.000
350.212;  870.900;  230.350;    0.000
350.268;  891.900;  223.350;    0.000
350.323;  906.900;  217.350;    0.000
350.379;  893.900;  227.350;    0.000
350.435;  935.900;  219.350;    0.000
350.491;  880.900;  195.350;    0.000
350.546;  922.900;  229.350;    0.000
350.602;  934.900;  222.350;    0.000
350.658;  999.900;  225.350;    0.000
350.713;  908.900;  231.350;    0.000
350.769;  873.900;  193.350;    0.000
350.825;  852.900;  182.350;    0.000
350.880;  928.900;  193.350;    0.000
350.936;  950.900;  222.350;    0.000
350.992;  859.900;  217.350;    0.000
351.047;  887.900;  226.350;    0.000
351.103;  801.900;  187.350;    0.000
351.158;  841.900;  212.350;    0.000
351.214;  884.900;  207.350;    0.000
351.270;  834.900;  194.350;    0.000
351.325;  878.900;  213.350;    0.000
351.381;  861.900;  223.350;    0.000
351.436;  909.900;  222.350;    0.000
351.492;  895.900;  219.350;    0.000
351.547;  994.900;  205.350;    0.000
351.603;  886.900;  218.350;    0.000
351.658;  857.900;  199.350;    0.000
351.714;  983.900;  201.350;    0.000
351.769; 1006.900;  209.350;    0.000
351.825;  992.900;  226.350;    0.000
351.880;  806.900;  189.350;    0.000
351.936;  859.900;  201.350;    0.000
351.991;  918.900;  220.350;    0.000
352.047;  882.900;  232.350;    0.000
352.102;  885.900;  185.350;    0.000
352.158;  926.900;  228.350;    0.000
352.213;  838.900;  204.350;    0.000
352.268;  890.900;  220.350;    0.000
352.324;  946.900;  206.350;    0.000
352.379;  883.900;  182.350;    0.000
352.434;  934.900;  214.350;    0.000
352.490;  878.900;  250.350;    0.000
352.545;  894.900;  290.350;    0.000
352.601;  964.900;  247.350;    0.000
352.656;  914.900;  203.350;    0.000
352.711;  888.900;  197.350;    0.000
352.767;  810.900;  169.350;    0.000
352.822;  890.900;  191.350;    0.000
352.877;  887.900;  235.350;    0.000
352.932;  908.900;  231.350;    0.000
352.988;  849.900;  224.350;    0.000
353.043;  988.900;  226.350;    0.000
353.098;  924.900;  227.350;    0.000
353.153;  908.900;  239.350;    0.000
353.209;  927.900;  217.350;    0.000
353.264;  905.900;  198.350;    0.000
353.319;  871.900;  247.350;    0.000
353.374;  897.900;  199.350;    0.000
353.430;  913.900;  247.350;    0.000
353.485;  974.900;  242.350;    0.000
353.540;  929.900;  237.350;    0.000
353.595;  916.900;  233.350;    0.000
353.650;  961.900;  221.350;    0.000
353.705;  873.900;  259.350;    0.000
353.761;  904.900;  223.350;    0.000
353.816;  907.900;  234.350;    0.000
353.871;  937.900;  226.350;    0.000
353.926;  967.900;  232.350;    0.000
353.981;  855.900;  245.350;    0.000
354.036;  897.900;  247.350;    0.000
354.091;  882.900;  233.350;    0.000
354.146;  907.900;  253.350;    0.000
354.201;  914.900;  236.350;    0.000
354.256;  902.900;  210.350;    0.000
354.311;  961.900;  279.350;    0.000
354.367;  888.900;  208.350;    0.000
354.422;  910.900;  228.350;    0.000
354.477;  932.900;  202.350;    0.000
354.532;  914.900;  215.350;    0.000
354.587;  883.900;  249.350;    0.000
354.642;  873.900;  206.350;    0.000
354.697;  956.900;  226.350;    0.000
354.751;  969.900;  241.350;    0.000
354.806;  992.900;  249.350;    0.000
354.861;  942.900;  216.350;    0.000
354.916;  969.900;  249.350;    0.000
354.971;  909.900;  217.350;    0.000
355.026;  939.900;  236.350;    0.000
355.081;  993.900;  242.350;    0.000
355.136;  994.900;  216.350;    0.000
355.191;  853.900;  216.350;    0.000
355.246;  973.900;  258.350;    0.000
355.301;  920.900;  250.350;    0.000
355.355;  973.900;  251.350;    0.000
355.410;  890.900;  216.350;    0.000
355.465;  949.900;  224.350;    0.000
355.520;  923.900;  221.350;    0.000
355.575;  943.900;  255.350;    0.000
355.630; 1041.900;  225.350;    0.000
355.684;  872.900;  210.350;    0.000
355.739;  863.900;  232.350;    0.000
355.794;  884.900;  202.350;    0.000
355.849;  824.900;  211.350;    0.000
355.904;  907.900;  226.350;    0.000
355.958;  875.900;  191.350;    0.000
356.013;  896.900;  208.350;    0.000
356.068;  911.900;  229.350;    0.000
356.123;  941.900;  243.350;    0.000
356.177;  944.900;  227.350;    0.000
356.232;  900.900;  243.350;    0.000
356.287;  953.900;  216.350;    0.000
356.341;  978.900;  242.350;    0.000
356.396;  879.900;  175.350;    0.000
356.451;  949.900;  271.350;    0.000
356.505;  875.900;  225.350;    0.000
356.560;  933.900;  260.350;    0.000
356.615;  890.900;  213.350;    0.000
356.669;  968.900;  213.350;    0.000
356.724;  995.900;  221.350;    0.000
356.778;  880.900;  232.350;    0.000
356.833;  853.900;  178.350;    0.000
356.888;  906.900;  236.350;    0.000
356.942;  865.900;  224.350;    0.000
356.997;  980.900;  228.350;    0.000
357.051;  925.900;  226.350;    0.000
357.106;  909.900;  185.350;    0.000
357.160;  914.900;  202.350;    0.000
357.215;  917.900;  232.350;    0.000
357.269;  889.900;  224.350;    0.000
357.324;  879.900;  219.350;    0.000
357.378;  881.900;  196.350;    0.000
357.433;  930.900;  241.350;    0.000
357.487;  989.900;  244.350;    0.000
357.542;  927.900;  210.350;    0.000
357.596;  926.900;  231.350;    0.000
357.651;  909.900;  248.350;    0.000
357.705;  888.900;  232.350;    0.000
357.760;  979.900;  224.350;    0.000
357.814;  958.900;  221.350;    0.000
357.868;  902.900;  207.350;    0.000
357.923;  847.900;  234.350;    0.000
357.977;  879.900;  218.350;    0.000
358.032;  872.900;  244.350;    0.000
358.086;  848.900;  246.350;    0.000
358.140;  964.900;  235.350;    0.000
358.195;  916.900;  237.350;    0.000
358.249;  902.900;  233.350;    0.000
358.303;  925.900;  254.350;    0.000
358.358;  887.900;  217.350;    0.000
358.412;  937.900;  245.350;    0.000
358.466; 1005.900;  230.350;    0.000
358.521;  928.900;  214.350;    0.000
358.575;  909.900;  243.350;    0.000
358.629;  882.900;  230.350;    0.000
358.683;  879.900;  232.350;    0.000
358.738;  959.900;  249.350;    0.000
358.792;  877.900;  249.350;    0.000
358.846;  957.900;  271.350;    0.000
358.900;  918.900;  265.350;    0.000
358.954;  888.900;  236.350;    0.000
359.009;  866.900;  254.350;    0.000
359.063;  883.900;  216.350;    0.000
359.117;  933.900;  245.350;    0.000
359.171;  996.900;  252.350;    0.000
359.225;  947.900;  240.350;    0.000
359.280;  922.900;  239.350;    0.000
359.334;  906.900;  234.350;    0.000
359.388;  953.900;  258.350;    0.000
359.442;  867.900;  220.350;    0.000
359.496;  832.900;  206.350;    0.000
359.550;  934.900;  279.350;    0.000
359.604;  958.900;  263.350;    0.000
359.658;  961.900;  251.350;    0.000
359.712;  930.900;  244.350;    0.000
359.766;  829.900;  217.350;    0.000
359.820;  894.900;  235.350;    0.000
359.875;  926.900;  249.350;    0.000
359.929;  975.900;  269.350;    0.000
359.983;  894.900;  240.350;    0.000
360.037;  919.900;  252.350;    0.000
360.091;  920.900;  271.350;    0.000
360.145;  912.900;  222.350;    0.000
360.199;  898.900;  302.350;    0.000
360.253;  892.900;  234.350;    0.000
360.306;  944.900;  258.350;    0.000
360.360;  935.900;  249.350;    0.000
360.414;  877.900;  231.350;    0.000
360.468;  914.900;  261.350;    0.000
360.522;  871.900;  277.350;    0.000
360.576;  899.900;  273.350;    0.000
360.630;  924.900;  264.350;    0.000
360.684;  923.900;  223.350;    0.000
360.738;  970.900;  266.350;    0.000
360.792;  912.900;  252.350;    0.000
360.846;  944.900;  234.350;    0.000
360.899;  965.900;  296.350;    0.000
360.953;  974.900;  273.350;    0.000
361.007;  954.900;  251.350;    0.000
361.061;  857.900;  250.350;    0.000
361.115;  895.900;  267.350;    0.000
361.168;  949.900;  308.350;    0.000
361.222;  948.900;  246.350;    0.000
361.276;  998.900;  261.350;    0.000
361.330;  907.900;  233.350;    0.000
361.384;  888.900;  269.350;    0.000
361.437;  849.900;  270.350;    0.000
361.491;  857.900;  263.350;    0.000
361.545;  904.900;  288.350;    0.000
361.599;  920.900;  270.350;    0.000
361.652;  951.900;  256.350;    0.000
361.706;  917.900;  263.350;    0.000
361.760;  899.900;  237.350;    0.000
361.813;  911.900;  278.350;    0.000
361.867;  997.900;  317.350;    0.000
361.921;  916.900;  260.350;    0.000
361.974;  921.900;  239.350;    0.000
362.028;  846.900;  266.350;    0.000
362.082;  970.900;  269.350;    0.000
362.135;  891.900;  262.350;    0.000
362.189;  919.900;  258.350;    0.000
362.242;  981.900;  273.350;    0.000
362.296;  936.900;  261.350;    0.000
362.350;  970.900;  272.350;    0.000
362.403;  928.900;  291.350;    0.000
362.457;  872.900;  253.350;    0.000
362.510;  915.900;  266.350;    0.000
362.564;  901.900;  260.350;    0.000
362.617;  878.900;  280.350;    0.000
362.671;  911.900;  281.350;    0.000
362.724;  885.900;  234.350;    0.000
362.778;  916.900;  311.350;    0.000
362.831;  931.900;  276.350;    0.000
362.885;  968.900;  288.350;    0.000
362.938;  866.900;  284.350;    0.000
362.992;  289.900;  245.350;    0.000
363.045;  265.900;  277.350;    0.000
363.099;  274.900;  246.350;    0.000
363.152;  283.900;  290.350;    0.000
363.205;  254.900;  256.350;    0.000
363.259;  303.900;  238.350;    0.000
363.312;  299.900;  290.350;    0.000
363.366;  272.900;  287.350;    0.000
363.419;  318.900;  279.350;    0.000
363.472;  298.900;  304.350;    0.000
363.526;  296.900;  305.350;    0.000
363.579;  280.900;  281.350;    0.000
363.632;  289.900;  279.350;    0.000
363.686;  300.900;  277.350;    0.000
363.739;  260.900;  268.350;    0.000
363.792;  271.900;  274.350;    0.000

