
Integration time [ms]:   0.300
Averaging Nr. [scans]: 1
Smoothing Nr. [pixels]: 0
Data measured with spectrometer [name]: UV1
Wave   ;Sample   ;Dark     ;Reference
[nm]   ;[counts] ;[counts] ;[counts] 

236.381;  137.050;  160.350;    0.000
236.451;  169.050;  198.350;    0.000
236.520;  162.050;  179.350;    0.000
236.590;  221.050;  205.350;    0.000
236.660;  188.050;  199.350;    0.000
236.730;  186.050;  178.350;    0.000
236.799;  186.050;  201.350;    0.000
236.869;  181.050;  197.350;    0.000
236.939;  154.050;  180.350;    0.000
237.009;  180.050;  165.350;    0.000
237.078;  213.050;  191.350;    0.000
237.148;  155.050;  146.350;    0.000
237.218;  190.050;  142.350;    0.000
237.287;  195.050;  190.350;    0.000
237.357;  186.050;  182.350;    0.000
237.427;  178.050;  139.350;    0.000
237.496;  635.050;  221.350;    0.000
237.566;  581.050;  183.350;    0.000
237.636;  535.050;  157.350;    0.000
237.705;  607.050;  189.350;    0.000
237.775;  571.050;  169.350;    0.000
237.845;  581.050;  156.350;    0.000
237.914;  578.050;  185.350;    0.000
237.984;  585.050;  194.350;    0.000
238.054;  545.050;  138.350;    0.000
238.123;  623.050;  166.350;    0.000
238.193;  602.050;  174.350;    0.000
238.263;  559.050;  158.350;    0.000
238.332;  548.050;  167.350;    0.000
238.402;  582.050;  173.350;    0.000
238.471;  611.050;  153.350;    0.000
238.541;  597.050;  167.350;    0.000
238.611;  555.050;  165.350;    0.000
238.680;  506.050;  157.350;    0.000
238.750;  633.050;  152.350;    0.000
238.819;  601.050;  190.350;    0.000
238.889;  534.050;  151.350;    0.000
238.958;  563.050;  166.350;    0.000
239.028;  551.050;  180.350;    0.000
239.097;  528.050;  170.350;    0.000
239.167;  578.050;  177.350;    0.000
239.237;  575.050;  195.350;    0.000
239.306;  573.050;  145.350;    0.000
239.376;  621.050;  158.350;    0.000
239.445;  590.050;  187.350;    0.000
239.515;  633.050;  160.350;    0.000
239.584;  547.050;  173.350;    0.000
239.654;  598.050;  184.350;    0.000
239.723;  584.050;  195.350;    0.000
239.793;  517.050;  183.350;    0.000
239.862;  556.050;  190.350;    0.000
239.932;  547.050;  168.350;    0.000
240.001;  583.050;  164.350;    0.000
240.070;  550.050;  183.350;    0.000
240.140;  502.050;  175.350;    0.000
240.209;  494.050;  135.350;    0.000
240.279;  547.050;  176.350;    0.000
240.348;  533.050;  184.350;    0.000
240.418;  543.050;  157.350;    0.000
240.487;  605.050;  189.350;    0.000
240.556;  601.050;  157.350;    0.000
240.626;  529.050;  174.350;    0.000
240.695;  594.050;  180.350;    0.000
240.765;  603.050;  152.350;    0.000
240.834;  546.050;  136.350;    0.000
240.903;  616.050;  196.350;    0.000
240.973;  554.050;  183.350;    0.000
241.042;  571.050;  150.350;    0.000
241.112;  557.050;  168.350;    0.000
241.181;  579.050;  152.350;    0.000
241.250;  522.050;  132.350;    0.000
241.320;  565.050;  209.350;    0.000
241.389;  533.050;  169.350;    0.000
241.458;  604.050;  204.350;    0.000
241.528;  617.050;  176.350;    0.000
241.597;  593.050;  170.350;    0.000
241.666;  522.050;  168.350;    0.000
241.736;  570.050;  172.350;    0.000
241.805;  534.050;  160.350;    0.000
241.874;  540.050;  176.350;    0.000
241.943;  578.050;  165.350;    0.000
242.013;  553.050;  206.350;    0.000
242.082;  535.050;  162.350;    0.000
242.151;  577.050;  180.350;    0.000
242.221;  532.050;  154.350;    0.000
242.290;  497.050;  122.350;    0.000
242.359;  508.050;  121.350;    0.000
242.428;  585.050;  187.350;    0.000
242.498;  530.050;  140.350;    0.000
242.567;  562.050;  173.350;    0.000
242.636;  546.050;  155.350;    0.000
242.705;  574.050;  108.350;    0.000
242.774;  546.050;  145.350;    0.000
242.844;  527.050;  162.350;    0.000
242.913;  541.050;  178.350;    0.000
242.982;  565.050;  163.350;    0.000
243.051;  519.050;  138.350;    0.000
243.120;  547.050;  172.350;    0.000
243.190;  513.050;  155.350;    0.000
243.259;  544.050;  159.350;    0.000
243.328;  524.050;  173.350;    0.000
243.397;  509.050;  175.350;    0.000
243.466;  503.050;  170.350;    0.000
243.535;  552.050;  161.350;    0.000
243.605;  524.050;  149.350;    0.000
243.674;  568.050;  162.350;    0.000
243.743;  594.050;  175.350;    0.000
243.812;  529.050;  159.350;    0.000
243.881;  570.050;  158.350;    0.000
243.950;  510.050;  154.350;    0.000
244.019;  520.050;  185.350;    0.000
244.088;  585.050;  175.350;    0.000
244.158;  532.050;  167.350;    0.000
244.227;  527.050;  159.350;    0.000
244.296;  519.050;  143.350;    0.000
244.365;  582.050;  182.350;    0.000
244.434;  472.050;  117.350;    0.000
244.503;  512.050;  109.350;    0.000
244.572;  491.050;  147.350;    0.000
244.641;  501.050;  129.350;    0.000
244.710;  543.050;  159.350;    0.000
244.779;  564.050;  166.350;    0.000
244.848;  484.050;  122.350;    0.000
244.917;  583.050;  167.350;    0.000
244.986;  528.050;  158.350;    0.000
245.055;  523.050;  175.350;    0.000
245.124;  494.050;  153.350;    0.000
245.193;  540.050;  155.350;    0.000
245.262;  493.050;  137.350;    0.000
245.331;  518.050;  145.350;    0.000
245.400;  489.050;  107.350;    0.000
245.469;  519.050;  162.350;    0.000
245.538;  502.050;  165.350;    0.000
245.607;  536.050;  178.350;    0.000
245.676;  497.050;  166.350;    0.000
245.745;  500.050;  169.350;    0.000
245.814;  477.050;  155.350;    0.000
245.883;  513.050;  186.350;    0.000
245.952;  504.050;  165.350;    0.000
246.021;  480.050;  169.350;    0.000
246.090;  526.050;  170.350;    0.000
246.159;  446.050;  155.350;    0.000
246.227;  476.050;  161.350;    0.000
246.296;  528.050;  142.350;    0.000
246.365;  454.050;  160.350;    0.000
246.434;  515.050;  199.350;    0.000
246.503;  475.050;  155.350;    0.000
246.572;  484.050;  206.350;    0.000
246.641;  458.050;  177.350;    0.000
246.710;  491.050;  178.350;    0.000
246.779;  469.050;  193.350;    0.000
246.847;  451.050;  147.350;    0.000
246.916;  458.050;  131.350;    0.000
246.985;  497.050;  168.350;    0.000
247.054;  427.050;  143.350;    0.000
247.123;  454.050;  130.350;    0.000
247.192;  501.050;  175.350;    0.000
247.260;  493.050;  171.350;    0.000
247.329;  470.050;  162.350;    0.000
247.398;  455.050;  163.350;    0.000
247.467;  447.050;  155.350;    0.000
247.536;  506.050;  149.350;    0.000
247.604;  504.050;  191.350;    0.000
247.673;  453.050;  193.350;    0.000
247.742;  487.050;  159.350;    0.000
247.811;  509.050;  167.350;    0.000
247.879;  443.050;  176.350;    0.000
247.948;  464.050;  157.350;    0.000
248.017;  528.050;  150.350;    0.000
248.086;  473.050;  153.350;    0.000
248.154;  482.050;  157.350;    0.000
248.223;  491.050;  198.350;    0.000
248.292;  474.050;  188.350;    0.000
248.361;  482.050;  157.350;    0.000
248.429;  454.050;  138.350;    0.000
248.498;  427.050;  166.350;    0.000
248.567;  495.050;  179.350;    0.000
248.635;  511.050;  210.350;    0.000
248.704;  491.050;  168.350;    0.000
248.773;  457.050;  147.350;    0.000
248.841;  463.050;  155.350;    0.000
248.910;  469.050;  183.350;    0.000
248.979;  421.050;  171.350;    0.000
249.047;  447.050;  152.350;    0.000
249.116;  460.050;  155.350;    0.000
249.185;  525.050;  217.350;    0.000
249.253;  446.050;  149.350;    0.000
249.322;  434.050;  167.350;    0.000
249.390;  449.050;  182.350;    0.000
249.459;  492.050;  173.350;    0.000
249.528;  490.050;  162.350;    0.000
249.596;  505.050;  162.350;    0.000
249.665;  485.050;  163.350;    0.000
249.733;  456.050;  147.350;    0.000
249.802;  452.050;  170.350;    0.000
249.871;  467.050;  179.350;    0.000
249.939;  442.050;  179.350;    0.000
250.008;  466.050;  201.350;    0.000
250.076;  510.050;  189.350;    0.000
250.145;  442.050;  171.350;    0.000
250.213;  439.050;  161.350;    0.000
250.282;  457.050;  171.350;    0.000
250.350;  383.050;  138.350;    0.000
250.419;  493.050;  172.350;    0.000
250.487;  487.050;  207.350;    0.000
250.556;  443.050;  160.350;    0.000
250.624;  450.050;  187.350;    0.000
250.693;  383.050;  141.350;    0.000
250.761;  494.050;  182.350;    0.000
250.830;  481.050;  203.350;    0.000
250.898;  431.050;  160.350;    0.000
250.967;  477.050;  143.350;    0.000
251.035;  443.050;  142.350;    0.000
251.104;  447.050;  159.350;    0.000
251.172;  474.050;  189.350;    0.000
251.241;  421.050;  134.350;    0.000
251.309;  454.050;  179.350;    0.000
251.378;  473.050;  203.350;    0.000
251.446;  413.050;  151.350;    0.000
251.514;  441.050;  176.350;    0.000
251.583;  494.050;  173.350;    0.000
251.651;  459.050;  163.350;    0.000
251.720;  446.050;  151.350;    0.000
251.788;  448.050;  205.350;    0.000
251.856;  414.050;  126.350;    0.000
251.925;  425.050;  118.350;    0.000
251.993;  493.050;  139.350;    0.000
252.062;  443.050;  161.350;    0.000
252.130;  464.050;  180.350;    0.000
252.198;  439.050;  141.350;    0.000
252.267;  446.050;  145.350;    0.000
252.335;  464.050;  159.350;    0.000
252.403;  415.050;  158.350;    0.000
252.472;  404.050;  142.350;    0.000
252.540;  389.050;  162.350;    0.000
252.608;  451.050;  180.350;    0.000
252.677;  400.050;  137.350;    0.000
252.745;  409.050;  183.350;    0.000
252.813;  434.050;  151.350;    0.000
252.881;  356.050;  109.350;    0.000
252.950;  423.050;  174.350;    0.000
253.018;  408.050;  136.350;    0.000
253.086;  420.050;  149.350;    0.000
253.155;  353.050;  127.350;    0.000
253.223;  412.050;  156.350;    0.000
253.291;  393.050;  163.350;    0.000
253.359;  390.050;  174.350;    0.000
253.428;  404.050;  174.350;    0.000
253.496;  334.050;  161.350;    0.000
253.564;  338.050;  128.350;    0.000
253.632;  342.050;  153.350;    0.000
253.700;  325.050;  185.350;    0.000
253.769;  370.050;  163.350;    0.000
253.837;  363.050;  176.350;    0.000
253.905;  375.050;  164.350;    0.000
253.973;  333.050;  156.350;    0.000
254.041;  398.050;  154.350;    0.000
254.110;  347.050;  165.350;    0.000
254.178;  363.050;  148.350;    0.000
254.246;  327.050;  138.350;    0.000
254.314;  350.050;  164.350;    0.000
254.382;  315.050;  167.350;    0.000
254.450;  365.050;  134.350;    0.000
254.518;  341.050;  192.350;    0.000
254.587;  319.050;  139.350;    0.000
254.655;  337.050;  162.350;    0.000
254.723;  359.050;  131.350;    0.000
254.791;  318.050;  181.350;    0.000
254.859;  364.050;  146.350;    0.000
254.927;  379.050;  189.350;    0.000
254.995;  320.050;  141.350;    0.000
255.063;  343.050;  181.350;    0.000
255.131;  345.050;  156.350;    0.000
255.199;  312.050;  175.350;    0.000
255.267;  327.050;  120.350;    0.000
255.336;  354.050;  186.350;    0.000
255.404;  313.050;  134.350;    0.000
255.472;  352.050;  172.350;    0.000
255.540;  350.050;  157.350;    0.000
255.608;  391.050;  186.350;    0.000
255.676;  357.050;  155.350;    0.000
255.744;  406.050;  143.350;    0.000
255.812;  406.050;  134.350;    0.000
255.880;  383.050;  188.350;    0.000
255.948;  357.050;  163.350;    0.000
256.016;  348.050;  175.350;    0.000
256.084;  327.050;  191.350;    0.000
256.152;  371.050;  187.350;    0.000
256.220;  325.050;  152.350;    0.000
256.288;  390.050;  141.350;    0.000
256.356;  378.050;  139.350;    0.000
256.424;  323.050;  121.350;    0.000
256.491;  349.050;  139.350;    0.000
256.559;  372.050;  144.350;    0.000
256.627;  425.050;  158.350;    0.000
256.695;  299.050;  121.350;    0.000
256.763;  411.050;  150.350;    0.000
256.831;  420.050;  181.350;    0.000
256.899;  370.050;  146.350;    0.000
256.967;  344.050;   71.350;    0.000
257.035;  387.050;  164.350;    0.000
257.103;  405.050;  191.350;    0.000
257.171;  358.050;  140.350;    0.000
257.238;  391.050;  165.350;    0.000
257.306;  386.050;  127.350;    0.000
257.374;  357.050;  120.350;    0.000
257.442;  412.050;  139.350;    0.000
257.510;  405.050;  158.350;    0.000
257.578;  395.050;  164.350;    0.000
257.646;  389.050;  151.350;    0.000
257.713;  394.050;  136.350;    0.000
257.781;  390.050;  137.350;    0.000
257.849;  434.050;  151.350;    0.000
257.917;  433.050;  154.350;    0.000
257.985;  384.050;  113.350;    0.000
258.052;  425.050;  140.350;    0.000
258.120;  437.050;  176.350;    0.000
258.188;  413.050;  157.350;    0.000
258.256;  476.050;  153.350;    0.000
258.324;  474.050;  184.350;    0.000
258.391;  418.050;  144.350;    0.000
258.459;  492.050;  162.350;    0.000
258.527;  484.050;  154.350;    0.000
258.595;  436.050;  122.350;    0.000
258.662;  437.050;  164.350;    0.000
258.730;  471.050;  114.350;    0.000
258.798;  432.050;  131.350;    0.000
258.865;  448.050;  171.350;    0.000
258.933;  476.050;  145.350;    0.000
259.001;  480.050;  150.350;    0.000
259.069;  513.050;  123.350;    0.000
259.136;  510.050;  139.350;    0.000
259.204;  532.050;  165.350;    0.000
259.272;  530.050;  114.350;    0.000
259.339;  476.050;  179.350;    0.000
259.407;  572.050;  153.350;    0.000
259.475;  485.050;  143.350;    0.000
259.542;  500.050;  136.350;    0.000
259.610;  515.050;  133.350;    0.000
259.677;  526.050;  159.350;    0.000
259.745;  546.050;  130.350;    0.000
259.813;  612.050;  175.350;    0.000
259.880;  760.050;  158.350;    0.000
259.948;  603.050;  124.350;    0.000
260.016;  573.050;  105.350;    0.000
260.083;  593.050;  169.350;    0.000
260.151;  574.050;  133.350;    0.000
260.218;  576.050;  143.350;    0.000
260.286;  575.050;  134.350;    0.000
260.353;  542.050;  160.350;    0.000
260.421;  524.050;  128.350;    0.000
260.489;  615.050;  150.350;    0.000
260.556;  586.050;  179.350;    0.000
260.624;  641.050;  113.350;    0.000
260.691;  615.050;  128.350;    0.000
260.759;  608.050;  146.350;    0.000
260.826;  581.050;  111.350;    0.000
260.894;  587.050;  115.350;    0.000
260.961;  600.050;  138.350;    0.000
261.029;  631.050;  152.350;    0.000
261.096;  644.050;  175.350;    0.000
261.164;  664.050;  131.350;    0.000
261.231;  677.050;  141.350;    0.000
261.299;  648.050;  125.350;    0.000
261.366;  649.050;  142.350;    0.000
261.434;  634.050;  133.350;    0.000
261.501;  622.050;  137.350;    0.000
261.568;  666.050;  184.350;    0.000
261.636;  630.050;  138.350;    0.000
261.703;  702.050;  161.350;    0.000
261.771;  693.050;  160.350;    0.000
261.838;  695.050;  178.350;    0.000
261.906;  671.050;  128.350;    0.000
261.973;  675.050;  139.350;    0.000
262.040;  627.050;  148.350;    0.000
262.108;  710.050;  130.350;    0.000
262.175;  675.050;  117.350;    0.000
262.243;  681.050;  174.350;    0.000
262.310;  663.050;  145.350;    0.000
262.377;  659.050;  108.350;    0.000
262.445;  727.050;  147.350;    0.000
262.512;  709.050;  124.350;    0.000
262.579;  744.050;  127.350;    0.000
262.647;  755.050;  166.350;    0.000
262.714;  765.050;  150.350;    0.000
262.781;  755.050;  121.350;    0.000
262.849;  738.050;  126.350;    0.000
262.916;  772.050;  119.350;    0.000
262.983;  769.050;  155.350;    0.000
263.051;  788.050;  137.350;    0.000
263.118;  843.050;  160.350;    0.000
263.185;  803.050;  151.350;    0.000
263.252;  732.050;  167.350;    0.000
263.320;  730.050;  123.350;    0.000
263.387;  758.050;  134.350;    0.000
263.454;  717.050;  144.350;    0.000
263.522;  719.050;  153.350;    0.000
263.589;  750.050;  161.350;    0.000
263.656;  755.050;  117.350;    0.000
263.723;  749.050;  101.350;    0.000
263.790;  790.050;  128.350;    0.000
263.858;  779.050;  142.350;    0.000
263.925;  777.050;  182.350;    0.000
263.992;  753.050;  146.350;    0.000
264.059;  800.050;  132.350;    0.000
264.126;  839.050;  154.350;    0.000
264.194;  831.050;  153.350;    0.000
264.261;  816.050;  157.350;    0.000
264.328;  810.050;  171.350;    0.000
264.395;  810.050;  166.350;    0.000
264.462;  829.050;  165.350;    0.000
264.529;  873.050;  124.350;    0.000
264.597;  828.050;  120.350;    0.000
264.664;  861.050;  159.350;    0.000
264.731;  799.050;  145.350;    0.000
264.798;  782.050;  100.350;    0.000
264.865;  890.050;  166.350;    0.000
264.932;  870.050;  132.350;    0.000
264.999;  862.050;  137.350;    0.000
265.066;  839.050;  124.350;    0.000
265.133;  809.050;  162.350;    0.000
265.201;  909.050;  163.350;    0.000
265.268;  847.050;  174.350;    0.000
265.335;  847.050;  132.350;    0.000
265.402;  875.050;  116.350;    0.000
265.469;  920.050;  121.350;    0.000
265.536;  892.050;  157.350;    0.000
265.603;  937.050;  151.350;    0.000
265.670;  849.050;  164.350;    0.000
265.737;  963.050;  142.350;    0.000
265.804;  898.050;  146.350;    0.000
265.871;  962.050;  168.350;    0.000
265.938;  886.050;  131.350;    0.000
266.005;  884.050;  208.350;    0.000
266.072;  861.050;  125.350;    0.000
266.139;  927.050;  161.350;    0.000
266.206;  913.050;  134.350;    0.000
266.273;  945.050;  155.350;    0.000
266.340;  904.050;  122.350;    0.000
266.407;  922.050;  134.350;    0.000
266.474;  947.050;  126.350;    0.000
266.541;  934.050;  153.350;    0.000
266.608; 1000.050;  129.350;    0.000
266.675;  988.050;  185.350;    0.000
266.742;  915.050;  153.350;    0.000
266.808;  969.050;  169.350;    0.000
266.875;  921.050;  156.350;    0.000
266.942; 1000.050;  172.350;    0.000
267.009;  976.050;  150.350;    0.000
267.076;  973.050;  184.350;    0.000
267.143;  950.050;  170.350;    0.000
267.210;  968.050;  132.350;    0.000
267.277;  984.050;  146.350;    0.000
267.344;  976.050;  159.350;    0.000
267.410;  982.050;  174.350;    0.000
267.477;  973.050;  169.350;    0.000
267.544;  996.050;  130.350;    0.000
267.611;  994.050;  169.350;    0.000
267.678; 1074.050;  197.350;    0.000
267.745;  979.050;  185.350;    0.000
267.811; 1004.050;  160.350;    0.000
267.878; 1028.050;  143.350;    0.000
267.945;  997.050;  126.350;    0.000
268.012;  985.050;  172.350;    0.000
268.079;  977.050;  156.350;    0.000
268.145; 1000.050;  128.350;    0.000
268.212;  962.050;  107.350;    0.000
268.279;  966.050;  135.350;    0.000
268.346; 1010.050;  166.350;    0.000
268.412;  996.050;  150.350;    0.000
268.479; 1018.050;  176.350;    0.000
268.546; 1011.050;  119.350;    0.000
268.613; 1041.050;  201.350;    0.000
268.679; 1023.050;  141.350;    0.000
268.746; 1050.050;  177.350;    0.000
268.813;  933.050;  134.350;    0.000
268.879; 1009.050;  141.350;    0.000
268.946; 1042.050;  172.350;    0.000
269.013;  983.050;  150.350;    0.000
269.079; 1031.050;  124.350;    0.000
269.146;  948.050;  135.350;    0.000
269.213; 1032.050;  200.350;    0.000
269.280;  973.050;  142.350;    0.000
269.346; 1101.050;  153.350;    0.000
269.413;  913.050;  140.350;    0.000
269.479;  934.050;  171.350;    0.000
269.546;  974.050;  156.350;    0.000
269.613;  982.050;  145.350;    0.000
269.679; 1020.050;  168.350;    0.000
269.746; 1048.050;  136.350;    0.000
269.813;  981.050;  153.350;    0.000
269.879;  997.050;  162.350;    0.000
269.946;  963.050;  156.350;    0.000
270.012; 1026.050;  178.350;    0.000
270.079;  974.050;  132.350;    0.000
270.145;  994.050;  146.350;    0.000
270.212;  978.050;  145.350;    0.000
270.279; 1035.050;  184.350;    0.000
270.345; 1013.050;  143.350;    0.000
270.412;  951.050;  158.350;    0.000
270.478;  953.050;  143.350;    0.000
270.545; 1013.050;  150.350;    0.000
270.611; 1021.050;  156.350;    0.000
270.678;  928.050;  121.350;    0.000
270.744;  977.050;  161.350;    0.000
270.811;  958.050;  173.350;    0.000
270.877;  986.050;  115.350;    0.000
270.944;  952.050;  114.350;    0.000
271.010;  984.050;  122.350;    0.000
271.077; 1008.050;  142.350;    0.000
271.143; 1025.050;  152.350;    0.000
271.210;  933.050;  135.350;    0.000
271.276;  948.050;  107.350;    0.000
271.342; 1006.050;  173.350;    0.000
271.409;  972.050;  171.350;    0.000
271.475;  980.050;  136.350;    0.000
271.542; 1032.050;  121.350;    0.000
271.608;  966.050;  133.350;    0.000
271.675;  931.050;  136.350;    0.000
271.741; 1010.050;  151.350;    0.000
271.807; 1008.050;  130.350;    0.000
271.874; 1050.050;  168.350;    0.000
271.940;  977.050;  156.350;    0.000
272.007; 1027.050;  122.350;    0.000
272.073; 1041.050;  121.350;    0.000
272.139; 1034.050;  137.350;    0.000
272.206;  963.050;  152.350;    0.000
272.272; 1004.050;  162.350;    0.000
272.338; 1021.050;  197.350;    0.000
272.405; 1002.050;  144.350;    0.000
272.471;  993.050;  160.350;    0.000
272.537;  973.050;  142.350;    0.000
272.604; 1002.050;  141.350;    0.000
272.670; 1002.050;  182.350;    0.000
272.736; 1007.050;  126.350;    0.000
272.802; 1024.050;  146.350;    0.000
272.869;  986.050;  163.350;    0.000
272.935;  915.050;  132.350;    0.000
273.001;  969.050;  119.350;    0.000
273.068;  933.050;  137.350;    0.000
273.134; 1004.050;  155.350;    0.000
273.200; 1001.050;  165.350;    0.000
273.266;  973.050;  156.350;    0.000
273.333; 1006.050;  143.350;    0.000
273.399;  980.050;  128.350;    0.000
273.465; 1048.050;  167.350;    0.000
273.531;  996.050;  122.350;    0.000
273.597; 1112.050;  182.350;    0.000
273.664; 1059.050;  177.350;    0.000
273.730; 1034.050;  124.350;    0.000
273.796; 1060.050;  143.350;    0.000
273.862; 1094.050;  155.350;    0.000
273.928; 1162.050;  137.350;    0.000
273.995; 1111.050;  188.350;    0.000
274.061; 1003.050;  154.350;    0.000
274.127; 1032.050;  161.350;    0.000
274.193; 1017.050;   95.350;    0.000
274.259; 1041.050;  128.350;    0.000
274.325; 1087.050;  146.350;    0.000
274.391; 1035.050;  113.350;    0.000
274.457; 1046.050;  150.350;    0.000
274.524; 1048.050;  165.350;    0.000
274.590; 1080.050;  140.350;    0.000
274.656; 1247.050;  165.350;    0.000
274.722; 1119.050;  118.350;    0.000
274.788; 1065.050;  143.350;    0.000
274.854; 1238.050;  150.350;    0.000
274.920; 1222.050;   88.350;    0.000
274.986; 1105.050;  178.350;    0.000
275.052; 1083.050;  145.350;    0.000
275.118; 1036.050;  105.350;    0.000
275.184; 1117.050;  129.350;    0.000
275.250; 1167.050;  138.350;    0.000
275.316; 1122.050;  173.350;    0.000
275.382; 1107.050;  106.350;    0.000
275.448; 1148.050;  160.350;    0.000
275.514; 1254.050;  162.350;    0.000
275.580; 1237.050;  135.350;    0.000
275.646; 1133.050;  120.350;    0.000
275.712; 1169.050;  157.350;    0.000
275.778; 1108.050;  128.350;    0.000
275.844; 1133.050;  117.350;    0.000
275.910; 1148.050;  121.350;    0.000
275.976; 1200.050;  172.350;    0.000
276.042; 1148.050;  114.350;    0.000
276.108; 1218.050;  200.350;    0.000
276.174; 1252.050;  132.350;    0.000
276.240; 1166.050;  128.350;    0.000
276.306; 1214.050;  124.350;    0.000
276.372; 1254.050;  133.350;    0.000
276.437; 1291.050;  146.350;    0.000
276.503; 1298.050;  136.350;    0.000
276.569; 1325.050;  162.350;    0.000
276.635; 1219.050;  128.350;    0.000
276.701; 1431.050;  148.350;    0.000
276.767; 1341.050;  155.350;    0.000
276.833; 1413.050;  128.350;    0.000
276.899; 1416.050;  145.350;    0.000
276.964; 1459.050;  124.350;    0.000
277.030; 1421.050;  130.350;    0.000
277.096; 1446.050;  139.350;    0.000
277.162; 1516.050;  164.350;    0.000
277.228; 1554.050;  108.350;    0.000
277.293; 1607.050;  138.350;    0.000
277.359; 1650.050;  123.350;    0.000
277.425; 1711.050;  183.350;    0.000
277.491; 1898.050;  144.350;    0.000
277.557; 2241.050;  130.350;    0.000
277.622; 3127.050;  151.350;    0.000
277.688; 2985.050;  169.350;    0.000
277.754; 3047.050;  199.350;    0.000
277.820; 3457.050;  170.350;    0.000
277.885; 4118.050;  173.350;    0.000
277.951; 5615.050;  187.350;    0.000
278.017; 4440.050;  152.350;    0.000
278.083; 3651.050;  137.350;    0.000
278.148; 3638.050;  147.350;    0.000
278.214; 3623.050;  162.350;    0.000
278.280; 3957.050;  171.350;    0.000
278.345; 3468.050;  174.350;    0.000
278.411; 3085.050;  152.350;    0.000
278.477; 3231.050;  173.350;    0.000
278.542; 3377.050;  161.350;    0.000
278.608; 3516.050;  155.350;    0.000
278.674; 4088.050;  169.350;    0.000
278.739; 4366.050;  142.350;    0.000
278.805; 5105.050;  164.350;    0.000
278.871; 6046.050;  160.350;    0.000
278.936; 8042.050;  121.350;    0.000
279.002;13156.050;  166.350;    0.000
279.067;18147.051;  199.350;    0.000
279.133;17008.051;  150.350;    0.000
279.199;14305.050;  154.350;    0.000
279.264;14721.050;  154.350;    0.000
279.330;18248.051;  159.350;    0.000
279.395;26059.051;  143.350;    0.000
279.461;40242.051;  173.350;    0.000
279.527;48822.051;  163.350;    0.000
279.592;41574.051;  167.350;    0.000
279.658;29404.051;  189.350;    0.000
279.723;28261.051;  153.350;    0.000
279.789;30885.051;  174.350;    0.000
279.854;25909.051;  129.350;    0.000
279.920;19749.051;  165.350;    0.000
279.985;17166.051;  152.350;    0.000
280.051;17842.051;  164.350;    0.000
280.116;22432.051;  187.350;    0.000
280.182;36092.051;  160.350;    0.000
280.247;43782.051;  124.350;    0.000
280.313;34021.051;  154.350;    0.000
280.378;20147.051;  152.350;    0.000
280.444;13266.050;  165.350;    0.000
280.509;10286.050;  164.350;    0.000
280.574; 8413.050;  160.350;    0.000
280.640; 7290.050;  167.350;    0.000
280.705; 6101.050;  190.350;    0.000
280.771; 5707.050;  154.350;    0.000
280.836; 5085.050;  158.350;    0.000
280.902; 4780.050;  124.350;    0.000
280.967; 4501.050;  179.350;    0.000
281.032; 4310.050;  187.350;    0.000
281.098; 3845.050;  155.350;    0.000
281.163; 3772.050;  133.350;    0.000
281.229; 3676.050;  170.350;    0.000
281.294; 3494.050;  175.350;    0.000
281.359; 3251.050;  163.350;    0.000
281.425; 3228.050;  161.350;    0.000
281.490; 3024.050;  162.350;    0.000
281.555; 2898.050;  137.350;    0.000
281.621; 2813.050;  163.350;    0.000
281.686; 2651.050;  155.350;    0.000
281.751; 2654.050;  158.350;    0.000
281.816; 2436.050;  139.350;    0.000
281.882; 2547.050;  150.350;    0.000
281.947; 2364.050;  165.350;    0.000
282.012; 2281.050;  171.350;    0.000
282.078; 2319.050;  177.350;    0.000
282.143; 2172.050;  149.350;    0.000
282.208; 2249.050;  181.350;    0.000
282.273; 2256.050;  166.350;    0.000
282.339; 1990.050;  165.350;    0.000
282.404; 2021.050;  166.350;    0.000
282.469; 2016.050;  150.350;    0.000
282.534; 2090.050;  176.350;    0.000
282.600; 1918.050;  117.350;    0.000
282.665; 1925.050;  134.350;    0.000
282.730; 1912.050;  155.350;    0.000
282.795; 1964.050;  193.350;    0.000
282.860; 1847.050;  160.350;    0.000
282.926; 1845.050;  174.350;    0.000
282.991; 1778.050;  161.350;    0.000
283.056; 1882.050;  157.350;    0.000
283.121; 1856.050;  178.350;    0.000
283.186; 1795.050;  152.350;    0.000
283.251; 1806.050;  167.350;    0.000
283.316; 1887.050;  186.350;    0.000
283.382; 1845.050;  148.350;    0.000
283.447; 1794.050;  191.350;    0.000
283.512; 1815.050;  132.350;    0.000
283.577; 1827.050;  179.350;    0.000
283.642; 1755.050;  185.350;    0.000
283.707; 1792.050;  136.350;    0.000
283.772; 1689.050;  119.350;    0.000
283.837; 1755.050;  136.350;    0.000
283.902; 1775.050;  135.350;    0.000
283.967; 1751.050;  146.350;    0.000
284.032; 1740.050;  140.350;    0.000
284.097; 1758.050;  199.350;    0.000
284.163; 1757.050;  144.350;    0.000
284.228; 1697.050;  183.350;    0.000
284.293; 1697.050;  141.350;    0.000
284.358; 1674.050;  146.350;    0.000
284.423; 1745.050;  127.350;    0.000
284.488; 1762.050;  186.350;    0.000
284.553; 1706.050;  155.350;    0.000
284.618; 1850.050;  118.350;    0.000
284.683; 1927.050;  145.350;    0.000
284.748; 2012.050;  139.350;    0.000
284.812; 2093.050;  147.350;    0.000
284.877; 2279.050;  123.350;    0.000
284.942; 2727.050;  153.350;    0.000
285.007; 3437.050;  168.350;    0.000
285.072; 5238.050;  181.350;    0.000
285.137;11004.050;  147.350;    0.000
285.202;14989.050;  175.350;    0.000
285.267;10827.050;  182.350;    0.000
285.332; 5712.050;  136.350;    0.000
285.397; 3965.050;  138.350;    0.000
285.462; 3188.050;  151.350;    0.000
285.527; 2618.050;  159.350;    0.000
285.591; 2477.050;  177.350;    0.000
285.656; 2182.050;  144.350;    0.000
285.721; 2176.050;  125.350;    0.000
285.786; 2040.050;  169.350;    0.000
285.851; 1975.050;  175.350;    0.000
285.916; 1904.050;  164.350;    0.000
285.981; 1763.050;  134.350;    0.000
286.045; 1796.050;  154.350;    0.000
286.110; 1754.050;  136.350;    0.000
286.175; 1737.050;  155.350;    0.000
286.240; 1664.050;  138.350;    0.000
286.305; 1743.050;  213.350;    0.000
286.369; 1744.050;  221.350;    0.000
286.434; 1647.050;  172.350;    0.000
286.499; 1626.050;  161.350;    0.000
286.564; 1588.050;  189.350;    0.000
286.628; 1555.050;  144.350;    0.000
286.693; 1650.050;  176.350;    0.000
286.758; 1531.050;  168.350;    0.000
286.823; 1579.050;  142.350;    0.000
286.887; 1520.050;  134.350;    0.000
286.952; 1457.050;  180.350;    0.000
287.017; 1499.050;  204.350;    0.000
287.082; 1561.050;  120.350;    0.000
287.146; 1581.050;  173.350;    0.000
287.211; 1586.050;  167.350;    0.000
287.276; 1546.050;  164.350;    0.000
287.340; 1555.050;  138.350;    0.000
287.405; 1480.050;  172.350;    0.000
287.470; 1440.050;  142.350;    0.000
287.534; 1517.050;  155.350;    0.000
287.599; 1481.050;  166.350;    0.000
287.663; 1491.050;  171.350;    0.000
287.728; 1494.050;  190.350;    0.000
287.793; 1478.050;  197.350;    0.000
287.857; 1520.050;  165.350;    0.000
287.922; 1442.050;  147.350;    0.000
287.987; 1503.050;  167.350;    0.000
288.051; 1591.050;  151.350;    0.000
288.116; 1731.050;  154.350;    0.000
288.180; 1720.050;  186.350;    0.000
288.245; 1547.050;  161.350;    0.000
288.309; 1521.050;  177.350;    0.000
288.374; 1593.050;  151.350;    0.000
288.439; 1515.050;  169.350;    0.000
288.503; 1406.050;  133.350;    0.000
288.568; 1491.050;  206.350;    0.000
288.632; 1454.050;  192.350;    0.000
288.697; 1448.050;  183.350;    0.000
288.761; 1497.050;  148.350;    0.000
288.826; 1437.050;  136.350;    0.000
288.890; 1541.050;  185.350;    0.000
288.955; 1485.050;  150.350;    0.000
289.019; 1442.050;  165.350;    0.000
289.084; 1556.050;  150.350;    0.000
289.148; 1508.050;  146.350;    0.000
289.212; 1420.050;  172.350;    0.000
289.277; 1492.050;  177.350;    0.000
289.341; 1447.050;  190.350;    0.000
289.406; 1498.050;  117.350;    0.000
289.470; 1500.050;  173.350;    0.000
289.535; 1486.050;  170.350;    0.000
289.599; 1448.050;  154.350;    0.000
289.663; 1499.050;  173.350;    0.000
289.728; 1429.050;  176.350;    0.000
289.792; 1390.050;  138.350;    0.000
289.857; 1515.050;  203.350;    0.000
289.921; 1432.050;  143.350;    0.000
289.985; 1461.050;  150.350;    0.000
290.050; 1466.050;  170.350;    0.000
290.114; 1369.050;  125.350;    0.000
290.178; 1469.050;  161.350;    0.000
290.243; 1388.050;  119.350;    0.000
290.307; 1478.050;  169.350;    0.000
290.371; 1379.050;  169.350;    0.000
290.436; 1392.050;  170.350;    0.000
290.500; 1506.050;  144.350;    0.000
290.564; 1494.050;  179.350;    0.000
290.629; 1473.050;  166.350;    0.000
290.693; 1459.050;  156.350;    0.000
290.757; 1524.050;  147.350;    0.000
290.821; 1485.050;  170.350;    0.000
290.886; 1407.050;  167.350;    0.000
290.950; 1510.050;  187.350;    0.000
291.014; 1513.050;  164.350;    0.000
291.078; 1472.050;  115.350;    0.000
291.143; 1436.050;  149.350;    0.000
291.207; 1513.050;  163.350;    0.000
291.271; 1455.050;  177.350;    0.000
291.335; 1514.050;  148.350;    0.000
291.399; 1556.050;  155.350;    0.000
291.464; 1574.050;  114.350;    0.000
291.528; 1670.050;  153.350;    0.000
291.592; 1643.050;  156.350;    0.000
291.656; 1625.050;  170.350;    0.000
291.720; 1528.050;  159.350;    0.000
291.784; 1545.050;  159.350;    0.000
291.849; 1495.050;  154.350;    0.000
291.913; 1519.050;  118.350;    0.000
291.977; 1542.050;  157.350;    0.000
292.041; 1562.050;  163.350;    0.000
292.105; 1522.050;  135.350;    0.000
292.169; 1505.050;  155.350;    0.000
292.233; 1599.050;  163.350;    0.000
292.297; 1635.050;  144.350;    0.000
292.361; 1533.050;  143.350;    0.000
292.425; 1683.050;  177.350;    0.000
292.490; 1636.050;  159.350;    0.000
292.554; 1761.050;  137.350;    0.000
292.618; 1847.050;  144.350;    0.000
292.682; 2096.050;  169.350;    0.000
292.746; 2161.050;  166.350;    0.000
292.810; 3134.050;  147.350;    0.000
292.874; 4070.050;  160.350;    0.000
292.938; 3939.050;  174.350;    0.000
293.002; 3504.050;  148.350;    0.000
293.066; 2964.050;  115.350;    0.000
293.130; 2709.050;  133.350;    0.000
293.194; 2661.050;  148.350;    0.000
293.258; 2549.050;  167.350;    0.000
293.322; 2516.050;  166.350;    0.000
293.386; 2516.050;  193.350;    0.000
293.450; 2602.050;  142.350;    0.000
293.514; 3094.050;  170.350;    0.000
293.577; 4344.050;  153.350;    0.000
293.641; 6154.050;  171.350;    0.000
293.705; 6594.050;  168.350;    0.000
293.769; 5463.050;  155.350;    0.000
293.833; 4523.050;  161.350;    0.000
293.897; 3800.050;  124.350;    0.000
293.961; 3379.050;  165.350;    0.000
294.025; 3027.050;  118.350;    0.000
294.089; 2731.050;  125.350;    0.000
294.152; 2735.050;  160.350;    0.000
294.216; 2526.050;  160.350;    0.000
294.280; 2293.050;  158.350;    0.000
294.344; 2257.050;  119.350;    0.000
294.408; 2021.050;  168.350;    0.000
294.472; 1949.050;  156.350;    0.000
294.536; 1905.050;  192.350;    0.000
294.599; 1958.050;  171.350;    0.000
294.663; 1822.050;  139.350;    0.000
294.727; 1922.050;  136.350;    0.000
294.791; 1802.050;  118.350;    0.000
294.855; 1848.050;  118.350;    0.000
294.918; 1737.050;  127.350;    0.000
294.982; 1663.050;  167.350;    0.000
295.046; 1699.050;  178.350;    0.000
295.110; 1651.050;  157.350;    0.000
295.173; 1680.050;  101.350;    0.000
295.237; 1562.050;  145.350;    0.000
295.301; 1493.050;  135.350;    0.000
295.364; 1639.050;  185.350;    0.000
295.428; 1531.050;  112.350;    0.000
295.492; 1588.050;  142.350;    0.000
295.556; 1579.050;  170.350;    0.000
295.619; 1558.050;  193.350;    0.000
295.683; 1521.050;  144.350;    0.000
295.747; 1429.050;  152.350;    0.000
295.810; 1548.050;  139.350;    0.000
295.874; 1411.050;  157.350;    0.000
295.938; 1423.050;  128.350;    0.000
296.001; 1456.050;  164.350;    0.000
296.065; 1436.050;  184.350;    0.000
296.128; 1448.050;  127.350;    0.000
296.192; 1451.050;  166.350;    0.000
296.256; 1437.050;  154.350;    0.000
296.319; 1364.050;  128.350;    0.000
296.383; 1458.050;  146.350;    0.000
296.447; 1392.050;  155.350;    0.000
296.510; 1465.050;  177.350;    0.000
296.574; 1488.050;  169.350;    0.000
296.637; 1430.050;  140.350;    0.000
296.701; 1441.050;  181.350;    0.000
296.764; 1412.050;  131.350;    0.000
296.828; 1454.050;  194.350;    0.000
296.891; 1386.050;  146.350;    0.000
296.955; 1391.050;  160.350;    0.000
297.018; 1402.050;  174.350;    0.000
297.082; 1414.050;  153.350;    0.000
297.145; 1421.050;  133.350;    0.000
297.209; 1377.050;  149.350;    0.000
297.272; 1313.050;  150.350;    0.000
297.336; 1361.050;  119.350;    0.000
297.399; 1419.050;  160.350;    0.000
297.463; 1360.050;  158.350;    0.000
297.526; 1392.050;  160.350;    0.000
297.590; 1316.050;  173.350;    0.000
297.653; 1326.050;  121.350;    0.000
297.717; 1379.050;  168.350;    0.000
297.780; 1362.050;  131.350;    0.000
297.843; 1374.050;  154.350;    0.000
297.907; 1306.050;  126.350;    0.000
297.970; 1309.050;  180.350;    0.000
298.034; 1317.050;  140.350;    0.000
298.097; 1359.050;  207.350;    0.000
298.160; 1343.050;  177.350;    0.000
298.224; 1311.050;  165.350;    0.000
298.287; 1400.050;  160.350;    0.000
298.350; 1360.050;  176.350;    0.000
298.414; 1275.050;  155.350;    0.000
298.477; 1299.050;  132.350;    0.000
298.540; 1305.050;  162.350;    0.000
298.604; 1348.050;  180.350;    0.000
298.667; 1316.050;  208.350;    0.000
298.730; 1311.050;  177.350;    0.000
298.794; 1277.050;  126.350;    0.000
298.857; 1322.050;  171.350;    0.000
298.920; 1218.050;  124.350;    0.000
298.984; 1292.050;  146.350;    0.000
299.047; 1329.050;  140.350;    0.000
299.110; 1248.050;  159.350;    0.000
299.173; 1249.050;  177.350;    0.000
299.237; 1291.050;  196.350;    0.000
299.300; 1230.050;  121.350;    0.000
299.363; 1268.050;  172.350;    0.000
299.426; 1268.050;  117.350;    0.000
299.489; 1218.050;  138.350;    0.000
299.553; 1277.050;  198.350;    0.000
299.616; 1289.050;  158.350;    0.000
299.679; 1260.050;  148.350;    0.000
299.742; 1172.050;  138.350;    0.000
299.805; 1251.050;  157.350;    0.000
299.868; 1308.050;  183.350;    0.000
299.932; 1254.050;  137.350;    0.000
299.995; 1192.050;  152.350;    0.000
300.058; 1248.050;  171.350;    0.000
300.121; 1237.050;  172.350;    0.000
300.184; 1226.050;  161.350;    0.000
300.247; 1217.050;  156.350;    0.000
300.310; 1202.050;  154.350;    0.000
300.374; 1278.050;  147.350;    0.000
300.437; 1172.050;  144.350;    0.000
300.500; 1309.050;  152.350;    0.000
300.563; 1250.050;  160.350;    0.000
300.626; 1225.050;  167.350;    0.000
300.689; 1213.050;  193.350;    0.000
300.752; 1142.050;  134.350;    0.000
300.815; 1260.050;  194.350;    0.000
300.878; 1319.050;  156.350;    0.000
300.941; 1234.050;  177.350;    0.000
301.004; 1230.050;  160.350;    0.000
301.067; 1209.050;  153.350;    0.000
301.130; 1178.050;  167.350;    0.000
301.193; 1201.050;  156.350;    0.000
301.256; 1263.050;  176.350;    0.000
301.319; 1265.050;  172.350;    0.000
301.382; 1220.050;  150.350;    0.000
301.445; 1259.050;  183.350;    0.000
301.508; 1196.050;  118.350;    0.000
301.571; 1153.050;  142.350;    0.000
301.634; 1202.050;  164.350;    0.000
301.697; 1164.050;  169.350;    0.000
301.760; 1223.050;  197.350;    0.000
301.823; 1206.050;  155.350;    0.000
301.885; 1188.050;  165.350;    0.000
301.948; 1207.050;  168.350;    0.000
302.011; 1226.050;  172.350;    0.000
302.074; 1279.050;  182.350;    0.000
302.137; 1199.050;  161.350;    0.000
302.200; 1250.050;  174.350;    0.000
302.263; 1201.050;  158.350;    0.000
302.326; 1179.050;  168.350;    0.000
302.388; 1233.050;  165.350;    0.000
302.451; 1177.050;  158.350;    0.000
302.514; 1151.050;  181.350;    0.000
302.577; 1172.050;  147.350;    0.000
302.640; 1169.050;  178.350;    0.000
302.703; 1200.050;  164.350;    0.000
302.765; 1130.050;  149.350;    0.000
302.828; 1199.050;  192.350;    0.000
302.891; 1226.050;  201.350;    0.000
302.954; 1214.050;  135.350;    0.000
303.016; 1246.050;  180.350;    0.000
303.079; 1155.050;  192.350;    0.000
303.142; 1189.050;  176.350;    0.000
303.205; 1183.050;  176.350;    0.000
303.267; 1171.050;  163.350;    0.000
303.330; 1167.050;  162.350;    0.000
303.393; 1175.050;  164.350;    0.000
303.456; 1108.050;  180.350;    0.000
303.518; 1155.050;  162.350;    0.000
303.581; 1131.050;  137.350;    0.000
303.644; 1161.050;  135.350;    0.000
303.706; 1179.050;  170.350;    0.000
303.769; 1176.050;  216.350;    0.000
303.832; 1175.050;  143.350;    0.000
303.894; 1155.050;  162.350;    0.000
303.957; 1210.050;  149.350;    0.000
304.020; 1207.050;  111.350;    0.000
304.082; 1236.050;  158.350;    0.000
304.145; 1281.050;  149.350;    0.000
304.207; 1245.050;  169.350;    0.000
304.270; 1181.050;  170.350;    0.000
304.333; 1207.050;  185.350;    0.000
304.395; 1186.050;  179.350;    0.000
304.458; 1234.050;  174.350;    0.000
304.520; 1188.050;  160.350;    0.000
304.583; 1166.050;  175.350;    0.000
304.646; 1171.050;  160.350;    0.000
304.708; 1105.050;  173.350;    0.000
304.771; 1171.050;  115.350;    0.000
304.833; 1180.050;  172.350;    0.000
304.896; 1211.050;  187.350;    0.000
304.958; 1143.050;  142.350;    0.000
305.021; 1174.050;  164.350;    0.000
305.083; 1195.050;  139.350;    0.000
305.146; 1224.050;  162.350;    0.000
305.208; 1173.050;  135.350;    0.000
305.271; 1151.050;  159.350;    0.000
305.333; 1233.050;  210.350;    0.000
305.396; 1119.050;  151.350;    0.000
305.458; 1192.050;  195.350;    0.000
305.520; 1188.050;  179.350;    0.000
305.583; 1169.050;  157.350;    0.000
305.645; 1290.050;  187.350;    0.000
305.708; 1197.050;  159.350;    0.000
305.770; 1212.050;  189.350;    0.000
305.833; 1176.050;  147.350;    0.000
305.895; 1200.050;  154.350;    0.000
305.957; 1207.050;  143.350;    0.000
306.020; 1126.050;  133.350;    0.000
306.082; 1222.050;  146.350;    0.000
306.144; 1254.050;  171.350;    0.000
306.207; 1204.050;  151.350;    0.000
306.269; 1157.050;  169.350;    0.000
306.331; 1215.050;  162.350;    0.000
306.394; 1153.050;  171.350;    0.000
306.456; 1135.050;  155.350;    0.000
306.518; 1188.050;  183.350;    0.000
306.581; 1160.050;  180.350;    0.000
306.643; 1215.050;  199.350;    0.000
306.705; 1198.050;  163.350;    0.000
306.768; 1193.050;  183.350;    0.000
306.830; 1184.050;  183.350;    0.000
306.892; 1214.050;  190.350;    0.000
306.954; 1213.050;  161.350;    0.000
307.017; 1185.050;  151.350;    0.000
307.079; 1218.050;  147.350;    0.000
307.141; 1258.050;  179.350;    0.000
307.203; 1197.050;  143.350;    0.000
307.266; 1202.050;  142.350;    0.000
307.328; 1300.050;  161.350;    0.000
307.390; 1289.050;  189.350;    0.000
307.452; 1245.050;  155.350;    0.000
307.514; 1306.050;  211.350;    0.000
307.577; 1253.050;  201.350;    0.000
307.639; 1300.050;  192.350;    0.000
307.701; 1270.050;  162.350;    0.000
307.763; 1274.050;  155.350;    0.000
307.825; 1265.050;  193.350;    0.000
307.887; 1324.050;  214.350;    0.000
307.949; 1266.050;  208.350;    0.000
308.012; 1227.050;  175.350;    0.000
308.074; 1265.050;  155.350;    0.000
308.136; 1298.050;  172.350;    0.000
308.198; 1292.050;  171.350;    0.000
308.260; 1275.050;  182.350;    0.000
308.322; 1223.050;  177.350;    0.000
308.384; 1290.050;  207.350;    0.000
308.446; 1247.050;  170.350;    0.000
308.508; 1288.050;  177.350;    0.000
308.570; 1319.050;  195.350;    0.000
308.632; 1291.050;  190.350;    0.000
308.694; 1309.050;  161.350;    0.000
308.756; 1291.050;  173.350;    0.000
308.818; 1368.050;  190.350;    0.000
308.880; 1369.050;  197.350;    0.000
308.942; 1343.050;  223.350;    0.000
309.004; 1378.050;  176.350;    0.000
309.066; 1355.050;  182.350;    0.000
309.128; 1380.050;  185.350;    0.000
309.190; 1446.050;  166.350;    0.000
309.252; 1621.050;  191.350;    0.000
309.314; 1559.050;  208.350;    0.000
309.376; 1549.050;  205.350;    0.000
309.438; 1502.050;  166.350;    0.000
309.500; 1523.050;  195.350;    0.000
309.562; 1500.050;  163.350;    0.000
309.624; 1517.050;  162.350;    0.000
309.686; 1606.050;  194.350;    0.000
309.747; 1569.050;  179.350;    0.000
309.809; 1531.050;  211.350;    0.000
309.871; 1532.050;  191.350;    0.000
309.933; 1394.050;  151.350;    0.000
309.995; 1527.050;  179.350;    0.000
310.057; 1402.050;  175.350;    0.000
310.119; 1443.050;  161.350;    0.000
310.180; 1372.050;  167.350;    0.000
310.242; 1411.050;  171.350;    0.000
310.304; 1439.050;  209.350;    0.000
310.366; 1437.050;  229.350;    0.000
310.428; 1313.050;  132.350;    0.000
310.489; 1380.050;  165.350;    0.000
310.551; 1359.050;  193.350;    0.000
310.613; 1385.050;  182.350;    0.000
310.675; 1408.050;  186.350;    0.000
310.737; 1336.050;  192.350;    0.000
310.798; 1412.050;  194.350;    0.000
310.860; 1339.050;  220.350;    0.000
310.922; 1362.050;  161.350;    0.000
310.983; 1340.050;  203.350;    0.000
311.045; 1322.050;  198.350;    0.000
311.107; 1322.050;  179.350;    0.000
311.169; 1349.050;  154.350;    0.000
311.230; 1305.050;  134.350;    0.000
311.292; 1380.050;  215.350;    0.000
311.354; 1247.050;  171.350;    0.000
311.415; 1353.050;  195.350;    0.000
311.477; 1282.050;  185.350;    0.000
311.539; 1212.050;  183.350;    0.000
311.600; 1314.050;  183.350;    0.000
311.662; 1383.050;  207.350;    0.000
311.724; 1406.050;  193.350;    0.000
311.785; 1353.050;  180.350;    0.000
311.847; 1300.050;  155.350;    0.000
311.908; 1289.050;  179.350;    0.000
311.970; 1375.050;  193.350;    0.000
312.032; 1375.050;  188.350;    0.000
312.093; 1360.050;  166.350;    0.000
312.155; 1250.050;  147.350;    0.000
312.216; 1340.050;  177.350;    0.000
312.278; 1289.050;  162.350;    0.000
312.339; 1315.050;  158.350;    0.000
312.401; 1414.050;  181.350;    0.000
312.462; 1319.050;  153.350;    0.000
312.524; 1334.050;  186.350;    0.000
312.585; 1376.050;  191.350;    0.000
312.647; 1353.050;  131.350;    0.000
312.708; 1349.050;  170.350;    0.000
312.770; 1427.050;  194.350;    0.000
312.831; 1321.050;  161.350;    0.000
312.893; 1384.050;  179.350;    0.000
312.954; 1412.050;  183.350;    0.000
313.016; 1394.050;  189.350;    0.000
313.077; 1353.050;  169.350;    0.000
313.139; 1308.050;  148.350;    0.000
313.200; 1332.050;  155.350;    0.000
313.261; 1444.050;  213.350;    0.000
313.323; 1325.050;  162.350;    0.000
313.384; 1292.050;  160.350;    0.000
313.446; 1322.050;  202.350;    0.000
313.507; 1370.050;  149.350;    0.000
313.568; 1352.050;  194.350;    0.000
313.630; 1362.050;  163.350;    0.000
313.691; 1306.050;  158.350;    0.000
313.752; 1377.050;  179.350;    0.000
313.814; 1281.050;  180.350;    0.000
313.875; 1370.050;  191.350;    0.000
313.936; 1273.050;  169.350;    0.000
313.998; 1397.050;  165.350;    0.000
314.059; 1288.050;  211.350;    0.000
314.120; 1300.050;  190.350;    0.000
314.182; 1319.050;  185.350;    0.000
314.243; 1246.050;  186.350;    0.000
314.304; 1360.050;  178.350;    0.000
314.365; 1380.050;  187.350;    0.000
314.427; 1370.050;  145.350;    0.000
314.488; 1299.050;  184.350;    0.000
314.549; 1389.050;  181.350;    0.000
314.610; 1346.050;  151.350;    0.000
314.672; 1330.050;  153.350;    0.000
314.733; 1371.050;  148.350;    0.000
314.794; 1349.050;  156.350;    0.000
314.855; 1392.050;  196.350;    0.000
314.917; 1343.050;  157.350;    0.000
314.978; 1359.050;  174.350;    0.000
315.039; 1371.050;  168.350;    0.000
315.100; 1326.050;  154.350;    0.000
315.161; 1296.050;  176.350;    0.000
315.222; 1351.050;  198.350;    0.000
315.283; 1347.050;  169.350;    0.000
315.345; 1343.050;  162.350;    0.000
315.406; 1357.050;  199.350;    0.000
315.467; 1274.050;  180.350;    0.000
315.528; 1429.050;  179.350;    0.000
315.589; 1353.050;  166.350;    0.000
315.650; 1399.050;  179.350;    0.000
315.711; 1420.050;  177.350;    0.000
315.772; 1371.050;  180.350;    0.000
315.833; 1404.050;  157.350;    0.000
315.894; 1522.050;  133.350;    0.000
315.955; 1487.050;  205.350;    0.000
316.016; 1398.050;  190.350;    0.000
316.078; 1401.050;  174.350;    0.000
316.139; 1428.050;  208.350;    0.000
316.200; 1393.050;  166.350;    0.000
316.261; 1439.050;  186.350;    0.000
316.322; 1353.050;  185.350;    0.000
316.383; 1352.050;  179.350;    0.000
316.444; 1354.050;  172.350;    0.000
316.504; 1372.050;  181.350;    0.000
316.565; 1367.050;  197.350;    0.000
316.626; 1386.050;  196.350;    0.000
316.687; 1388.050;  173.350;    0.000
316.748; 1297.050;  178.350;    0.000
316.809; 1298.050;  178.350;    0.000
316.870; 1369.050;  134.350;    0.000
316.931; 1379.050;  166.350;    0.000
316.992; 1346.050;  200.350;    0.000
317.053; 1298.050;  169.350;    0.000
317.114; 1393.050;  185.350;    0.000
317.175; 1416.050;  213.350;    0.000
317.235; 1313.050;  199.350;    0.000
317.296; 1331.050;  190.350;    0.000
317.357; 1385.050;  152.350;    0.000
317.418; 1376.050;  192.350;    0.000
317.479; 1368.050;  170.350;    0.000
317.540; 1392.050;  179.350;    0.000
317.601; 1377.050;  155.350;    0.000
317.661; 1318.050;  154.350;    0.000
317.722; 1398.050;  190.350;    0.000
317.783; 1334.050;  149.350;    0.000
317.844; 1454.050;  207.350;    0.000
317.904; 1508.050;  153.350;    0.000
317.965; 1603.050;  179.350;    0.000
318.026; 1607.050;  235.350;    0.000
318.087; 1569.050;  184.350;    0.000
318.148; 1503.050;  201.350;    0.000
318.208; 1450.050;  220.350;    0.000
318.269; 1409.050;  175.350;    0.000
318.330; 1439.050;  185.350;    0.000
318.390; 1448.050;  180.350;    0.000
318.451; 1373.050;  164.350;    0.000
318.512; 1389.050;  150.350;    0.000
318.572; 1400.050;  205.350;    0.000
318.633; 1445.050;  224.350;    0.000
318.694; 1414.050;  202.350;    0.000
318.754; 1354.050;  196.350;    0.000
318.815; 1372.050;  187.350;    0.000
318.876; 1410.050;  200.350;    0.000
318.936; 1314.050;  232.350;    0.000
318.997; 1393.050;  211.350;    0.000
319.058; 1305.050;  194.350;    0.000
319.118; 1344.050;  197.350;    0.000
319.179; 1327.050;  162.350;    0.000
319.239; 1349.050;  188.350;    0.000
319.300; 1418.050;  205.350;    0.000
319.361; 1386.050;  179.350;    0.000
319.421; 1314.050;  182.350;    0.000
319.482; 1307.050;  189.350;    0.000
319.542; 1262.050;  180.350;    0.000
319.603; 1319.050;  204.350;    0.000
319.663; 1347.050;  195.350;    0.000
319.724; 1305.050;  135.350;    0.000
319.784; 1271.050;  184.350;    0.000
319.845; 1325.050;  160.350;    0.000
319.905; 1355.050;  206.350;    0.000
319.966; 1287.050;  203.350;    0.000
320.026; 1340.050;  203.350;    0.000
320.087; 1329.050;  206.350;    0.000
320.147; 1362.050;  180.350;    0.000
320.208; 1303.050;  189.350;    0.000
320.268; 1267.050;  179.350;    0.000
320.329; 1346.050;  215.350;    0.000
320.389; 1272.050;  193.350;    0.000
320.449; 1293.050;  210.350;    0.000
320.510; 1365.050;  206.350;    0.000
320.570; 1283.050;  221.350;    0.000
320.631; 1357.050;  203.350;    0.000
320.691; 1398.050;  190.350;    0.000
320.751; 1236.050;  205.350;    0.000
320.812; 1262.050;  191.350;    0.000
320.872; 1367.050;  216.350;    0.000
320.932; 1382.050;  209.350;    0.000
320.993; 1219.050;  189.350;    0.000
321.053; 1352.050;  228.350;    0.000
321.113; 1331.050;  163.350;    0.000
321.174; 1325.050;  204.350;    0.000
321.234; 1337.050;  214.350;    0.000
321.294; 1319.050;  184.350;    0.000
321.355; 1322.050;  216.350;    0.000
321.415; 1285.050;  187.350;    0.000
321.475; 1318.050;  216.350;    0.000
321.535; 1340.050;  189.350;    0.000
321.596; 1405.050;  186.350;    0.000
321.656; 1303.050;  204.350;    0.000
321.716; 1388.050;  183.350;    0.000
321.776; 1341.050;  194.350;    0.000
321.837; 1324.050;  190.350;    0.000
321.897; 1336.050;  219.350;    0.000
321.957; 1363.050;  222.350;    0.000
322.017; 1324.050;  183.350;    0.000
322.077; 1312.050;  239.350;    0.000
322.138; 1352.050;  219.350;    0.000
322.198; 1338.050;  185.350;    0.000
322.258; 1337.050;  231.350;    0.000
322.318; 1402.050;  197.350;    0.000
322.378; 1340.050;  179.350;    0.000
322.438; 1358.050;  217.350;    0.000
322.499; 1337.050;  238.350;    0.000
322.559; 1318.050;  197.350;    0.000
322.619; 1307.050;  204.350;    0.000
322.679; 1276.050;  199.350;    0.000
322.739; 1315.050;  194.350;    0.000
322.799; 1330.050;  203.350;    0.000
322.859; 1329.050;  234.350;    0.000
322.919; 1311.050;  194.350;    0.000
322.979; 1314.050;  219.350;    0.000
323.039; 1283.050;  193.350;    0.000
323.099; 1275.050;  207.350;    0.000
323.159; 1288.050;  213.350;    0.000
323.219; 1359.050;  171.350;    0.000
323.279; 1317.050;  215.350;    0.000
323.339; 1343.050;  170.350;    0.000
323.399; 1379.050;  195.350;    0.000
323.459; 1344.050;  234.350;    0.000
323.519; 1373.050;  201.350;    0.000
323.579; 1414.050;  167.350;    0.000
323.639; 1369.050;  209.350;    0.000
323.699; 1297.050;  217.350;    0.000
323.759; 1356.050;  213.350;    0.000
323.819; 1300.050;  216.350;    0.000
323.879; 1385.050;  193.350;    0.000
323.939; 1246.050;  182.350;    0.000
323.999; 1286.050;  206.350;    0.000
324.059; 1322.050;  196.350;    0.000
324.119; 1282.050;  240.350;    0.000
324.178; 1294.050;  186.350;    0.000
324.238; 1327.050;  179.350;    0.000
324.298; 1311.050;  195.350;    0.000
324.358; 1277.050;  208.350;    0.000
324.418; 1315.050;  190.350;    0.000
324.478; 1277.050;  197.350;    0.000
324.538; 1315.050;  157.350;    0.000
324.597; 1317.050;  219.350;    0.000
324.657; 1312.050;  176.350;    0.000
324.717; 1363.050;  179.350;    0.000
324.777; 1294.050;  190.350;    0.000
324.837; 1297.050;  172.350;    0.000
324.896; 1366.050;  199.350;    0.000
324.956; 1330.050;  216.350;    0.000
325.016; 1323.050;  191.350;    0.000
325.076; 1337.050;  185.350;    0.000
325.135; 1370.050;  174.350;    0.000
325.195; 1343.050;  175.350;    0.000
325.255; 1281.050;  144.350;    0.000
325.315; 1385.050;  201.350;    0.000
325.374; 1356.050;  198.350;    0.000
325.434; 1315.050;  181.350;    0.000
325.494; 1371.050;  183.350;    0.000
325.553; 1338.050;  172.350;    0.000
325.613; 1342.050;  200.350;    0.000
325.673; 1304.050;  177.350;    0.000
325.732; 1311.050;  174.350;    0.000
325.792; 1345.050;  181.350;    0.000
325.852; 1273.050;  214.350;    0.000
325.911; 1317.050;  230.350;    0.000
325.971; 1330.050;  198.350;    0.000
326.031; 1359.050;  201.350;    0.000
326.090; 1340.050;  214.350;    0.000
326.150; 1342.050;  163.350;    0.000
326.209; 1282.050;  207.350;    0.000
326.269; 1323.050;  201.350;    0.000
326.328; 1281.050;  208.350;    0.000
326.388; 1268.050;  169.350;    0.000
326.448; 1375.050;  229.350;    0.000
326.507; 1323.050;  243.350;    0.000
326.567; 1311.050;  162.350;    0.000
326.626; 1308.050;  200.350;    0.000
326.686; 1248.050;  166.350;    0.000
326.745; 1261.050;  178.350;    0.000
326.805; 1273.050;  185.350;    0.000
326.864; 1321.050;  209.350;    0.000
326.924; 1338.050;  234.350;    0.000
326.983; 1292.050;  197.350;    0.000
327.043; 1302.050;  217.350;    0.000
327.102; 1288.050;  174.350;    0.000
327.161; 1282.050;  172.350;    0.000
327.221; 1277.050;  183.350;    0.000
327.280; 1252.050;  200.350;    0.000
327.340; 1277.050;  200.350;    0.000
327.399; 1338.050;  219.350;    0.000
327.459; 1279.050;  246.350;    0.000
327.518; 1234.050;  217.350;    0.000
327.577; 1244.050;  212.350;    0.000
327.637; 1300.050;  188.350;    0.000
327.696; 1309.050;  201.350;    0.000
327.755; 1239.050;  199.350;    0.000
327.815; 1273.050;  224.350;    0.000
327.874; 1344.050;  236.350;    0.000
327.933; 1320.050;  182.350;    0.000
327.993; 1272.050;  206.350;    0.000
328.052; 1245.050;  191.350;    0.000
328.111; 1282.050;  222.350;    0.000
328.171; 1266.050;  200.350;    0.000
328.230; 1224.050;  203.350;    0.000
328.289; 1278.050;  219.350;    0.000
328.349; 1260.050;  231.350;    0.000
328.408; 1245.050;  223.350;    0.000
328.467; 1229.050;  226.350;    0.000
328.526; 1272.050;  197.350;    0.000
328.586; 1287.050;  221.350;    0.000
328.645; 1328.050;  199.350;    0.000
328.704; 1320.050;  227.350;    0.000
328.763; 1308.050;  201.350;    0.000
328.822; 1280.050;  230.350;    0.000
328.882; 1205.050;  244.350;    0.000
328.941; 1304.050;  221.350;    0.000
329.000; 1304.050;  207.350;    0.000
329.059; 1288.050;  208.350;    0.000
329.118; 1274.050;  203.350;    0.000
329.177; 1278.050;  198.350;    0.000
329.237; 1268.050;  218.350;    0.000
329.296; 1314.050;  213.350;    0.000
329.355; 1294.050;  208.350;    0.000
329.414; 1285.050;  231.350;    0.000
329.473; 1297.050;  221.350;    0.000
329.532; 1346.050;  243.350;    0.000
329.591; 1331.050;  210.350;    0.000
329.650; 1333.050;  232.350;    0.000
329.709; 1262.050;  211.350;    0.000
329.768; 1336.050;  194.350;    0.000
329.827; 1367.050;  237.350;    0.000
329.886; 1369.050;  213.350;    0.000
329.945; 1346.050;  190.350;    0.000
330.004; 1323.050;  233.350;    0.000
330.063; 1308.050;  191.350;    0.000
330.122; 1467.050;  234.350;    0.000
330.181; 1634.050;  220.350;    0.000
330.240; 1655.050;  191.350;    0.000
330.299; 1567.050;  210.350;    0.000
330.358; 1306.050;  191.350;    0.000
330.417; 1361.050;  225.350;    0.000
330.476; 1349.050;  226.350;    0.000
330.535; 1299.050;  217.350;    0.000
330.594; 1291.050;  205.350;    0.000
330.653; 1255.050;  193.350;    0.000
330.712; 1282.050;  206.350;    0.000
330.771; 1204.050;  175.350;    0.000
330.830; 1259.050;  204.350;    0.000
330.889; 1249.050;  198.350;    0.000
330.948; 1255.050;  198.350;    0.000
331.006; 1203.050;  207.350;    0.000
331.065; 1276.050;  203.350;    0.000
331.124; 1245.050;  210.350;    0.000
331.183; 1204.050;  165.350;    0.000
331.242; 1237.050;  195.350;    0.000
331.301; 1247.050;  191.350;    0.000
331.359; 1274.050;  205.350;    0.000
331.418; 1234.050;  183.350;    0.000
331.477; 1234.050;  198.350;    0.000
331.536; 1292.050;  211.350;    0.000
331.595; 1175.050;  191.350;    0.000
331.653; 1275.050;  232.350;    0.000
331.712; 1285.050;  225.350;    0.000
331.771; 1277.050;  199.350;    0.000
331.830; 1242.050;  189.350;    0.000
331.888; 1277.050;  219.350;    0.000
331.947; 1217.050;  188.350;    0.000
332.006; 1210.050;  180.350;    0.000
332.065; 1224.050;  177.350;    0.000
332.123; 1247.050;  214.350;    0.000
332.182; 1244.050;  223.350;    0.000
332.241; 1252.050;  202.350;    0.000
332.299; 1283.050;  180.350;    0.000
332.358; 1286.050;  206.350;    0.000
332.417; 1269.050;  195.350;    0.000
332.475; 1264.050;  221.350;    0.000
332.534; 1286.050;  207.350;    0.000
332.592; 1237.050;  190.350;    0.000
332.651; 1289.050;  203.350;    0.000
332.710; 1240.050;  219.350;    0.000
332.768; 1338.050;  210.350;    0.000
332.827; 1225.050;  173.350;    0.000
332.885; 1358.050;  239.350;    0.000
332.944; 1270.050;  145.350;    0.000
333.003; 1282.050;  197.350;    0.000
333.061; 1365.050;  179.350;    0.000
333.120; 1322.050;  198.350;    0.000
333.178; 1335.050;  185.350;    0.000
333.237; 1343.050;  204.350;    0.000
333.295; 1331.050;  266.350;    0.000
333.354; 1342.050;  181.350;    0.000
333.412; 1317.050;  189.350;    0.000
333.471; 1317.050;  216.350;    0.000
333.529; 1395.050;  220.350;    0.000
333.588; 1415.050;  193.350;    0.000
333.646; 1385.050;  186.350;    0.000
333.705; 1358.050;  210.350;    0.000
333.763; 1412.050;  222.350;    0.000
333.822; 1379.050;  222.350;    0.000
333.880; 1327.050;  202.350;    0.000
333.938; 1326.050;  205.350;    0.000
333.997; 1337.050;  199.350;    0.000
334.055; 1420.050;  199.350;    0.000
334.114; 1399.050;  237.350;    0.000
334.172; 1341.050;  155.350;    0.000
334.230; 1371.050;  208.350;    0.000
334.289; 1328.050;  191.350;    0.000
334.347; 1296.050;  211.350;    0.000
334.405; 1367.050;  212.350;    0.000
334.464; 1294.050;  179.350;    0.000
334.522; 1329.050;  160.350;    0.000
334.580; 1254.050;  195.350;    0.000
334.639; 1282.050;  191.350;    0.000
334.697; 1297.050;  194.350;    0.000
334.755; 1353.050;  185.350;    0.000
334.814; 1306.050;  214.350;    0.000
334.872; 1297.050;  179.350;    0.000
334.930; 1295.050;  169.350;    0.000
334.988; 1382.050;  201.350;    0.000
335.047; 1328.050;  188.350;    0.000
335.105; 1309.050;  175.350;    0.000
335.163; 1350.050;  191.350;    0.000
335.221; 1329.050;  196.350;    0.000
335.280; 1289.050;  182.350;    0.000
335.338; 1292.050;  202.350;    0.000
335.396; 1354.050;  219.350;    0.000
335.454; 1279.050;  187.350;    0.000
335.512; 1344.050;  236.350;    0.000
335.570; 1288.050;  209.350;    0.000
335.629; 1302.050;  247.350;    0.000
335.687; 1339.050;  219.350;    0.000
335.745; 1357.050;  203.350;    0.000
335.803; 1398.050;  220.350;    0.000
335.861; 1402.050;  208.350;    0.000
335.919; 1359.050;  223.350;    0.000
335.977; 1299.050;  201.350;    0.000
336.035; 1280.050;  193.350;    0.000
336.094; 1263.050;  178.350;    0.000
336.152; 1367.050;  182.350;    0.000
336.210; 1361.050;  199.350;    0.000
336.268; 1323.050;  216.350;    0.000
336.326; 1370.050;  216.350;    0.000
336.384; 1397.050;  201.350;    0.000
336.442; 1347.050;  197.350;    0.000
336.500; 1286.050;  203.350;    0.000
336.558; 1343.050;  198.350;    0.000
336.616; 1345.050;  210.350;    0.000
336.674; 1252.050;  192.350;    0.000
336.732; 1265.050;  182.350;    0.000
336.790; 1263.050;  189.350;    0.000
336.848; 1313.050;  233.350;    0.000
336.906; 1370.050;  235.350;    0.000
336.964; 1312.050;  208.350;    0.000
337.022; 1342.050;  249.350;    0.000
337.080; 1379.050;  204.350;    0.000
337.138; 1314.050;  176.350;    0.000
337.195; 1377.050;  207.350;    0.000
337.253; 1322.050;  214.350;    0.000
337.311; 1321.050;  210.350;    0.000
337.369; 1327.050;  222.350;    0.000
337.427; 1259.050;  236.350;    0.000
337.485; 1274.050;  241.350;    0.000
337.543; 1271.050;  217.350;    0.000
337.601; 1298.050;  221.350;    0.000
337.658; 1243.050;  205.350;    0.000
337.716; 1255.050;  210.350;    0.000
337.774; 1283.050;  196.350;    0.000
337.832; 1257.050;  200.350;    0.000
337.890; 1237.050;  192.350;    0.000
337.947; 1209.050;  192.350;    0.000
338.005; 1233.050;  211.350;    0.000
338.063; 1245.050;  176.350;    0.000
338.121; 1282.050;  222.350;    0.000
338.178; 1264.050;  198.350;    0.000
338.236; 1340.050;  210.350;    0.000
338.294; 1344.050;  211.350;    0.000
338.352; 1302.050;  212.350;    0.000
338.409; 1305.050;  199.350;    0.000
338.467; 1216.050;  205.350;    0.000
338.525; 1226.050;  217.350;    0.000
338.583; 1268.050;  197.350;    0.000
338.640; 1145.050;  226.350;    0.000
338.698; 1174.050;  201.350;    0.000
338.756; 1276.050;  192.350;    0.000
338.813; 1227.050;  220.350;    0.000
338.871; 1262.050;  258.350;    0.000
338.928; 1282.050;  223.350;    0.000
338.986; 1267.050;  200.350;    0.000
339.044; 1222.050;  206.350;    0.000
339.101; 1229.050;  250.350;    0.000
339.159; 1273.050;  245.350;    0.000
339.216; 1285.050;  227.350;    0.000
339.274; 1299.050;  260.350;    0.000
339.332; 1279.050;  223.350;    0.000
339.389; 1288.050;  233.350;    0.000
339.447; 1306.050;  206.350;    0.000
339.504; 1278.050;  229.350;    0.000
339.562; 1249.050;  194.350;    0.000
339.619; 1257.050;  245.350;    0.000
339.677; 1362.050;  238.350;    0.000
339.734; 1267.050;  197.350;    0.000
339.792; 1239.050;  210.350;    0.000
339.849; 1318.050;  201.350;    0.000
339.907; 1314.050;  252.350;    0.000
339.964; 1279.050;  191.350;    0.000
340.022; 1263.050;  246.350;    0.000
340.079; 1241.050;  213.350;    0.000
340.137; 1199.050;  240.350;    0.000
340.194; 1237.050;  208.350;    0.000
340.252; 1239.050;  215.350;    0.000
340.309; 1287.050;  203.350;    0.000
340.366; 1240.050;  194.350;    0.000
340.424; 1317.050;  226.350;    0.000
340.481; 1348.050;  234.350;    0.000
340.538; 1221.050;  205.350;    0.000
340.596; 1205.050;  197.350;    0.000
340.653; 1290.050;  233.350;    0.000
340.711; 1310.050;  273.350;    0.000
340.768; 1326.050;  237.350;    0.000
340.825; 1322.050;  224.350;    0.000
340.883; 1272.050;  240.350;    0.000
340.940; 1311.050;  216.350;    0.000
340.997; 1269.050;  228.350;    0.000
341.054; 1289.050;  200.350;    0.000
341.112; 1259.050;  220.350;    0.000
341.169; 1310.050;  226.350;    0.000
341.226; 1247.050;  206.350;    0.000
341.284; 1342.050;  204.350;    0.000
341.341; 1292.050;  214.350;    0.000
341.398; 1267.050;  160.350;    0.000
341.455; 1257.050;  209.350;    0.000
341.512; 1381.050;  233.350;    0.000
341.570; 1267.050;  240.350;    0.000
341.627; 1278.050;  209.350;    0.000
341.684; 1221.050;  178.350;    0.000
341.741; 1312.050;  254.350;    0.000
341.798; 1274.050;  232.350;    0.000
341.856; 1291.050;  196.350;    0.000
341.913; 1261.050;  244.350;    0.000
341.970; 1308.050;  203.350;    0.000
342.027; 1284.050;  235.350;    0.000
342.084; 1291.050;  214.350;    0.000
342.141; 1253.050;  194.350;    0.000
342.198; 1326.050;  194.350;    0.000
342.255; 1280.050;  219.350;    0.000
342.313; 1306.050;  195.350;    0.000
342.370; 1307.050;  207.350;    0.000
342.427; 1320.050;  217.350;    0.000
342.484; 1321.050;  213.350;    0.000
342.541; 1278.050;  215.350;    0.000
342.598; 1281.050;  247.350;    0.000
342.655; 1283.050;  205.350;    0.000
342.712; 1304.050;  226.350;    0.000
342.769; 1226.050;  212.350;    0.000
342.826; 1303.050;  203.350;    0.000
342.883; 1252.050;  207.350;    0.000
342.940; 1303.050;  204.350;    0.000
342.997; 1264.050;  237.350;    0.000
343.054; 1203.050;  210.350;    0.000
343.111; 1237.050;  209.350;    0.000
343.168; 1358.050;  201.350;    0.000
343.225; 1273.050;  208.350;    0.000
343.282; 1340.050;  216.350;    0.000
343.339; 1313.050;  237.350;    0.000
343.395; 1322.050;  218.350;    0.000
343.452; 1341.050;  234.350;    0.000
343.509; 1312.050;  214.350;    0.000
343.566; 1352.050;  222.350;    0.000
343.623; 1274.050;  226.350;    0.000
343.680; 1399.050;  245.350;    0.000
343.737; 1316.050;  209.350;    0.000
343.794; 1310.050;  227.350;    0.000
343.850; 1414.050;  197.350;    0.000
343.907; 1337.050;  211.350;    0.000
343.964; 1377.050;  190.350;    0.000
344.021; 1372.050;  252.350;    0.000
344.078; 1443.050;  261.350;    0.000
344.134; 1419.050;  206.350;    0.000
344.191; 1354.050;  231.350;    0.000
344.248; 1308.050;  225.350;    0.000
344.305; 1356.050;  210.350;    0.000
344.361; 1357.050;  194.350;    0.000
344.418; 1365.050;  219.350;    0.000
344.475; 1377.050;  245.350;    0.000
344.532; 1330.050;  238.350;    0.000
344.588; 1388.050;  235.350;    0.000
344.645; 1376.050;  229.350;    0.000
344.702; 1338.050;  145.350;    0.000
344.758; 1378.050;  240.350;    0.000
344.815; 1373.050;  215.350;    0.000
344.872; 1288.050;  203.350;    0.000
344.928; 1428.050;  208.350;    0.000
344.985; 1403.050;  216.350;    0.000
345.042; 1411.050;  234.350;    0.000
345.098; 1350.050;  183.350;    0.000
345.155; 1358.050;  241.350;    0.000
345.212; 1312.050;  222.350;    0.000
345.268; 1381.050;  234.350;    0.000
345.325; 1393.050;  181.350;    0.000
345.381; 1345.050;  251.350;    0.000
345.438; 1409.050;  256.350;    0.000
345.495; 1388.050;  247.350;    0.000
345.551; 1368.050;  231.350;    0.000
345.608; 1348.050;  206.350;    0.000
345.664; 1302.050;  201.350;    0.000
345.721; 1382.050;  216.350;    0.000
345.777; 1300.050;  195.350;    0.000
345.834; 1282.050;  195.350;    0.000
345.890; 1378.050;  227.350;    0.000
345.947; 1335.050;  240.350;    0.000
346.003; 1301.050;  248.350;    0.000
346.060; 1334.050;  213.350;    0.000
346.116; 1333.050;  225.350;    0.000
346.173; 1353.050;  199.350;    0.000
346.229; 1417.050;  264.350;    0.000
346.285; 1336.050;  246.350;    0.000
346.342; 1373.050;  240.350;    0.000
346.398; 1306.050;  222.350;    0.000
346.455; 1428.050;  231.350;    0.000
346.511; 1476.050;  214.350;    0.000
346.567; 1380.050;  231.350;    0.000
346.624; 1422.050;  222.350;    0.000
346.680; 1391.050;  197.350;    0.000
346.737; 1386.050;  225.350;    0.000
346.793; 1446.050;  255.350;    0.000
346.849; 1394.050;  245.350;    0.000
346.906; 1377.050;  221.350;    0.000
346.962; 1377.050;  260.350;    0.000
347.018; 1351.050;  238.350;    0.000
347.074; 1403.050;  257.350;    0.000
347.131; 1399.050;  200.350;    0.000
347.187; 1320.050;  232.350;    0.000
347.243; 1424.050;  240.350;    0.000
347.300; 1403.050;  249.350;    0.000
347.356; 1425.050;  250.350;    0.000
347.412; 1375.050;  252.350;    0.000
347.468; 1336.050;  254.350;    0.000
347.524; 1410.050;  280.350;    0.000
347.581; 1431.050;  228.350;    0.000
347.637; 1372.050;  261.350;    0.000
347.693; 1395.050;  238.350;    0.000
347.749; 1374.050;  261.350;    0.000
347.805; 1277.050;  238.350;    0.000
347.862; 1369.050;  246.350;    0.000
347.918; 1384.050;  256.350;    0.000
347.974; 1401.050;  277.350;    0.000
348.030; 1359.050;  242.350;    0.000
348.086; 1394.050;  223.350;    0.000
348.142; 1376.050;  215.350;    0.000
348.198; 1400.050;  272.350;    0.000
348.254; 1418.050;  292.350;    0.000
348.311; 1409.050;  235.350;    0.000
348.367; 1397.050;  263.350;    0.000
348.423; 1344.050;  193.350;    0.000
348.479; 1396.050;  266.350;    0.000
348.535; 1407.050;  238.350;    0.000
348.591; 1406.050;  237.350;    0.000
348.647; 1292.050;  239.350;    0.000
348.703; 1368.050;  240.350;    0.000
348.759; 1348.050;  253.350;    0.000
348.815; 1351.050;  255.350;    0.000
348.871; 1367.050;  256.350;    0.000
348.927; 1374.050;  261.350;    0.000
348.983; 1406.050;  258.350;    0.000
349.039; 1322.050;  204.350;    0.000
349.095; 1377.050;  215.350;    0.000
349.151; 1337.050;  230.350;    0.000
349.207; 1343.050;  216.350;    0.000
349.263; 1429.050;  235.350;    0.000
349.319; 1385.050;  244.350;    0.000
349.374; 1354.050;  213.350;    0.000
349.430; 1368.050;  241.350;    0.000
349.486; 1379.050;  248.350;    0.000
349.542; 1374.050;  259.350;    0.000
349.598; 1438.050;  208.350;    0.000
349.654; 1473.050;  242.350;    0.000
349.710; 1386.050;  246.350;    0.000
349.766; 1349.050;  226.350;    0.000
349.821; 1417.050;  227.350;    0.000
349.877; 1387.050;  226.350;    0.000
349.933; 1460.050;  249.350;    0.000
349.989; 1461.050;  263.350;    0.000
350.045; 1384.050;  267.350;    0.000
350.100; 1360.050;  219.350;    0.000
350.156; 1385.050;  207.350;    0.000
350.212; 1338.050;  230.350;    0.000
350.268; 1366.050;  223.350;    0.000
350.323; 1380.050;  217.350;    0.000
350.379; 1392.050;  227.350;    0.000
350.435; 1402.050;  219.350;    0.000
350.491; 1327.050;  195.350;    0.000
350.546; 1435.050;  229.350;    0.000
350.602; 1430.050;  222.350;    0.000
350.658; 1402.050;  225.350;    0.000
350.713; 1361.050;  231.350;    0.000
350.769; 1367.050;  193.350;    0.000
350.825; 1357.050;  182.350;    0.000
350.880; 1393.050;  193.350;    0.000
350.936; 1447.050;  222.350;    0.000
350.992; 1320.050;  217.350;    0.000
351.047; 1387.050;  226.350;    0.000
351.103; 1378.050;  187.350;    0.000
351.158; 1430.050;  212.350;    0.000
351.214; 1443.050;  207.350;    0.000
351.270; 1332.050;  194.350;    0.000
351.325; 1367.050;  213.350;    0.000
351.381; 1375.050;  223.350;    0.000
351.436; 1413.050;  222.350;    0.000
351.492; 1497.050;  219.350;    0.000
351.547; 1454.050;  205.350;    0.000
351.603; 1389.050;  218.350;    0.000
351.658; 1367.050;  199.350;    0.000
351.714; 1412.050;  201.350;    0.000
351.769; 1436.050;  209.350;    0.000
351.825; 1503.050;  226.350;    0.000
351.880; 1446.050;  189.350;    0.000
351.936; 1445.050;  201.350;    0.000
351.991; 1450.050;  220.350;    0.000
352.047; 1368.050;  232.350;    0.000
352.102; 1479.050;  185.350;    0.000
352.158; 1395.050;  228.350;    0.000
352.213; 1358.050;  204.350;    0.000
352.268; 1401.050;  220.350;    0.000
352.324; 1406.050;  206.350;    0.000
352.379; 1393.050;  182.350;    0.000
352.434; 1455.050;  214.350;    0.000
352.490; 1401.050;  250.350;    0.000
352.545; 1402.050;  290.350;    0.000
352.601; 1527.050;  247.350;    0.000
352.656; 1462.050;  203.350;    0.000
352.711; 1401.050;  197.350;    0.000
352.767; 1438.050;  169.350;    0.000
352.822; 1383.050;  191.350;    0.000
352.877; 1433.050;  235.350;    0.000
352.932; 1433.050;  231.350;    0.000
352.988; 1378.050;  224.350;    0.000
353.043; 1467.050;  226.350;    0.000
353.098; 1397.050;  227.350;    0.000
353.153; 1410.050;  239.350;    0.000
353.209; 1398.050;  217.350;    0.000
353.264; 1489.050;  198.350;    0.000
353.319; 1357.050;  247.350;    0.000
353.374; 1366.050;  199.350;    0.000
353.430; 1469.050;  247.350;    0.000
353.485; 1445.050;  242.350;    0.000
353.540; 1486.050;  237.350;    0.000
353.595; 1352.050;  233.350;    0.000
353.650; 1461.050;  221.350;    0.000
353.705; 1432.050;  259.350;    0.000
353.761; 1396.050;  223.350;    0.000
353.816; 1439.050;  234.350;    0.000
353.871; 1428.050;  226.350;    0.000
353.926; 1440.050;  232.350;    0.000
353.981; 1390.050;  245.350;    0.000
354.036; 1434.050;  247.350;    0.000
354.091; 1387.050;  233.350;    0.000
354.146; 1448.050;  253.350;    0.000
354.201; 1434.050;  236.350;    0.000
354.256; 1365.050;  210.350;    0.000
354.311; 1487.050;  279.350;    0.000
354.367; 1447.050;  208.350;    0.000
354.422; 1466.050;  228.350;    0.000
354.477; 1435.050;  202.350;    0.000
354.532; 1464.050;  215.350;    0.000
354.587; 1499.050;  249.350;    0.000
354.642; 1475.050;  206.350;    0.000
354.697; 1531.050;  226.350;    0.000
354.751; 1467.050;  241.350;    0.000
354.806; 1390.050;  249.350;    0.000
354.861; 1399.050;  216.350;    0.000
354.916; 1453.050;  249.350;    0.000
354.971; 1407.050;  217.350;    0.000
355.026; 1457.050;  236.350;    0.000
355.081; 1447.050;  242.350;    0.000
355.136; 1423.050;  216.350;    0.000
355.191; 1438.050;  216.350;    0.000
355.246; 1409.050;  258.350;    0.000
355.301; 1480.050;  250.350;    0.000
355.355; 1481.050;  251.350;    0.000
355.410; 1463.050;  216.350;    0.000
355.465; 1469.050;  224.350;    0.000
355.520; 1468.050;  221.350;    0.000
355.575; 1430.050;  255.350;    0.000
355.630; 1464.050;  225.350;    0.000
355.684; 1415.050;  210.350;    0.000
355.739; 1408.050;  232.350;    0.000
355.794; 1382.050;  202.350;    0.000
355.849; 1383.050;  211.350;    0.000
355.904; 1400.050;  226.350;    0.000
355.958; 1403.050;  191.350;    0.000
356.013; 1430.050;  208.350;    0.000
356.068; 1467.050;  229.350;    0.000
356.123; 1517.050;  243.350;    0.000
356.177; 1434.050;  227.350;    0.000
356.232; 1457.050;  243.350;    0.000
356.287; 1489.050;  216.350;    0.000
356.341; 1491.050;  242.350;    0.000
356.396; 1392.050;  175.350;    0.000
356.451; 1437.050;  271.350;    0.000
356.505; 1392.050;  225.350;    0.000
356.560; 1536.050;  260.350;    0.000
356.615; 1469.050;  213.350;    0.000
356.669; 1462.050;  213.350;    0.000
356.724; 1466.050;  221.350;    0.000
356.778; 1430.050;  232.350;    0.000
356.833; 1410.050;  178.350;    0.000
356.888; 1484.050;  236.350;    0.000
356.942; 1469.050;  224.350;    0.000
356.997; 1557.050;  228.350;    0.000
357.051; 1463.050;  226.350;    0.000
357.106; 1339.050;  185.350;    0.000
357.160; 1398.050;  202.350;    0.000
357.215; 1370.050;  232.350;    0.000
357.269; 1408.050;  224.350;    0.000
357.324; 1497.050;  219.350;    0.000
357.378; 1447.050;  196.350;    0.000
357.433; 1429.050;  241.350;    0.000
357.487; 1463.050;  244.350;    0.000
357.542; 1426.050;  210.350;    0.000
357.596; 1446.050;  231.350;    0.000
357.651; 1459.050;  248.350;    0.000
357.705; 1432.050;  232.350;    0.000
357.760; 1443.050;  224.350;    0.000
357.814; 1587.050;  221.350;    0.000
357.868; 1597.050;  207.350;    0.000
357.923; 1501.050;  234.350;    0.000
357.977; 1416.050;  218.350;    0.000
358.032; 1375.050;  244.350;    0.000
358.086; 1569.050;  246.350;    0.000
358.140; 1580.050;  235.350;    0.000
358.195; 1532.050;  237.350;    0.000
358.249; 1452.050;  233.350;    0.000
358.303; 1393.050;  254.350;    0.000
358.358; 1448.050;  217.350;    0.000
358.412; 1426.050;  245.350;    0.000
358.466; 1512.050;  230.350;    0.000
358.521; 1492.050;  214.350;    0.000
358.575; 1434.050;  243.350;    0.000
358.629; 1346.050;  230.350;    0.000
358.683; 1421.050;  232.350;    0.000
358.738; 1442.050;  249.350;    0.000
358.792; 1412.050;  249.350;    0.000
358.846; 1471.050;  271.350;    0.000
358.900; 1441.050;  265.350;    0.000
358.954; 1454.050;  236.350;    0.000
359.009; 1403.050;  254.350;    0.000
359.063; 1386.050;  216.350;    0.000
359.117; 1465.050;  245.350;    0.000
359.171; 1504.050;  252.350;    0.000
359.225; 1505.050;  240.350;    0.000
359.280; 1487.050;  239.350;    0.000
359.334; 1475.050;  234.350;    0.000
359.388; 1432.050;  258.350;    0.000
359.442; 1430.050;  220.350;    0.000
359.496; 1354.050;  206.350;    0.000
359.550; 1391.050;  279.350;    0.000
359.604; 1409.050;  263.350;    0.000
359.658; 1458.050;  251.350;    0.000
359.712; 1439.050;  244.350;    0.000
359.766; 1343.050;  217.350;    0.000
359.820; 1397.050;  235.350;    0.000
359.875; 1390.050;  249.350;    0.000
359.929; 1387.050;  269.350;    0.000
359.983; 1397.050;  240.350;    0.000
360.037; 1429.050;  252.350;    0.000
360.091; 1440.050;  271.350;    0.000
360.145; 1377.050;  222.350;    0.000
360.199; 1399.050;  302.350;    0.000
360.253; 1420.050;  234.350;    0.000
360.306; 1436.050;  258.350;    0.000
360.360; 1380.050;  249.350;    0.000
360.414; 1432.050;  231.350;    0.000
360.468; 1477.050;  261.350;    0.000
360.522; 1416.050;  277.350;    0.000
360.576; 1430.050;  273.350;    0.000
360.630; 1430.050;  264.350;    0.000
360.684; 1454.050;  223.350;    0.000
360.738; 1480.050;  266.350;    0.000
360.792; 1420.050;  252.350;    0.000
360.846; 1507.050;  234.350;    0.000
360.899; 1535.050;  296.350;    0.000
360.953; 1441.050;  273.350;    0.000
361.007; 1472.050;  251.350;    0.000
361.061; 1442.050;  250.350;    0.000
361.115; 1431.050;  267.350;    0.000
361.168; 1463.050;  308.350;    0.000
361.222; 1376.050;  246.350;    0.000
361.276; 1428.050;  261.350;    0.000
361.330; 1367.050;  233.350;    0.000
361.384; 1417.050;  269.350;    0.000
361.437; 1391.050;  270.350;    0.000
361.491; 1394.050;  263.350;    0.000
361.545; 1420.050;  288.350;    0.000
361.599; 1423.050;  270.350;    0.000
361.652; 1434.050;  256.350;    0.000
361.706; 1511.050;  263.350;    0.000
361.760; 1393.050;  237.350;    0.000
361.813; 1432.050;  278.350;    0.000
361.867; 1501.050;  317.350;    0.000
361.921; 1393.050;  260.350;    0.000
361.974; 1473.050;  239.350;    0.000
362.028; 1458.050;  266.350;    0.000
362.082; 1456.050;  269.350;    0.000
362.135; 1386.050;  262.350;    0.000
362.189; 1424.050;  258.350;    0.000
362.242; 1518.050;  273.350;    0.000
362.296; 1409.050;  261.350;    0.000
362.350; 1436.050;  272.350;    0.000
362.403; 1437.050;  291.350;    0.000
362.457; 1404.050;  253.350;    0.000
362.510; 1387.050;  266.350;    0.000
362.564; 1438.050;  260.350;    0.000
362.617; 1448.050;  280.350;    0.000
362.671; 1382.050;  281.350;    0.000
362.724; 1450.050;  234.350;    0.000
362.778; 1407.050;  311.350;    0.000
362.831; 1443.050;  276.350;    0.000
362.885; 1460.050;  288.350;    0.000
362.938; 1357.050;  284.350;    0.000
362.992;  313.050;  245.350;    0.000
363.045;  297.050;  277.350;    0.000
363.099;  259.050;  246.350;    0.000
363.152;  314.050;  290.350;    0.000
363.205;  264.050;  256.350;    0.000
363.259;  250.050;  238.350;    0.000
363.312;  272.050;  290.350;    0.000
363.366;  301.050;  287.350;    0.000
363.419;  297.050;  279.350;    0.000
363.472;  296.050;  304.350;    0.000
363.526;  295.050;  305.350;    0.000
363.579;  288.050;  281.350;    0.000
363.632;  298.050;  279.350;    0.000
363.686;  276.050;  277.350;    0.000
363.739;  260.050;  268.350;    0.000
363.792;  291.050;  274.350;    0.000

