
Integration time [ms]:   0.300
Averaging Nr. [scans]: 1
Smoothing Nr. [pixels]: 0
Data measured with spectrometer [name]: UV2
Wave   ;Sample   ;Dark     ;Reference
[nm]   ;[counts] ;[counts] ;[counts] 

353.533;  207.925;  178.050;    0.000
353.597;  206.925;  251.050;    0.000
353.660;  202.925;  213.050;    0.000
353.723;  182.925;  185.050;    0.000
353.786;  185.925;  191.050;    0.000
353.850;  228.925;  238.050;    0.000
353.913;  173.925;  181.050;    0.000
353.976;  193.925;  190.050;    0.000
354.039;  209.925;  184.050;    0.000
354.102;  233.925;  231.050;    0.000
354.166;  230.925;  188.050;    0.000
354.229;  195.925;  224.050;    0.000
354.292;  217.925;  186.050;    0.000
354.355;  209.925;  175.050;    0.000
354.418;  193.925;  191.050;    0.000
354.481;  197.925;  181.050;    0.000
354.545;  452.925;  193.050;    0.000
354.608;  517.925;  210.050;    0.000
354.671;  457.925;  183.050;    0.000
354.734;  413.925;  189.050;    0.000
354.797;  505.925;  168.050;    0.000
354.860;  450.925;  178.050;    0.000
354.923;  487.925;  236.050;    0.000
354.986;  493.925;  181.050;    0.000
355.050;  487.925;  168.050;    0.000
355.113;  505.925;  201.050;    0.000
355.176;  531.925;  206.050;    0.000
355.239;  546.925;  213.050;    0.000
355.302;  543.925;  198.050;    0.000
355.365;  544.925;  199.050;    0.000
355.428;  505.925;  200.050;    0.000
355.491;  552.925;  232.050;    0.000
355.554;  511.925;  184.050;    0.000
355.617;  538.925;  214.050;    0.000
355.680;  516.925;  191.050;    0.000
355.743;  531.925;  161.050;    0.000
355.806;  574.925;  153.050;    0.000
355.869;  580.925;  221.050;    0.000
355.932;  581.925;  152.050;    0.000
355.995;  512.925;  195.050;    0.000
356.058;  560.925;  172.050;    0.000
356.121;  537.925;  186.050;    0.000
356.184;  596.925;  196.050;    0.000
356.247;  547.925;  183.050;    0.000
356.310;  542.925;  159.050;    0.000
356.373;  576.925;  183.050;    0.000
356.436;  521.925;  176.050;    0.000
356.498;  582.925;  191.050;    0.000
356.561;  550.925;  145.050;    0.000
356.624;  573.925;  187.050;    0.000
356.687;  582.925;  181.050;    0.000
356.750;  603.925;  227.050;    0.000
356.813;  651.925;  147.050;    0.000
356.876;  563.925;  184.050;    0.000
356.939;  603.925;  141.050;    0.000
357.001;  615.925;  188.050;    0.000
357.064;  552.925;  173.050;    0.000
357.127;  596.925;  159.050;    0.000
357.190;  548.925;  185.050;    0.000
357.253;  644.925;  180.050;    0.000
357.316;  622.925;  199.050;    0.000
357.378;  602.925;  196.050;    0.000
357.441;  580.925;  175.050;    0.000
357.504;  588.925;  164.050;    0.000
357.567;  548.925;  145.050;    0.000
357.629;  567.925;  205.050;    0.000
357.692;  579.925;  175.050;    0.000
357.755;  572.925;  205.050;    0.000
357.818;  586.925;  141.050;    0.000
357.880;  608.925;  170.050;    0.000
357.943;  614.925;  152.050;    0.000
358.006;  640.925;  145.050;    0.000
358.069;  608.925;  164.050;    0.000
358.131;  577.925;  148.050;    0.000
358.194;  582.925;  122.050;    0.000
358.257;  621.925;  147.050;    0.000
358.319;  596.925;  156.050;    0.000
358.382;  588.925;  193.050;    0.000
358.445;  623.925;  155.050;    0.000
358.507;  635.925;  160.050;    0.000
358.570;  563.925;  159.050;    0.000
358.633;  612.925;  163.050;    0.000
358.695;  602.925;  174.050;    0.000
358.758;  642.925;  127.050;    0.000
358.821;  640.925;  165.050;    0.000
358.883;  626.925;  145.050;    0.000
358.946;  622.925;  127.050;    0.000
359.008;  635.925;  180.050;    0.000
359.071;  627.925;  173.050;    0.000
359.134;  608.925;  150.050;    0.000
359.196;  613.925;  158.050;    0.000
359.259;  635.925;  159.050;    0.000
359.321;  602.925;  159.050;    0.000
359.384;  622.925;  182.050;    0.000
359.446;  588.925;  140.050;    0.000
359.509;  619.925;  146.050;    0.000
359.571;  630.925;  133.050;    0.000
359.634;  641.925;   93.050;    0.000
359.696;  637.925;  142.050;    0.000
359.759;  646.925;  161.050;    0.000
359.821;  618.925;  110.050;    0.000
359.884;  623.925;  114.050;    0.000
359.946;  691.925;  180.050;    0.000
360.009;  655.925;  158.050;    0.000
360.071;  621.925;  116.050;    0.000
360.134;  681.925;  170.050;    0.000
360.196;  692.925;  128.050;    0.000
360.259;  644.925;  157.050;    0.000
360.321;  620.925;  122.050;    0.000
360.384;  679.925;  119.050;    0.000
360.446;  625.925;  122.050;    0.000
360.508;  654.925;  195.050;    0.000
360.571;  702.925;  128.050;    0.000
360.633;  672.925;  172.050;    0.000
360.696;  590.925;  115.050;    0.000
360.758;  671.925;  162.050;    0.000
360.820;  639.925;  149.050;    0.000
360.883;  601.925;  151.050;    0.000
360.945;  728.925;  149.050;    0.000
361.007;  629.925;  135.050;    0.000
361.070;  658.925;  162.050;    0.000
361.132;  636.925;  198.050;    0.000
361.194;  659.925;  141.050;    0.000
361.257;  630.925;  154.050;    0.000
361.319;  705.925;  147.050;    0.000
361.381;  653.925;  154.050;    0.000
361.443;  666.925;  144.050;    0.000
361.506;  754.925;  164.050;    0.000
361.568;  659.925;  148.050;    0.000
361.630;  673.925;  127.050;    0.000
361.693;  653.925;  158.050;    0.000
361.755;  679.925;  161.050;    0.000
361.817;  729.925;  173.050;    0.000
361.879;  662.925;  159.050;    0.000
361.941;  649.925;  153.050;    0.000
362.004;  685.925;  148.050;    0.000
362.066;  692.925;  150.050;    0.000
362.128;  685.925;  132.050;    0.000
362.190;  687.925;  207.050;    0.000
362.252;  691.925;  142.050;    0.000
362.315;  723.925;  153.050;    0.000
362.377;  682.925;  164.050;    0.000
362.439;  671.925;  155.050;    0.000
362.501;  688.925;  157.050;    0.000
362.563;  722.925;  188.050;    0.000
362.625;  732.925;  194.050;    0.000
362.688;  693.925;  159.050;    0.000
362.750;  734.925;  205.050;    0.000
362.812;  712.925;  148.050;    0.000
362.874;  743.925;  173.050;    0.000
362.936;  706.925;  152.050;    0.000
362.998;  715.925;  145.050;    0.000
363.060;  675.925;  184.050;    0.000
363.122;  752.925;  147.050;    0.000
363.184;  716.925;  136.050;    0.000
363.246;  695.925;  171.050;    0.000
363.308;  714.925;  154.050;    0.000
363.370;  712.925;  175.050;    0.000
363.432;  662.925;  139.050;    0.000
363.494;  688.925;  163.050;    0.000
363.556;  662.925;  117.050;    0.000
363.618;  703.925;  126.050;    0.000
363.680;  690.925;  147.050;    0.000
363.742;  725.925;  161.050;    0.000
363.804;  744.925;  159.050;    0.000
363.866;  715.925;  170.050;    0.000
363.928;  632.925;  122.050;    0.000
363.990;  763.925;  167.050;    0.000
364.052;  717.925;  180.050;    0.000
364.114;  704.925;  119.050;    0.000
364.176;  816.925;  184.050;    0.000
364.238;  742.925;  180.050;    0.000
364.300;  744.925;  159.050;    0.000
364.362;  731.925;  163.050;    0.000
364.424;  672.925;  139.050;    0.000
364.486;  798.925;  189.050;    0.000
364.548;  731.925;  167.050;    0.000
364.609;  764.925;  165.050;    0.000
364.671;  738.925;  171.050;    0.000
364.733;  716.925;  165.050;    0.000
364.795;  701.925;  122.050;    0.000
364.857;  710.925;  147.050;    0.000
364.919;  742.925;  104.050;    0.000
364.981;  705.925;  143.050;    0.000
365.042;  790.925;  166.050;    0.000
365.104;  719.925;  162.050;    0.000
365.166;  691.925;  155.050;    0.000
365.228;  725.925;  179.050;    0.000
365.290;  721.925;  133.050;    0.000
365.351;  763.925;  142.050;    0.000
365.413;  742.925;  144.050;    0.000
365.475;  768.925;  139.050;    0.000
365.537;  747.925;  181.050;    0.000
365.598;  731.925;  166.050;    0.000
365.660;  708.925;  130.050;    0.000
365.722;  771.925;  177.050;    0.000
365.784;  726.925;  149.050;    0.000
365.845;  710.925;  156.050;    0.000
365.907;  724.925;  122.050;    0.000
365.969;  740.925;  140.050;    0.000
366.030;  784.925;  156.050;    0.000
366.092;  751.925;  140.050;    0.000
366.154;  765.925;  169.050;    0.000
366.215;  756.925;  170.050;    0.000
366.277;  742.925;  143.050;    0.000
366.339;  724.925;  139.050;    0.000
366.400;  748.925;  139.050;    0.000
366.462;  729.925;  140.050;    0.000
366.524;  730.925;  150.050;    0.000
366.585;  751.925;  163.050;    0.000
366.647;  754.925;  193.050;    0.000
366.708;  736.925;  135.050;    0.000
366.770;  815.925;  165.050;    0.000
366.832;  753.925;  168.050;    0.000
366.893;  772.925;  157.050;    0.000
366.955;  761.925;  132.050;    0.000
367.016;  716.925;  127.050;    0.000
367.078;  748.925;  146.050;    0.000
367.139;  669.925;  129.050;    0.000
367.201;  726.925;  148.050;    0.000
367.262;  743.925;  165.050;    0.000
367.324;  726.925;  171.050;    0.000
367.385;  754.925;  118.050;    0.000
367.447;  827.925;  144.050;    0.000
367.508;  749.925;  135.050;    0.000
367.570;  736.925;  160.050;    0.000
367.631;  745.925;  157.050;    0.000
367.693;  729.925;  168.050;    0.000
367.754;  768.925;  139.050;    0.000
367.816;  763.925;  141.050;    0.000
367.877;  770.925;  195.050;    0.000
367.939;  795.925;  166.050;    0.000
368.000;  743.925;  127.050;    0.000
368.062;  766.925;  143.050;    0.000
368.123;  740.925;  156.050;    0.000
368.184;  755.925;  179.050;    0.000
368.246;  732.925;  168.050;    0.000
368.307;  786.925;  203.050;    0.000
368.369;  781.925;  149.050;    0.000
368.430;  712.925;  121.050;    0.000
368.491;  724.925;  131.050;    0.000
368.553;  758.925;  161.050;    0.000
368.614;  767.925;  157.050;    0.000
368.675;  767.925;  152.050;    0.000
368.737;  788.925;  168.050;    0.000
368.798;  784.925;  147.050;    0.000
368.859;  795.925;  174.050;    0.000
368.921;  762.925;  168.050;    0.000
368.982;  818.925;  151.050;    0.000
369.043;  768.925;  169.050;    0.000
369.104;  792.925;  149.050;    0.000
369.166;  798.925;  178.050;    0.000
369.227;  779.925;  149.050;    0.000
369.288;  803.925;  131.050;    0.000
369.349;  752.925;  128.050;    0.000
369.411;  812.925;  198.050;    0.000
369.472;  767.925;  156.050;    0.000
369.533;  796.925;  142.050;    0.000
369.594;  810.925;  125.050;    0.000
369.656;  782.925;  153.050;    0.000
369.717;  778.925;  124.050;    0.000
369.778;  816.925;  163.050;    0.000
369.839;  758.925;  130.050;    0.000
369.900;  819.925;  170.050;    0.000
369.961;  747.925;  142.050;    0.000
370.023;  823.925;  197.050;    0.000
370.084;  758.925;  151.050;    0.000
370.145;  755.925;  128.050;    0.000
370.206;  764.925;  152.050;    0.000
370.267;  750.925;  154.050;    0.000
370.328;  774.925;  154.050;    0.000
370.389;  779.925;  173.050;    0.000
370.451;  782.925;  191.050;    0.000
370.512;  800.925;  155.050;    0.000
370.573;  811.925;  134.050;    0.000
370.634;  895.925;  160.050;    0.000
370.695;  834.925;  124.050;    0.000
370.756;  795.925;  169.050;    0.000
370.817;  860.925;  169.050;    0.000
370.878;  860.925;  200.050;    0.000
370.939;  826.925;  157.050;    0.000
371.000;  805.925;  131.050;    0.000
371.061;  798.925;  136.050;    0.000
371.122;  810.925;  176.050;    0.000
371.183;  732.925;   81.050;    0.000
371.244;  769.925;  156.050;    0.000
371.305;  823.925;  131.050;    0.000
371.366;  817.925;  161.050;    0.000
371.427;  789.925;  127.050;    0.000
371.488;  824.925;  184.050;    0.000
371.549;  847.925;  159.050;    0.000
371.610;  792.925;  147.050;    0.000
371.671;  709.925;  132.050;    0.000
371.732;  799.925;  163.050;    0.000
371.793;  844.925;  179.050;    0.000
371.853;  790.925;  179.050;    0.000
371.914;  844.925;  149.050;    0.000
371.975;  785.925;  117.050;    0.000
372.036;  882.925;  141.050;    0.000
372.097;  808.925;  101.050;    0.000
372.158;  767.925;  115.050;    0.000
372.219;  790.925;  174.050;    0.000
372.280;  761.925;  134.050;    0.000
372.340;  817.925;  180.050;    0.000
372.401;  854.925;  166.050;    0.000
372.462;  808.925;  171.050;    0.000
372.523;  861.925;  132.050;    0.000
372.584;  839.925;  182.050;    0.000
372.645;  853.925;  149.050;    0.000
372.705;  849.925;  182.050;    0.000
372.766;  868.925;  145.050;    0.000
372.827;  847.925;  161.050;    0.000
372.888;  822.925;  156.050;    0.000
372.948;  825.925;  158.050;    0.000
373.009;  753.925;  178.050;    0.000
373.070;  776.925;  166.050;    0.000
373.131;  840.925;  154.050;    0.000
373.191;  903.925;  193.050;    0.000
373.252;  827.925;  148.050;    0.000
373.313;  873.925;  152.050;    0.000
373.373;  832.925;  156.050;    0.000
373.434;  864.925;  166.050;    0.000
373.495;  774.925;  152.050;    0.000
373.555;  860.925;  145.050;    0.000
373.616;  777.925;  141.050;    0.000
373.677;  854.925;  169.050;    0.000
373.737;  852.925;  166.050;    0.000
373.798;  853.925;  151.050;    0.000
373.859;  892.925;  170.050;    0.000
373.919;  857.925;  206.050;    0.000
373.980;  825.925;  140.050;    0.000
374.041;  832.925;  148.050;    0.000
374.101;  843.925;  165.050;    0.000
374.162;  866.925;  166.050;    0.000
374.222;  859.925;  156.050;    0.000
374.283;  825.925;  161.050;    0.000
374.343;  882.925;  185.050;    0.000
374.404;  830.925;  148.050;    0.000
374.465;  853.925;  162.050;    0.000
374.525;  862.925;  177.050;    0.000
374.586;  863.925;  164.050;    0.000
374.646;  857.925;  180.050;    0.000
374.707;  871.925;  203.050;    0.000
374.767;  903.925;  148.050;    0.000
374.828;  867.925;  142.050;    0.000
374.888;  944.925;  187.050;    0.000
374.949;  861.925;  137.050;    0.000
375.009;  904.925;  155.050;    0.000
375.070;  900.925;  165.050;    0.000
375.130;  892.925;  168.050;    0.000
375.190;  838.925;  157.050;    0.000
375.251;  913.925;  206.050;    0.000
375.311;  896.925;  141.050;    0.000
375.372;  860.925;  144.050;    0.000
375.432;  934.925;  153.050;    0.000
375.493;  823.925;  168.050;    0.000
375.553;  939.925;  146.050;    0.000
375.613;  894.925;  142.050;    0.000
375.674;  884.925;  153.050;    0.000
375.734;  897.925;  166.050;    0.000
375.794;  908.925;  145.050;    0.000
375.855;  856.925;  162.050;    0.000
375.915;  837.925;  162.050;    0.000
375.975;  876.925;  144.050;    0.000
376.036;  877.925;  128.050;    0.000
376.096;  848.925;  122.050;    0.000
376.156;  950.925;  140.050;    0.000
376.217;  871.925;  158.050;    0.000
376.277;  882.925;  163.050;    0.000
376.337;  947.925;  139.050;    0.000
376.398;  900.925;  176.050;    0.000
376.458;  849.925;  143.050;    0.000
376.518;  894.925;  136.050;    0.000
376.578;  849.925;  177.050;    0.000
376.639;  852.925;  163.050;    0.000
376.699;  918.925;  183.050;    0.000
376.759;  899.925;  169.050;    0.000
376.819;  891.925;  147.050;    0.000
376.880;  943.925;  188.050;    0.000
376.940;  892.925;  185.050;    0.000
377.000;  847.925;  131.050;    0.000
377.060;  942.925;  182.050;    0.000
377.120;  926.925;  165.050;    0.000
377.180;  964.925;  169.050;    0.000
377.241;  852.925;  146.050;    0.000
377.301;  936.925;  183.050;    0.000
377.361;  937.925;  124.050;    0.000
377.421;  957.925;  186.050;    0.000
377.481;  918.925;  178.050;    0.000
377.541;  902.925;  140.050;    0.000
377.601; 1010.925;  175.050;    0.000
377.661;  953.925;  169.050;    0.000
377.722;  935.925;  144.050;    0.000
377.782;  915.925;  182.050;    0.000
377.842;  929.925;  161.050;    0.000
377.902;  905.925;  151.050;    0.000
377.962;  989.925;  134.050;    0.000
378.022;  932.925;  153.050;    0.000
378.082;  942.925;  178.050;    0.000
378.142;  967.925;  118.050;    0.000
378.202;  933.925;  153.050;    0.000
378.262;  979.925;  166.050;    0.000
378.322;  960.925;  174.050;    0.000
378.382;  961.925;  148.050;    0.000
378.442;  998.925;  190.050;    0.000
378.502;  943.925;  136.050;    0.000
378.562;  994.925;  130.050;    0.000
378.622;  982.925;  188.050;    0.000
378.682;  957.925;  163.050;    0.000
378.742;  977.925;  150.050;    0.000
378.802;  962.925;  127.050;    0.000
378.862; 1047.925;  186.050;    0.000
378.921; 1007.925;  203.050;    0.000
378.981; 1059.925;  177.050;    0.000
379.041;  965.925;  134.050;    0.000
379.101;  973.925;  167.050;    0.000
379.161; 1040.925;  130.050;    0.000
379.221; 1014.925;  169.050;    0.000
379.281; 1022.925;  162.050;    0.000
379.341;  997.925;  134.050;    0.000
379.401;  991.925;  151.050;    0.000
379.460; 1058.925;  190.050;    0.000
379.520;  981.925;  158.050;    0.000
379.580; 1057.925;  162.050;    0.000
379.640; 1027.925;  146.050;    0.000
379.700; 1036.925;  167.050;    0.000
379.759; 1089.925;  194.050;    0.000
379.819; 1055.925;  176.050;    0.000
379.879; 1019.925;  140.050;    0.000
379.939; 1104.925;  184.050;    0.000
379.999; 1058.925;  165.050;    0.000
380.058; 1063.925;  194.050;    0.000
380.118; 1116.925;  137.050;    0.000
380.178; 1030.925;  139.050;    0.000
380.237; 1086.925;  139.050;    0.000
380.297; 1057.925;  160.050;    0.000
380.357; 1102.925;  194.050;    0.000
380.417; 1086.925;  174.050;    0.000
380.476; 1067.925;  153.050;    0.000
380.536; 1079.925;  169.050;    0.000
380.596; 1071.925;  159.050;    0.000
380.655; 1149.925;  178.050;    0.000
380.715; 1041.925;  196.050;    0.000
380.775; 1068.925;  202.050;    0.000
380.834; 1080.925;  186.050;    0.000
380.894; 1134.925;  167.050;    0.000
380.954; 1081.925;  150.050;    0.000
381.013; 1117.925;  187.050;    0.000
381.073; 1092.925;  114.050;    0.000
381.132; 1096.925;  176.050;    0.000
381.192; 1111.925;  197.050;    0.000
381.252; 1077.925;  172.050;    0.000
381.311; 1105.925;  155.050;    0.000
381.371; 1092.925;  172.050;    0.000
381.430; 1136.925;  143.050;    0.000
381.490; 1148.925;  136.050;    0.000
381.549; 1153.925;  131.050;    0.000
381.609; 1197.925;  203.050;    0.000
381.668; 1204.925;  135.050;    0.000
381.728; 1176.925;  163.050;    0.000
381.787; 1218.925;  195.050;    0.000
381.847; 1229.925;  185.050;    0.000
381.906; 1249.925;  187.050;    0.000
381.966; 1246.925;  153.050;    0.000
382.025; 1302.925;  175.050;    0.000
382.085; 1271.925;  195.050;    0.000
382.144; 1301.925;  210.050;    0.000
382.204; 1267.925;  201.050;    0.000
382.263; 1313.925;  178.050;    0.000
382.323; 1257.925;  151.050;    0.000
382.382; 1366.925;  147.050;    0.000
382.441; 1337.925;  144.050;    0.000
382.501; 1422.925;  156.050;    0.000
382.560; 1473.925;  160.050;    0.000
382.619; 1429.925;  173.050;    0.000
382.679; 1543.925;  167.050;    0.000
382.738; 1609.925;  189.050;    0.000
382.798; 1729.925;  181.050;    0.000
382.857; 1829.925;  161.050;    0.000
382.916; 2077.925;  162.050;    0.000
382.976; 2032.925;  169.050;    0.000
383.035; 1969.925;  174.050;    0.000
383.094; 2163.925;  178.050;    0.000
383.154; 2285.925;  188.050;    0.000
383.213; 2597.925;  162.050;    0.000
383.272; 2468.925;  144.050;    0.000
383.331; 2111.925;  144.050;    0.000
383.391; 2034.925;  198.050;    0.000
383.450; 1935.925;  185.050;    0.000
383.509; 1937.925;  132.050;    0.000
383.568; 1986.925;  171.050;    0.000
383.628; 2156.925;  171.050;    0.000
383.687; 2285.925;  172.050;    0.000
383.746; 2564.925;  144.050;    0.000
383.805; 2891.925;  177.050;    0.000
383.864; 2755.925;  145.050;    0.000
383.924; 2328.925;  203.050;    0.000
383.983; 1881.925;  153.050;    0.000
384.042; 1804.925;  171.050;    0.000
384.101; 1660.925;  186.050;    0.000
384.160; 1602.925;  132.050;    0.000
384.219; 1448.925;  157.050;    0.000
384.279; 1445.925;  166.050;    0.000
384.338; 1396.925;  141.050;    0.000
384.397; 1334.925;  142.050;    0.000
384.456; 1357.925;  155.050;    0.000
384.515; 1340.925;  158.050;    0.000
384.574; 1275.925;  208.050;    0.000
384.633; 1294.925;  158.050;    0.000
384.692; 1271.925;  162.050;    0.000
384.751; 1295.925;  179.050;    0.000
384.810; 1338.925;  150.050;    0.000
384.869; 1272.925;  147.050;    0.000
384.929; 1299.925;  132.050;    0.000
384.988; 1316.925;  166.050;    0.000
385.047; 1206.925;  161.050;    0.000
385.106; 1263.925;  180.050;    0.000
385.165; 1150.925;  123.050;    0.000
385.224; 1232.925;  153.050;    0.000
385.283; 1246.925;  158.050;    0.000
385.342; 1227.925;  184.050;    0.000
385.401; 1312.925;  191.050;    0.000
385.459; 1287.925;  143.050;    0.000
385.518; 1280.925;  152.050;    0.000
385.577; 1245.925;  134.050;    0.000
385.636; 1326.925;  187.050;    0.000
385.695; 1194.925;  141.050;    0.000
385.754; 1216.925;  143.050;    0.000
385.813; 1228.925;  145.050;    0.000
385.872; 1193.925;  116.050;    0.000
385.931; 1263.925;  147.050;    0.000
385.990; 1267.925;  170.050;    0.000
386.049; 1232.925;  189.050;    0.000
386.107; 1224.925;  122.050;    0.000
386.166; 1219.925;  155.050;    0.000
386.225; 1264.925;  173.050;    0.000
386.284; 1218.925;  138.050;    0.000
386.343; 1226.925;  216.050;    0.000
386.402; 1236.925;  162.050;    0.000
386.460; 1258.925;  131.050;    0.000
386.519; 1162.925;  122.050;    0.000
386.578; 1205.925;  140.050;    0.000
386.637; 1149.925;  169.050;    0.000
386.696; 1228.925;  176.050;    0.000
386.754; 1229.925;  127.050;    0.000
386.813; 1219.925;  138.050;    0.000
386.872; 1193.925;  135.050;    0.000
386.931; 1225.925;  170.050;    0.000
386.989; 1162.925;  167.050;    0.000
387.048; 1209.925;  131.050;    0.000
387.107; 1206.925;  176.050;    0.000
387.165; 1259.925;  139.050;    0.000
387.224; 1163.925;  150.050;    0.000
387.283; 1179.925;  169.050;    0.000
387.342; 1173.925;  191.050;    0.000
387.400; 1175.925;  131.050;    0.000
387.459; 1196.925;  139.050;    0.000
387.517; 1212.925;  214.050;    0.000
387.576; 1190.925;  146.050;    0.000
387.635; 1229.925;  161.050;    0.000
387.693; 1176.925;  197.050;    0.000
387.752; 1264.925;  159.050;    0.000
387.811; 1212.925;  144.050;    0.000
387.869; 1229.925;  172.050;    0.000
387.928; 1199.925;  160.050;    0.000
387.986; 1190.925;  192.050;    0.000
388.045; 1152.925;  121.050;    0.000
388.103; 1198.925;  129.050;    0.000
388.162; 1169.925;  169.050;    0.000
388.221; 1176.925;  171.050;    0.000
388.279; 1173.925;  135.050;    0.000
388.338; 1276.925;  222.050;    0.000
388.396; 1151.925;  168.050;    0.000
388.455; 1201.925;  178.050;    0.000
388.513; 1162.925;  151.050;    0.000
388.572; 1149.925;  147.050;    0.000
388.630; 1094.925;  158.050;    0.000
388.689; 1120.925;  163.050;    0.000
388.747; 1203.925;  180.050;    0.000
388.806; 1153.925;  119.050;    0.000
388.864; 1113.925;  159.050;    0.000
388.922; 1197.925;  152.050;    0.000
388.981; 1104.925;  125.050;    0.000
389.039; 1158.925;  151.050;    0.000
389.098; 1189.925;  151.050;    0.000
389.156; 1133.925;  175.050;    0.000
389.214; 1215.925;  133.050;    0.000
389.273; 1146.925;  142.050;    0.000
389.331; 1141.925;  179.050;    0.000
389.390; 1157.925;  179.050;    0.000
389.448; 1163.925;  159.050;    0.000
389.506; 1144.925;  140.050;    0.000
389.565; 1203.925;  160.050;    0.000
389.623; 1101.925;  181.050;    0.000
389.681; 1199.925;  181.050;    0.000
389.740; 1216.925;  187.050;    0.000
389.798; 1126.925;  163.050;    0.000
389.856; 1222.925;  185.050;    0.000
389.914; 1187.925;  170.050;    0.000
389.973; 1162.925;  150.050;    0.000
390.031; 1146.925;  149.050;    0.000
390.089; 1231.925;  191.050;    0.000
390.147; 1109.925;  126.050;    0.000
390.206; 1118.925;  174.050;    0.000
390.264; 1145.925;  164.050;    0.000
390.322; 1155.925;  150.050;    0.000
390.380; 1136.925;  137.050;    0.000
390.439; 1145.925;  176.050;    0.000
390.497; 1117.925;  188.050;    0.000
390.555; 1099.925;  143.050;    0.000
390.613; 1136.925;  174.050;    0.000
390.671; 1102.925;  208.050;    0.000
390.729; 1137.925;  135.050;    0.000
390.788; 1169.925;  169.050;    0.000
390.846; 1126.925;  173.050;    0.000
390.904; 1146.925;  176.050;    0.000
390.962; 1175.925;  179.050;    0.000
391.020; 1167.925;  201.050;    0.000
391.078; 1127.925;  192.050;    0.000
391.136; 1105.925;  170.050;    0.000
391.194; 1179.925;  163.050;    0.000
391.253; 1224.925;  203.050;    0.000
391.311; 1168.925;  170.050;    0.000
391.369; 1232.925;  191.050;    0.000
391.427; 1219.925;  226.050;    0.000
391.485; 1156.925;  181.050;    0.000
391.543; 1134.925;  177.050;    0.000
391.601; 1146.925;  150.050;    0.000
391.659; 1182.925;  201.050;    0.000
391.717; 1172.925;  166.050;    0.000
391.775; 1158.925;  200.050;    0.000
391.833; 1219.925;  180.050;    0.000
391.891; 1165.925;  172.050;    0.000
391.949; 1191.925;  174.050;    0.000
392.007; 1174.925;  194.050;    0.000
392.065; 1181.925;  161.050;    0.000
392.123; 1208.925;  159.050;    0.000
392.180; 1239.925;  193.050;    0.000
392.238; 1158.925;  188.050;    0.000
392.296; 1245.925;  206.050;    0.000
392.354; 1217.925;  170.050;    0.000
392.412; 1234.925;  207.050;    0.000
392.470; 1200.925;  168.050;    0.000
392.528; 1203.925;  185.050;    0.000
392.586; 1229.925;  154.050;    0.000
392.644; 1195.925;  190.050;    0.000
392.701; 1227.925;  195.050;    0.000
392.759; 1208.925;  229.050;    0.000
392.817; 1150.925;  176.050;    0.000
392.875; 1201.925;  198.050;    0.000
392.933; 1150.925;  174.050;    0.000
392.991; 1242.925;  237.050;    0.000
393.048; 1256.925;  212.050;    0.000
393.106; 1165.925;  191.050;    0.000
393.164; 1189.925;  136.050;    0.000
393.222; 1157.925;  164.050;    0.000
393.279; 1181.925;  208.050;    0.000
393.337; 1228.925;  203.050;    0.000
393.395; 1219.925;  191.050;    0.000
393.453; 1185.925;  153.050;    0.000
393.510; 1183.925;  171.050;    0.000
393.568; 1197.925;  203.050;    0.000
393.626; 1186.925;  169.050;    0.000
393.684; 1204.925;  201.050;    0.000
393.741; 1185.925;  172.050;    0.000
393.799; 1198.925;  149.050;    0.000
393.857; 1179.925;  151.050;    0.000
393.914; 1235.925;  192.050;    0.000
393.972; 1168.925;  176.050;    0.000
394.030; 1217.925;  165.050;    0.000
394.087; 1205.925;  192.050;    0.000
394.145; 1246.925;  183.050;    0.000
394.202; 1170.925;  161.050;    0.000
394.260; 1176.925;  135.050;    0.000
394.318; 1229.925;  188.050;    0.000
394.375; 1183.925;  163.050;    0.000
394.433; 1243.925;  151.050;    0.000
394.490; 1145.925;  190.050;    0.000
394.548; 1172.925;  157.050;    0.000
394.605; 1241.925;  205.050;    0.000
394.663; 1234.925;  173.050;    0.000
394.720; 1200.925;  171.050;    0.000
394.778; 1207.925;  190.050;    0.000
394.836; 1214.925;  134.050;    0.000
394.893; 1203.925;  142.050;    0.000
394.951; 1203.925;  192.050;    0.000
395.008; 1276.925;  149.050;    0.000
395.065; 1208.925;  194.050;    0.000
395.123; 1191.925;  160.050;    0.000
395.180; 1242.925;  178.050;    0.000
395.238; 1270.925;  191.050;    0.000
395.295; 1274.925;  160.050;    0.000
395.353; 1174.925;  162.050;    0.000
395.410; 1218.925;  165.050;    0.000
395.468; 1271.925;  190.050;    0.000
395.525; 1249.925;  173.050;    0.000
395.582; 1247.925;  161.050;    0.000
395.640; 1289.925;  200.050;    0.000
395.697; 1271.925;  198.050;    0.000
395.754; 1196.925;  136.050;    0.000
395.812; 1223.925;  172.050;    0.000
395.869; 1258.925;  172.050;    0.000
395.927; 1259.925;  145.050;    0.000
395.984; 1300.925;  220.050;    0.000
396.041; 1210.925;  137.050;    0.000
396.098; 1208.925;  161.050;    0.000
396.156; 1275.925;  159.050;    0.000
396.213; 1248.925;  200.050;    0.000
396.270; 1298.925;  209.050;    0.000
396.328; 1207.925;  162.050;    0.000
396.385; 1304.925;  186.050;    0.000
396.442; 1270.925;  177.050;    0.000
396.499; 1270.925;  183.050;    0.000
396.557; 1289.925;  182.050;    0.000
396.614; 1316.925;  186.050;    0.000
396.671; 1252.925;  144.050;    0.000
396.728; 1269.925;  176.050;    0.000
396.785; 1303.925;  169.050;    0.000
396.843; 1297.925;  134.050;    0.000
396.900; 1330.925;  184.050;    0.000
396.957; 1370.925;  197.050;    0.000
397.014; 1299.925;  187.050;    0.000
397.071; 1322.925;  186.050;    0.000
397.128; 1301.925;  200.050;    0.000
397.186; 1239.925;  175.050;    0.000
397.243; 1379.925;  154.050;    0.000
397.300; 1340.925;  191.050;    0.000
397.357; 1275.925;  238.050;    0.000
397.414; 1295.925;  161.050;    0.000
397.471; 1202.925;  135.050;    0.000
397.528; 1318.925;  158.050;    0.000
397.585; 1328.925;  159.050;    0.000
397.642; 1296.925;  180.050;    0.000
397.699; 1296.925;  170.050;    0.000
397.756; 1309.925;  175.050;    0.000
397.814; 1281.925;  182.050;    0.000
397.871; 1334.925;  173.050;    0.000
397.928; 1362.925;  173.050;    0.000
397.985; 1284.925;  176.050;    0.000
398.042; 1315.925;  189.050;    0.000
398.099; 1309.925;  160.050;    0.000
398.156; 1351.925;  218.050;    0.000
398.212; 1401.925;  194.050;    0.000
398.269; 1322.925;  199.050;    0.000
398.326; 1352.925;  188.050;    0.000
398.383; 1379.925;  187.050;    0.000
398.440; 1348.925;  174.050;    0.000
398.497; 1369.925;  214.050;    0.000
398.554; 1365.925;  181.050;    0.000
398.611; 1416.925;  195.050;    0.000
398.668; 1396.925;  145.050;    0.000
398.725; 1394.925;  178.050;    0.000
398.782; 1325.925;  210.050;    0.000
398.839; 1375.925;  216.050;    0.000
398.895; 1430.925;  189.050;    0.000
398.952; 1422.925;  206.050;    0.000
399.009; 1409.925;  142.050;    0.000
399.066; 1413.925;  192.050;    0.000
399.123; 1470.925;  181.050;    0.000
399.180; 1455.925;  200.050;    0.000
399.236; 1445.925;  156.050;    0.000
399.293; 1449.925;  194.050;    0.000
399.350; 1439.925;  167.050;    0.000
399.407; 1495.925;  192.050;    0.000
399.463; 1438.925;  161.050;    0.000
399.520; 1451.925;  149.050;    0.000
399.577; 1447.925;  156.050;    0.000
399.634; 1506.925;  195.050;    0.000
399.690; 1474.925;  163.050;    0.000
399.747; 1513.925;  192.050;    0.000
399.804; 1466.925;  212.050;    0.000
399.861; 1508.925;  203.050;    0.000
399.917; 1493.925;  221.050;    0.000
399.974; 1475.925;  221.050;    0.000
400.031; 1445.925;  195.050;    0.000
400.087; 1431.925;  159.050;    0.000
400.144; 1448.925;  201.050;    0.000
400.201; 1511.925;  206.050;    0.000
400.257; 1470.925;  168.050;    0.000
400.314; 1455.925;  183.050;    0.000
400.370; 1420.925;  209.050;    0.000
400.427; 1458.925;  192.050;    0.000
400.484; 1408.925;  150.050;    0.000
400.540; 1431.925;  213.050;    0.000
400.597; 1456.925;  161.050;    0.000
400.653; 1426.925;  170.050;    0.000
400.710; 1447.925;  173.050;    0.000
400.766; 1484.925;  204.050;    0.000
400.823; 1448.925;  194.050;    0.000
400.879; 1400.925;  188.050;    0.000
400.936; 1393.925;  172.050;    0.000
400.993; 1414.925;  154.050;    0.000
401.049; 1464.925;  157.050;    0.000
401.105; 1494.925;  214.050;    0.000
401.162; 1500.925;  195.050;    0.000
401.218; 1405.925;  195.050;    0.000
401.275; 1449.925;  182.050;    0.000
401.331; 1438.925;  188.050;    0.000
401.388; 1427.925;  194.050;    0.000
401.444; 1446.925;  175.050;    0.000
401.501; 1425.925;  169.050;    0.000
401.557; 1455.925;  176.050;    0.000
401.614; 1419.925;  153.050;    0.000
401.670; 1444.925;  178.050;    0.000
401.726; 1459.925;  179.050;    0.000
401.783; 1539.925;  198.050;    0.000
401.839; 1406.925;  179.050;    0.000
401.895; 1426.925;  154.050;    0.000
401.952; 1464.925;  138.050;    0.000
402.008; 1420.925;  135.050;    0.000
402.064; 1454.925;  154.050;    0.000
402.121; 1459.925;  199.050;    0.000
402.177; 1469.925;  126.050;    0.000
402.233; 1518.925;  190.050;    0.000
402.290; 1472.925;  175.050;    0.000
402.346; 1471.925;  200.050;    0.000
402.402; 1438.925;  191.050;    0.000
402.458; 1453.925;  172.050;    0.000
402.515; 1459.925;  186.050;    0.000
402.571; 1506.925;  189.050;    0.000
402.627; 1450.925;  151.050;    0.000
402.683; 1527.925;  187.050;    0.000
402.740; 1391.925;  147.050;    0.000
402.796; 1444.925;  176.050;    0.000
402.852; 1497.925;  200.050;    0.000
402.908; 1549.925;  201.050;    0.000
402.964; 1424.925;  153.050;    0.000
403.021; 1404.925;  165.050;    0.000
403.077; 1526.925;  195.050;    0.000
403.133; 1413.925;  139.050;    0.000
403.189; 1523.925;  166.050;    0.000
403.245; 1394.925;  194.050;    0.000
403.301; 1488.925;  210.050;    0.000
403.357; 1491.925;  187.050;    0.000
403.414; 1513.925;  195.050;    0.000
403.470; 1460.925;  150.050;    0.000
403.526; 1471.925;  158.050;    0.000
403.582; 1502.925;  184.050;    0.000
403.638; 1456.925;  171.050;    0.000
403.694; 1501.925;  197.050;    0.000
403.750; 1424.925;  196.050;    0.000
403.806; 1496.925;  192.050;    0.000
403.862; 1487.925;  169.050;    0.000
403.918; 1516.925;  199.050;    0.000
403.974; 1557.925;  156.050;    0.000
404.030; 1434.925;  193.050;    0.000
404.086; 1570.925;  161.050;    0.000
404.142; 1558.925;  172.050;    0.000
404.198; 1508.925;  195.050;    0.000
404.254; 1465.925;  167.050;    0.000
404.310; 1583.925;  156.050;    0.000
404.366; 1497.925;  144.050;    0.000
404.422; 1471.925;  161.050;    0.000
404.478; 1520.925;  179.050;    0.000
404.534; 1465.925;  163.050;    0.000
404.590; 1568.925;  183.050;    0.000
404.646; 1523.925;  155.050;    0.000
404.701; 1516.925;  142.050;    0.000
404.757; 1544.925;  175.050;    0.000
404.813; 1515.925;  153.050;    0.000
404.869; 1568.925;  199.050;    0.000
404.925; 1478.925;  153.050;    0.000
404.981; 1562.925;  174.050;    0.000
405.037; 1580.925;  185.050;    0.000
405.092; 1454.925;  166.050;    0.000
405.148; 1492.925;  161.050;    0.000
405.204; 1517.925;  170.050;    0.000
405.260; 1549.925;  154.050;    0.000
405.316; 1454.925;  128.050;    0.000
405.371; 1487.925;  142.050;    0.000
405.427; 1542.925;  196.050;    0.000
405.483; 1511.925;  172.050;    0.000
405.539; 1493.925;  182.050;    0.000
405.594; 1537.925;  153.050;    0.000
405.650; 1498.925;  124.050;    0.000
405.706; 1615.925;  189.050;    0.000
405.761; 1532.925;  165.050;    0.000
405.817; 1595.925;  152.050;    0.000
405.873; 1611.925;  174.050;    0.000
405.928; 1549.925;  167.050;    0.000
405.984; 1620.925;  210.050;    0.000
406.040; 1584.925;  160.050;    0.000
406.095; 1552.925;  163.050;    0.000
406.151; 1546.925;  208.050;    0.000
406.207; 1565.925;  177.050;    0.000
406.262; 1596.925;  176.050;    0.000
406.318; 1568.925;  157.050;    0.000
406.374; 1522.925;  141.050;    0.000
406.429; 1625.925;  189.050;    0.000
406.485; 1623.925;  190.050;    0.000
406.540; 1614.925;  155.050;    0.000
406.596; 1626.925;  182.050;    0.000
406.651; 1607.925;  200.050;    0.000
406.707; 1621.925;  130.050;    0.000
406.763; 1710.925;  174.050;    0.000
406.818; 1635.925;  151.050;    0.000
406.874; 1569.925;  122.050;    0.000
406.929; 1630.925;  153.050;    0.000
406.985; 1709.925;  198.050;    0.000
407.040; 1637.925;  174.050;    0.000
407.095; 1676.925;  161.050;    0.000
407.151; 1701.925;  184.050;    0.000
407.206; 1727.925;  188.050;    0.000
407.262; 1675.925;  180.050;    0.000
407.317; 1785.925;  186.050;    0.000
407.373; 1734.925;  200.050;    0.000
407.428; 1769.925;  211.050;    0.000
407.484; 1656.925;  193.050;    0.000
407.539; 1766.925;  167.050;    0.000
407.594; 1863.925;  178.050;    0.000
407.650; 1729.925;  171.050;    0.000
407.705; 1667.925;  153.050;    0.000
407.760; 1704.925;  196.050;    0.000
407.816; 1695.925;  205.050;    0.000
407.871; 1720.925;  232.050;    0.000
407.926; 1795.925;  215.050;    0.000
407.982; 1724.925;  154.050;    0.000
408.037; 1688.925;  217.050;    0.000
408.092; 1768.925;  190.050;    0.000
408.148; 1756.925;  181.050;    0.000
408.203; 1742.925;  203.050;    0.000
408.258; 1652.925;  154.050;    0.000
408.314; 1826.925;  198.050;    0.000
408.369; 1616.925;  156.050;    0.000
408.424; 1730.925;  216.050;    0.000
408.479; 1719.925;  191.050;    0.000
408.534; 1740.925;  200.050;    0.000
408.590; 1749.925;  182.050;    0.000
408.645; 1698.925;  141.050;    0.000
408.700; 1737.925;  209.050;    0.000
408.755; 1748.925;  205.050;    0.000
408.810; 1662.925;  171.050;    0.000
408.866; 1681.925;  200.050;    0.000
408.921; 1789.925;  188.050;    0.000
408.976; 1683.925;  156.050;    0.000
409.031; 1718.925;  164.050;    0.000
409.086; 1663.925;  155.050;    0.000
409.141; 1623.925;  205.050;    0.000
409.196; 1687.925;  173.050;    0.000
409.252; 1616.925;  179.050;    0.000
409.307; 1699.925;  131.050;    0.000
409.362; 1744.925;  173.050;    0.000
409.417; 1634.925;  120.050;    0.000
409.472; 1768.925;  198.050;    0.000
409.527; 1718.925;  153.050;    0.000
409.582; 1682.925;  177.050;    0.000
409.637; 1722.925;  184.050;    0.000
409.692; 1773.925;  203.050;    0.000
409.747; 1664.925;  158.050;    0.000
409.802; 1675.925;  212.050;    0.000
409.857; 1649.925;  192.050;    0.000
409.912; 1753.925;  179.050;    0.000
409.967; 1649.925;  177.050;    0.000
410.022; 1740.925;  204.050;    0.000
410.077; 1684.925;  175.050;    0.000
410.132; 1729.925;  207.050;    0.000
410.187; 1573.925;  169.050;    0.000
410.242; 1743.925;  186.050;    0.000
410.297; 1694.925;  185.050;    0.000
410.351; 1668.925;  191.050;    0.000
410.406; 1661.925;  215.050;    0.000
410.461; 1671.925;  190.050;    0.000
410.516; 1568.925;  172.050;    0.000
410.571; 1691.925;  190.050;    0.000
410.626; 1794.925;  189.050;    0.000
410.681; 1651.925;  191.050;    0.000
410.736; 1690.925;  166.050;    0.000
410.790; 1640.925;  179.050;    0.000
410.845; 1690.925;  196.050;    0.000
410.900; 1739.925;  168.050;    0.000
410.955; 1674.925;  173.050;    0.000
411.010; 1685.925;  162.050;    0.000
411.064; 1644.925;  205.050;    0.000
411.119; 1665.925;  203.050;    0.000
411.174; 1690.925;  207.050;    0.000
411.229; 1713.925;  218.050;    0.000
411.283; 1713.925;  218.050;    0.000
411.338; 1716.925;  180.050;    0.000
411.393; 1633.925;  191.050;    0.000
411.447; 1663.925;  207.050;    0.000
411.502; 1719.925;  204.050;    0.000
411.557; 1641.925;  208.050;    0.000
411.612; 1686.925;  191.050;    0.000
411.666; 1685.925;  233.050;    0.000
411.721; 1700.925;  193.050;    0.000
411.776; 1698.925;  195.050;    0.000
411.830; 1709.925;  229.050;    0.000
411.885; 1719.925;  181.050;    0.000
411.939; 1705.925;  214.050;    0.000
411.994; 1622.925;  140.050;    0.000
412.049; 1757.925;  205.050;    0.000
412.103; 1701.925;  232.050;    0.000
412.158; 1710.925;  228.050;    0.000
412.212; 1731.925;  204.050;    0.000
412.267; 1711.925;  203.050;    0.000
412.322; 1711.925;  212.050;    0.000
412.376; 1743.925;  195.050;    0.000
412.431; 1773.925;  197.050;    0.000
412.485; 1740.925;  235.050;    0.000
412.540; 1726.925;  197.050;    0.000
412.594; 1680.925;  199.050;    0.000
412.649; 1722.925;  195.050;    0.000
412.703; 1743.925;  214.050;    0.000
412.758; 1684.925;  213.050;    0.000
412.812; 1645.925;  154.050;    0.000
412.866; 1622.925;  159.050;    0.000
412.921; 1609.925;  207.050;    0.000
412.975; 1632.925;  194.050;    0.000
413.030; 1704.925;  214.050;    0.000
413.084; 1663.925;  174.050;    0.000
413.139; 1735.925;  211.050;    0.000
413.193; 1695.925;  223.050;    0.000
413.247; 1754.925;  198.050;    0.000
413.302; 1664.925;  184.050;    0.000
413.356; 1788.925;  194.050;    0.000
413.410; 1742.925;  219.050;    0.000
413.465; 1710.925;  209.050;    0.000
413.519; 1697.925;  178.050;    0.000
413.573; 1736.925;  189.050;    0.000
413.628; 1706.925;  184.050;    0.000
413.682; 1735.925;  189.050;    0.000
413.736; 1661.925;  196.050;    0.000
413.791; 1741.925;  208.050;    0.000
413.845; 1730.925;  206.050;    0.000
413.899; 1681.925;  193.050;    0.000
413.953; 1708.925;  176.050;    0.000
414.008; 1663.925;  163.050;    0.000
414.062; 1785.925;  195.050;    0.000
414.116; 1717.925;  176.050;    0.000
414.170; 1745.925;  218.050;    0.000
414.225; 1650.925;  183.050;    0.000
414.279; 1698.925;  191.050;    0.000
414.333; 1723.925;  215.050;    0.000
414.387; 1695.925;  187.050;    0.000
414.441; 1697.925;  182.050;    0.000
414.496; 1659.925;  205.050;    0.000
414.550; 1735.925;  203.050;    0.000
414.604; 1732.925;  223.050;    0.000
414.658; 1694.925;  159.050;    0.000
414.712; 1709.925;  194.050;    0.000
414.766; 1686.925;  232.050;    0.000
414.820; 1708.925;  235.050;    0.000
414.874; 1754.925;  169.050;    0.000
414.928; 1657.925;  207.050;    0.000
414.982; 1715.925;  174.050;    0.000
415.037; 1685.925;  173.050;    0.000
415.091; 1616.925;  219.050;    0.000
415.145; 1665.925;  174.050;    0.000
415.199; 1733.925;  207.050;    0.000
415.253; 1788.925;  228.050;    0.000
415.307; 1721.925;  182.050;    0.000
415.361; 1642.925;  219.050;    0.000
415.415; 1723.925;  218.050;    0.000
415.469; 1703.925;  233.050;    0.000
415.523; 1806.925;  203.050;    0.000
415.577; 1705.925;  186.050;    0.000
415.631; 1627.925;  215.050;    0.000
415.684; 1760.925;  212.050;    0.000
415.738; 1788.925;  206.050;    0.000
415.792; 1717.925;  219.050;    0.000
415.846; 1693.925;  208.050;    0.000
415.900; 1726.925;  203.050;    0.000
415.954; 1718.925;  237.050;    0.000
416.008; 1754.925;  242.050;    0.000
416.062; 1683.925;  197.050;    0.000
416.116; 1707.925;  189.050;    0.000
416.169; 1759.925;  199.050;    0.000
416.223; 1719.925;  230.050;    0.000
416.277; 1741.925;  226.050;    0.000
416.331; 1718.925;  254.050;    0.000
416.385; 1688.925;  204.050;    0.000
416.439; 1732.925;  201.050;    0.000
416.492; 1776.925;  238.050;    0.000
416.546; 1747.925;  234.050;    0.000
416.600; 1663.925;  244.050;    0.000
416.654; 1730.925;  233.050;    0.000
416.707; 1660.925;  214.050;    0.000
416.761; 1698.925;  214.050;    0.000
416.815; 1704.925;  192.050;    0.000
416.869; 1774.925;  225.050;    0.000
416.922; 1709.925;  214.050;    0.000
416.976; 1742.925;  206.050;    0.000
417.030; 1609.925;  226.050;    0.000
417.083; 1610.925;  207.050;    0.000
417.137; 1747.925;  236.050;    0.000
417.191; 1675.925;  208.050;    0.000
417.244; 1717.925;  260.050;    0.000
417.298; 1657.925;  222.050;    0.000
417.352; 1697.925;  191.050;    0.000
417.405; 1696.925;  229.050;    0.000
417.459; 1742.925;  249.050;    0.000
417.512; 1709.925;  259.050;    0.000
417.566; 1639.925;  220.050;    0.000
417.620; 1733.925;  229.050;    0.000
417.673; 1730.925;  190.050;    0.000
417.727; 1695.925;  204.050;    0.000
417.780; 1775.925;  223.050;    0.000
417.834; 1702.925;  213.050;    0.000
417.887; 1691.925;  238.050;    0.000
417.941; 1701.925;  244.050;    0.000
417.994; 1722.925;  247.050;    0.000
418.048; 1722.925;  225.050;    0.000
418.101; 1727.925;  210.050;    0.000
418.155; 1734.925;  224.050;    0.000
418.208; 1775.925;  229.050;    0.000
418.262; 1739.925;  255.050;    0.000
418.315; 1705.925;  248.050;    0.000
418.369; 1698.925;  212.050;    0.000
418.422; 1647.925;  241.050;    0.000
418.476; 1726.925;  220.050;    0.000
418.529; 1670.925;  257.050;    0.000
418.582; 1681.925;  203.050;    0.000
418.636; 1747.925;  221.050;    0.000
418.689; 1752.925;  202.050;    0.000
418.743; 1803.925;  227.050;    0.000
418.796; 1579.925;  226.050;    0.000
418.849; 1703.925;  199.050;    0.000
418.903; 1736.925;  234.050;    0.000
418.956; 1762.925;  236.050;    0.000
419.009; 1740.925;  305.050;    0.000
419.063; 1756.925;  216.050;    0.000
419.116; 1686.925;  245.050;    0.000
419.169; 1732.925;  208.050;    0.000
419.222; 1765.925;  233.050;    0.000
419.276; 1650.925;  244.050;    0.000
419.329; 1672.925;  197.050;    0.000
419.382; 1641.925;  222.050;    0.000
419.435; 1672.925;  199.050;    0.000
419.489; 1755.925;  226.050;    0.000
419.542; 1705.925;  223.050;    0.000
419.595; 1700.925;  204.050;    0.000
419.648; 1695.925;  234.050;    0.000
419.701; 1748.925;  211.050;    0.000
419.755; 1706.925;  184.050;    0.000
419.808; 1693.925;  223.050;    0.000
419.861; 1618.925;  197.050;    0.000
419.914; 1658.925;  258.050;    0.000
419.967; 1648.925;  205.050;    0.000
420.020; 1755.925;  195.050;    0.000
420.073; 1667.925;  191.050;    0.000
420.127; 1689.925;  256.050;    0.000
420.180; 1671.925;  232.050;    0.000
420.233; 1588.925;  200.050;    0.000
420.286; 1616.925;  207.050;    0.000
420.339; 1668.925;  223.050;    0.000
420.392; 1593.925;  243.050;    0.000
420.445; 1712.925;  195.050;    0.000
420.498; 1604.925;  239.050;    0.000
420.551; 1576.925;  201.050;    0.000
420.604; 1634.925;  245.050;    0.000
420.657; 1671.925;  221.050;    0.000
420.710; 1696.925;  223.050;    0.000
420.763; 1688.925;  241.050;    0.000
420.816; 1584.925;  198.050;    0.000
420.869; 1645.925;  210.050;    0.000
420.922; 1658.925;  206.050;    0.000
420.975; 1678.925;  239.050;    0.000
421.028; 1606.925;  248.050;    0.000
421.081; 1628.925;  236.050;    0.000
421.134; 1557.925;  208.050;    0.000
421.187; 1697.925;  216.050;    0.000
421.239; 1673.925;  199.050;    0.000
421.292; 1597.925;  255.050;    0.000
421.345; 1524.925;  241.050;    0.000
421.398; 1599.925;  221.050;    0.000
421.451; 1601.925;  237.050;    0.000
421.504; 1587.925;  225.050;    0.000
421.557; 1565.925;  213.050;    0.000
421.609; 1660.925;  178.050;    0.000
421.662; 1680.925;  206.050;    0.000
421.715; 1597.925;  212.050;    0.000
421.768; 1626.925;  236.050;    0.000
421.821; 1579.925;  228.050;    0.000
421.873; 1620.925;  200.050;    0.000
421.926; 1582.925;  226.050;    0.000
421.979; 1587.925;  221.050;    0.000
422.032; 1621.925;  219.050;    0.000
422.084; 1606.925;  253.050;    0.000
422.137; 1498.925;  195.050;    0.000
422.190; 1559.925;  192.050;    0.000
422.243; 1626.925;  236.050;    0.000
422.295; 1627.925;  205.050;    0.000
422.348; 1655.925;  198.050;    0.000
422.401; 1553.925;  245.050;    0.000
422.453; 1652.925;  241.050;    0.000
422.506; 1569.925;  255.050;    0.000
422.559; 1570.925;  188.050;    0.000
422.611; 1544.925;  236.050;    0.000
422.664; 1631.925;  218.050;    0.000
422.716; 1630.925;  210.050;    0.000
422.769; 1601.925;  209.050;    0.000
422.822; 1599.925;  213.050;    0.000
422.874; 1580.925;  227.050;    0.000
422.927; 1650.925;  272.050;    0.000
422.979; 1663.925;  204.050;    0.000
423.032; 1561.925;  210.050;    0.000
423.084; 1608.925;  236.050;    0.000
423.137; 1656.925;  223.050;    0.000
423.189; 1565.925;  253.050;    0.000
423.242; 1500.925;  185.050;    0.000
423.294; 1665.925;  232.050;    0.000
423.347; 1538.925;  213.050;    0.000
423.399; 1528.925;  227.050;    0.000
423.452; 1549.925;  236.050;    0.000
423.504; 1552.925;  232.050;    0.000
423.557; 1575.925;  195.050;    0.000
423.609; 1575.925;  238.050;    0.000
423.662; 1614.925;  207.050;    0.000
423.714; 1543.925;  231.050;    0.000
423.766; 1480.925;  211.050;    0.000
423.819; 1574.925;  207.050;    0.000
423.871; 1568.925;  228.050;    0.000
423.923; 1513.925;  223.050;    0.000
423.976; 1600.925;  217.050;    0.000
424.028; 1542.925;  231.050;    0.000
424.081; 1503.925;  219.050;    0.000
424.133; 1500.925;  255.050;    0.000
424.185; 1525.925;  199.050;    0.000
424.238; 1542.925;  238.050;    0.000
424.290; 1579.925;  209.050;    0.000
424.342; 1484.925;  213.050;    0.000
424.394; 1464.925;  215.050;    0.000
424.447; 1545.925;  265.050;    0.000
424.499; 1583.925;  238.050;    0.000
424.551; 1664.925;  256.050;    0.000
424.603; 1564.925;  222.050;    0.000
424.656; 1590.925;  227.050;    0.000
424.708; 1515.925;  250.050;    0.000
424.760; 1506.925;  228.050;    0.000
424.812; 1598.925;  249.050;    0.000
424.864; 1480.925;  222.050;    0.000
424.917; 1591.925;  235.050;    0.000
424.969; 1580.925;  266.050;    0.000
425.021; 1627.925;  233.050;    0.000
425.073; 1549.925;  194.050;    0.000
425.125; 1546.925;  256.050;    0.000
425.177; 1534.925;  225.050;    0.000
425.229; 1566.925;  242.050;    0.000
425.282; 1536.925;  236.050;    0.000
425.334; 1551.925;  250.050;    0.000
425.386; 1533.925;  231.050;    0.000
425.438; 1483.925;  216.050;    0.000
425.490; 1529.925;  240.050;    0.000
425.542; 1518.925;  231.050;    0.000
425.594; 1522.925;  206.050;    0.000
425.646; 1499.925;  201.050;    0.000
425.698; 1504.925;  193.050;    0.000
425.750; 1593.925;  241.050;    0.000
425.802; 1465.925;  199.050;    0.000
425.854; 1495.925;  216.050;    0.000
425.906; 1570.925;  220.050;    0.000
425.958; 1460.925;  200.050;    0.000
426.010; 1543.925;  214.050;    0.000
426.062; 1525.925;  245.050;    0.000
426.114; 1550.925;  241.050;    0.000
426.166; 1543.925;  241.050;    0.000
426.218; 1538.925;  255.050;    0.000
426.270; 1530.925;  228.050;    0.000
426.321; 1469.925;  222.050;    0.000
426.373; 1559.925;  218.050;    0.000
426.425; 1514.925;  258.050;    0.000
426.477; 1501.925;  225.050;    0.000
426.529; 1527.925;  223.050;    0.000
426.581; 1499.925;  198.050;    0.000
426.633; 1458.925;  228.050;    0.000
426.684; 1391.925;  210.050;    0.000
426.736; 1533.925;  208.050;    0.000
426.788; 1478.925;  231.050;    0.000
426.840; 1530.925;  212.050;    0.000
426.892; 1471.925;  221.050;    0.000
426.943; 1490.925;  240.050;    0.000
426.995; 1491.925;  243.050;    0.000
427.047; 1447.925;  231.050;    0.000
427.099; 1509.925;  189.050;    0.000
427.150; 1400.925;  212.050;    0.000
427.202; 1463.925;  219.050;    0.000
427.254; 1470.925;  203.050;    0.000
427.306; 1504.925;  217.050;    0.000
427.357; 1491.925;  232.050;    0.000
427.409; 1528.925;  251.050;    0.000
427.461; 1442.925;  185.050;    0.000
427.512; 1409.925;  239.050;    0.000
427.564; 1496.925;  208.050;    0.000
427.616; 1464.925;  233.050;    0.000
427.667; 1516.925;  223.050;    0.000
427.719; 1489.925;  206.050;    0.000
427.770; 1439.925;  195.050;    0.000
427.822; 1492.925;  223.050;    0.000
427.874; 1506.925;  232.050;    0.000
427.925; 1456.925;  209.050;    0.000
427.977; 1445.925;  208.050;    0.000
428.028; 1466.925;  187.050;    0.000
428.080; 1408.925;  209.050;    0.000
428.131; 1493.925;  237.050;    0.000
428.183; 1488.925;  200.050;    0.000
428.234; 1483.925;  215.050;    0.000
428.286; 1395.925;  229.050;    0.000
428.337; 1508.925;  206.050;    0.000
428.389; 1491.925;  216.050;    0.000
428.440; 1480.925;  287.050;    0.000
428.492; 1456.925;  269.050;    0.000
428.543; 1446.925;  234.050;    0.000
428.595; 1478.925;  214.050;    0.000
428.646; 1466.925;  229.050;    0.000
428.697; 1432.925;  249.050;    0.000
428.749; 1494.925;  250.050;    0.000
428.800; 1509.925;  242.050;    0.000
428.852; 1413.925;  232.050;    0.000
428.903; 1451.925;  196.050;    0.000
428.954; 1392.925;  226.050;    0.000
429.006; 1407.925;  232.050;    0.000
429.057; 1427.925;  188.050;    0.000
429.108; 1477.925;  237.050;    0.000
429.160; 1420.925;  221.050;    0.000
429.211; 1428.925;  222.050;    0.000
429.262; 1308.925;  215.050;    0.000
429.314; 1438.925;  225.050;    0.000
429.365; 1391.925;  220.050;    0.000
429.416; 1534.925;  242.050;    0.000
429.467; 1456.925;  220.050;    0.000
429.519; 1452.925;  217.050;    0.000
429.570; 1455.925;  248.050;    0.000
429.621; 1424.925;  233.050;    0.000
429.672; 1401.925;  220.050;    0.000
429.724; 1434.925;  179.050;    0.000
429.775; 1458.925;  218.050;    0.000
429.826; 1378.925;  197.050;    0.000
429.877; 1412.925;  206.050;    0.000
429.928; 1407.925;  229.050;    0.000
429.980; 1425.925;  207.050;    0.000
430.031; 1449.925;  264.050;    0.000
430.082; 1389.925;  210.050;    0.000
430.133; 1418.925;  218.050;    0.000
430.184; 1420.925;  246.050;    0.000
430.235; 1369.925;  201.050;    0.000
430.286; 1427.925;  207.050;    0.000
430.337; 1395.925;  224.050;    0.000
430.388; 1449.925;  216.050;    0.000
430.439; 1430.925;  210.050;    0.000
430.490; 1375.925;  208.050;    0.000
430.542; 1350.925;  211.050;    0.000
430.593; 1374.925;  203.050;    0.000
430.644; 1431.925;  235.050;    0.000
430.695; 1369.925;  200.050;    0.000
430.746; 1340.925;  215.050;    0.000
430.797; 1441.925;  235.050;    0.000
430.848; 1397.925;  197.050;    0.000
430.898; 1426.925;  209.050;    0.000
430.949; 1395.925;  231.050;    0.000
431.000; 1402.925;  227.050;    0.000
431.051; 1449.925;  225.050;    0.000
431.102; 1347.925;  180.050;    0.000
431.153; 1417.925;  248.050;    0.000
431.204; 1450.925;  185.050;    0.000
431.255; 1415.925;  199.050;    0.000
431.306; 1349.925;  228.050;    0.000
431.357; 1420.925;  237.050;    0.000
431.408; 1473.925;  223.050;    0.000
431.458; 1407.925;  240.050;    0.000
431.509; 1444.925;  207.050;    0.000
431.560; 1413.925;  219.050;    0.000
431.611; 1404.925;  206.050;    0.000
431.662; 1435.925;  253.050;    0.000
431.713; 1372.925;  199.050;    0.000
431.763; 1436.925;  197.050;    0.000
431.814; 1467.925;  205.050;    0.000
431.865; 1450.925;  218.050;    0.000
431.916; 1394.925;  202.050;    0.000
431.966; 1360.925;  203.050;    0.000
432.017; 1418.925;  244.050;    0.000
432.068; 1386.925;  246.050;    0.000
432.118; 1455.925;  212.050;    0.000
432.169; 1403.925;  214.050;    0.000
432.220; 1424.925;  241.050;    0.000
432.271; 1395.925;  237.050;    0.000
432.321; 1363.925;  246.050;    0.000
432.372; 1420.925;  257.050;    0.000
432.423; 1412.925;  198.050;    0.000
432.473; 1366.925;  202.050;    0.000
432.524; 1418.925;  242.050;    0.000
432.574; 1346.925;  202.050;    0.000
432.625; 1368.925;  212.050;    0.000
432.676; 1356.925;  242.050;    0.000
432.726; 1459.925;  268.050;    0.000
432.777; 1323.925;  228.050;    0.000
432.827; 1385.925;  230.050;    0.000
432.878; 1468.925;  221.050;    0.000
432.928; 1420.925;  218.050;    0.000
432.979; 1358.925;  243.050;    0.000
433.029; 1338.925;  217.050;    0.000
433.080; 1391.925;  208.050;    0.000
433.130; 1388.925;  236.050;    0.000
433.181; 1364.925;  282.050;    0.000
433.231; 1359.925;  257.050;    0.000
433.282; 1345.925;  268.050;    0.000
433.332; 1418.925;  241.050;    0.000
433.383; 1432.925;  271.050;    0.000
433.433; 1376.925;  262.050;    0.000
433.484; 1396.925;  266.050;    0.000
433.534; 1375.925;  217.050;    0.000
433.585; 1397.925;  230.050;    0.000
433.635; 1410.925;  245.050;    0.000
433.685; 1438.925;  250.050;    0.000
433.736; 1450.925;  308.050;    0.000
433.786; 1378.925;  242.050;    0.000
433.836; 1481.925;  256.050;    0.000
433.887; 1367.925;  250.050;    0.000
433.937; 1313.925;  250.050;    0.000
433.987; 1351.925;  219.050;    0.000
434.038; 1359.925;  248.050;    0.000
434.088; 1323.925;  231.050;    0.000
434.138; 1402.925;  266.050;    0.000
434.189; 1419.925;  240.050;    0.000
434.239; 1382.925;  245.050;    0.000
434.289; 1434.925;  285.050;    0.000
434.339; 1460.925;  255.050;    0.000
434.389; 1365.925;  242.050;    0.000
434.440; 1326.925;  273.050;    0.000
434.490; 1471.925;  272.050;    0.000
434.540; 1477.925;  264.050;    0.000
434.590; 1390.925;  233.050;    0.000
434.640; 1443.925;  244.050;    0.000
434.691; 1453.925;  226.050;    0.000
434.741; 1494.925;  253.050;    0.000
434.791; 1453.925;  269.050;    0.000
434.841; 1451.925;  252.050;    0.000
434.891; 1488.925;  281.050;    0.000
434.941; 1479.925;  296.050;    0.000
434.991; 1373.925;  264.050;    0.000
435.042; 1427.925;  262.050;    0.000
435.092; 1470.925;  237.050;    0.000
435.142; 1352.925;  232.050;    0.000
435.192; 1350.925;  251.050;    0.000
435.242; 1413.925;  251.050;    0.000
435.292; 1400.925;  246.050;    0.000
435.342; 1317.925;  236.050;    0.000
435.392; 1448.925;  273.050;    0.000
435.442; 1343.925;  273.050;    0.000
435.492; 1471.925;  273.050;    0.000
435.542; 1376.925;  242.050;    0.000
435.592; 1391.925;  213.050;    0.000
435.642; 1372.925;  248.050;    0.000
435.692; 1364.925;  242.050;    0.000
435.742; 1460.925;  222.050;    0.000
435.792; 1328.925;  260.050;    0.000
435.842; 1308.925;  266.050;    0.000
435.891; 1342.925;  227.050;    0.000
435.941; 1262.925;  228.050;    0.000
435.991; 1358.925;  282.050;    0.000
436.041; 1362.925;  231.050;    0.000
436.091; 1350.925;  250.050;    0.000
436.141; 1339.925;  221.050;    0.000
436.191; 1337.925;  223.050;    0.000
436.241; 1341.925;  250.050;    0.000
436.290; 1413.925;  243.050;    0.000
436.340; 1383.925;  236.050;    0.000
436.390; 1392.925;  260.050;    0.000
436.440; 1331.925;  253.050;    0.000
436.490; 1321.925;  236.050;    0.000
436.539; 1339.925;  249.050;    0.000
436.589; 1306.925;  231.050;    0.000
436.639; 1292.925;  237.050;    0.000
436.689; 1328.925;  222.050;    0.000
436.738; 1339.925;  263.050;    0.000
436.788; 1284.925;  230.050;    0.000
436.838; 1323.925;  281.050;    0.000
436.887; 1320.925;  230.050;    0.000
436.937; 1368.925;  250.050;    0.000
436.987; 1290.925;  251.050;    0.000
437.036; 1366.925;  238.050;    0.000
437.086; 1338.925;  234.050;    0.000
437.136; 1372.925;  250.050;    0.000
437.185; 1280.925;  228.050;    0.000
437.235; 1321.925;  309.050;    0.000
437.285; 1311.925;  246.050;    0.000
437.334; 1279.925;  262.050;    0.000
437.384; 1334.925;  228.050;    0.000
437.433; 1322.925;  241.050;    0.000
437.483; 1337.925;  220.050;    0.000
437.532; 1326.925;  252.050;    0.000
437.582; 1378.925;  270.050;    0.000
437.631; 1303.925;  251.050;    0.000
437.681; 1333.925;  284.050;    0.000
437.730; 1325.925;  239.050;    0.000
437.780; 1291.925;  221.050;    0.000
437.829; 1277.925;  254.050;    0.000
437.879; 1280.925;  221.050;    0.000
437.928; 1303.925;  205.050;    0.000
437.978; 1295.925;  223.050;    0.000
438.027; 1300.925;  262.050;    0.000
438.077; 1277.925;  280.050;    0.000
438.126; 1342.925;  254.050;    0.000
438.176; 1266.925;  230.050;    0.000
438.225; 1298.925;  227.050;    0.000
438.274; 1226.925;  264.050;    0.000
438.324; 1303.925;  233.050;    0.000
438.373; 1259.925;  238.050;    0.000
438.422; 1255.925;  260.050;    0.000
438.472; 1315.925;  223.050;    0.000
438.521; 1229.925;  213.050;    0.000
438.570; 1234.925;  236.050;    0.000
438.620; 1352.925;  282.050;    0.000
438.669; 1344.925;  209.050;    0.000
438.718; 1322.925;  245.050;    0.000
438.768; 1295.925;  238.050;    0.000
438.817; 1231.925;  259.050;    0.000
438.866; 1268.925;  232.050;    0.000
438.915; 1276.925;  288.050;    0.000
438.965; 1253.925;  228.050;    0.000
439.014; 1276.925;  246.050;    0.000
439.063; 1346.925;  287.050;    0.000
439.112; 1296.925;  217.050;    0.000
439.162; 1358.925;  275.050;    0.000
439.211; 1317.925;  287.050;    0.000
439.260; 1294.925;  238.050;    0.000
439.309; 1267.925;  225.050;    0.000
439.358; 1288.925;  248.050;    0.000
439.407; 1301.925;  237.050;    0.000
439.456; 1261.925;  223.050;    0.000
439.506; 1269.925;  266.050;    0.000
439.555; 1352.925;  260.050;    0.000
439.604; 1330.925;  233.050;    0.000
439.653; 1249.925;  242.050;    0.000
439.702; 1283.925;  255.050;    0.000
439.751; 1293.925;  202.050;    0.000
439.800; 1268.925;  247.050;    0.000
439.849; 1351.925;  250.050;    0.000
439.898; 1275.925;  216.050;    0.000
439.947; 1294.925;  231.050;    0.000
439.996; 1283.925;  272.050;    0.000
440.045; 1230.925;  217.050;    0.000
440.094; 1284.925;  220.050;    0.000
440.143; 1294.925;  245.050;    0.000
440.192; 1293.925;  267.050;    0.000
440.241; 1370.925;  263.050;    0.000
440.290; 1343.925;  246.050;    0.000
440.339; 1326.925;  225.050;    0.000
440.388; 1357.925;  256.050;    0.000
440.437; 1285.925;  253.050;    0.000
440.486; 1287.925;  249.050;    0.000
440.535; 1270.925;  232.050;    0.000
440.583; 1293.925;  220.050;    0.000
440.632; 1241.925;  239.050;    0.000
440.681; 1303.925;  236.050;    0.000
440.730; 1376.925;  282.050;    0.000
440.779; 1263.925;  245.050;    0.000
440.828; 1331.925;  213.050;    0.000
440.876; 1285.925;  231.050;    0.000
440.925; 1216.925;  271.050;    0.000
440.974; 1278.925;  240.050;    0.000
441.023; 1334.925;  214.050;    0.000
441.072; 1324.925;  236.050;    0.000
441.120; 1393.925;  271.050;    0.000
441.169; 1398.925;  281.050;    0.000
441.218; 1317.925;  255.050;    0.000
441.267; 1331.925;  272.050;    0.000
441.315; 1294.925;  229.050;    0.000
441.364; 1301.925;  241.050;    0.000
441.413; 1283.925;  224.050;    0.000
441.461; 1363.925;  241.050;    0.000
441.510; 1398.925;  289.050;    0.000
441.559; 1365.925;  222.050;    0.000
441.607; 1335.925;  242.050;    0.000
441.656; 1352.925;  255.050;    0.000
441.705; 1382.925;  260.050;    0.000
441.753; 1373.925;  290.050;    0.000
441.802; 1309.925;  264.050;    0.000
441.850; 1402.925;  224.050;    0.000
441.899; 1368.925;  275.050;    0.000
441.948; 1333.925;  227.050;    0.000
441.996; 1351.925;  216.050;    0.000
442.045; 1345.925;  271.050;    0.000
442.093; 1311.925;  227.050;    0.000
442.142; 1296.925;  273.050;    0.000
442.190; 1355.925;  257.050;    0.000
442.239; 1320.925;  269.050;    0.000
442.287; 1317.925;  257.050;    0.000
442.336; 1342.925;  237.050;    0.000
442.384; 1276.925;  214.050;    0.000
442.433; 1380.925;  272.050;    0.000
442.481; 1396.925;  258.050;    0.000
442.529; 1329.925;  242.050;    0.000
442.578; 1315.925;  278.050;    0.000
442.626; 1318.925;  264.050;    0.000
442.675; 1376.925;  293.050;    0.000
442.723; 1302.925;  244.050;    0.000
442.771; 1323.925;  232.050;    0.000
442.820; 1362.925;  266.050;    0.000
442.868; 1321.925;  253.050;    0.000
442.917; 1340.925;  250.050;    0.000
442.965; 1333.925;  279.050;    0.000
443.013; 1344.925;  253.050;    0.000
443.062; 1297.925;  282.050;    0.000
443.110; 1393.925;  258.050;    0.000
443.158; 1318.925;  246.050;    0.000
443.206; 1291.925;  255.050;    0.000
443.255; 1366.925;  296.050;    0.000
443.303; 1391.925;  272.050;    0.000
443.351; 1321.925;  270.050;    0.000
443.399; 1337.925;  258.050;    0.000
443.448; 1344.925;  265.050;    0.000
443.496; 1353.925;  219.050;    0.000
443.544; 1306.925;  205.050;    0.000
443.592; 1317.925;  266.050;    0.000
443.640; 1439.925;  260.050;    0.000
443.689; 1274.925;  232.050;    0.000
443.737; 1345.925;  281.050;    0.000
443.785; 1365.925;  248.050;    0.000
443.833; 1373.925;  286.050;    0.000
443.881; 1294.925;  225.050;    0.000
443.929; 1339.925;  255.050;    0.000
443.977; 1339.925;  248.050;    0.000
444.025; 1371.925;  255.050;    0.000
444.074; 1405.925;  266.050;    0.000
444.122; 1393.925;  266.050;    0.000
444.170; 1392.925;  207.050;    0.000
444.218; 1366.925;  253.050;    0.000
444.266; 1406.925;  263.050;    0.000
444.314; 1399.925;  272.050;    0.000
444.362; 1337.925;  272.050;    0.000
444.410; 1382.925;  255.050;    0.000
444.458; 1455.925;  288.050;    0.000
444.506; 1339.925;  263.050;    0.000
444.554; 1424.925;  243.050;    0.000
444.602; 1415.925;  285.050;    0.000
444.650; 1481.925;  273.050;    0.000
444.698; 1318.925;  221.050;    0.000
444.746; 1464.925;  243.050;    0.000
444.793; 1376.925;  217.050;    0.000
444.841; 1518.925;  262.050;    0.000
444.889; 1415.925;  264.050;    0.000
444.937; 1347.925;  226.050;    0.000
444.985; 1322.925;  257.050;    0.000
445.033; 1354.925;  264.050;    0.000
445.081; 1453.925;  264.050;    0.000
445.129; 1358.925;  187.050;    0.000
445.176; 1422.925;  212.050;    0.000
445.224; 1395.925;  198.050;    0.000
445.272; 1431.925;  265.050;    0.000
445.320; 1427.925;  239.050;    0.000
445.368; 1411.925;  245.050;    0.000
445.415; 1387.925;  215.050;    0.000
445.463; 1332.925;  202.050;    0.000
445.511; 1372.925;  234.050;    0.000
445.559; 1374.925;  269.050;    0.000
445.606; 1390.925;  214.050;    0.000
445.654; 1440.925;  227.050;    0.000
445.702; 1458.925;  276.050;    0.000
445.749; 1422.925;  256.050;    0.000
445.797; 1391.925;  236.050;    0.000
445.845; 1365.925;  230.050;    0.000
445.892; 1392.925;  233.050;    0.000
445.940; 1455.925;  257.050;    0.000
445.988; 1347.925;  253.050;    0.000
446.035; 1404.925;  265.050;    0.000
446.083; 1477.925;  254.050;    0.000
446.130; 1386.925;  228.050;    0.000
446.178; 1456.925;  256.050;    0.000
446.226; 1436.925;  238.050;    0.000
446.273; 1410.925;  228.050;    0.000
446.321; 1393.925;  220.050;    0.000
446.368; 1425.925;  249.050;    0.000
446.416; 1388.925;  221.050;    0.000
446.463; 1432.925;  232.050;    0.000
446.511; 1383.925;  243.050;    0.000
446.558; 1355.925;  217.050;    0.000
446.606; 1433.925;  256.050;    0.000
446.653; 1466.925;  238.050;    0.000
446.701; 1424.925;  259.050;    0.000
446.748; 1496.925;  227.050;    0.000
446.796; 1480.925;  236.050;    0.000
446.843; 1483.925;  241.050;    0.000
446.891; 1459.925;  292.050;    0.000
446.938; 1538.925;  219.050;    0.000
446.985; 1564.925;  255.050;    0.000
447.033; 1518.925;  237.050;    0.000
447.080; 1524.925;  278.050;    0.000
447.128; 1494.925;  237.050;    0.000
447.175; 1537.925;  247.050;    0.000
447.222; 1504.925;  235.050;    0.000
447.270; 1573.925;  274.050;    0.000
447.317; 1516.925;  222.050;    0.000
447.364; 1477.925;  230.050;    0.000
447.411; 1565.925;  297.050;    0.000
447.459; 1598.925;  243.050;    0.000
447.506; 1525.925;  202.050;    0.000
447.553; 1674.925;  232.050;    0.000
447.601; 1591.925;  262.050;    0.000
447.648; 1625.925;  254.050;    0.000
447.695; 1553.925;  287.050;    0.000
447.742; 1599.925;  232.050;    0.000
447.789; 1613.925;  257.050;    0.000
447.837; 1698.925;  260.050;    0.000
447.884; 1687.925;  272.050;    0.000
447.931; 1799.925;  241.050;    0.000
447.978; 1614.925;  241.050;    0.000
448.025; 1707.925;  264.050;    0.000
448.072; 1649.925;  279.050;    0.000
448.120; 1774.925;  263.050;    0.000
448.167; 1738.925;  284.050;    0.000
448.214; 1811.925;  252.050;    0.000
448.261; 1736.925;  247.050;    0.000
448.308; 1735.925;  249.050;    0.000
448.355; 1717.925;  263.050;    0.000
448.402; 1685.925;  251.050;    0.000
448.449; 1648.925;  257.050;    0.000
448.496; 1634.925;  243.050;    0.000
448.543; 1592.925;  274.050;    0.000
448.590; 1651.925;  299.050;    0.000
448.637; 1593.925;  259.050;    0.000
448.684; 1524.925;  266.050;    0.000
448.731; 1579.925;  261.050;    0.000
448.778; 1596.925;  292.050;    0.000
448.825; 1528.925;  253.050;    0.000
448.872; 1455.925;  253.050;    0.000
448.919; 1472.925;  218.050;    0.000
448.966; 1522.925;  254.050;    0.000
449.013; 1528.925;  263.050;    0.000
449.060; 1512.925;  282.050;    0.000
449.107; 1382.925;  244.050;    0.000
449.154; 1460.925;  236.050;    0.000
449.200; 1461.925;  226.050;    0.000
449.247; 1470.925;  273.050;    0.000
449.294; 1402.925;  270.050;    0.000
449.341; 1421.925;  283.050;    0.000
449.388; 1458.925;  261.050;    0.000
449.435; 1409.925;  254.050;    0.000
449.481; 1379.925;  318.050;    0.000
449.528; 1467.925;  274.050;    0.000
449.575; 1429.925;  251.050;    0.000
449.622; 1395.925;  276.050;    0.000
449.668; 1375.925;  242.050;    0.000
449.715; 1320.925;  286.050;    0.000
449.762; 1460.925;  268.050;    0.000
449.809; 1441.925;  285.050;    0.000
449.855; 1392.925;  277.050;    0.000
449.902; 1416.925;  246.050;    0.000
449.949; 1408.925;  268.050;    0.000
449.995; 1406.925;  289.050;    0.000
450.042; 1371.925;  256.050;    0.000
450.089; 1348.925;  290.050;    0.000
450.135; 1400.925;  300.050;    0.000
450.182; 1356.925;  317.050;    0.000
450.229; 1281.925;  282.050;    0.000
450.275; 1364.925;  307.050;    0.000
450.322; 1358.925;  260.050;    0.000
450.368; 1372.925;  315.050;    0.000
450.415; 1408.925;  306.050;    0.000
450.462; 1299.925;  314.050;    0.000
450.508; 1314.925;  303.050;    0.000
450.555; 1297.925;  281.050;    0.000
450.601; 1352.925;  291.050;    0.000
450.648; 1288.925;  288.050;    0.000
450.694; 1356.925;  290.050;    0.000
450.741; 1333.925;  303.050;    0.000
450.787; 1343.925;  298.050;    0.000
450.834; 1238.925;  265.050;    0.000
450.880; 1264.925;  273.050;    0.000
450.927; 1340.925;  312.050;    0.000
450.973; 1353.925;  303.050;    0.000
451.019; 1310.925;  222.050;    0.000
451.066; 1287.925;  284.050;    0.000
451.112; 1320.925;  296.050;    0.000
451.159; 1298.925;  299.050;    0.000
451.205; 1319.925;  311.050;    0.000
451.251; 1325.925;  306.050;    0.000
451.298; 1304.925;  281.050;    0.000
451.344; 1346.925;  311.050;    0.000
451.390; 1321.925;  331.050;    0.000
451.437; 1276.925;  303.050;    0.000
451.483; 1297.925;  284.050;    0.000
451.529; 1222.925;  310.050;    0.000
451.576; 1309.925;  301.050;    0.000
451.622; 1299.925;  275.050;    0.000
451.668; 1326.925;  269.050;    0.000
451.714; 1305.925;  277.050;    0.000
451.761; 1305.925;  298.050;    0.000
451.807; 1339.925;  316.050;    0.000
451.853; 1286.925;  301.050;    0.000
451.899; 1205.925;  292.050;    0.000
451.945; 1279.925;  324.050;    0.000
451.992; 1343.925;  292.050;    0.000
452.038; 1262.925;  261.050;    0.000
452.084; 1255.925;  286.050;    0.000
452.130; 1249.925;  301.050;    0.000
452.176; 1292.925;  287.050;    0.000
452.222; 1256.925;  265.050;    0.000
452.268; 1265.925;  268.050;    0.000
452.315; 1214.925;  272.050;    0.000
452.361; 1285.925;  258.050;    0.000
452.407; 1228.925;  279.050;    0.000
452.453; 1264.925;  252.050;    0.000
452.499; 1275.925;  305.050;    0.000
452.545; 1207.925;  263.050;    0.000
452.591; 1305.925;  284.050;    0.000
452.637; 1298.925;  289.050;    0.000
452.683; 1156.925;  249.050;    0.000
452.729; 1276.925;  290.050;    0.000
452.775; 1286.925;  315.050;    0.000
452.821; 1249.925;  271.050;    0.000
452.867; 1207.925;  258.050;    0.000
452.913; 1252.925;  256.050;    0.000
452.959; 1244.925;  266.050;    0.000
453.005; 1265.925;  299.050;    0.000
453.051; 1407.925;  299.050;    0.000
453.097; 1288.925;  268.050;    0.000
453.142; 1254.925;  251.050;    0.000
453.188; 1174.925;  284.050;    0.000
453.234; 1203.925;  285.050;    0.000
453.280; 1236.925;  263.050;    0.000
453.326; 1146.925;  273.050;    0.000
453.372; 1205.925;  253.050;    0.000
453.418; 1217.925;  269.050;    0.000
453.463; 1222.925;  250.050;    0.000
453.509; 1230.925;  289.050;    0.000
453.555; 1247.925;  262.050;    0.000
453.601; 1181.925;  274.050;    0.000
453.647; 1273.925;  306.050;    0.000
453.692; 1171.925;  264.050;    0.000
453.738; 1225.925;  312.050;    0.000
453.784; 1208.925;  300.050;    0.000
453.829; 1193.925;  284.050;    0.000
453.875; 1211.925;  270.050;    0.000
453.921; 1214.925;  237.050;    0.000
453.967; 1201.925;  263.050;    0.000
454.012; 1202.925;  295.050;    0.000
454.058; 1211.925;  293.050;    0.000
454.104; 1300.925;  264.050;    0.000
454.149; 1227.925;  282.050;    0.000
454.195; 1189.925;  277.050;    0.000
454.240; 1279.925;  307.050;    0.000
454.286; 1266.925;  282.050;    0.000
454.332; 1292.925;  291.050;    0.000
454.377; 1238.925;  302.050;    0.000
454.423; 1213.925;  276.050;    0.000
454.468; 1236.925;  281.050;    0.000
454.514; 1207.925;  290.050;    0.000
454.559; 1214.925;  289.050;    0.000
454.605; 1219.925;  258.050;    0.000
454.650; 1239.925;  281.050;    0.000
454.696; 1268.925;  308.050;    0.000
454.741; 1252.925;  288.050;    0.000
454.787; 1257.925;  284.050;    0.000
454.832; 1146.925;  306.050;    0.000
454.878; 1206.925;  288.050;    0.000
454.923; 1230.925;  287.050;    0.000
454.969; 1232.925;  325.050;    0.000
455.014; 1237.925;  323.050;    0.000
455.060; 1241.925;  290.050;    0.000
455.105; 1245.925;  285.050;    0.000
455.150; 1245.925;  303.050;    0.000
455.196; 1218.925;  282.050;    0.000
455.241; 1243.925;  281.050;    0.000
455.286; 1181.925;  290.050;    0.000
455.332; 1213.925;  280.050;    0.000
455.377; 1129.925;  243.050;    0.000
455.422; 1195.925;  308.050;    0.000
455.468; 1188.925;  308.050;    0.000
455.513; 1197.925;  290.050;    0.000
455.558; 1227.925;  211.050;    0.000
455.604; 1259.925;  289.050;    0.000
455.649; 1236.925;  297.050;    0.000
455.694; 1158.925;  287.050;    0.000
455.739; 1255.925;  296.050;    0.000
455.785; 1222.925;  315.050;    0.000
455.830; 1206.925;  328.050;    0.000
455.875; 1226.925;  310.050;    0.000
455.920; 1147.925;  261.050;    0.000
455.965; 1262.925;  277.050;    0.000
456.010; 1227.925;  317.050;    0.000
456.056; 1223.925;  299.050;    0.000
456.101; 1249.925;  262.050;    0.000
456.146; 1236.925;  318.050;    0.000
456.191; 1171.925;  274.050;    0.000
456.236; 1166.925;  274.050;    0.000
456.281; 1152.925;  275.050;    0.000
456.326; 1171.925;  256.050;    0.000
456.371; 1154.925;  260.050;    0.000
456.416; 1262.925;  304.050;    0.000
456.461; 1189.925;  278.050;    0.000
456.507; 1232.925;  299.050;    0.000
456.552; 1196.925;  305.050;    0.000
456.597; 1195.925;  271.050;    0.000
456.642; 1161.925;  273.050;    0.000
456.687; 1209.925;  290.050;    0.000
456.732; 1208.925;  327.050;    0.000
456.776; 1258.925;  284.050;    0.000
456.821; 1192.925;  321.050;    0.000
456.866; 1177.925;  272.050;    0.000
456.911; 1145.925;  232.050;    0.000
456.956; 1156.925;  263.050;    0.000
457.001; 1213.925;  277.050;    0.000
457.046; 1244.925;  284.050;    0.000
457.091; 1179.925;  269.050;    0.000
457.136; 1223.925;  269.050;    0.000
457.181; 1204.925;  275.050;    0.000
457.225; 1255.925;  310.050;    0.000
457.270; 1196.925;  295.050;    0.000
457.315; 1220.925;  284.050;    0.000
457.360; 1204.925;  264.050;    0.000
457.405; 1190.925;  273.050;    0.000
457.450; 1202.925;  284.050;    0.000
457.494; 1210.925;  273.050;    0.000
457.539; 1210.925;  287.050;    0.000
457.584; 1282.925;  279.050;    0.000
457.629; 1217.925;  288.050;    0.000
457.673; 1213.925;  297.050;    0.000
457.718; 1227.925;  270.050;    0.000
457.763; 1259.925;  295.050;    0.000
457.807; 1181.925;  321.050;    0.000
457.852; 1201.925;  293.050;    0.000
457.897; 1235.925;  282.050;    0.000
457.941; 1176.925;  320.050;    0.000
457.986; 1288.925;  295.050;    0.000
458.031; 1241.925;  314.050;    0.000
458.075; 1279.925;  280.050;    0.000
458.120; 1242.925;  314.050;    0.000
458.165; 1200.925;  289.050;    0.000
458.209; 1280.925;  289.050;    0.000
458.254; 1187.925;  272.050;    0.000
458.298; 1288.925;  305.050;    0.000
458.343; 1319.925;  284.050;    0.000
458.387; 1294.925;  340.050;    0.000
458.432; 1246.925;  306.050;    0.000
458.476; 1230.925;  311.050;    0.000
458.521; 1268.925;  304.050;    0.000
458.565; 1256.925;  329.050;    0.000
458.610; 1267.925;  287.050;    0.000
458.654; 1255.925;  300.050;    0.000
458.699; 1277.925;  295.050;    0.000
458.743; 1214.925;  269.050;    0.000
458.788; 1240.925;  294.050;    0.000
458.832; 1254.925;  301.050;    0.000
458.877; 1268.925;  303.050;    0.000
458.921; 1201.925;  259.050;    0.000
458.965; 1301.925;  308.050;    0.000
459.010; 1294.925;  330.050;    0.000
459.054; 1291.925;  298.050;    0.000
459.099; 1290.925;  303.050;    0.000
459.143; 1329.925;  333.050;    0.000
459.187; 1235.925;  291.050;    0.000
459.231; 1237.925;  316.050;    0.000
459.276; 1300.925;  294.050;    0.000
459.320; 1311.925;  291.050;    0.000
459.364; 1293.925;  318.050;    0.000
459.409; 1306.925;  325.050;    0.000
459.453; 1293.925;  293.050;    0.000
459.497; 1310.925;  354.050;    0.000
459.541; 1334.925;  313.050;    0.000
459.586; 1277.925;  282.050;    0.000
459.630; 1271.925;  286.050;    0.000
459.674; 1317.925;  292.050;    0.000
459.718; 1297.925;  280.050;    0.000
459.762; 1243.925;  304.050;    0.000
459.807; 1263.925;  352.050;    0.000
459.851; 1382.925;  300.050;    0.000
459.895; 1305.925;  311.050;    0.000
459.939; 1343.925;  303.050;    0.000
459.983; 1278.925;  299.050;    0.000
460.027; 1294.925;  307.050;    0.000
460.071; 1311.925;  313.050;    0.000
460.115; 1315.925;  325.050;    0.000
460.159; 1356.925;  331.050;    0.000
460.204; 1291.925;  301.050;    0.000
460.248; 1405.925;  329.050;    0.000
460.292; 1368.925;  310.050;    0.000
460.336; 1320.925;  304.050;    0.000
460.380; 1378.925;  313.050;    0.000
460.424; 1398.925;  300.050;    0.000
460.468; 1339.925;  338.050;    0.000
460.512; 1324.925;  310.050;    0.000
460.556; 1344.925;  337.050;    0.000
460.599; 1313.925;  310.050;    0.000
460.643; 1331.925;  303.050;    0.000
460.687; 1304.925;  316.050;    0.000
460.731; 1328.925;  292.050;    0.000
460.775; 1334.925;  294.050;    0.000
460.819; 1379.925;  310.050;    0.000
460.863; 1374.925;  349.050;    0.000
460.907; 1228.925;  265.050;    0.000
460.951; 1312.925;  325.050;    0.000
460.995; 1387.925;  338.050;    0.000
461.038; 1356.925;  304.050;    0.000
461.082; 1273.925;  312.050;    0.000
461.126; 1330.925;  358.050;    0.000
461.170; 1304.925;  306.050;    0.000
461.214; 1362.925;  330.050;    0.000
461.257; 1316.925;  311.050;    0.000
461.301; 1295.925;  303.050;    0.000
461.345; 1271.925;  310.050;    0.000
461.389; 1322.925;  296.050;    0.000
461.432; 1315.925;  304.050;    0.000
461.476; 1314.925;  305.050;    0.000
461.520; 1318.925;  319.050;    0.000
461.563; 1330.925;  294.050;    0.000
461.607; 1315.925;  295.050;    0.000
461.651; 1320.925;  335.050;    0.000
461.694; 1437.925;  276.050;    0.000
461.738; 1309.925;  327.050;    0.000
461.782; 1279.925;  288.050;    0.000
461.825; 1386.925;  319.050;    0.000
461.869; 1390.925;  305.050;    0.000
461.913; 1363.925;  281.050;    0.000
461.956; 1349.925;  281.050;    0.000
462.000; 1320.925;  339.050;    0.000
462.043; 1369.925;  347.050;    0.000
462.087; 1313.925;  314.050;    0.000
462.130; 1260.925;  332.050;    0.000
462.174; 1383.925;  332.050;    0.000
462.217; 1430.925;  299.050;    0.000
462.261; 1435.925;  323.050;    0.000
462.304; 1341.925;  286.050;    0.000
462.348; 1330.925;  305.050;    0.000
462.391; 1352.925;  293.050;    0.000
462.435; 1393.925;  365.050;    0.000
462.478; 1372.925;  329.050;    0.000
462.522; 1373.925;  316.050;    0.000
462.565; 1425.925;  328.050;    0.000
462.608; 1450.925;  350.050;    0.000
462.652; 1355.925;  328.050;    0.000
462.695; 1478.925;  358.050;    0.000
462.739; 1347.925;  317.050;    0.000
462.782; 1467.925;  329.050;    0.000
462.825; 1407.925;  368.050;    0.000
462.869; 1448.925;  343.050;    0.000
462.912; 1483.925;  404.050;    0.000
462.955; 1478.925;  328.050;    0.000
462.998; 1390.925;  340.050;    0.000
463.042; 1460.925;  361.050;    0.000
463.085; 1376.925;  337.050;    0.000
463.128; 1474.925;  373.050;    0.000
463.172; 1371.925;  347.050;    0.000
463.215;  359.925;  305.050;    0.000
463.258;  350.925;  324.050;    0.000
463.301;  308.925;  296.050;    0.000
463.344;  347.925;  332.050;    0.000
463.388;  320.925;  309.050;    0.000
463.431;  286.925;  298.050;    0.000
463.474;  349.925;  351.050;    0.000
463.517;  296.925;  319.050;    0.000
463.560;  326.925;  325.050;    0.000
463.603;  326.925;  330.050;    0.000
463.646;  287.925;  332.050;    0.000
463.690;  321.925;  325.050;    0.000
463.733;  356.925;  323.050;    0.000
463.776;  277.925;  276.050;    0.000
463.819;  303.925;  320.050;    0.000
463.862;  284.925;  275.050;    0.000

