Pellet-T1_position3_Burst5-n5
Integration time [ms]:   1.000
Averaging Nr. [scans]: 1
Smoothing Nr. [pixels]: 0
Data measured with spectrometer [name]: UV1
Wave   ;Sample   ;Dark     ;Reference
[nm]   ;[counts] ;[counts] ;[counts] 

236.381;  174.125;    0.000;    0.000
236.451;  198.125;    0.000;    0.000
236.520;  192.125;    0.000;    0.000
236.590;  160.125;    0.000;    0.000
236.660;  193.125;    0.000;    0.000
236.730;  162.125;    0.000;    0.000
236.799;  198.125;    0.000;    0.000
236.869;  211.125;    0.000;    0.000
236.939;  195.125;    0.000;    0.000
237.009;  182.125;    0.000;    0.000
237.078;  178.125;    0.000;    0.000
237.148;  156.125;    0.000;    0.000
237.218;  163.125;    0.000;    0.000
237.287;  165.125;    0.000;    0.000
237.357;  160.125;    0.000;    0.000
237.427;  170.125;    0.000;    0.000
237.496;  379.125;    0.000;    0.000
237.566;  311.125;    0.000;    0.000
237.636;  330.125;    0.000;    0.000
237.705;  389.125;    0.000;    0.000
237.775;  338.125;    0.000;    0.000
237.845;  355.125;    0.000;    0.000
237.914;  353.125;    0.000;    0.000
237.984;  314.125;    0.000;    0.000
238.054;  338.125;    0.000;    0.000
238.123;  332.125;    0.000;    0.000
238.193;  317.125;    0.000;    0.000
238.263;  356.125;    0.000;    0.000
238.332;  292.125;    0.000;    0.000
238.402;  364.125;    0.000;    0.000
238.471;  335.125;    0.000;    0.000
238.541;  342.125;    0.000;    0.000
238.611;  339.125;    0.000;    0.000
238.680;  333.125;    0.000;    0.000
238.750;  347.125;    0.000;    0.000
238.819;  377.125;    0.000;    0.000
238.889;  290.125;    0.000;    0.000
238.958;  327.125;    0.000;    0.000
239.028;  324.125;    0.000;    0.000
239.097;  325.125;    0.000;    0.000
239.167;  326.125;    0.000;    0.000
239.237;  340.125;    0.000;    0.000
239.306;  347.125;    0.000;    0.000
239.376;  363.125;    0.000;    0.000
239.445;  342.125;    0.000;    0.000
239.515;  334.125;    0.000;    0.000
239.584;  315.125;    0.000;    0.000
239.654;  327.125;    0.000;    0.000
239.723;  341.125;    0.000;    0.000
239.793;  312.125;    0.000;    0.000
239.862;  334.125;    0.000;    0.000
239.932;  327.125;    0.000;    0.000
240.001;  329.125;    0.000;    0.000
240.070;  340.125;    0.000;    0.000
240.140;  329.125;    0.000;    0.000
240.209;  340.125;    0.000;    0.000
240.279;  347.125;    0.000;    0.000
240.348;  376.125;    0.000;    0.000
240.418;  317.125;    0.000;    0.000
240.487;  342.125;    0.000;    0.000
240.556;  379.125;    0.000;    0.000
240.626;  365.125;    0.000;    0.000
240.695;  343.125;    0.000;    0.000
240.765;  358.125;    0.000;    0.000
240.834;  324.125;    0.000;    0.000
240.903;  347.125;    0.000;    0.000
240.973;  328.125;    0.000;    0.000
241.042;  351.125;    0.000;    0.000
241.112;  346.125;    0.000;    0.000
241.181;  351.125;    0.000;    0.000
241.250;  293.125;    0.000;    0.000
241.320;  365.125;    0.000;    0.000
241.389;  339.125;    0.000;    0.000
241.458;  360.125;    0.000;    0.000
241.528;  331.125;    0.000;    0.000
241.597;  348.125;    0.000;    0.000
241.666;  364.125;    0.000;    0.000
241.736;  347.125;    0.000;    0.000
241.805;  325.125;    0.000;    0.000
241.874;  391.125;    0.000;    0.000
241.943;  327.125;    0.000;    0.000
242.013;  399.125;    0.000;    0.000
242.082;  337.125;    0.000;    0.000
242.151;  378.125;    0.000;    0.000
242.221;  307.125;    0.000;    0.000
242.290;  383.125;    0.000;    0.000
242.359;  347.125;    0.000;    0.000
242.428;  334.125;    0.000;    0.000
242.498;  304.125;    0.000;    0.000
242.567;  373.125;    0.000;    0.000
242.636;  331.125;    0.000;    0.000
242.705;  337.125;    0.000;    0.000
242.774;  328.125;    0.000;    0.000
242.844;  321.125;    0.000;    0.000
242.913;  342.125;    0.000;    0.000
242.982;  355.125;    0.000;    0.000
243.051;  312.125;    0.000;    0.000
243.120;  361.125;    0.000;    0.000
243.190;  314.125;    0.000;    0.000
243.259;  306.125;    0.000;    0.000
243.328;  323.125;    0.000;    0.000
243.397;  369.125;    0.000;    0.000
243.466;  338.125;    0.000;    0.000
243.535;  336.125;    0.000;    0.000
243.605;  336.125;    0.000;    0.000
243.674;  363.125;    0.000;    0.000
243.743;  330.125;    0.000;    0.000
243.812;  336.125;    0.000;    0.000
243.881;  339.125;    0.000;    0.000
243.950;  327.125;    0.000;    0.000
244.019;  373.125;    0.000;    0.000
244.088;  332.125;    0.000;    0.000
244.158;  339.125;    0.000;    0.000
244.227;  283.125;    0.000;    0.000
244.296;  307.125;    0.000;    0.000
244.365;  344.125;    0.000;    0.000
244.434;  309.125;    0.000;    0.000
244.503;  369.125;    0.000;    0.000
244.572;  303.125;    0.000;    0.000
244.641;  289.125;    0.000;    0.000
244.710;  351.125;    0.000;    0.000
244.779;  336.125;    0.000;    0.000
244.848;  360.125;    0.000;    0.000
244.917;  337.125;    0.000;    0.000
244.986;  318.125;    0.000;    0.000
245.055;  373.125;    0.000;    0.000
245.124;  335.125;    0.000;    0.000
245.193;  351.125;    0.000;    0.000
245.262;  364.125;    0.000;    0.000
245.331;  326.125;    0.000;    0.000
245.400;  338.125;    0.000;    0.000
245.469;  343.125;    0.000;    0.000
245.538;  367.125;    0.000;    0.000
245.607;  377.125;    0.000;    0.000
245.676;  330.125;    0.000;    0.000
245.745;  372.125;    0.000;    0.000
245.814;  357.125;    0.000;    0.000
245.883;  341.125;    0.000;    0.000
245.952;  340.125;    0.000;    0.000
246.021;  352.125;    0.000;    0.000
246.090;  369.125;    0.000;    0.000
246.159;  350.125;    0.000;    0.000
246.227;  304.125;    0.000;    0.000
246.296;  369.125;    0.000;    0.000
246.365;  339.125;    0.000;    0.000
246.434;  404.125;    0.000;    0.000
246.503;  360.125;    0.000;    0.000
246.572;  419.125;    0.000;    0.000
246.641;  352.125;    0.000;    0.000
246.710;  391.125;    0.000;    0.000
246.779;  399.125;    0.000;    0.000
246.847;  351.125;    0.000;    0.000
246.916;  335.125;    0.000;    0.000
246.985;  377.125;    0.000;    0.000
247.054;  355.125;    0.000;    0.000
247.123;  341.125;    0.000;    0.000
247.192;  379.125;    0.000;    0.000
247.260;  341.125;    0.000;    0.000
247.329;  330.125;    0.000;    0.000
247.398;  369.125;    0.000;    0.000
247.467;  370.125;    0.000;    0.000
247.536;  407.125;    0.000;    0.000
247.604;  398.125;    0.000;    0.000
247.673;  344.125;    0.000;    0.000
247.742;  378.125;    0.000;    0.000
247.811;  426.125;    0.000;    0.000
247.879;  347.125;    0.000;    0.000
247.948;  350.125;    0.000;    0.000
248.017;  383.125;    0.000;    0.000
248.086;  426.125;    0.000;    0.000
248.154;  386.125;    0.000;    0.000
248.223;  409.125;    0.000;    0.000
248.292;  338.125;    0.000;    0.000
248.360;  401.125;    0.000;    0.000
248.429;  382.125;    0.000;    0.000
248.498;  372.125;    0.000;    0.000
248.567;  382.125;    0.000;    0.000
248.635;  400.125;    0.000;    0.000
248.704;  360.125;    0.000;    0.000
248.773;  356.125;    0.000;    0.000
248.841;  365.125;    0.000;    0.000
248.910;  388.125;    0.000;    0.000
248.979;  325.125;    0.000;    0.000
249.047;  347.125;    0.000;    0.000
249.116;  357.125;    0.000;    0.000
249.185;  384.125;    0.000;    0.000
249.253;  335.125;    0.000;    0.000
249.322;  354.125;    0.000;    0.000
249.390;  369.125;    0.000;    0.000
249.459;  358.125;    0.000;    0.000
249.528;  383.125;    0.000;    0.000
249.596;  371.125;    0.000;    0.000
249.665;  294.125;    0.000;    0.000
249.733;  352.125;    0.000;    0.000
249.802;  346.125;    0.000;    0.000
249.871;  337.125;    0.000;    0.000
249.939;  321.125;    0.000;    0.000
250.008;  360.125;    0.000;    0.000
250.076;  305.125;    0.000;    0.000
250.145;  340.125;    0.000;    0.000
250.213;  298.125;    0.000;    0.000
250.282;  344.125;    0.000;    0.000
250.350;  335.125;    0.000;    0.000
250.419;  302.125;    0.000;    0.000
250.487;  351.125;    0.000;    0.000
250.556;  332.125;    0.000;    0.000
250.624;  323.125;    0.000;    0.000
250.693;  291.125;    0.000;    0.000
250.761;  330.125;    0.000;    0.000
250.830;  389.125;    0.000;    0.000
250.898;  259.125;    0.000;    0.000
250.967;  295.125;    0.000;    0.000
251.035;  307.125;    0.000;    0.000
251.104;  328.125;    0.000;    0.000
251.172;  290.125;    0.000;    0.000
251.241;  297.125;    0.000;    0.000
251.309;  335.125;    0.000;    0.000
251.378;  345.125;    0.000;    0.000
251.446;  271.125;    0.000;    0.000
251.514;  320.125;    0.000;    0.000
251.583;  326.125;    0.000;    0.000
251.651;  299.125;    0.000;    0.000
251.720;  284.125;    0.000;    0.000
251.788;  335.125;    0.000;    0.000
251.856;  305.125;    0.000;    0.000
251.925;  286.125;    0.000;    0.000
251.993;  313.125;    0.000;    0.000
252.062;  313.125;    0.000;    0.000
252.130;  303.125;    0.000;    0.000
252.198;  302.125;    0.000;    0.000
252.267;  272.125;    0.000;    0.000
252.335;  308.125;    0.000;    0.000
252.403;  302.125;    0.000;    0.000
252.472;  279.125;    0.000;    0.000
252.540;  328.125;    0.000;    0.000
252.608;  337.125;    0.000;    0.000
252.677;  247.125;    0.000;    0.000
252.745;  308.125;    0.000;    0.000
252.813;  285.125;    0.000;    0.000
252.881;  253.125;    0.000;    0.000
252.950;  288.125;    0.000;    0.000
253.018;  301.125;    0.000;    0.000
253.086;  289.125;    0.000;    0.000
253.155;  250.125;    0.000;    0.000
253.223;  274.125;    0.000;    0.000
253.291;  303.125;    0.000;    0.000
253.359;  312.125;    0.000;    0.000
253.427;  316.125;    0.000;    0.000
253.496;  260.125;    0.000;    0.000
253.564;  242.125;    0.000;    0.000
253.632;  251.125;    0.000;    0.000
253.700;  293.125;    0.000;    0.000
253.769;  275.125;    0.000;    0.000
253.837;  313.125;    0.000;    0.000
253.905;  290.125;    0.000;    0.000
253.973;  301.125;    0.000;    0.000
254.041;  290.125;    0.000;    0.000
254.110;  281.125;    0.000;    0.000
254.178;  218.125;    0.000;    0.000
254.246;  262.125;    0.000;    0.000
254.314;  262.125;    0.000;    0.000
254.382;  264.125;    0.000;    0.000
254.450;  254.125;    0.000;    0.000
254.518;  278.125;    0.000;    0.000
254.587;  246.125;    0.000;    0.000
254.655;  276.125;    0.000;    0.000
254.723;  245.125;    0.000;    0.000
254.791;  288.125;    0.000;    0.000
254.859;  308.125;    0.000;    0.000
254.927;  320.125;    0.000;    0.000
254.995;  265.125;    0.000;    0.000
255.063;  284.125;    0.000;    0.000
255.131;  241.125;    0.000;    0.000
255.199;  283.125;    0.000;    0.000
255.267;  255.125;    0.000;    0.000
255.336;  300.125;    0.000;    0.000
255.404;  245.125;    0.000;    0.000
255.472;  300.125;    0.000;    0.000
255.540;  277.125;    0.000;    0.000
255.608;  285.125;    0.000;    0.000
255.676;  273.125;    0.000;    0.000
255.744;  250.125;    0.000;    0.000
255.812;  257.125;    0.000;    0.000
255.880;  292.125;    0.000;    0.000
255.948;  270.125;    0.000;    0.000
256.016;  310.125;    0.000;    0.000
256.084;  304.125;    0.000;    0.000
256.152;  292.125;    0.000;    0.000
256.220;  249.125;    0.000;    0.000
256.288;  296.125;    0.000;    0.000
256.356;  286.125;    0.000;    0.000
256.424;  243.125;    0.000;    0.000
256.491;  267.125;    0.000;    0.000
256.559;  238.125;    0.000;    0.000
256.627;  271.125;    0.000;    0.000
256.695;  240.125;    0.000;    0.000
256.763;  253.125;    0.000;    0.000
256.831;  275.125;    0.000;    0.000
256.899;  284.125;    0.000;    0.000
256.967;  265.125;    0.000;    0.000
257.035;  255.125;    0.000;    0.000
257.103;  322.125;    0.000;    0.000
257.171;  231.125;    0.000;    0.000
257.238;  249.125;    0.000;    0.000
257.306;  290.125;    0.000;    0.000
257.374;  243.125;    0.000;    0.000
257.442;  290.125;    0.000;    0.000
257.510;  285.125;    0.000;    0.000
257.578;  266.125;    0.000;    0.000
257.646;  236.125;    0.000;    0.000
257.713;  269.125;    0.000;    0.000
257.781;  242.125;    0.000;    0.000
257.849;  284.125;    0.000;    0.000
257.917;  252.125;    0.000;    0.000
257.985;  229.125;    0.000;    0.000
258.052;  258.125;    0.000;    0.000
258.120;  270.125;    0.000;    0.000
258.188;  285.125;    0.000;    0.000
258.256;  273.125;    0.000;    0.000
258.324;  274.125;    0.000;    0.000
258.391;  270.125;    0.000;    0.000
258.459;  282.125;    0.000;    0.000
258.527;  270.125;    0.000;    0.000
258.595;  260.125;    0.000;    0.000
258.662;  216.125;    0.000;    0.000
258.730;  304.125;    0.000;    0.000
258.798;  270.125;    0.000;    0.000
258.865;  306.125;    0.000;    0.000
258.933;  289.125;    0.000;    0.000
259.001;  321.125;    0.000;    0.000
259.069;  271.125;    0.000;    0.000
259.136;  284.125;    0.000;    0.000
259.204;  326.125;    0.000;    0.000
259.272;  334.125;    0.000;    0.000
259.339;  282.125;    0.000;    0.000
259.407;  319.125;    0.000;    0.000
259.475;  301.125;    0.000;    0.000
259.542;  296.125;    0.000;    0.000
259.610;  308.125;    0.000;    0.000
259.677;  334.125;    0.000;    0.000
259.745;  289.125;    0.000;    0.000
259.813;  266.125;    0.000;    0.000
259.880;  317.125;    0.000;    0.000
259.948;  337.125;    0.000;    0.000
260.016;  318.125;    0.000;    0.000
260.083;  352.125;    0.000;    0.000
260.151;  284.125;    0.000;    0.000
260.218;  356.125;    0.000;    0.000
260.286;  320.125;    0.000;    0.000
260.353;  292.125;    0.000;    0.000
260.421;  295.125;    0.000;    0.000
260.489;  345.125;    0.000;    0.000
260.556;  335.125;    0.000;    0.000
260.624;  295.125;    0.000;    0.000
260.691;  321.125;    0.000;    0.000
260.759;  347.125;    0.000;    0.000
260.826;  312.125;    0.000;    0.000
260.894;  307.125;    0.000;    0.000
260.961;  313.125;    0.000;    0.000
261.029;  368.125;    0.000;    0.000
261.096;  337.125;    0.000;    0.000
261.164;  313.125;    0.000;    0.000
261.231;  379.125;    0.000;    0.000
261.299;  376.125;    0.000;    0.000
261.366;  313.125;    0.000;    0.000
261.434;  326.125;    0.000;    0.000
261.501;  322.125;    0.000;    0.000
261.568;  347.125;    0.000;    0.000
261.636;  359.125;    0.000;    0.000
261.703;  384.125;    0.000;    0.000
261.771;  378.125;    0.000;    0.000
261.838;  390.125;    0.000;    0.000
261.906;  369.125;    0.000;    0.000
261.973;  387.125;    0.000;    0.000
262.040;  441.125;    0.000;    0.000
262.108;  354.125;    0.000;    0.000
262.175;  314.125;    0.000;    0.000
262.243;  362.125;    0.000;    0.000
262.310;  345.125;    0.000;    0.000
262.377;  388.125;    0.000;    0.000
262.445;  448.125;    0.000;    0.000
262.512;  362.125;    0.000;    0.000
262.579;  396.125;    0.000;    0.000
262.647;  398.125;    0.000;    0.000
262.714;  393.125;    0.000;    0.000
262.781;  423.125;    0.000;    0.000
262.849;  390.125;    0.000;    0.000
262.916;  443.125;    0.000;    0.000
262.983;  452.125;    0.000;    0.000
263.051;  364.125;    0.000;    0.000
263.118;  371.125;    0.000;    0.000
263.185;  400.125;    0.000;    0.000
263.252;  411.125;    0.000;    0.000
263.320;  411.125;    0.000;    0.000
263.387;  403.125;    0.000;    0.000
263.454;  427.125;    0.000;    0.000
263.522;  369.125;    0.000;    0.000
263.589;  461.125;    0.000;    0.000
263.656;  383.125;    0.000;    0.000
263.723;  401.125;    0.000;    0.000
263.790;  409.125;    0.000;    0.000
263.858;  456.125;    0.000;    0.000
263.925;  444.125;    0.000;    0.000
263.992;  373.125;    0.000;    0.000
264.059;  454.125;    0.000;    0.000
264.126;  444.125;    0.000;    0.000
264.194;  441.125;    0.000;    0.000
264.261;  473.125;    0.000;    0.000
264.328;  434.125;    0.000;    0.000
264.395;  456.125;    0.000;    0.000
264.462;  465.125;    0.000;    0.000
264.529;  436.125;    0.000;    0.000
264.597;  438.125;    0.000;    0.000
264.664;  478.125;    0.000;    0.000
264.731;  497.125;    0.000;    0.000
264.798;  442.125;    0.000;    0.000
264.865;  473.125;    0.000;    0.000
264.932;  406.125;    0.000;    0.000
264.999;  408.125;    0.000;    0.000
265.066;  456.125;    0.000;    0.000
265.133;  442.125;    0.000;    0.000
265.201;  518.125;    0.000;    0.000
265.268;  474.125;    0.000;    0.000
265.335;  477.125;    0.000;    0.000
265.402;  503.125;    0.000;    0.000
265.469;  466.125;    0.000;    0.000
265.536;  496.125;    0.000;    0.000
265.603;  502.125;    0.000;    0.000
265.670;  454.125;    0.000;    0.000
265.737;  489.125;    0.000;    0.000
265.804;  548.125;    0.000;    0.000
265.871;  527.125;    0.000;    0.000
265.938;  514.125;    0.000;    0.000
266.005;  512.125;    0.000;    0.000
266.072;  452.125;    0.000;    0.000
266.139;  537.125;    0.000;    0.000
266.206;  499.125;    0.000;    0.000
266.273;  510.125;    0.000;    0.000
266.340;  493.125;    0.000;    0.000
266.407;  481.125;    0.000;    0.000
266.474;  532.125;    0.000;    0.000
266.541;  511.125;    0.000;    0.000
266.608;  506.125;    0.000;    0.000
266.675;  564.125;    0.000;    0.000
266.742;  504.125;    0.000;    0.000
266.808;  493.125;    0.000;    0.000
266.875;  471.125;    0.000;    0.000
266.942;  570.125;    0.000;    0.000
267.009;  543.125;    0.000;    0.000
267.076;  487.125;    0.000;    0.000
267.143;  578.125;    0.000;    0.000
267.210;  515.125;    0.000;    0.000
267.277;  520.125;    0.000;    0.000
267.344;  515.125;    0.000;    0.000
267.410;  541.125;    0.000;    0.000
267.477;  570.125;    0.000;    0.000
267.544;  529.125;    0.000;    0.000
267.611;  537.125;    0.000;    0.000
267.678;  561.125;    0.000;    0.000
267.745;  612.125;    0.000;    0.000
267.811;  566.125;    0.000;    0.000
267.878;  556.125;    0.000;    0.000
267.945;  516.125;    0.000;    0.000
268.012;  556.125;    0.000;    0.000
268.079;  565.125;    0.000;    0.000
268.145;  546.125;    0.000;    0.000
268.212;  565.125;    0.000;    0.000
268.279;  537.125;    0.000;    0.000
268.346;  517.125;    0.000;    0.000
268.412;  564.125;    0.000;    0.000
268.479;  572.125;    0.000;    0.000
268.546;  554.125;    0.000;    0.000
268.613;  566.125;    0.000;    0.000
268.679;  554.125;    0.000;    0.000
268.746;  577.125;    0.000;    0.000
268.813;  547.125;    0.000;    0.000
268.879;  488.125;    0.000;    0.000
268.946;  528.125;    0.000;    0.000
269.013;  608.125;    0.000;    0.000
269.079;  542.125;    0.000;    0.000
269.146;  533.125;    0.000;    0.000
269.213;  583.125;    0.000;    0.000
269.279;  569.125;    0.000;    0.000
269.346;  579.125;    0.000;    0.000
269.413;  590.125;    0.000;    0.000
269.479;  548.125;    0.000;    0.000
269.546;  591.125;    0.000;    0.000
269.613;  532.125;    0.000;    0.000
269.679;  591.125;    0.000;    0.000
269.746;  602.125;    0.000;    0.000
269.813;  541.125;    0.000;    0.000
269.879;  559.125;    0.000;    0.000
269.946;  539.125;    0.000;    0.000
270.012;  541.125;    0.000;    0.000
270.079;  528.125;    0.000;    0.000
270.145;  572.125;    0.000;    0.000
270.212;  541.125;    0.000;    0.000
270.279;  643.125;    0.000;    0.000
270.345;  580.125;    0.000;    0.000
270.412;  567.125;    0.000;    0.000
270.478;  549.125;    0.000;    0.000
270.545;  552.125;    0.000;    0.000
270.611;  551.125;    0.000;    0.000
270.678;  513.125;    0.000;    0.000
270.744;  545.125;    0.000;    0.000
270.811;  584.125;    0.000;    0.000
270.877;  587.125;    0.000;    0.000
270.944;  543.125;    0.000;    0.000
271.010;  522.125;    0.000;    0.000
271.077;  528.125;    0.000;    0.000
271.143;  573.125;    0.000;    0.000
271.210;  535.125;    0.000;    0.000
271.276;  523.125;    0.000;    0.000
271.343;  546.125;    0.000;    0.000
271.409;  563.125;    0.000;    0.000
271.475;  550.125;    0.000;    0.000
271.542;  541.125;    0.000;    0.000
271.608;  545.125;    0.000;    0.000
271.675;  550.125;    0.000;    0.000
271.741;  565.125;    0.000;    0.000
271.807;  566.125;    0.000;    0.000
271.874;  600.125;    0.000;    0.000
271.940;  556.125;    0.000;    0.000
272.007;  582.125;    0.000;    0.000
272.073;  562.125;    0.000;    0.000
272.139;  606.125;    0.000;    0.000
272.206;  587.125;    0.000;    0.000
272.272;  617.125;    0.000;    0.000
272.338;  604.125;    0.000;    0.000
272.405;  584.125;    0.000;    0.000
272.471;  596.125;    0.000;    0.000
272.537;  573.125;    0.000;    0.000
272.604;  608.125;    0.000;    0.000
272.670;  591.125;    0.000;    0.000
272.736;  561.125;    0.000;    0.000
272.803;  673.125;    0.000;    0.000
272.869;  566.125;    0.000;    0.000
272.935;  595.125;    0.000;    0.000
273.001;  573.125;    0.000;    0.000
273.068;  572.125;    0.000;    0.000
273.134;  614.125;    0.000;    0.000
273.200;  634.125;    0.000;    0.000
273.266;  629.125;    0.000;    0.000
273.333;  612.125;    0.000;    0.000
273.399;  587.125;    0.000;    0.000
273.465;  630.125;    0.000;    0.000
273.531;  556.125;    0.000;    0.000
273.597;  656.125;    0.000;    0.000
273.664;  635.125;    0.000;    0.000
273.730;  629.125;    0.000;    0.000
273.796;  612.125;    0.000;    0.000
273.862;  541.125;    0.000;    0.000
273.928;  583.125;    0.000;    0.000
273.994;  623.125;    0.000;    0.000
274.061;  614.125;    0.000;    0.000
274.127;  645.125;    0.000;    0.000
274.193;  586.125;    0.000;    0.000
274.259;  679.125;    0.000;    0.000
274.325;  631.125;    0.000;    0.000
274.391;  568.125;    0.000;    0.000
274.457;  666.125;    0.000;    0.000
274.524;  636.125;    0.000;    0.000
274.590;  615.125;    0.000;    0.000
274.656;  669.125;    0.000;    0.000
274.722;  651.125;    0.000;    0.000
274.788;  644.125;    0.000;    0.000
274.854;  679.125;    0.000;    0.000
274.920;  637.125;    0.000;    0.000
274.986;  678.125;    0.000;    0.000
275.052;  613.125;    0.000;    0.000
275.118;  655.125;    0.000;    0.000
275.184;  707.125;    0.000;    0.000
275.250;  686.125;    0.000;    0.000
275.316;  696.125;    0.000;    0.000
275.382;  624.125;    0.000;    0.000
275.448;  685.125;    0.000;    0.000
275.514;  649.125;    0.000;    0.000
275.580;  668.125;    0.000;    0.000
275.646;  671.125;    0.000;    0.000
275.712;  651.125;    0.000;    0.000
275.778;  692.125;    0.000;    0.000
275.844;  728.125;    0.000;    0.000
275.910;  747.125;    0.000;    0.000
275.976;  725.125;    0.000;    0.000
276.042;  769.125;    0.000;    0.000
276.108;  729.125;    0.000;    0.000
276.174;  753.125;    0.000;    0.000
276.240;  769.125;    0.000;    0.000
276.306;  740.125;    0.000;    0.000
276.372;  716.125;    0.000;    0.000
276.437;  772.125;    0.000;    0.000
276.503;  812.125;    0.000;    0.000
276.569;  816.125;    0.000;    0.000
276.635;  771.125;    0.000;    0.000
276.701;  805.125;    0.000;    0.000
276.767;  789.125;    0.000;    0.000
276.833;  861.125;    0.000;    0.000
276.899;  857.125;    0.000;    0.000
276.964;  891.125;    0.000;    0.000
277.030;  890.125;    0.000;    0.000
277.096;  908.125;    0.000;    0.000
277.162;  924.125;    0.000;    0.000
277.228;  930.125;    0.000;    0.000
277.293;  957.125;    0.000;    0.000
277.359;  990.125;    0.000;    0.000
277.425; 1059.125;    0.000;    0.000
277.491; 1055.125;    0.000;    0.000
277.557; 1192.125;    0.000;    0.000
277.622; 1426.125;    0.000;    0.000
277.688; 1662.125;    0.000;    0.000
277.754; 1535.125;    0.000;    0.000
277.820; 1647.125;    0.000;    0.000
277.885; 1783.125;    0.000;    0.000
277.951; 2118.125;    0.000;    0.000
278.017; 2054.125;    0.000;    0.000
278.083; 1817.125;    0.000;    0.000
278.148; 1819.125;    0.000;    0.000
278.214; 1703.125;    0.000;    0.000
278.280; 1828.125;    0.000;    0.000
278.345; 1766.125;    0.000;    0.000
278.411; 1640.125;    0.000;    0.000
278.477; 1633.125;    0.000;    0.000
278.542; 1727.125;    0.000;    0.000
278.608; 1753.125;    0.000;    0.000
278.674; 1898.125;    0.000;    0.000
278.739; 2035.125;    0.000;    0.000
278.805; 2224.125;    0.000;    0.000
278.871; 2467.125;    0.000;    0.000
278.936; 2748.125;    0.000;    0.000
279.002; 3368.125;    0.000;    0.000
279.067; 4339.125;    0.000;    0.000
279.133; 4779.125;    0.000;    0.000
279.199; 4401.125;    0.000;    0.000
279.264; 4547.125;    0.000;    0.000
279.330; 5039.125;    0.000;    0.000
279.395; 5747.125;    0.000;    0.000
279.461; 6407.125;    0.000;    0.000
279.527; 6616.125;    0.000;    0.000
279.592; 6595.125;    0.000;    0.000
279.658; 6799.125;    0.000;    0.000
279.723; 6623.125;    0.000;    0.000
279.789; 6519.125;    0.000;    0.000
279.854; 6461.125;    0.000;    0.000
279.920; 5655.125;    0.000;    0.000
279.985; 5243.125;    0.000;    0.000
280.051; 5211.125;    0.000;    0.000
280.116; 5649.125;    0.000;    0.000
280.182; 6414.125;    0.000;    0.000
280.247; 6567.125;    0.000;    0.000
280.313; 6535.125;    0.000;    0.000
280.378; 6029.125;    0.000;    0.000
280.444; 4950.125;    0.000;    0.000
280.509; 4158.125;    0.000;    0.000
280.574; 3585.125;    0.000;    0.000
280.640; 3187.125;    0.000;    0.000
280.705; 2890.125;    0.000;    0.000
280.771; 2742.125;    0.000;    0.000
280.836; 2532.125;    0.000;    0.000
280.902; 2370.125;    0.000;    0.000
280.967; 2169.125;    0.000;    0.000
281.032; 2138.125;    0.000;    0.000
281.098; 2054.125;    0.000;    0.000
281.163; 1893.125;    0.000;    0.000
281.229; 1858.125;    0.000;    0.000
281.294; 1812.125;    0.000;    0.000
281.359; 1678.125;    0.000;    0.000
281.425; 1746.125;    0.000;    0.000
281.490; 1556.125;    0.000;    0.000
281.555; 1576.125;    0.000;    0.000
281.621; 1479.125;    0.000;    0.000
281.686; 1518.125;    0.000;    0.000
281.751; 1552.125;    0.000;    0.000
281.817; 1473.125;    0.000;    0.000
281.882; 1403.125;    0.000;    0.000
281.947; 1491.125;    0.000;    0.000
282.012; 1350.125;    0.000;    0.000
282.078; 1343.125;    0.000;    0.000
282.143; 1362.125;    0.000;    0.000
282.208; 1285.125;    0.000;    0.000
282.273; 1165.125;    0.000;    0.000
282.339; 1266.125;    0.000;    0.000
282.404; 1217.125;    0.000;    0.000
282.469; 1304.125;    0.000;    0.000
282.534; 1218.125;    0.000;    0.000
282.600; 1222.125;    0.000;    0.000
282.665; 1126.125;    0.000;    0.000
282.730; 1132.125;    0.000;    0.000
282.795; 1121.125;    0.000;    0.000
282.860; 1154.125;    0.000;    0.000
282.926; 1074.125;    0.000;    0.000
282.991; 1092.125;    0.000;    0.000
283.056; 1123.125;    0.000;    0.000
283.121; 1044.125;    0.000;    0.000
283.186; 1070.125;    0.000;    0.000
283.251; 1064.125;    0.000;    0.000
283.316; 1103.125;    0.000;    0.000
283.382; 1037.125;    0.000;    0.000
283.447; 1041.125;    0.000;    0.000
283.512; 1034.125;    0.000;    0.000
283.577; 1051.125;    0.000;    0.000
283.642; 1033.125;    0.000;    0.000
283.707;  976.125;    0.000;    0.000
283.772;  986.125;    0.000;    0.000
283.837;  978.125;    0.000;    0.000
283.902;  959.125;    0.000;    0.000
283.967;  958.125;    0.000;    0.000
284.032;  961.125;    0.000;    0.000
284.097;  988.125;    0.000;    0.000
284.163;  916.125;    0.000;    0.000
284.228;  929.125;    0.000;    0.000
284.293;  966.125;    0.000;    0.000
284.358;  972.125;    0.000;    0.000
284.423; 1027.125;    0.000;    0.000
284.488; 1043.125;    0.000;    0.000
284.553; 1048.125;    0.000;    0.000
284.618; 1044.125;    0.000;    0.000
284.683; 1037.125;    0.000;    0.000
284.748; 1153.125;    0.000;    0.000
284.812; 1185.125;    0.000;    0.000
284.877; 1215.125;    0.000;    0.000
284.942; 1367.125;    0.000;    0.000
285.007; 1688.125;    0.000;    0.000
285.072; 1926.125;    0.000;    0.000
285.137; 2324.125;    0.000;    0.000
285.202; 2719.125;    0.000;    0.000
285.267; 3269.125;    0.000;    0.000
285.332; 2845.125;    0.000;    0.000
285.397; 2206.125;    0.000;    0.000
285.462; 1797.125;    0.000;    0.000
285.527; 1641.125;    0.000;    0.000
285.591; 1472.125;    0.000;    0.000
285.656; 1346.125;    0.000;    0.000
285.721; 1220.125;    0.000;    0.000
285.786; 1182.125;    0.000;    0.000
285.851; 1120.125;    0.000;    0.000
285.916; 1119.125;    0.000;    0.000
285.981; 1002.125;    0.000;    0.000
286.045; 1021.125;    0.000;    0.000
286.110; 1012.125;    0.000;    0.000
286.175; 1047.125;    0.000;    0.000
286.240; 1003.125;    0.000;    0.000
286.305; 1008.125;    0.000;    0.000
286.369; 1000.125;    0.000;    0.000
286.434; 1059.125;    0.000;    0.000
286.499;  995.125;    0.000;    0.000
286.564;  953.125;    0.000;    0.000
286.628;  921.125;    0.000;    0.000
286.693;  925.125;    0.000;    0.000
286.758;  923.125;    0.000;    0.000
286.823;  959.125;    0.000;    0.000
286.887;  930.125;    0.000;    0.000
286.952;  962.125;    0.000;    0.000
287.017;  932.125;    0.000;    0.000
287.082;  873.125;    0.000;    0.000
287.146;  875.125;    0.000;    0.000
287.211;  888.125;    0.000;    0.000
287.276;  920.125;    0.000;    0.000
287.340;  913.125;    0.000;    0.000
287.405;  886.125;    0.000;    0.000
287.470;  867.125;    0.000;    0.000
287.534;  861.125;    0.000;    0.000
287.599;  839.125;    0.000;    0.000
287.663;  892.125;    0.000;    0.000
287.728;  906.125;    0.000;    0.000
287.793;  869.125;    0.000;    0.000
287.857;  906.125;    0.000;    0.000
287.922;  889.125;    0.000;    0.000
287.987;  931.125;    0.000;    0.000
288.051;  900.125;    0.000;    0.000
288.116;  908.125;    0.000;    0.000
288.180;  892.125;    0.000;    0.000
288.245;  916.125;    0.000;    0.000
288.309;  913.125;    0.000;    0.000
288.374;  899.125;    0.000;    0.000
288.439;  897.125;    0.000;    0.000
288.503;  793.125;    0.000;    0.000
288.568;  911.125;    0.000;    0.000
288.632;  902.125;    0.000;    0.000
288.697;  887.125;    0.000;    0.000
288.761;  908.125;    0.000;    0.000
288.826;  836.125;    0.000;    0.000
288.890;  905.125;    0.000;    0.000
288.955;  902.125;    0.000;    0.000
289.019;  887.125;    0.000;    0.000
289.084;  913.125;    0.000;    0.000
289.148;  917.125;    0.000;    0.000
289.212;  952.125;    0.000;    0.000
289.277;  880.125;    0.000;    0.000
289.341;  933.125;    0.000;    0.000
289.406;  880.125;    0.000;    0.000
289.470;  872.125;    0.000;    0.000
289.535;  907.125;    0.000;    0.000
289.599;  861.125;    0.000;    0.000
289.663;  854.125;    0.000;    0.000
289.728;  875.125;    0.000;    0.000
289.792;  925.125;    0.000;    0.000
289.857;  919.125;    0.000;    0.000
289.921;  910.125;    0.000;    0.000
289.985;  846.125;    0.000;    0.000
290.050;  913.125;    0.000;    0.000
290.114;  856.125;    0.000;    0.000
290.178;  937.125;    0.000;    0.000
290.243;  816.125;    0.000;    0.000
290.307;  944.125;    0.000;    0.000
290.371;  936.125;    0.000;    0.000
290.436;  885.125;    0.000;    0.000
290.500;  850.125;    0.000;    0.000
290.564;  921.125;    0.000;    0.000
290.629;  845.125;    0.000;    0.000
290.693;  919.125;    0.000;    0.000
290.757;  902.125;    0.000;    0.000
290.821;  938.125;    0.000;    0.000
290.886;  942.125;    0.000;    0.000
290.950;  916.125;    0.000;    0.000
291.014;  903.125;    0.000;    0.000
291.078;  904.125;    0.000;    0.000
291.143;  898.125;    0.000;    0.000
291.207;  982.125;    0.000;    0.000
291.271;  963.125;    0.000;    0.000
291.335;  991.125;    0.000;    0.000
291.399;  977.125;    0.000;    0.000
291.464;  972.125;    0.000;    0.000
291.528; 1056.125;    0.000;    0.000
291.592;  977.125;    0.000;    0.000
291.656; 1071.125;    0.000;    0.000
291.720; 1014.125;    0.000;    0.000
291.784; 1031.125;    0.000;    0.000
291.849; 1015.125;    0.000;    0.000
291.913;  996.125;    0.000;    0.000
291.977; 1027.125;    0.000;    0.000
292.041;  978.125;    0.000;    0.000
292.105; 1087.125;    0.000;    0.000
292.169; 1001.125;    0.000;    0.000
292.233; 1069.125;    0.000;    0.000
292.297; 1023.125;    0.000;    0.000
292.361; 1008.125;    0.000;    0.000
292.425; 1131.125;    0.000;    0.000
292.490; 1096.125;    0.000;    0.000
292.554; 1088.125;    0.000;    0.000
292.618; 1091.125;    0.000;    0.000
292.682; 1205.125;    0.000;    0.000
292.746; 1283.125;    0.000;    0.000
292.810; 1413.125;    0.000;    0.000
292.874; 1709.125;    0.000;    0.000
292.938; 1881.125;    0.000;    0.000
293.002; 1670.125;    0.000;    0.000
293.066; 1653.125;    0.000;    0.000
293.130; 1524.125;    0.000;    0.000
293.194; 1572.125;    0.000;    0.000
293.258; 1518.125;    0.000;    0.000
293.322; 1496.125;    0.000;    0.000
293.386; 1518.125;    0.000;    0.000
293.450; 1495.125;    0.000;    0.000
293.514; 1593.125;    0.000;    0.000
293.577; 1900.125;    0.000;    0.000
293.641; 2337.125;    0.000;    0.000
293.705; 2586.125;    0.000;    0.000
293.769; 2499.125;    0.000;    0.000
293.833; 2340.125;    0.000;    0.000
293.897; 2161.125;    0.000;    0.000
293.961; 1982.125;    0.000;    0.000
294.025; 1862.125;    0.000;    0.000
294.089; 1879.125;    0.000;    0.000
294.153; 1733.125;    0.000;    0.000
294.216; 1652.125;    0.000;    0.000
294.280; 1610.125;    0.000;    0.000
294.344; 1568.125;    0.000;    0.000
294.408; 1505.125;    0.000;    0.000
294.472; 1462.125;    0.000;    0.000
294.536; 1459.125;    0.000;    0.000
294.599; 1408.125;    0.000;    0.000
294.663; 1341.125;    0.000;    0.000
294.727; 1370.125;    0.000;    0.000
294.791; 1276.125;    0.000;    0.000
294.855; 1307.125;    0.000;    0.000
294.918; 1303.125;    0.000;    0.000
294.982; 1248.125;    0.000;    0.000
295.046; 1288.125;    0.000;    0.000
295.110; 1269.125;    0.000;    0.000
295.173; 1157.125;    0.000;    0.000
295.237; 1219.125;    0.000;    0.000
295.301; 1177.125;    0.000;    0.000
295.364; 1223.125;    0.000;    0.000
295.428; 1156.125;    0.000;    0.000
295.492; 1208.125;    0.000;    0.000
295.556; 1233.125;    0.000;    0.000
295.619; 1168.125;    0.000;    0.000
295.683; 1171.125;    0.000;    0.000
295.747; 1171.125;    0.000;    0.000
295.810; 1131.125;    0.000;    0.000
295.874; 1190.125;    0.000;    0.000
295.938; 1121.125;    0.000;    0.000
296.001; 1107.125;    0.000;    0.000
296.065; 1149.125;    0.000;    0.000
296.128; 1147.125;    0.000;    0.000
296.192; 1106.125;    0.000;    0.000
296.256; 1096.125;    0.000;    0.000
296.319; 1107.125;    0.000;    0.000
296.383; 1174.125;    0.000;    0.000
296.446; 1129.125;    0.000;    0.000
296.510; 1116.125;    0.000;    0.000
296.574; 1107.125;    0.000;    0.000
296.637; 1145.125;    0.000;    0.000
296.701; 1158.125;    0.000;    0.000
296.764; 1132.125;    0.000;    0.000
296.828; 1149.125;    0.000;    0.000
296.891; 1107.125;    0.000;    0.000
296.955; 1080.125;    0.000;    0.000
297.018; 1114.125;    0.000;    0.000
297.082; 1069.125;    0.000;    0.000
297.145; 1088.125;    0.000;    0.000
297.209; 1137.125;    0.000;    0.000
297.272; 1103.125;    0.000;    0.000
297.336; 1072.125;    0.000;    0.000
297.399; 1118.125;    0.000;    0.000
297.463; 1061.125;    0.000;    0.000
297.526; 1092.125;    0.000;    0.000
297.590; 1111.125;    0.000;    0.000
297.653; 1087.125;    0.000;    0.000
297.717; 1082.125;    0.000;    0.000
297.780; 1070.125;    0.000;    0.000
297.843; 1151.125;    0.000;    0.000
297.907; 1029.125;    0.000;    0.000
297.970; 1091.125;    0.000;    0.000
298.034; 1062.125;    0.000;    0.000
298.097; 1088.125;    0.000;    0.000
298.160; 1017.125;    0.000;    0.000
298.224; 1034.125;    0.000;    0.000
298.287; 1047.125;    0.000;    0.000
298.350; 1094.125;    0.000;    0.000
298.414; 1129.125;    0.000;    0.000
298.477; 1040.125;    0.000;    0.000
298.540; 1118.125;    0.000;    0.000
298.604; 1061.125;    0.000;    0.000
298.667; 1084.125;    0.000;    0.000
298.730; 1094.125;    0.000;    0.000
298.794; 1073.125;    0.000;    0.000
298.857; 1100.125;    0.000;    0.000
298.920; 1018.125;    0.000;    0.000
298.984; 1071.125;    0.000;    0.000
299.047; 1088.125;    0.000;    0.000
299.110; 1120.125;    0.000;    0.000
299.173; 1087.125;    0.000;    0.000
299.237; 1086.125;    0.000;    0.000
299.300; 1053.125;    0.000;    0.000
299.363; 1071.125;    0.000;    0.000
299.426;  999.125;    0.000;    0.000
299.489; 1019.125;    0.000;    0.000
299.553; 1048.125;    0.000;    0.000
299.616; 1070.125;    0.000;    0.000
299.679; 1045.125;    0.000;    0.000
299.742;  993.125;    0.000;    0.000
299.805; 1025.125;    0.000;    0.000
299.868; 1061.125;    0.000;    0.000
299.932; 1026.125;    0.000;    0.000
299.995; 1030.125;    0.000;    0.000
300.058; 1026.125;    0.000;    0.000
300.121; 1006.125;    0.000;    0.000
300.184; 1042.125;    0.000;    0.000
300.247; 1054.125;    0.000;    0.000
300.310; 1026.125;    0.000;    0.000
300.374; 1020.125;    0.000;    0.000
300.437; 1010.125;    0.000;    0.000
300.500; 1072.125;    0.000;    0.000
300.563; 1094.125;    0.000;    0.000
300.626; 1056.125;    0.000;    0.000
300.689; 1043.125;    0.000;    0.000
300.752; 1030.125;    0.000;    0.000
300.815;  999.125;    0.000;    0.000
300.878; 1072.125;    0.000;    0.000
300.941; 1033.125;    0.000;    0.000
301.004; 1003.125;    0.000;    0.000
301.067;  992.125;    0.000;    0.000
301.130; 1031.125;    0.000;    0.000
301.193; 1025.125;    0.000;    0.000
301.256;  990.125;    0.000;    0.000
301.319; 1025.125;    0.000;    0.000
301.382; 1029.125;    0.000;    0.000
301.445; 1061.125;    0.000;    0.000
301.508;  998.125;    0.000;    0.000
301.571;  994.125;    0.000;    0.000
301.634; 1050.125;    0.000;    0.000
301.697;  986.125;    0.000;    0.000
301.760; 1012.125;    0.000;    0.000
301.823; 1038.125;    0.000;    0.000
301.885; 1020.125;    0.000;    0.000
301.948; 1080.125;    0.000;    0.000
302.011; 1040.125;    0.000;    0.000
302.074; 1057.125;    0.000;    0.000
302.137; 1038.125;    0.000;    0.000
302.200; 1053.125;    0.000;    0.000
302.263; 1033.125;    0.000;    0.000
302.326; 1005.125;    0.000;    0.000
302.388; 1094.125;    0.000;    0.000
302.451; 1022.125;    0.000;    0.000
302.514; 1064.125;    0.000;    0.000
302.577; 1064.125;    0.000;    0.000
302.640; 1052.125;    0.000;    0.000
302.703; 1088.125;    0.000;    0.000
302.765; 1046.125;    0.000;    0.000
302.828; 1061.125;    0.000;    0.000
302.891; 1081.125;    0.000;    0.000
302.954; 1053.125;    0.000;    0.000
303.016; 1113.125;    0.000;    0.000
303.079; 1106.125;    0.000;    0.000
303.142; 1072.125;    0.000;    0.000
303.205; 1118.125;    0.000;    0.000
303.267; 1048.125;    0.000;    0.000
303.330; 1122.125;    0.000;    0.000
303.393; 1060.125;    0.000;    0.000
303.456; 1075.125;    0.000;    0.000
303.518; 1072.125;    0.000;    0.000
303.581; 1107.125;    0.000;    0.000
303.644; 1102.125;    0.000;    0.000
303.706; 1061.125;    0.000;    0.000
303.769; 1173.125;    0.000;    0.000
303.832; 1113.125;    0.000;    0.000
303.894; 1143.125;    0.000;    0.000
303.957; 1088.125;    0.000;    0.000
304.020; 1136.125;    0.000;    0.000
304.082; 1134.125;    0.000;    0.000
304.145; 1124.125;    0.000;    0.000
304.207; 1095.125;    0.000;    0.000
304.270; 1039.125;    0.000;    0.000
304.333; 1137.125;    0.000;    0.000
304.395; 1194.125;    0.000;    0.000
304.458; 1149.125;    0.000;    0.000
304.520; 1191.125;    0.000;    0.000
304.583; 1193.125;    0.000;    0.000
304.646; 1100.125;    0.000;    0.000
304.708; 1168.125;    0.000;    0.000
304.771; 1112.125;    0.000;    0.000
304.833; 1177.125;    0.000;    0.000
304.896; 1200.125;    0.000;    0.000
304.958; 1157.125;    0.000;    0.000
305.021; 1179.125;    0.000;    0.000
305.083; 1227.125;    0.000;    0.000
305.146; 1244.125;    0.000;    0.000
305.208; 1241.125;    0.000;    0.000
305.271; 1200.125;    0.000;    0.000
305.333; 1211.125;    0.000;    0.000
305.396; 1219.125;    0.000;    0.000
305.458; 1263.125;    0.000;    0.000
305.520; 1166.125;    0.000;    0.000
305.583; 1253.125;    0.000;    0.000
305.645; 1279.125;    0.000;    0.000
305.708; 1227.125;    0.000;    0.000
305.770; 1227.125;    0.000;    0.000
305.833; 1184.125;    0.000;    0.000
305.895; 1128.125;    0.000;    0.000
305.957; 1193.125;    0.000;    0.000
306.020; 1203.125;    0.000;    0.000
306.082; 1197.125;    0.000;    0.000
306.144; 1235.125;    0.000;    0.000
306.207; 1231.125;    0.000;    0.000
306.269; 1206.125;    0.000;    0.000
306.331; 1227.125;    0.000;    0.000
306.394; 1196.125;    0.000;    0.000
306.456; 1189.125;    0.000;    0.000
306.518; 1279.125;    0.000;    0.000
306.581; 1220.125;    0.000;    0.000
306.643; 1253.125;    0.000;    0.000
306.705; 1261.125;    0.000;    0.000
306.768; 1244.125;    0.000;    0.000
306.830; 1333.125;    0.000;    0.000
306.892; 1359.125;    0.000;    0.000
306.954; 1304.125;    0.000;    0.000
307.017; 1286.125;    0.000;    0.000
307.079; 1283.125;    0.000;    0.000
307.141; 1292.125;    0.000;    0.000
307.203; 1253.125;    0.000;    0.000
307.266; 1329.125;    0.000;    0.000
307.328; 1396.125;    0.000;    0.000
307.390; 1285.125;    0.000;    0.000
307.452; 1299.125;    0.000;    0.000
307.514; 1328.125;    0.000;    0.000
307.577; 1362.125;    0.000;    0.000
307.639; 1393.125;    0.000;    0.000
307.701; 1322.125;    0.000;    0.000
307.763; 1357.125;    0.000;    0.000
307.825; 1465.125;    0.000;    0.000
307.887; 1398.125;    0.000;    0.000
307.949; 1342.125;    0.000;    0.000
308.011; 1282.125;    0.000;    0.000
308.074; 1376.125;    0.000;    0.000
308.136; 1378.125;    0.000;    0.000
308.198; 1338.125;    0.000;    0.000
308.260; 1376.125;    0.000;    0.000
308.322; 1414.125;    0.000;    0.000
308.384; 1389.125;    0.000;    0.000
308.446; 1394.125;    0.000;    0.000
308.508; 1446.125;    0.000;    0.000
308.570; 1397.125;    0.000;    0.000
308.632; 1444.125;    0.000;    0.000
308.694; 1406.125;    0.000;    0.000
308.756; 1394.125;    0.000;    0.000
308.818; 1488.125;    0.000;    0.000
308.880; 1482.125;    0.000;    0.000
308.942; 1465.125;    0.000;    0.000
309.004; 1540.125;    0.000;    0.000
309.066; 1428.125;    0.000;    0.000
309.128; 1533.125;    0.000;    0.000
309.190; 1534.125;    0.000;    0.000
309.252; 1598.125;    0.000;    0.000
309.314; 1597.125;    0.000;    0.000
309.376; 1601.125;    0.000;    0.000
309.438; 1564.125;    0.000;    0.000
309.500; 1566.125;    0.000;    0.000
309.562; 1614.125;    0.000;    0.000
309.624; 1638.125;    0.000;    0.000
309.686; 1642.125;    0.000;    0.000
309.747; 1709.125;    0.000;    0.000
309.809; 1672.125;    0.000;    0.000
309.871; 1578.125;    0.000;    0.000
309.933; 1526.125;    0.000;    0.000
309.995; 1584.125;    0.000;    0.000
310.057; 1498.125;    0.000;    0.000
310.119; 1561.125;    0.000;    0.000
310.180; 1546.125;    0.000;    0.000
310.242; 1502.125;    0.000;    0.000
310.304; 1597.125;    0.000;    0.000
310.366; 1554.125;    0.000;    0.000
310.428; 1500.125;    0.000;    0.000
310.489; 1498.125;    0.000;    0.000
310.551; 1500.125;    0.000;    0.000
310.613; 1496.125;    0.000;    0.000
310.675; 1506.125;    0.000;    0.000
310.737; 1541.125;    0.000;    0.000
310.798; 1520.125;    0.000;    0.000
310.860; 1481.125;    0.000;    0.000
310.922; 1493.125;    0.000;    0.000
310.983; 1536.125;    0.000;    0.000
311.045; 1498.125;    0.000;    0.000
311.107; 1461.125;    0.000;    0.000
311.169; 1436.125;    0.000;    0.000
311.230; 1486.125;    0.000;    0.000
311.292; 1501.125;    0.000;    0.000
311.354; 1458.125;    0.000;    0.000
311.415; 1514.125;    0.000;    0.000
311.477; 1569.125;    0.000;    0.000
311.539; 1464.125;    0.000;    0.000
311.600; 1510.125;    0.000;    0.000
311.662; 1502.125;    0.000;    0.000
311.724; 1490.125;    0.000;    0.000
311.785; 1500.125;    0.000;    0.000
311.847; 1465.125;    0.000;    0.000
311.908; 1496.125;    0.000;    0.000
311.970; 1474.125;    0.000;    0.000
312.032; 1486.125;    0.000;    0.000
312.093; 1483.125;    0.000;    0.000
312.155; 1530.125;    0.000;    0.000
312.216; 1561.125;    0.000;    0.000
312.278; 1470.125;    0.000;    0.000
312.339; 1530.125;    0.000;    0.000
312.401; 1581.125;    0.000;    0.000
312.462; 1530.125;    0.000;    0.000
312.524; 1522.125;    0.000;    0.000
312.585; 1546.125;    0.000;    0.000
312.647; 1490.125;    0.000;    0.000
312.708; 1524.125;    0.000;    0.000
312.770; 1570.125;    0.000;    0.000
312.831; 1554.125;    0.000;    0.000
312.893; 1528.125;    0.000;    0.000
312.954; 1546.125;    0.000;    0.000
313.016; 1593.125;    0.000;    0.000
313.077; 1592.125;    0.000;    0.000
313.139; 1540.125;    0.000;    0.000
313.200; 1537.125;    0.000;    0.000
313.261; 1544.125;    0.000;    0.000
313.323; 1596.125;    0.000;    0.000
313.384; 1677.125;    0.000;    0.000
313.446; 1577.125;    0.000;    0.000
313.507; 1542.125;    0.000;    0.000
313.568; 1593.125;    0.000;    0.000
313.630; 1483.125;    0.000;    0.000
313.691; 1474.125;    0.000;    0.000
313.752; 1598.125;    0.000;    0.000
313.814; 1606.125;    0.000;    0.000
313.875; 1578.125;    0.000;    0.000
313.936; 1557.125;    0.000;    0.000
313.998; 1594.125;    0.000;    0.000
314.059; 1532.125;    0.000;    0.000
314.120; 1606.125;    0.000;    0.000
314.182; 1630.125;    0.000;    0.000
314.243; 1610.125;    0.000;    0.000
314.304; 1590.125;    0.000;    0.000
314.365; 1621.125;    0.000;    0.000
314.427; 1490.125;    0.000;    0.000
314.488; 1556.125;    0.000;    0.000
314.549; 1554.125;    0.000;    0.000
314.610; 1590.125;    0.000;    0.000
314.672; 1586.125;    0.000;    0.000
314.733; 1666.125;    0.000;    0.000
314.794; 1591.125;    0.000;    0.000
314.855; 1576.125;    0.000;    0.000
314.916; 1606.125;    0.000;    0.000
314.978; 1572.125;    0.000;    0.000
315.039; 1586.125;    0.000;    0.000
315.100; 1625.125;    0.000;    0.000
315.161; 1635.125;    0.000;    0.000
315.222; 1686.125;    0.000;    0.000
315.283; 1641.125;    0.000;    0.000
315.345; 1642.125;    0.000;    0.000
315.406; 1596.125;    0.000;    0.000
315.467; 1641.125;    0.000;    0.000
315.528; 1646.125;    0.000;    0.000
315.589; 1628.125;    0.000;    0.000
315.650; 1622.125;    0.000;    0.000
315.711; 1621.125;    0.000;    0.000
315.772; 1554.125;    0.000;    0.000
315.833; 1612.125;    0.000;    0.000
315.894; 1545.125;    0.000;    0.000
315.955; 1602.125;    0.000;    0.000
316.016; 1624.125;    0.000;    0.000
316.078; 1630.125;    0.000;    0.000
316.139; 1655.125;    0.000;    0.000
316.200; 1548.125;    0.000;    0.000
316.261; 1638.125;    0.000;    0.000
316.322; 1597.125;    0.000;    0.000
316.383; 1640.125;    0.000;    0.000
316.444; 1641.125;    0.000;    0.000
316.504; 1601.125;    0.000;    0.000
316.565; 1634.125;    0.000;    0.000
316.626; 1654.125;    0.000;    0.000
316.687; 1607.125;    0.000;    0.000
316.748; 1672.125;    0.000;    0.000
316.809; 1646.125;    0.000;    0.000
316.870; 1622.125;    0.000;    0.000
316.931; 1686.125;    0.000;    0.000
316.992; 1641.125;    0.000;    0.000
317.053; 1717.125;    0.000;    0.000
317.114; 1600.125;    0.000;    0.000
317.175; 1752.125;    0.000;    0.000
317.235; 1670.125;    0.000;    0.000
317.296; 1706.125;    0.000;    0.000
317.357; 1718.125;    0.000;    0.000
317.418; 1733.125;    0.000;    0.000
317.479; 1743.125;    0.000;    0.000
317.540; 1650.125;    0.000;    0.000
317.601; 1638.125;    0.000;    0.000
317.661; 1736.125;    0.000;    0.000
317.722; 1722.125;    0.000;    0.000
317.783; 1613.125;    0.000;    0.000
317.844; 1678.125;    0.000;    0.000
317.904; 1688.125;    0.000;    0.000
317.965; 1693.125;    0.000;    0.000
318.026; 1692.125;    0.000;    0.000
318.087; 1680.125;    0.000;    0.000
318.148; 1690.125;    0.000;    0.000
318.208; 1727.125;    0.000;    0.000
318.269; 1700.125;    0.000;    0.000
318.330; 1745.125;    0.000;    0.000
318.390; 1693.125;    0.000;    0.000
318.451; 1760.125;    0.000;    0.000
318.512; 1731.125;    0.000;    0.000
318.572; 1697.125;    0.000;    0.000
318.633; 1772.125;    0.000;    0.000
318.694; 1812.125;    0.000;    0.000
318.754; 1681.125;    0.000;    0.000
318.815; 1627.125;    0.000;    0.000
318.876; 1622.125;    0.000;    0.000
318.936; 1637.125;    0.000;    0.000
318.997; 1629.125;    0.000;    0.000
319.058; 1742.125;    0.000;    0.000
319.118; 1717.125;    0.000;    0.000
319.179; 1668.125;    0.000;    0.000
319.239; 1760.125;    0.000;    0.000
319.300; 1786.125;    0.000;    0.000
319.361; 1692.125;    0.000;    0.000
319.421; 1682.125;    0.000;    0.000
319.482; 1641.125;    0.000;    0.000
319.542; 1673.125;    0.000;    0.000
319.603; 1666.125;    0.000;    0.000
319.663; 1713.125;    0.000;    0.000
319.724; 1656.125;    0.000;    0.000
319.784; 1630.125;    0.000;    0.000
319.845; 1632.125;    0.000;    0.000
319.905; 1726.125;    0.000;    0.000
319.966; 1718.125;    0.000;    0.000
320.026; 1757.125;    0.000;    0.000
320.087; 1738.125;    0.000;    0.000
320.147; 1813.125;    0.000;    0.000
320.208; 1704.125;    0.000;    0.000
320.268; 1770.125;    0.000;    0.000
320.329; 1808.125;    0.000;    0.000
320.389; 1706.125;    0.000;    0.000
320.449; 1758.125;    0.000;    0.000
320.510; 1775.125;    0.000;    0.000
320.570; 1796.125;    0.000;    0.000
320.631; 1765.125;    0.000;    0.000
320.691; 1810.125;    0.000;    0.000
320.751; 1712.125;    0.000;    0.000
320.812; 1773.125;    0.000;    0.000
320.872; 1803.125;    0.000;    0.000
320.932; 1806.125;    0.000;    0.000
320.993; 1774.125;    0.000;    0.000
321.053; 1799.125;    0.000;    0.000
321.113; 1846.125;    0.000;    0.000
321.174; 1791.125;    0.000;    0.000
321.234; 1820.125;    0.000;    0.000
321.294; 1802.125;    0.000;    0.000
321.355; 1739.125;    0.000;    0.000
321.415; 1798.125;    0.000;    0.000
321.475; 1729.125;    0.000;    0.000
321.535; 1863.125;    0.000;    0.000
321.596; 1818.125;    0.000;    0.000
321.656; 1855.125;    0.000;    0.000
321.716; 1788.125;    0.000;    0.000
321.776; 1850.125;    0.000;    0.000
321.837; 1801.125;    0.000;    0.000
321.897; 1736.125;    0.000;    0.000
321.957; 1929.125;    0.000;    0.000
322.017; 1803.125;    0.000;    0.000
322.077; 1826.125;    0.000;    0.000
322.138; 1814.125;    0.000;    0.000
322.198; 1939.125;    0.000;    0.000
322.258; 1920.125;    0.000;    0.000
322.318; 1877.125;    0.000;    0.000
322.378; 1842.125;    0.000;    0.000
322.438; 1874.125;    0.000;    0.000
322.499; 1863.125;    0.000;    0.000
322.559; 1849.125;    0.000;    0.000
322.619; 1834.125;    0.000;    0.000
322.679; 1866.125;    0.000;    0.000
322.739; 1824.125;    0.000;    0.000
322.799; 1773.125;    0.000;    0.000
322.859; 1846.125;    0.000;    0.000
322.919; 1814.125;    0.000;    0.000
322.979; 1868.125;    0.000;    0.000
323.039; 1745.125;    0.000;    0.000
323.099; 1794.125;    0.000;    0.000
323.159; 1804.125;    0.000;    0.000
323.219; 1822.125;    0.000;    0.000
323.279; 1857.125;    0.000;    0.000
323.339; 1896.125;    0.000;    0.000
323.399; 1912.125;    0.000;    0.000
323.459; 1873.125;    0.000;    0.000
323.519; 1946.125;    0.000;    0.000
323.579; 1936.125;    0.000;    0.000
323.639; 2053.125;    0.000;    0.000
323.699; 1971.125;    0.000;    0.000
323.759; 1988.125;    0.000;    0.000
323.819; 2048.125;    0.000;    0.000
323.879; 1977.125;    0.000;    0.000
323.939; 2094.125;    0.000;    0.000
323.999; 1899.125;    0.000;    0.000
324.059; 1975.125;    0.000;    0.000
324.119; 2029.125;    0.000;    0.000
324.179; 1906.125;    0.000;    0.000
324.238; 1980.125;    0.000;    0.000
324.298; 1935.125;    0.000;    0.000
324.358; 1941.125;    0.000;    0.000
324.418; 1978.125;    0.000;    0.000
324.478; 1894.125;    0.000;    0.000
324.538; 1917.125;    0.000;    0.000
324.597; 2001.125;    0.000;    0.000
324.657; 1886.125;    0.000;    0.000
324.717; 1892.125;    0.000;    0.000
324.777; 1810.125;    0.000;    0.000
324.837; 1860.125;    0.000;    0.000
324.896; 1918.125;    0.000;    0.000
324.956; 1914.125;    0.000;    0.000
325.016; 1815.125;    0.000;    0.000
325.076; 1918.125;    0.000;    0.000
325.135; 1827.125;    0.000;    0.000
325.195; 1864.125;    0.000;    0.000
325.255; 1888.125;    0.000;    0.000
325.315; 1917.125;    0.000;    0.000
325.374; 1880.125;    0.000;    0.000
325.434; 1877.125;    0.000;    0.000
325.494; 1903.125;    0.000;    0.000
325.553; 1853.125;    0.000;    0.000
325.613; 1832.125;    0.000;    0.000
325.673; 1877.125;    0.000;    0.000
325.732; 1832.125;    0.000;    0.000
325.792; 1819.125;    0.000;    0.000
325.852; 1810.125;    0.000;    0.000
325.911; 1793.125;    0.000;    0.000
325.971; 1842.125;    0.000;    0.000
326.031; 1735.125;    0.000;    0.000
326.090; 1785.125;    0.000;    0.000
326.150; 1800.125;    0.000;    0.000
326.209; 1788.125;    0.000;    0.000
326.269; 1798.125;    0.000;    0.000
326.328; 1833.125;    0.000;    0.000
326.388; 1830.125;    0.000;    0.000
326.448; 1955.125;    0.000;    0.000
326.507; 1917.125;    0.000;    0.000
326.567; 1868.125;    0.000;    0.000
326.626; 1848.125;    0.000;    0.000
326.686; 1810.125;    0.000;    0.000
326.745; 1803.125;    0.000;    0.000
326.805; 1800.125;    0.000;    0.000
326.864; 1911.125;    0.000;    0.000
326.924; 1895.125;    0.000;    0.000
326.983; 1840.125;    0.000;    0.000
327.043; 1895.125;    0.000;    0.000
327.102; 1897.125;    0.000;    0.000
327.161; 1929.125;    0.000;    0.000
327.221; 1927.125;    0.000;    0.000
327.280; 1895.125;    0.000;    0.000
327.340; 1983.125;    0.000;    0.000
327.399; 1942.125;    0.000;    0.000
327.459; 2064.125;    0.000;    0.000
327.518; 1965.125;    0.000;    0.000
327.577; 1925.125;    0.000;    0.000
327.637; 1883.125;    0.000;    0.000
327.696; 1868.125;    0.000;    0.000
327.755; 1895.125;    0.000;    0.000
327.815; 1946.125;    0.000;    0.000
327.874; 1972.125;    0.000;    0.000
327.933; 1941.125;    0.000;    0.000
327.993; 1969.125;    0.000;    0.000
328.052; 1885.125;    0.000;    0.000
328.111; 1938.125;    0.000;    0.000
328.171; 1851.125;    0.000;    0.000
328.230; 1870.125;    0.000;    0.000
328.289; 1946.125;    0.000;    0.000
328.349; 1930.125;    0.000;    0.000
328.408; 1972.125;    0.000;    0.000
328.467; 1959.125;    0.000;    0.000
328.526; 1910.125;    0.000;    0.000
328.586; 1996.125;    0.000;    0.000
328.645; 1976.125;    0.000;    0.000
328.704; 1991.125;    0.000;    0.000
328.763; 1941.125;    0.000;    0.000
328.822; 1900.125;    0.000;    0.000
328.882; 1973.125;    0.000;    0.000
328.941; 1985.125;    0.000;    0.000
329.000; 1923.125;    0.000;    0.000
329.059; 1888.125;    0.000;    0.000
329.118; 1943.125;    0.000;    0.000
329.177; 1966.125;    0.000;    0.000
329.237; 2088.125;    0.000;    0.000
329.296; 2137.125;    0.000;    0.000
329.355; 2035.125;    0.000;    0.000
329.414; 2061.125;    0.000;    0.000
329.473; 1972.125;    0.000;    0.000
329.532; 2013.125;    0.000;    0.000
329.591; 2010.125;    0.000;    0.000
329.650; 2067.125;    0.000;    0.000
329.709; 2176.125;    0.000;    0.000
329.768; 2247.125;    0.000;    0.000
329.827; 2338.125;    0.000;    0.000
329.886; 2382.125;    0.000;    0.000
329.945; 2337.125;    0.000;    0.000
330.004; 2375.125;    0.000;    0.000
330.063; 2303.125;    0.000;    0.000
330.122; 2386.125;    0.000;    0.000
330.181; 2488.125;    0.000;    0.000
330.240; 2534.125;    0.000;    0.000
330.299; 2401.125;    0.000;    0.000
330.358; 2331.125;    0.000;    0.000
330.417; 2320.125;    0.000;    0.000
330.476; 2243.125;    0.000;    0.000
330.535; 2190.125;    0.000;    0.000
330.594; 2120.125;    0.000;    0.000
330.653; 2123.125;    0.000;    0.000
330.712; 2031.125;    0.000;    0.000
330.771; 1979.125;    0.000;    0.000
330.830; 2016.125;    0.000;    0.000
330.889; 1993.125;    0.000;    0.000
330.948; 2041.125;    0.000;    0.000
331.006; 1979.125;    0.000;    0.000
331.065; 1999.125;    0.000;    0.000
331.124; 1999.125;    0.000;    0.000
331.183; 1988.125;    0.000;    0.000
331.242; 2004.125;    0.000;    0.000
331.301; 1995.125;    0.000;    0.000
331.359; 2075.125;    0.000;    0.000
331.418; 1953.125;    0.000;    0.000
331.477; 1997.125;    0.000;    0.000
331.536; 1995.125;    0.000;    0.000
331.595; 1901.125;    0.000;    0.000
331.653; 1925.125;    0.000;    0.000
331.712; 1848.125;    0.000;    0.000
331.771; 1936.125;    0.000;    0.000
331.830; 1951.125;    0.000;    0.000
331.888; 1922.125;    0.000;    0.000
331.947; 1902.125;    0.000;    0.000
332.006; 1891.125;    0.000;    0.000
332.065; 1889.125;    0.000;    0.000
332.123; 1873.125;    0.000;    0.000
332.182; 1940.125;    0.000;    0.000
332.241; 1892.125;    0.000;    0.000
332.299; 1989.125;    0.000;    0.000
332.358; 1936.125;    0.000;    0.000
332.417; 1976.125;    0.000;    0.000
332.475; 1989.125;    0.000;    0.000
332.534; 2021.125;    0.000;    0.000
332.592; 1958.125;    0.000;    0.000
332.651; 1957.125;    0.000;    0.000
332.710; 1983.125;    0.000;    0.000
332.768; 1964.125;    0.000;    0.000
332.827; 1946.125;    0.000;    0.000
332.885; 1938.125;    0.000;    0.000
332.944; 1862.125;    0.000;    0.000
333.003; 1865.125;    0.000;    0.000
333.061; 1955.125;    0.000;    0.000
333.120; 2028.125;    0.000;    0.000
333.178; 2096.125;    0.000;    0.000
333.237; 2084.125;    0.000;    0.000
333.295; 2162.125;    0.000;    0.000
333.354; 2109.125;    0.000;    0.000
333.412; 2141.125;    0.000;    0.000
333.471; 2205.125;    0.000;    0.000
333.529; 2219.125;    0.000;    0.000
333.588; 2290.125;    0.000;    0.000
333.646; 2370.125;    0.000;    0.000
333.705; 2274.125;    0.000;    0.000
333.763; 2266.125;    0.000;    0.000
333.822; 2195.125;    0.000;    0.000
333.880; 2180.125;    0.000;    0.000
333.938; 2110.125;    0.000;    0.000
333.997; 2184.125;    0.000;    0.000
334.055; 2204.125;    0.000;    0.000
334.114; 2169.125;    0.000;    0.000
334.172; 2099.125;    0.000;    0.000
334.230; 2136.125;    0.000;    0.000
334.289; 2149.125;    0.000;    0.000
334.347; 2207.125;    0.000;    0.000
334.405; 2280.125;    0.000;    0.000
334.464; 2203.125;    0.000;    0.000
334.522; 2205.125;    0.000;    0.000
334.580; 2108.125;    0.000;    0.000
334.639; 2179.125;    0.000;    0.000
334.697; 2087.125;    0.000;    0.000
334.755; 2141.125;    0.000;    0.000
334.814; 2176.125;    0.000;    0.000
334.872; 2077.125;    0.000;    0.000
334.930; 2137.125;    0.000;    0.000
334.988; 2155.125;    0.000;    0.000
335.047; 2118.125;    0.000;    0.000
335.105; 2231.125;    0.000;    0.000
335.163; 2228.125;    0.000;    0.000
335.221; 2242.125;    0.000;    0.000
335.280; 2145.125;    0.000;    0.000
335.338; 2246.125;    0.000;    0.000
335.396; 2137.125;    0.000;    0.000
335.454; 2121.125;    0.000;    0.000
335.512; 2122.125;    0.000;    0.000
335.570; 2138.125;    0.000;    0.000
335.629; 2322.125;    0.000;    0.000
335.687; 2410.125;    0.000;    0.000
335.745; 2488.125;    0.000;    0.000
335.803; 2576.125;    0.000;    0.000
335.861; 2470.125;    0.000;    0.000
335.919; 2490.125;    0.000;    0.000
335.977; 2432.125;    0.000;    0.000
336.035; 2371.125;    0.000;    0.000
336.094; 2425.125;    0.000;    0.000
336.152; 2444.125;    0.000;    0.000
336.210; 2602.125;    0.000;    0.000
336.268; 2577.125;    0.000;    0.000
336.326; 2501.125;    0.000;    0.000
336.384; 2540.125;    0.000;    0.000
336.442; 2389.125;    0.000;    0.000
336.500; 2442.125;    0.000;    0.000
336.558; 2344.125;    0.000;    0.000
336.616; 2404.125;    0.000;    0.000
336.674; 2245.125;    0.000;    0.000
336.732; 2322.125;    0.000;    0.000
336.790; 2378.125;    0.000;    0.000
336.848; 2425.125;    0.000;    0.000
336.906; 2321.125;    0.000;    0.000
336.964; 2342.125;    0.000;    0.000
337.022; 2308.125;    0.000;    0.000
337.080; 2384.125;    0.000;    0.000
337.138; 2378.125;    0.000;    0.000
337.195; 2348.125;    0.000;    0.000
337.253; 2354.125;    0.000;    0.000
337.311; 2307.125;    0.000;    0.000
337.369; 2193.125;    0.000;    0.000
337.427; 2338.125;    0.000;    0.000
337.485; 2223.125;    0.000;    0.000
337.543; 2326.125;    0.000;    0.000
337.601; 2255.125;    0.000;    0.000
337.658; 2296.125;    0.000;    0.000
337.716; 2230.125;    0.000;    0.000
337.774; 2181.125;    0.000;    0.000
337.832; 2126.125;    0.000;    0.000
337.890; 2099.125;    0.000;    0.000
337.947; 2121.125;    0.000;    0.000
338.005; 2088.125;    0.000;    0.000
338.063; 2152.125;    0.000;    0.000
338.121; 2226.125;    0.000;    0.000
338.178; 2205.125;    0.000;    0.000
338.236; 2310.125;    0.000;    0.000
338.294; 2299.125;    0.000;    0.000
338.352; 2295.125;    0.000;    0.000
338.409; 2294.125;    0.000;    0.000
338.467; 2206.125;    0.000;    0.000
338.525; 2036.125;    0.000;    0.000
338.583; 2191.125;    0.000;    0.000
338.640; 2167.125;    0.000;    0.000
338.698; 2086.125;    0.000;    0.000
338.756; 2170.125;    0.000;    0.000
338.813; 2269.125;    0.000;    0.000
338.871; 2347.125;    0.000;    0.000
338.928; 2421.125;    0.000;    0.000
338.986; 2370.125;    0.000;    0.000
339.044; 2400.125;    0.000;    0.000
339.101; 2364.125;    0.000;    0.000
339.159; 2323.125;    0.000;    0.000
339.217; 2402.125;    0.000;    0.000
339.274; 2364.125;    0.000;    0.000
339.332; 2217.125;    0.000;    0.000
339.389; 2357.125;    0.000;    0.000
339.447; 2235.125;    0.000;    0.000
339.504; 2240.125;    0.000;    0.000
339.562; 2251.125;    0.000;    0.000
339.619; 2152.125;    0.000;    0.000
339.677; 2262.125;    0.000;    0.000
339.734; 2239.125;    0.000;    0.000
339.792; 2229.125;    0.000;    0.000
339.849; 2267.125;    0.000;    0.000
339.907; 2251.125;    0.000;    0.000
339.964; 2260.125;    0.000;    0.000
340.022; 2211.125;    0.000;    0.000
340.079; 2320.125;    0.000;    0.000
340.137; 2319.125;    0.000;    0.000
340.194; 2277.125;    0.000;    0.000
340.252; 2313.125;    0.000;    0.000
340.309; 2313.125;    0.000;    0.000
340.366; 2255.125;    0.000;    0.000
340.424; 2295.125;    0.000;    0.000
340.481; 2292.125;    0.000;    0.000
340.538; 2370.125;    0.000;    0.000
340.596; 2296.125;    0.000;    0.000
340.653; 2469.125;    0.000;    0.000
340.711; 2421.125;    0.000;    0.000
340.768; 2499.125;    0.000;    0.000
340.825; 2392.125;    0.000;    0.000
340.883; 2389.125;    0.000;    0.000
340.940; 2436.125;    0.000;    0.000
340.997; 2282.125;    0.000;    0.000
341.054; 2283.125;    0.000;    0.000
341.112; 2351.125;    0.000;    0.000
341.169; 2334.125;    0.000;    0.000
341.226; 2371.125;    0.000;    0.000
341.284; 2402.125;    0.000;    0.000
341.341; 2485.125;    0.000;    0.000
341.398; 2353.125;    0.000;    0.000
341.455; 2424.125;    0.000;    0.000
341.512; 2579.125;    0.000;    0.000
341.570; 2468.125;    0.000;    0.000
341.627; 2516.125;    0.000;    0.000
341.684; 2424.125;    0.000;    0.000
341.741; 2479.125;    0.000;    0.000
341.798; 2487.125;    0.000;    0.000
341.856; 2425.125;    0.000;    0.000
341.913; 2463.125;    0.000;    0.000
341.970; 2533.125;    0.000;    0.000
342.027; 2589.125;    0.000;    0.000
342.084; 2455.125;    0.000;    0.000
342.141; 2510.125;    0.000;    0.000
342.198; 2649.125;    0.000;    0.000
342.255; 2600.125;    0.000;    0.000
342.313; 2564.125;    0.000;    0.000
342.370; 2425.125;    0.000;    0.000
342.427; 2322.125;    0.000;    0.000
342.484; 2266.125;    0.000;    0.000
342.541; 2311.125;    0.000;    0.000
342.598; 2253.125;    0.000;    0.000
342.655; 2232.125;    0.000;    0.000
342.712; 2352.125;    0.000;    0.000
342.769; 2372.125;    0.000;    0.000
342.826; 2291.125;    0.000;    0.000
342.883; 2226.125;    0.000;    0.000
342.940; 2257.125;    0.000;    0.000
342.997; 2329.125;    0.000;    0.000
343.054; 2293.125;    0.000;    0.000
343.111; 2259.125;    0.000;    0.000
343.168; 2322.125;    0.000;    0.000
343.225; 2368.125;    0.000;    0.000
343.282; 2266.125;    0.000;    0.000
343.339; 2318.125;    0.000;    0.000
343.395; 2389.125;    0.000;    0.000
343.452; 2406.125;    0.000;    0.000
343.509; 2289.125;    0.000;    0.000
343.566; 2388.125;    0.000;    0.000
343.623; 2278.125;    0.000;    0.000
343.680; 2216.125;    0.000;    0.000
343.737; 2224.125;    0.000;    0.000
343.794; 2220.125;    0.000;    0.000
343.850; 2193.125;    0.000;    0.000
343.907; 2184.125;    0.000;    0.000
343.964; 2385.125;    0.000;    0.000
344.021; 2303.125;    0.000;    0.000
344.078; 2421.125;    0.000;    0.000
344.134; 2372.125;    0.000;    0.000
344.191; 2419.125;    0.000;    0.000
344.248; 2484.125;    0.000;    0.000
344.305; 2441.125;    0.000;    0.000
344.361; 2388.125;    0.000;    0.000
344.418; 2425.125;    0.000;    0.000
344.475; 2423.125;    0.000;    0.000
344.532; 2403.125;    0.000;    0.000
344.588; 2366.125;    0.000;    0.000
344.645; 2331.125;    0.000;    0.000
344.702; 2422.125;    0.000;    0.000
344.758; 2361.125;    0.000;    0.000
344.815; 2403.125;    0.000;    0.000
344.872; 2338.125;    0.000;    0.000
344.928; 2427.125;    0.000;    0.000
344.985; 2374.125;    0.000;    0.000
345.042; 2464.125;    0.000;    0.000
345.098; 2411.125;    0.000;    0.000
345.155; 2358.125;    0.000;    0.000
345.212; 2295.125;    0.000;    0.000
345.268; 2340.125;    0.000;    0.000
345.325; 2339.125;    0.000;    0.000
345.381; 2451.125;    0.000;    0.000
345.438; 2474.125;    0.000;    0.000
345.495; 2607.125;    0.000;    0.000
345.551; 2547.125;    0.000;    0.000
345.608; 2485.125;    0.000;    0.000
345.664; 2471.125;    0.000;    0.000
345.721; 2444.125;    0.000;    0.000
345.777; 2305.125;    0.000;    0.000
345.834; 2265.125;    0.000;    0.000
345.890; 2342.125;    0.000;    0.000
345.947; 2399.125;    0.000;    0.000
346.003; 2425.125;    0.000;    0.000
346.060; 2374.125;    0.000;    0.000
346.116; 2350.125;    0.000;    0.000
346.173; 2444.125;    0.000;    0.000
346.229; 2399.125;    0.000;    0.000
346.285; 2320.125;    0.000;    0.000
346.342; 2266.125;    0.000;    0.000
346.398; 2350.125;    0.000;    0.000
346.455; 2541.125;    0.000;    0.000
346.511; 2521.125;    0.000;    0.000
346.567; 2655.125;    0.000;    0.000
346.624; 2590.125;    0.000;    0.000
346.680; 2640.125;    0.000;    0.000
346.737; 2646.125;    0.000;    0.000
346.793; 2686.125;    0.000;    0.000
346.849; 2741.125;    0.000;    0.000
346.906; 2766.125;    0.000;    0.000
346.962; 2749.125;    0.000;    0.000
347.018; 2678.125;    0.000;    0.000
347.074; 2656.125;    0.000;    0.000
347.131; 2532.125;    0.000;    0.000
347.187; 2556.125;    0.000;    0.000
347.243; 2634.125;    0.000;    0.000
347.300; 2626.125;    0.000;    0.000
347.356; 2483.125;    0.000;    0.000
347.412; 2527.125;    0.000;    0.000
347.468; 2367.125;    0.000;    0.000
347.524; 2384.125;    0.000;    0.000
347.581; 2344.125;    0.000;    0.000
347.637; 2423.125;    0.000;    0.000
347.693; 2423.125;    0.000;    0.000
347.749; 2341.125;    0.000;    0.000
347.805; 2283.125;    0.000;    0.000
347.862; 2425.125;    0.000;    0.000
347.918; 2367.125;    0.000;    0.000
347.974; 2351.125;    0.000;    0.000
348.030; 2334.125;    0.000;    0.000
348.086; 2383.125;    0.000;    0.000
348.142; 2290.125;    0.000;    0.000
348.198; 2409.125;    0.000;    0.000
348.254; 2417.125;    0.000;    0.000
348.311; 2384.125;    0.000;    0.000
348.367; 2375.125;    0.000;    0.000
348.423; 2320.125;    0.000;    0.000
348.479; 2264.125;    0.000;    0.000
348.535; 2400.125;    0.000;    0.000
348.591; 2369.125;    0.000;    0.000
348.647; 2295.125;    0.000;    0.000
348.703; 2359.125;    0.000;    0.000
348.759; 2305.125;    0.000;    0.000
348.815; 2337.125;    0.000;    0.000
348.871; 2374.125;    0.000;    0.000
348.927; 2245.125;    0.000;    0.000
348.983; 2351.125;    0.000;    0.000
349.039; 2358.125;    0.000;    0.000
349.095; 2444.125;    0.000;    0.000
349.151; 2328.125;    0.000;    0.000
349.207; 2406.125;    0.000;    0.000
349.263; 2401.125;    0.000;    0.000
349.319; 2398.125;    0.000;    0.000
349.374; 2335.125;    0.000;    0.000
349.430; 2449.125;    0.000;    0.000
349.486; 2396.125;    0.000;    0.000
349.542; 2512.125;    0.000;    0.000
349.598; 2408.125;    0.000;    0.000
349.654; 2403.125;    0.000;    0.000
349.710; 2410.125;    0.000;    0.000
349.766; 2369.125;    0.000;    0.000
349.821; 2339.125;    0.000;    0.000
349.877; 2389.125;    0.000;    0.000
349.933; 2337.125;    0.000;    0.000
349.989; 2378.125;    0.000;    0.000
350.045; 2412.125;    0.000;    0.000
350.100; 2371.125;    0.000;    0.000
350.156; 2330.125;    0.000;    0.000
350.212; 2400.125;    0.000;    0.000
350.268; 2398.125;    0.000;    0.000
350.323; 2443.125;    0.000;    0.000
350.379; 2337.125;    0.000;    0.000
350.435; 2342.125;    0.000;    0.000
350.491; 2295.125;    0.000;    0.000
350.546; 2376.125;    0.000;    0.000
350.602; 2395.125;    0.000;    0.000
350.658; 2350.125;    0.000;    0.000
350.713; 2416.125;    0.000;    0.000
350.769; 2281.125;    0.000;    0.000
350.825; 2307.125;    0.000;    0.000
350.880; 2273.125;    0.000;    0.000
350.936; 2276.125;    0.000;    0.000
350.992; 2327.125;    0.000;    0.000
351.047; 2342.125;    0.000;    0.000
351.103; 2333.125;    0.000;    0.000
351.158; 2318.125;    0.000;    0.000
351.214; 2267.125;    0.000;    0.000
351.270; 2251.125;    0.000;    0.000
351.325; 2296.125;    0.000;    0.000
351.381; 2366.125;    0.000;    0.000
351.436; 2378.125;    0.000;    0.000
351.492; 2571.125;    0.000;    0.000
351.547; 2591.125;    0.000;    0.000
351.603; 2627.125;    0.000;    0.000
351.658; 2502.125;    0.000;    0.000
351.714; 2562.125;    0.000;    0.000
351.769; 2575.125;    0.000;    0.000
351.825; 2503.125;    0.000;    0.000
351.880; 2607.125;    0.000;    0.000
351.936; 2650.125;    0.000;    0.000
351.991; 2704.125;    0.000;    0.000
352.047; 2571.125;    0.000;    0.000
352.102; 2439.125;    0.000;    0.000
352.157; 2455.125;    0.000;    0.000
352.213; 2366.125;    0.000;    0.000
352.268; 2389.125;    0.000;    0.000
352.324; 2375.125;    0.000;    0.000
352.379; 2395.125;    0.000;    0.000
352.434; 2415.125;    0.000;    0.000
352.490; 2464.125;    0.000;    0.000
352.545; 2432.125;    0.000;    0.000
352.601; 2347.125;    0.000;    0.000
352.656; 2407.125;    0.000;    0.000
352.711; 2317.125;    0.000;    0.000
352.767; 2327.125;    0.000;    0.000
352.822; 2255.125;    0.000;    0.000
352.877; 2259.125;    0.000;    0.000
352.932; 2267.125;    0.000;    0.000
352.988; 2286.125;    0.000;    0.000
353.043; 2423.125;    0.000;    0.000
353.098; 2431.125;    0.000;    0.000
353.153; 2383.125;    0.000;    0.000
353.209; 2289.125;    0.000;    0.000
353.264; 2234.125;    0.000;    0.000
353.319; 2287.125;    0.000;    0.000
353.374; 2329.125;    0.000;    0.000
353.430; 2339.125;    0.000;    0.000
353.485; 2324.125;    0.000;    0.000
353.540; 2462.125;    0.000;    0.000
353.595; 2183.125;    0.000;    0.000
353.650; 2348.125;    0.000;    0.000
353.705; 2289.125;    0.000;    0.000
353.761; 2173.125;    0.000;    0.000
353.816; 2266.125;    0.000;    0.000
353.871; 2269.125;    0.000;    0.000
353.926; 2251.125;    0.000;    0.000
353.981; 2182.125;    0.000;    0.000
354.036; 2266.125;    0.000;    0.000
354.091; 2208.125;    0.000;    0.000
354.146; 2242.125;    0.000;    0.000
354.201; 2275.125;    0.000;    0.000
354.256; 2242.125;    0.000;    0.000
354.311; 2286.125;    0.000;    0.000
354.367; 2243.125;    0.000;    0.000
354.422; 2292.125;    0.000;    0.000
354.477; 2263.125;    0.000;    0.000
354.532; 2254.125;    0.000;    0.000
354.587; 2234.125;    0.000;    0.000
354.642; 2219.125;    0.000;    0.000
354.697; 2329.125;    0.000;    0.000
354.752; 2209.125;    0.000;    0.000
354.806; 2314.125;    0.000;    0.000
354.861; 2326.125;    0.000;    0.000
354.916; 2321.125;    0.000;    0.000
354.971; 2252.125;    0.000;    0.000
355.026; 2288.125;    0.000;    0.000
355.081; 2170.125;    0.000;    0.000
355.136; 2184.125;    0.000;    0.000
355.191; 2098.125;    0.000;    0.000
355.246; 2225.125;    0.000;    0.000
355.301; 2221.125;    0.000;    0.000
355.356; 2242.125;    0.000;    0.000
355.410; 2195.125;    0.000;    0.000
355.465; 2196.125;    0.000;    0.000
355.520; 2230.125;    0.000;    0.000
355.575; 2230.125;    0.000;    0.000
355.630; 2112.125;    0.000;    0.000
355.684; 2175.125;    0.000;    0.000
355.739; 2163.125;    0.000;    0.000
355.794; 2152.125;    0.000;    0.000
355.849; 2294.125;    0.000;    0.000
355.904; 2201.125;    0.000;    0.000
355.958; 2233.125;    0.000;    0.000
356.013; 2139.125;    0.000;    0.000
356.068; 2333.125;    0.000;    0.000
356.123; 2278.125;    0.000;    0.000
356.177; 2328.125;    0.000;    0.000
356.232; 2500.125;    0.000;    0.000
356.287; 2401.125;    0.000;    0.000
356.341; 2450.125;    0.000;    0.000
356.396; 2352.125;    0.000;    0.000
356.451; 2269.125;    0.000;    0.000
356.505; 2299.125;    0.000;    0.000
356.560; 2262.125;    0.000;    0.000
356.615; 2308.125;    0.000;    0.000
356.669; 2295.125;    0.000;    0.000
356.724; 2286.125;    0.000;    0.000
356.778; 2159.125;    0.000;    0.000
356.833; 2194.125;    0.000;    0.000
356.888; 2195.125;    0.000;    0.000
356.942; 2167.125;    0.000;    0.000
356.997; 2198.125;    0.000;    0.000
357.051; 2127.125;    0.000;    0.000
357.106; 2176.125;    0.000;    0.000
357.160; 2207.125;    0.000;    0.000
357.215; 2147.125;    0.000;    0.000
357.269; 2186.125;    0.000;    0.000
357.324; 2193.125;    0.000;    0.000
357.378; 2149.125;    0.000;    0.000
357.433; 2159.125;    0.000;    0.000
357.487; 2077.125;    0.000;    0.000
357.542; 2136.125;    0.000;    0.000
357.596; 2214.125;    0.000;    0.000
357.651; 2158.125;    0.000;    0.000
357.705; 2135.125;    0.000;    0.000
357.760; 2184.125;    0.000;    0.000
357.814; 2151.125;    0.000;    0.000
357.868; 2158.125;    0.000;    0.000
357.923; 2070.125;    0.000;    0.000
357.977; 2101.125;    0.000;    0.000
358.032; 2143.125;    0.000;    0.000
358.086; 2127.125;    0.000;    0.000
358.140; 2094.125;    0.000;    0.000
358.195; 2106.125;    0.000;    0.000
358.249; 2110.125;    0.000;    0.000
358.303; 2041.125;    0.000;    0.000
358.358; 2027.125;    0.000;    0.000
358.412; 2062.125;    0.000;    0.000
358.466; 2040.125;    0.000;    0.000
358.521; 2104.125;    0.000;    0.000
358.575; 2052.125;    0.000;    0.000
358.629; 2067.125;    0.000;    0.000
358.683; 2126.125;    0.000;    0.000
358.738; 2031.125;    0.000;    0.000
358.792; 2055.125;    0.000;    0.000
358.846; 2029.125;    0.000;    0.000
358.900; 2121.125;    0.000;    0.000
358.954; 2072.125;    0.000;    0.000
359.009; 2103.125;    0.000;    0.000
359.063; 2027.125;    0.000;    0.000
359.117; 2088.125;    0.000;    0.000
359.171; 2124.125;    0.000;    0.000
359.225; 2111.125;    0.000;    0.000
359.280; 2127.125;    0.000;    0.000
359.334; 2125.125;    0.000;    0.000
359.388; 2207.125;    0.000;    0.000
359.442; 2055.125;    0.000;    0.000
359.496; 2017.125;    0.000;    0.000
359.550; 2107.125;    0.000;    0.000
359.604; 2022.125;    0.000;    0.000
359.658; 2059.125;    0.000;    0.000
359.712; 2021.125;    0.000;    0.000
359.766; 2024.125;    0.000;    0.000
359.820; 2017.125;    0.000;    0.000
359.875; 2012.125;    0.000;    0.000
359.929; 2021.125;    0.000;    0.000
359.983; 1982.125;    0.000;    0.000
360.037; 2113.125;    0.000;    0.000
360.091; 2080.125;    0.000;    0.000
360.145; 1941.125;    0.000;    0.000
360.199; 2020.125;    0.000;    0.000
360.253; 2008.125;    0.000;    0.000
360.306; 1930.125;    0.000;    0.000
360.360; 1937.125;    0.000;    0.000
360.414; 1982.125;    0.000;    0.000
360.468; 2029.125;    0.000;    0.000
360.522; 2035.125;    0.000;    0.000
360.576; 1898.125;    0.000;    0.000
360.630; 2038.125;    0.000;    0.000
360.684; 1998.125;    0.000;    0.000
360.738; 1986.125;    0.000;    0.000
360.792; 1943.125;    0.000;    0.000
360.846; 2036.125;    0.000;    0.000
360.899; 2124.125;    0.000;    0.000
360.953; 2068.125;    0.000;    0.000
361.007; 2040.125;    0.000;    0.000
361.061; 2039.125;    0.000;    0.000
361.115; 2051.125;    0.000;    0.000
361.168; 2025.125;    0.000;    0.000
361.222; 1931.125;    0.000;    0.000
361.276; 2139.125;    0.000;    0.000
361.330; 2053.125;    0.000;    0.000
361.384; 2059.125;    0.000;    0.000
361.437; 2006.125;    0.000;    0.000
361.491; 1973.125;    0.000;    0.000
361.545; 1927.125;    0.000;    0.000
361.599; 2028.125;    0.000;    0.000
361.652; 2005.125;    0.000;    0.000
361.706; 1988.125;    0.000;    0.000
361.760; 1970.125;    0.000;    0.000
361.813; 2037.125;    0.000;    0.000
361.867; 2027.125;    0.000;    0.000
361.921; 1918.125;    0.000;    0.000
361.974; 1943.125;    0.000;    0.000
362.028; 1944.125;    0.000;    0.000
362.082; 1964.125;    0.000;    0.000
362.135; 1977.125;    0.000;    0.000
362.189; 1962.125;    0.000;    0.000
362.242; 2065.125;    0.000;    0.000
362.296; 1941.125;    0.000;    0.000
362.350; 1951.125;    0.000;    0.000
362.403; 1954.125;    0.000;    0.000
362.457; 1938.125;    0.000;    0.000
362.510; 1930.125;    0.000;    0.000
362.564; 1950.125;    0.000;    0.000
362.617; 1903.125;    0.000;    0.000
362.671; 1938.125;    0.000;    0.000
362.724; 1922.125;    0.000;    0.000
362.778; 1828.125;    0.000;    0.000
362.831; 1934.125;    0.000;    0.000
362.885; 1937.125;    0.000;    0.000
362.938; 1736.125;    0.000;    0.000
362.992;  434.125;    0.000;    0.000
363.045;  297.125;    0.000;    0.000
363.099;  290.125;    0.000;    0.000
363.152;  304.125;    0.000;    0.000
363.205;  297.125;    0.000;    0.000
363.259;  292.125;    0.000;    0.000
363.312;  332.125;    0.000;    0.000
363.366;  296.125;    0.000;    0.000
363.419;  343.125;    0.000;    0.000
363.472;  298.125;    0.000;    0.000
363.526;  351.125;    0.000;    0.000
363.579;  289.125;    0.000;    0.000
363.632;  297.125;    0.000;    0.000
363.686;  283.125;    0.000;    0.000
363.739;  262.125;    0.000;    0.000
363.792;  279.125;    0.000;    0.000

