
Integration time [ms]:   1.000
Averaging Nr. [scans]: 1
Smoothing Nr. [pixels]: 0
Data measured with spectrometer [name]: NIR
Wave   ;Sample   ;Dark     ;Reference
[nm]   ;[counts] ;[counts] ;[counts] 

691.496;   48.300;    0.000;    0.000
691.696;   79.300;    0.000;    0.000
691.896;   32.300;    0.000;    0.000
692.096;   33.300;    0.000;    0.000
692.296;  -13.700;    0.000;    0.000
692.496;   74.300;    0.000;    0.000
692.695;   41.300;    0.000;    0.000
692.895;   84.300;    0.000;    0.000
693.095;   28.300;    0.000;    0.000
693.295;   65.300;    0.000;    0.000
693.495;   59.300;    0.000;    0.000
693.695;   36.300;    0.000;    0.000
693.894;   42.300;    0.000;    0.000
694.094;   20.300;    0.000;    0.000
694.294;   28.300;    0.000;    0.000
694.494;  237.300;    0.000;    0.000
694.693; 1762.300;    0.000;    0.000
694.893; 1899.300;    0.000;    0.000
695.093; 1928.300;    0.000;    0.000
695.293; 1990.300;    0.000;    0.000
695.492; 1936.300;    0.000;    0.000
695.692; 1997.300;    0.000;    0.000
695.891; 1971.300;    0.000;    0.000
696.091; 2026.300;    0.000;    0.000
696.291; 1975.300;    0.000;    0.000
696.490; 2018.300;    0.000;    0.000
696.690; 2030.300;    0.000;    0.000
696.889; 2057.300;    0.000;    0.000
697.089; 2063.300;    0.000;    0.000
697.288; 2077.300;    0.000;    0.000
697.488; 2009.300;    0.000;    0.000
697.687; 2123.300;    0.000;    0.000
697.887; 1992.300;    0.000;    0.000
698.086; 2123.300;    0.000;    0.000
698.286; 2060.300;    0.000;    0.000
698.485; 2028.300;    0.000;    0.000
698.684; 2027.300;    0.000;    0.000
698.884; 2168.300;    0.000;    0.000
699.083; 2089.300;    0.000;    0.000
699.282; 2032.300;    0.000;    0.000
699.482; 2054.300;    0.000;    0.000
699.681; 2119.300;    0.000;    0.000
699.880; 2140.300;    0.000;    0.000
700.080; 2146.300;    0.000;    0.000
700.279; 2090.300;    0.000;    0.000
700.478; 2149.300;    0.000;    0.000
700.677; 2105.300;    0.000;    0.000
700.877; 2154.300;    0.000;    0.000
701.076; 2283.300;    0.000;    0.000
701.275; 2165.300;    0.000;    0.000
701.474; 2142.300;    0.000;    0.000
701.673; 2052.300;    0.000;    0.000
701.872; 2107.300;    0.000;    0.000
702.071; 2187.300;    0.000;    0.000
702.271; 2134.300;    0.000;    0.000
702.470; 2149.300;    0.000;    0.000
702.669; 2176.300;    0.000;    0.000
702.868; 2151.300;    0.000;    0.000
703.067; 2227.300;    0.000;    0.000
703.266; 2155.300;    0.000;    0.000
703.465; 2254.300;    0.000;    0.000
703.664; 2212.300;    0.000;    0.000
703.863; 2201.300;    0.000;    0.000
704.062; 2237.300;    0.000;    0.000
704.260; 2239.300;    0.000;    0.000
704.459; 2243.300;    0.000;    0.000
704.658; 2170.300;    0.000;    0.000
704.857; 2222.300;    0.000;    0.000
705.056; 2228.300;    0.000;    0.000
705.255; 2207.300;    0.000;    0.000
705.454; 2341.300;    0.000;    0.000
705.652; 2211.300;    0.000;    0.000
705.851; 2211.300;    0.000;    0.000
706.050; 2228.300;    0.000;    0.000
706.249; 2213.300;    0.000;    0.000
706.447; 2290.300;    0.000;    0.000
706.646; 2385.300;    0.000;    0.000
706.845; 2229.300;    0.000;    0.000
707.043; 2280.300;    0.000;    0.000
707.242; 2346.300;    0.000;    0.000
707.441; 2309.300;    0.000;    0.000
707.639; 2364.300;    0.000;    0.000
707.838; 2266.300;    0.000;    0.000
708.037; 2288.300;    0.000;    0.000
708.235; 2345.300;    0.000;    0.000
708.434; 2408.300;    0.000;    0.000
708.632; 2260.300;    0.000;    0.000
708.831; 2313.300;    0.000;    0.000
709.029; 2284.300;    0.000;    0.000
709.228; 2338.300;    0.000;    0.000
709.426; 2308.300;    0.000;    0.000
709.625; 2414.300;    0.000;    0.000
709.823; 2384.300;    0.000;    0.000
710.022; 2404.300;    0.000;    0.000
710.220; 2467.300;    0.000;    0.000
710.418; 2390.300;    0.000;    0.000
710.617; 2377.300;    0.000;    0.000
710.815; 2330.300;    0.000;    0.000
711.013; 2386.300;    0.000;    0.000
711.212; 2423.300;    0.000;    0.000
711.410; 2429.300;    0.000;    0.000
711.608; 2444.300;    0.000;    0.000
711.807; 2475.300;    0.000;    0.000
712.005; 2471.300;    0.000;    0.000
712.203; 2519.300;    0.000;    0.000
712.401; 2486.300;    0.000;    0.000
712.599; 2406.300;    0.000;    0.000
712.798; 2493.300;    0.000;    0.000
712.996; 2479.300;    0.000;    0.000
713.194; 2503.300;    0.000;    0.000
713.392; 2503.300;    0.000;    0.000
713.590; 2633.300;    0.000;    0.000
713.788; 2562.300;    0.000;    0.000
713.986; 2545.300;    0.000;    0.000
714.184; 2609.300;    0.000;    0.000
714.382; 2595.300;    0.000;    0.000
714.580; 2594.300;    0.000;    0.000
714.778; 2605.300;    0.000;    0.000
714.976; 2690.300;    0.000;    0.000
715.174; 2742.300;    0.000;    0.000
715.372; 2807.300;    0.000;    0.000
715.570; 2893.300;    0.000;    0.000
715.768; 3012.300;    0.000;    0.000
715.966; 3029.300;    0.000;    0.000
716.164; 3043.300;    0.000;    0.000
716.362; 2969.300;    0.000;    0.000
716.560; 3016.300;    0.000;    0.000
716.758; 2858.300;    0.000;    0.000
716.955; 2922.300;    0.000;    0.000
717.153; 2881.300;    0.000;    0.000
717.351; 2826.300;    0.000;    0.000
717.549; 2838.300;    0.000;    0.000
717.746; 2949.300;    0.000;    0.000
717.944; 2881.300;    0.000;    0.000
718.142; 2774.300;    0.000;    0.000
718.340; 2869.300;    0.000;    0.000
718.537; 2847.300;    0.000;    0.000
718.735; 2866.300;    0.000;    0.000
718.933; 2812.300;    0.000;    0.000
719.130; 2783.300;    0.000;    0.000
719.328; 2902.300;    0.000;    0.000
719.525; 2855.300;    0.000;    0.000
719.723; 2793.300;    0.000;    0.000
719.920; 2804.300;    0.000;    0.000
720.118; 2765.300;    0.000;    0.000
720.316; 2829.300;    0.000;    0.000
720.513; 2813.300;    0.000;    0.000
720.711; 2806.300;    0.000;    0.000
720.908; 2826.300;    0.000;    0.000
721.105; 2794.300;    0.000;    0.000
721.303; 2864.300;    0.000;    0.000
721.500; 2818.300;    0.000;    0.000
721.698; 2811.300;    0.000;    0.000
721.895; 2867.300;    0.000;    0.000
722.092; 2855.300;    0.000;    0.000
722.290; 2948.300;    0.000;    0.000
722.487; 2803.300;    0.000;    0.000
722.684; 2827.300;    0.000;    0.000
722.882; 2877.300;    0.000;    0.000
723.079; 2823.300;    0.000;    0.000
723.276; 2894.300;    0.000;    0.000
723.473; 2811.300;    0.000;    0.000
723.671; 2859.300;    0.000;    0.000
723.868; 2964.300;    0.000;    0.000
724.065; 2809.300;    0.000;    0.000
724.262; 2937.300;    0.000;    0.000
724.459; 2849.300;    0.000;    0.000
724.656; 2935.300;    0.000;    0.000
724.854; 2866.300;    0.000;    0.000
725.051; 2956.300;    0.000;    0.000
725.248; 2952.300;    0.000;    0.000
725.445; 2928.300;    0.000;    0.000
725.642; 2973.300;    0.000;    0.000
725.839; 2995.300;    0.000;    0.000
726.036; 2906.300;    0.000;    0.000
726.233; 3016.300;    0.000;    0.000
726.430; 3022.300;    0.000;    0.000
726.627; 3028.300;    0.000;    0.000
726.824; 2971.300;    0.000;    0.000
727.021; 3063.300;    0.000;    0.000
727.218; 3006.300;    0.000;    0.000
727.414; 2927.300;    0.000;    0.000
727.611; 2914.300;    0.000;    0.000
727.808; 2893.300;    0.000;    0.000
728.005; 2975.300;    0.000;    0.000
728.202; 3085.300;    0.000;    0.000
728.399; 2977.300;    0.000;    0.000
728.595; 3073.300;    0.000;    0.000
728.792; 3066.300;    0.000;    0.000
728.989; 3045.300;    0.000;    0.000
729.186; 3068.300;    0.000;    0.000
729.382; 2918.300;    0.000;    0.000
729.579; 3092.300;    0.000;    0.000
729.776; 3085.300;    0.000;    0.000
729.972; 3158.300;    0.000;    0.000
730.169; 3128.300;    0.000;    0.000
730.366; 3097.300;    0.000;    0.000
730.562; 3210.300;    0.000;    0.000
730.759; 3174.300;    0.000;    0.000
730.955; 3177.300;    0.000;    0.000
731.152; 3020.300;    0.000;    0.000
731.348; 3170.300;    0.000;    0.000
731.545; 3181.300;    0.000;    0.000
731.741; 3195.300;    0.000;    0.000
731.938; 3202.300;    0.000;    0.000
732.134; 3124.300;    0.000;    0.000
732.331; 3139.300;    0.000;    0.000
732.527; 3240.300;    0.000;    0.000
732.724; 3175.300;    0.000;    0.000
732.920; 3129.300;    0.000;    0.000
733.116; 3256.300;    0.000;    0.000
733.313; 3195.300;    0.000;    0.000
733.509; 3238.300;    0.000;    0.000
733.705; 3207.300;    0.000;    0.000
733.902; 3238.300;    0.000;    0.000
734.098; 3166.300;    0.000;    0.000
734.294; 3271.300;    0.000;    0.000
734.490; 3319.300;    0.000;    0.000
734.687; 3271.300;    0.000;    0.000
734.883; 3259.300;    0.000;    0.000
735.079; 3237.300;    0.000;    0.000
735.275; 3283.300;    0.000;    0.000
735.471; 3309.300;    0.000;    0.000
735.667; 3335.300;    0.000;    0.000
735.863; 3243.300;    0.000;    0.000
736.060; 3424.300;    0.000;    0.000
736.256; 3351.300;    0.000;    0.000
736.452; 3394.300;    0.000;    0.000
736.648; 3331.300;    0.000;    0.000
736.844; 3385.300;    0.000;    0.000
737.040; 3396.300;    0.000;    0.000
737.236; 3445.300;    0.000;    0.000
737.432; 3359.300;    0.000;    0.000
737.628; 3563.300;    0.000;    0.000
737.824; 3452.300;    0.000;    0.000
738.019; 3404.300;    0.000;    0.000
738.215; 3490.300;    0.000;    0.000
738.411; 3507.300;    0.000;    0.000
738.607; 3551.300;    0.000;    0.000
738.803; 3538.300;    0.000;    0.000
738.999; 3534.300;    0.000;    0.000
739.195; 3531.300;    0.000;    0.000
739.390; 3641.300;    0.000;    0.000
739.586; 3611.300;    0.000;    0.000
739.782; 3521.300;    0.000;    0.000
739.978; 3601.300;    0.000;    0.000
740.173; 3559.300;    0.000;    0.000
740.369; 3630.300;    0.000;    0.000
740.565; 3651.300;    0.000;    0.000
740.760; 3742.300;    0.000;    0.000
740.956; 3736.300;    0.000;    0.000
741.152; 3729.300;    0.000;    0.000
741.347; 3761.300;    0.000;    0.000
741.543; 3893.300;    0.000;    0.000
741.738; 3913.300;    0.000;    0.000
741.934; 3928.300;    0.000;    0.000
742.129; 4206.300;    0.000;    0.000
742.325; 4500.300;    0.000;    0.000
742.520; 4678.300;    0.000;    0.000
742.716; 4528.300;    0.000;    0.000
742.911; 4520.300;    0.000;    0.000
743.107; 4387.300;    0.000;    0.000
743.302; 4398.300;    0.000;    0.000
743.498; 4515.300;    0.000;    0.000
743.693; 4504.300;    0.000;    0.000
743.888; 4730.300;    0.000;    0.000
744.084; 5129.300;    0.000;    0.000
744.279; 5867.300;    0.000;    0.000
744.474; 5899.300;    0.000;    0.000
744.670; 5548.300;    0.000;    0.000
744.865; 5365.300;    0.000;    0.000
745.060; 5118.300;    0.000;    0.000
745.255; 5065.300;    0.000;    0.000
745.451; 4801.300;    0.000;    0.000
745.646; 4820.300;    0.000;    0.000
745.841; 4886.300;    0.000;    0.000
746.036; 4939.300;    0.000;    0.000
746.231; 4910.300;    0.000;    0.000
746.426; 5224.300;    0.000;    0.000
746.622; 5826.300;    0.000;    0.000
746.817; 7005.300;    0.000;    0.000
747.012; 7593.300;    0.000;    0.000
747.207; 6935.300;    0.000;    0.000
747.402; 6542.300;    0.000;    0.000
747.597; 6057.300;    0.000;    0.000
747.792; 5964.300;    0.000;    0.000
747.987; 5624.300;    0.000;    0.000
748.182; 5731.300;    0.000;    0.000
748.377; 5349.300;    0.000;    0.000
748.572; 5260.300;    0.000;    0.000
748.767; 5002.300;    0.000;    0.000
748.961; 4974.300;    0.000;    0.000
749.156; 4881.300;    0.000;    0.000
749.351; 4862.300;    0.000;    0.000
749.546; 4778.300;    0.000;    0.000
749.741; 4715.300;    0.000;    0.000
749.936; 4701.300;    0.000;    0.000
750.130; 4648.300;    0.000;    0.000
750.325; 4613.300;    0.000;    0.000
750.520; 4585.300;    0.000;    0.000
750.715; 4601.300;    0.000;    0.000
750.909; 4522.300;    0.000;    0.000
751.104; 4484.300;    0.000;    0.000
751.299; 4514.300;    0.000;    0.000
751.493; 4462.300;    0.000;    0.000
751.688; 4508.300;    0.000;    0.000
751.882; 4375.300;    0.000;    0.000
752.077; 4428.300;    0.000;    0.000
752.272; 4409.300;    0.000;    0.000
752.466; 4413.300;    0.000;    0.000
752.661; 4370.300;    0.000;    0.000
752.855; 4395.300;    0.000;    0.000
753.050; 4330.300;    0.000;    0.000
753.244; 4416.300;    0.000;    0.000
753.439; 4234.300;    0.000;    0.000
753.633; 4379.300;    0.000;    0.000
753.828; 4359.300;    0.000;    0.000
754.022; 4205.300;    0.000;    0.000
754.216; 4232.300;    0.000;    0.000
754.411; 4229.300;    0.000;    0.000
754.605; 4245.300;    0.000;    0.000
754.799; 4379.300;    0.000;    0.000
754.994; 4262.300;    0.000;    0.000
755.188; 4304.300;    0.000;    0.000
755.382; 4250.300;    0.000;    0.000
755.576; 4312.300;    0.000;    0.000
755.771; 4263.300;    0.000;    0.000
755.965; 4283.300;    0.000;    0.000
756.159; 4234.300;    0.000;    0.000
756.353; 4277.300;    0.000;    0.000
756.547; 4234.300;    0.000;    0.000
756.742; 4189.300;    0.000;    0.000
756.936; 4337.300;    0.000;    0.000
757.130; 4225.300;    0.000;    0.000
757.324; 4240.300;    0.000;    0.000
757.518; 4313.300;    0.000;    0.000
757.712; 4382.300;    0.000;    0.000
757.906; 4286.300;    0.000;    0.000
758.100; 4180.300;    0.000;    0.000
758.294; 4340.300;    0.000;    0.000
758.488; 4288.300;    0.000;    0.000
758.682; 4249.300;    0.000;    0.000
758.876; 4287.300;    0.000;    0.000
759.070; 4276.300;    0.000;    0.000
759.264; 4348.300;    0.000;    0.000
759.458; 4286.300;    0.000;    0.000
759.651; 4314.300;    0.000;    0.000
759.845; 4289.300;    0.000;    0.000
760.039; 4224.300;    0.000;    0.000
760.233; 4414.300;    0.000;    0.000
760.427; 4357.300;    0.000;    0.000
760.620; 4361.300;    0.000;    0.000
760.814; 4326.300;    0.000;    0.000
761.008; 4480.300;    0.000;    0.000
761.202; 4319.300;    0.000;    0.000
761.395; 4316.300;    0.000;    0.000
761.589; 4378.300;    0.000;    0.000
761.783; 4415.300;    0.000;    0.000
761.976; 4332.300;    0.000;    0.000
762.170; 4473.300;    0.000;    0.000
762.363; 4414.300;    0.000;    0.000
762.557; 4477.300;    0.000;    0.000
762.750; 4421.300;    0.000;    0.000
762.944; 4362.300;    0.000;    0.000
763.138; 4532.300;    0.000;    0.000
763.331; 4519.300;    0.000;    0.000
763.524; 4458.300;    0.000;    0.000
763.718; 4546.300;    0.000;    0.000
763.911; 4585.300;    0.000;    0.000
764.105; 4558.300;    0.000;    0.000
764.298; 4589.300;    0.000;    0.000
764.492; 4547.300;    0.000;    0.000
764.685; 4475.300;    0.000;    0.000
764.878; 4674.300;    0.000;    0.000
765.072; 4519.300;    0.000;    0.000
765.265; 4670.300;    0.000;    0.000
765.458; 4621.300;    0.000;    0.000
765.651; 4829.300;    0.000;    0.000
765.845; 4841.300;    0.000;    0.000
766.038; 5143.300;    0.000;    0.000
766.231; 6867.300;    0.000;    0.000
766.424;10168.300;    0.000;    0.000
766.617; 9362.300;    0.000;    0.000
766.811; 5962.300;    0.000;    0.000
767.004; 5099.300;    0.000;    0.000
767.197; 5003.300;    0.000;    0.000
767.390; 4742.300;    0.000;    0.000
767.583; 4781.300;    0.000;    0.000
767.776; 4691.300;    0.000;    0.000
767.969; 4729.300;    0.000;    0.000
768.162; 4905.300;    0.000;    0.000
768.355; 4723.300;    0.000;    0.000
768.548; 4832.300;    0.000;    0.000
768.741; 4861.300;    0.000;    0.000
768.934; 4890.300;    0.000;    0.000
769.127; 4988.300;    0.000;    0.000
769.320; 5135.300;    0.000;    0.000
769.513; 5558.300;    0.000;    0.000
769.706; 7424.300;    0.000;    0.000
769.898; 9033.300;    0.000;    0.000
770.091; 7420.300;    0.000;    0.000
770.284; 5337.300;    0.000;    0.000
770.477; 5169.300;    0.000;    0.000
770.670; 5134.300;    0.000;    0.000
770.862; 5122.300;    0.000;    0.000
771.055; 5210.300;    0.000;    0.000
771.248; 5128.300;    0.000;    0.000
771.441; 5278.300;    0.000;    0.000
771.633; 5379.300;    0.000;    0.000
771.826; 5349.300;    0.000;    0.000
772.018; 5327.300;    0.000;    0.000
772.211; 5304.300;    0.000;    0.000
772.404; 5423.300;    0.000;    0.000
772.596; 5479.300;    0.000;    0.000
772.789; 5582.300;    0.000;    0.000
772.981; 5607.300;    0.000;    0.000
773.174; 5762.300;    0.000;    0.000
773.366; 5783.300;    0.000;    0.000
773.559; 5769.300;    0.000;    0.000
773.751; 5955.300;    0.000;    0.000
773.944; 5987.300;    0.000;    0.000
774.136; 6193.300;    0.000;    0.000
774.329; 6349.300;    0.000;    0.000
774.521; 6326.300;    0.000;    0.000
774.713; 6543.300;    0.000;    0.000
774.906; 6701.300;    0.000;    0.000
775.098; 7056.300;    0.000;    0.000
775.290; 7212.300;    0.000;    0.000
775.483; 7673.300;    0.000;    0.000
775.675; 8039.300;    0.000;    0.000
775.867; 8686.300;    0.000;    0.000
776.059; 9354.300;    0.000;    0.000
776.251;10350.300;    0.000;    0.000
776.444;11568.300;    0.000;    0.000
776.636;13429.300;    0.000;    0.000
776.828;16687.301;    0.000;    0.000
777.020;23077.301;    0.000;    0.000
777.212;30479.301;    0.000;    0.000
777.404;33018.301;    0.000;    0.000
777.596;29838.301;    0.000;    0.000
777.788;23573.301;    0.000;    0.000
777.980;18514.301;    0.000;    0.000
778.172;15703.300;    0.000;    0.000
778.364;13479.300;    0.000;    0.000
778.556;12193.300;    0.000;    0.000
778.748;10998.300;    0.000;    0.000
778.940;10201.300;    0.000;    0.000
779.132; 9371.300;    0.000;    0.000
779.324; 8661.300;    0.000;    0.000
779.516; 8412.300;    0.000;    0.000
779.708; 8083.300;    0.000;    0.000
779.900; 7668.300;    0.000;    0.000
780.091; 7341.300;    0.000;    0.000
780.283; 7204.300;    0.000;    0.000
780.475; 6950.300;    0.000;    0.000
780.667; 6725.300;    0.000;    0.000
780.859; 6528.300;    0.000;    0.000
781.050; 6374.300;    0.000;    0.000
781.242; 6302.300;    0.000;    0.000
781.434; 6141.300;    0.000;    0.000
781.625; 6150.300;    0.000;    0.000
781.817; 5856.300;    0.000;    0.000
782.008; 5793.300;    0.000;    0.000
782.200; 5795.300;    0.000;    0.000
782.392; 5670.300;    0.000;    0.000
782.583; 5597.300;    0.000;    0.000
782.775; 5556.300;    0.000;    0.000
782.966; 5502.300;    0.000;    0.000
783.158; 5377.300;    0.000;    0.000
783.349; 5377.300;    0.000;    0.000
783.541; 5332.300;    0.000;    0.000
783.732; 5290.300;    0.000;    0.000
783.924; 5207.300;    0.000;    0.000
784.115; 5254.300;    0.000;    0.000
784.306; 5110.300;    0.000;    0.000
784.498; 5120.300;    0.000;    0.000
784.689; 5125.300;    0.000;    0.000
784.880; 5139.300;    0.000;    0.000
785.072; 5011.300;    0.000;    0.000
785.263; 4959.300;    0.000;    0.000
785.454; 4924.300;    0.000;    0.000
785.645; 4978.300;    0.000;    0.000
785.837; 5099.300;    0.000;    0.000
786.028; 4933.300;    0.000;    0.000
786.219; 5031.300;    0.000;    0.000
786.410; 4994.300;    0.000;    0.000
786.601; 4949.300;    0.000;    0.000
786.792; 4931.300;    0.000;    0.000
786.984; 4952.300;    0.000;    0.000
787.175; 4995.300;    0.000;    0.000
787.366; 5011.300;    0.000;    0.000
787.557; 4950.300;    0.000;    0.000
787.748; 4921.300;    0.000;    0.000
787.939; 5160.300;    0.000;    0.000
788.130; 4969.300;    0.000;    0.000
788.321; 4965.300;    0.000;    0.000
788.512; 5043.300;    0.000;    0.000
788.703; 5068.300;    0.000;    0.000
788.894; 4904.300;    0.000;    0.000
789.084; 4966.300;    0.000;    0.000
789.275; 5092.300;    0.000;    0.000
789.466; 5089.300;    0.000;    0.000
789.657; 5068.300;    0.000;    0.000
789.848; 5114.300;    0.000;    0.000
790.039; 4999.300;    0.000;    0.000
790.229; 5018.300;    0.000;    0.000
790.420; 4954.300;    0.000;    0.000
790.611; 5022.300;    0.000;    0.000
790.801; 4975.300;    0.000;    0.000
790.992; 4979.300;    0.000;    0.000
791.183; 5101.300;    0.000;    0.000
791.373; 5109.300;    0.000;    0.000
791.564; 4971.300;    0.000;    0.000
791.755; 5089.300;    0.000;    0.000
791.945; 5069.300;    0.000;    0.000
792.136; 5152.300;    0.000;    0.000
792.326; 4940.300;    0.000;    0.000
792.517; 5007.300;    0.000;    0.000
792.707; 5040.300;    0.000;    0.000
792.898; 5142.300;    0.000;    0.000
793.088; 5234.300;    0.000;    0.000
793.279; 5190.300;    0.000;    0.000
793.469; 5143.300;    0.000;    0.000
793.660; 5334.300;    0.000;    0.000
793.850; 5381.300;    0.000;    0.000
794.040; 5545.300;    0.000;    0.000
794.231; 5745.300;    0.000;    0.000
794.421; 6085.300;    0.000;    0.000
794.611; 6791.300;    0.000;    0.000
794.802; 7350.300;    0.000;    0.000
794.992; 7630.300;    0.000;    0.000
795.182; 7722.300;    0.000;    0.000
795.372; 7392.300;    0.000;    0.000
795.563; 6949.300;    0.000;    0.000
795.753; 6403.300;    0.000;    0.000
795.943; 6095.300;    0.000;    0.000
796.133; 5859.300;    0.000;    0.000
796.323; 5636.300;    0.000;    0.000
796.513; 5566.300;    0.000;    0.000
796.703; 5385.300;    0.000;    0.000
796.893; 5291.300;    0.000;    0.000
797.083; 5289.300;    0.000;    0.000
797.273; 5242.300;    0.000;    0.000
797.463; 5181.300;    0.000;    0.000
797.653; 5038.300;    0.000;    0.000
797.843; 4983.300;    0.000;    0.000
798.033; 4944.300;    0.000;    0.000
798.223; 4961.300;    0.000;    0.000
798.413; 4824.300;    0.000;    0.000
798.603; 4539.300;    0.000;    0.000
798.793; 4545.300;    0.000;    0.000
798.983; 4648.300;    0.000;    0.000
799.172; 4560.300;    0.000;    0.000
799.362; 4542.300;    0.000;    0.000
799.552; 4593.300;    0.000;    0.000
799.742; 4560.300;    0.000;    0.000
799.932; 4454.300;    0.000;    0.000
800.121; 4564.300;    0.000;    0.000
800.311; 4469.300;    0.000;    0.000
800.501; 4404.300;    0.000;    0.000
800.690; 4362.300;    0.000;    0.000
800.880; 4365.300;    0.000;    0.000
801.070; 4432.300;    0.000;    0.000
801.259; 4288.300;    0.000;    0.000
801.449; 4332.300;    0.000;    0.000
801.638; 4357.300;    0.000;    0.000
801.828; 4408.300;    0.000;    0.000
802.017; 4302.300;    0.000;    0.000
802.207; 4262.300;    0.000;    0.000
802.396; 4252.300;    0.000;    0.000
802.586; 4192.300;    0.000;    0.000
802.775; 4140.300;    0.000;    0.000
802.965; 4191.300;    0.000;    0.000
803.154; 4191.300;    0.000;    0.000
803.343; 4096.300;    0.000;    0.000
803.533; 4192.300;    0.000;    0.000
803.722; 4178.300;    0.000;    0.000
803.911; 4107.300;    0.000;    0.000
804.101; 4123.300;    0.000;    0.000
804.290; 4178.300;    0.000;    0.000
804.479; 4126.300;    0.000;    0.000
804.668; 4213.300;    0.000;    0.000
804.857; 4037.300;    0.000;    0.000
805.047; 4207.300;    0.000;    0.000
805.236; 4163.300;    0.000;    0.000
805.425; 4069.300;    0.000;    0.000
805.614; 4158.300;    0.000;    0.000
805.803; 4138.300;    0.000;    0.000
805.992; 4167.300;    0.000;    0.000
806.181; 4117.300;    0.000;    0.000
806.370; 4128.300;    0.000;    0.000
806.559; 4119.300;    0.000;    0.000
806.748; 4129.300;    0.000;    0.000
806.937; 4053.300;    0.000;    0.000
807.126; 4112.300;    0.000;    0.000
807.315; 4060.300;    0.000;    0.000
807.504; 4155.300;    0.000;    0.000
807.693; 4156.300;    0.000;    0.000
807.882; 4094.300;    0.000;    0.000
808.071; 4096.300;    0.000;    0.000
808.260; 4032.300;    0.000;    0.000
808.448; 4215.300;    0.000;    0.000
808.637; 3978.300;    0.000;    0.000
808.826; 4181.300;    0.000;    0.000
809.015; 4080.300;    0.000;    0.000
809.203; 4170.300;    0.000;    0.000
809.392; 4133.300;    0.000;    0.000
809.581; 4231.300;    0.000;    0.000
809.770; 4114.300;    0.000;    0.000
809.958; 4114.300;    0.000;    0.000
810.147; 4157.300;    0.000;    0.000
810.335; 4168.300;    0.000;    0.000
810.524; 4253.300;    0.000;    0.000
810.713; 4195.300;    0.000;    0.000
810.901; 4215.300;    0.000;    0.000
811.090; 4398.300;    0.000;    0.000
811.278; 4348.300;    0.000;    0.000
811.467; 4394.300;    0.000;    0.000
811.655; 4525.300;    0.000;    0.000
811.844; 4447.300;    0.000;    0.000
812.032; 4473.300;    0.000;    0.000
812.220; 4488.300;    0.000;    0.000
812.409; 4443.300;    0.000;    0.000
812.597; 4506.300;    0.000;    0.000
812.785; 4573.300;    0.000;    0.000
812.974; 4582.300;    0.000;    0.000
813.162; 4652.300;    0.000;    0.000
813.350; 4667.300;    0.000;    0.000
813.539; 4603.300;    0.000;    0.000
813.727; 4724.300;    0.000;    0.000
813.915; 4711.300;    0.000;    0.000
814.103; 4724.300;    0.000;    0.000
814.291; 4789.300;    0.000;    0.000
814.479; 4769.300;    0.000;    0.000
814.668; 4868.300;    0.000;    0.000
814.856; 4885.300;    0.000;    0.000
815.044; 4980.300;    0.000;    0.000
815.232; 5036.300;    0.000;    0.000
815.420; 5188.300;    0.000;    0.000
815.608; 5222.300;    0.000;    0.000
815.796; 5360.300;    0.000;    0.000
815.984; 5596.300;    0.000;    0.000
816.172; 5484.300;    0.000;    0.000
816.360; 5890.300;    0.000;    0.000
816.548; 5939.300;    0.000;    0.000
816.736; 6136.300;    0.000;    0.000
816.924; 6542.300;    0.000;    0.000
817.111; 6738.300;    0.000;    0.000
817.299; 7149.300;    0.000;    0.000
817.487; 7681.300;    0.000;    0.000
817.675; 8622.300;    0.000;    0.000
817.863;10143.300;    0.000;    0.000
818.050;14631.300;    0.000;    0.000
818.238;23776.301;    0.000;    0.000
818.426;26622.301;    0.000;    0.000
818.613;20949.301;    0.000;    0.000
818.801;17607.301;    0.000;    0.000
818.989;17339.301;    0.000;    0.000
819.176;20218.301;    0.000;    0.000
819.364;29743.301;    0.000;    0.000
819.552;33506.301;    0.000;    0.000
819.739;26437.301;    0.000;    0.000
819.927;19743.301;    0.000;    0.000
820.114;16567.301;    0.000;    0.000
820.302;14949.300;    0.000;    0.000
820.489;13653.300;    0.000;    0.000
820.677;12756.300;    0.000;    0.000
820.864;12279.300;    0.000;    0.000
821.052;12303.300;    0.000;    0.000
821.239;12430.300;    0.000;    0.000
821.426;13038.300;    0.000;    0.000
821.614;14288.300;    0.000;    0.000
821.801;14131.300;    0.000;    0.000
821.988;13249.300;    0.000;    0.000
822.176;12677.300;    0.000;    0.000
822.363;12565.300;    0.000;    0.000
822.550;11910.300;    0.000;    0.000
822.737;10985.300;    0.000;    0.000
822.924;10160.300;    0.000;    0.000
823.112; 9642.300;    0.000;    0.000
823.299; 9304.300;    0.000;    0.000
823.486; 8855.300;    0.000;    0.000
823.673; 8374.300;    0.000;    0.000
823.860; 8200.300;    0.000;    0.000
824.047; 8387.300;    0.000;    0.000
824.234; 8882.300;    0.000;    0.000
824.421; 8651.300;    0.000;    0.000
824.608; 8081.300;    0.000;    0.000
824.795; 7476.300;    0.000;    0.000
824.982; 7081.300;    0.000;    0.000
825.169; 6745.300;    0.000;    0.000
825.356; 6473.300;    0.000;    0.000
825.543; 6174.300;    0.000;    0.000
825.730; 6012.300;    0.000;    0.000
825.917; 5982.300;    0.000;    0.000
826.104; 5772.300;    0.000;    0.000
826.290; 5726.300;    0.000;    0.000
826.477; 5553.300;    0.000;    0.000
826.664; 5348.300;    0.000;    0.000
826.851; 5147.300;    0.000;    0.000
827.038; 5138.300;    0.000;    0.000
827.224; 5099.300;    0.000;    0.000
827.411; 5110.300;    0.000;    0.000
827.598; 4888.300;    0.000;    0.000
827.784; 4827.300;    0.000;    0.000
827.971; 4619.300;    0.000;    0.000
828.157; 4763.300;    0.000;    0.000
828.344; 4631.300;    0.000;    0.000
828.531; 4524.300;    0.000;    0.000
828.717; 4501.300;    0.000;    0.000
828.904; 4445.300;    0.000;    0.000
829.090; 4397.300;    0.000;    0.000
829.277; 4359.300;    0.000;    0.000
829.463; 4230.300;    0.000;    0.000
829.650; 4248.300;    0.000;    0.000
829.836; 4158.300;    0.000;    0.000
830.022; 4180.300;    0.000;    0.000
830.209; 4173.300;    0.000;    0.000
830.395; 4081.300;    0.000;    0.000
830.581; 3972.300;    0.000;    0.000
830.768; 4015.300;    0.000;    0.000
830.954; 3930.300;    0.000;    0.000
831.140; 3960.300;    0.000;    0.000
831.327; 3896.300;    0.000;    0.000
831.513; 3962.300;    0.000;    0.000
831.699; 3781.300;    0.000;    0.000
831.885; 3919.300;    0.000;    0.000
832.071; 3838.300;    0.000;    0.000
832.257; 3904.300;    0.000;    0.000
832.444; 3835.300;    0.000;    0.000
832.630; 3772.300;    0.000;    0.000
832.816; 3729.300;    0.000;    0.000
833.002; 3713.300;    0.000;    0.000
833.188; 3782.300;    0.000;    0.000
833.374; 3653.300;    0.000;    0.000
833.560; 3620.300;    0.000;    0.000
833.746; 3562.300;    0.000;    0.000
833.932; 3514.300;    0.000;    0.000
834.118; 3533.300;    0.000;    0.000
834.303; 3630.300;    0.000;    0.000
834.489; 3556.300;    0.000;    0.000
834.675; 3511.300;    0.000;    0.000
834.861; 3585.300;    0.000;    0.000
835.047; 3444.300;    0.000;    0.000
835.233; 3427.300;    0.000;    0.000
835.418; 3416.300;    0.000;    0.000
835.604; 3419.300;    0.000;    0.000
835.790; 3410.300;    0.000;    0.000
835.976; 3460.300;    0.000;    0.000
836.161; 3451.300;    0.000;    0.000
836.347; 3314.300;    0.000;    0.000
836.533; 3395.300;    0.000;    0.000
836.718; 3441.300;    0.000;    0.000
836.904; 3398.300;    0.000;    0.000
837.089; 3309.300;    0.000;    0.000
837.275; 3365.300;    0.000;    0.000
837.460; 3435.300;    0.000;    0.000
837.646; 3378.300;    0.000;    0.000
837.831; 3295.300;    0.000;    0.000
838.017; 3456.300;    0.000;    0.000
838.202; 3282.300;    0.000;    0.000
838.388; 3351.300;    0.000;    0.000
838.573; 3353.300;    0.000;    0.000
838.759; 3453.300;    0.000;    0.000
838.944; 3296.300;    0.000;    0.000
839.129; 3287.300;    0.000;    0.000
839.315; 3243.300;    0.000;    0.000
839.500; 3298.300;    0.000;    0.000
839.685; 3360.300;    0.000;    0.000
839.870; 3426.300;    0.000;    0.000
840.056; 3339.300;    0.000;    0.000
840.241; 3383.300;    0.000;    0.000
840.426; 3387.300;    0.000;    0.000
840.611; 3444.300;    0.000;    0.000
840.796; 3369.300;    0.000;    0.000
840.981; 3447.300;    0.000;    0.000
841.166; 3513.300;    0.000;    0.000
841.352; 3503.300;    0.000;    0.000
841.537; 3482.300;    0.000;    0.000
841.722; 3460.300;    0.000;    0.000
841.907; 3573.300;    0.000;    0.000
842.092; 3536.300;    0.000;    0.000
842.277; 3655.300;    0.000;    0.000
842.461; 3727.300;    0.000;    0.000
842.646; 3702.300;    0.000;    0.000
842.831; 3836.300;    0.000;    0.000
843.016; 3996.300;    0.000;    0.000
843.201; 4101.300;    0.000;    0.000
843.386; 4025.300;    0.000;    0.000
843.571; 4257.300;    0.000;    0.000
843.755; 4580.300;    0.000;    0.000
843.940; 4878.300;    0.000;    0.000
844.125; 5498.300;    0.000;    0.000
844.310; 6392.300;    0.000;    0.000
844.494; 7974.300;    0.000;    0.000
844.679; 9552.300;    0.000;    0.000
844.864; 9245.300;    0.000;    0.000
845.048; 7851.300;    0.000;    0.000
845.233; 6910.300;    0.000;    0.000
845.418; 6133.300;    0.000;    0.000
845.602; 5662.300;    0.000;    0.000
845.787; 5302.300;    0.000;    0.000
845.971; 4905.300;    0.000;    0.000
846.156; 4509.300;    0.000;    0.000
846.340; 4452.300;    0.000;    0.000
846.525; 4229.300;    0.000;    0.000
846.709; 4025.300;    0.000;    0.000
846.893; 3968.300;    0.000;    0.000
847.078; 3820.300;    0.000;    0.000
847.262; 3744.300;    0.000;    0.000
847.447; 3642.300;    0.000;    0.000
847.631; 3574.300;    0.000;    0.000
847.815; 3482.300;    0.000;    0.000
848.000; 3340.300;    0.000;    0.000
848.184; 3496.300;    0.000;    0.000
848.368; 3379.300;    0.000;    0.000
848.552; 3271.300;    0.000;    0.000
848.736; 3257.300;    0.000;    0.000
848.921; 3134.300;    0.000;    0.000
849.105; 3210.300;    0.000;    0.000
849.289; 3221.300;    0.000;    0.000
849.473; 3203.300;    0.000;    0.000
849.657; 3194.300;    0.000;    0.000
849.841; 3175.300;    0.000;    0.000
850.025; 3083.300;    0.000;    0.000
850.209; 3208.300;    0.000;    0.000
850.393; 3025.300;    0.000;    0.000
850.577; 3111.300;    0.000;    0.000
850.761; 3075.300;    0.000;    0.000
850.945; 2983.300;    0.000;    0.000
851.129; 3006.300;    0.000;    0.000
851.313; 3030.300;    0.000;    0.000
851.497; 2897.300;    0.000;    0.000
851.680; 2905.300;    0.000;    0.000
851.864; 3009.300;    0.000;    0.000
852.048; 3041.300;    0.000;    0.000
852.232; 2973.300;    0.000;    0.000
852.416; 3038.300;    0.000;    0.000
852.599; 2912.300;    0.000;    0.000
852.783; 2910.300;    0.000;    0.000
852.967; 2974.300;    0.000;    0.000
853.150; 2866.300;    0.000;    0.000
853.334; 2903.300;    0.000;    0.000
853.518; 2890.300;    0.000;    0.000
853.701; 2895.300;    0.000;    0.000
853.885; 2957.300;    0.000;    0.000
854.068; 2815.300;    0.000;    0.000
854.252; 2881.300;    0.000;    0.000
854.435; 2861.300;    0.000;    0.000
854.619; 2819.300;    0.000;    0.000
854.802; 2804.300;    0.000;    0.000
854.986; 2873.300;    0.000;    0.000
855.169; 2894.300;    0.000;    0.000
855.353; 2874.300;    0.000;    0.000
855.536; 2809.300;    0.000;    0.000
855.719; 2860.300;    0.000;    0.000
855.903; 2884.300;    0.000;    0.000
856.086; 2851.300;    0.000;    0.000
856.269; 2895.300;    0.000;    0.000
856.452; 2912.300;    0.000;    0.000
856.636; 2914.300;    0.000;    0.000
856.819; 3096.300;    0.000;    0.000
857.002; 3079.300;    0.000;    0.000
857.185; 3161.300;    0.000;    0.000
857.368; 3134.300;    0.000;    0.000
857.552; 3007.300;    0.000;    0.000
857.735; 3130.300;    0.000;    0.000
857.918; 2961.300;    0.000;    0.000
858.101; 2970.300;    0.000;    0.000
858.284; 2929.300;    0.000;    0.000
858.467; 2935.300;    0.000;    0.000
858.650; 3115.300;    0.000;    0.000
858.833; 3030.300;    0.000;    0.000
859.016; 3115.300;    0.000;    0.000
859.199; 3254.300;    0.000;    0.000
859.382; 3497.300;    0.000;    0.000
859.564; 3707.300;    0.000;    0.000
859.747; 3525.300;    0.000;    0.000
859.930; 3445.300;    0.000;    0.000
860.113; 3409.300;    0.000;    0.000
860.296; 3332.300;    0.000;    0.000
860.478; 3183.300;    0.000;    0.000
860.661; 3214.300;    0.000;    0.000
860.844; 3196.300;    0.000;    0.000
861.027; 3232.300;    0.000;    0.000
861.209; 3180.300;    0.000;    0.000
861.392; 3197.300;    0.000;    0.000
861.575; 3219.300;    0.000;    0.000
861.757; 3252.300;    0.000;    0.000
861.940; 3396.300;    0.000;    0.000
862.122; 3202.300;    0.000;    0.000
862.305; 3352.300;    0.000;    0.000
862.487; 3665.300;    0.000;    0.000
862.670; 3806.300;    0.000;    0.000
862.852; 4244.300;    0.000;    0.000
863.035; 4591.300;    0.000;    0.000
863.217; 4578.300;    0.000;    0.000
863.400; 4420.300;    0.000;    0.000
863.582; 4147.300;    0.000;    0.000
863.764; 4036.300;    0.000;    0.000
863.947; 3839.300;    0.000;    0.000
864.129; 3721.300;    0.000;    0.000
864.311; 3702.300;    0.000;    0.000
864.493; 3681.300;    0.000;    0.000
864.676; 3668.300;    0.000;    0.000
864.858; 3599.300;    0.000;    0.000
865.040; 3688.300;    0.000;    0.000
865.222; 3649.300;    0.000;    0.000
865.404; 3762.300;    0.000;    0.000
865.587; 3904.300;    0.000;    0.000
865.769; 4011.300;    0.000;    0.000
865.951; 3914.300;    0.000;    0.000
866.133; 3938.300;    0.000;    0.000
866.315; 3927.300;    0.000;    0.000
866.497; 3986.300;    0.000;    0.000
866.679; 4143.300;    0.000;    0.000
866.861; 4195.300;    0.000;    0.000
867.043; 4413.300;    0.000;    0.000
867.225; 4611.300;    0.000;    0.000
867.407; 4943.300;    0.000;    0.000
867.589; 5651.300;    0.000;    0.000
867.770; 6749.300;    0.000;    0.000
867.952; 8792.300;    0.000;    0.000
868.134;10077.300;    0.000;    0.000
868.316;10393.300;    0.000;    0.000
868.498; 9793.300;    0.000;    0.000
868.679; 8690.300;    0.000;    0.000
868.861; 7498.300;    0.000;    0.000
869.043; 6518.300;    0.000;    0.000
869.224; 5878.300;    0.000;    0.000
869.406; 5558.300;    0.000;    0.000
869.588; 5331.300;    0.000;    0.000
869.769; 5001.300;    0.000;    0.000
869.951; 4999.300;    0.000;    0.000
870.132; 5177.300;    0.000;    0.000
870.314; 5371.300;    0.000;    0.000
870.495; 5363.300;    0.000;    0.000
870.677; 5030.300;    0.000;    0.000
870.858; 4875.300;    0.000;    0.000
871.040; 5232.300;    0.000;    0.000
871.221; 5367.300;    0.000;    0.000
871.403; 5155.300;    0.000;    0.000
871.584; 5065.300;    0.000;    0.000
871.765; 5117.300;    0.000;    0.000
871.947; 5172.300;    0.000;    0.000
872.128; 4781.300;    0.000;    0.000
872.309; 4323.300;    0.000;    0.000
872.491; 4126.300;    0.000;    0.000
872.672; 3864.300;    0.000;    0.000
872.853; 3864.300;    0.000;    0.000
873.034; 3720.300;    0.000;    0.000
873.215; 3623.300;    0.000;    0.000
873.396; 3427.300;    0.000;    0.000
873.578; 3366.300;    0.000;    0.000
873.759; 3220.300;    0.000;    0.000
873.940; 3202.300;    0.000;    0.000
874.121; 3149.300;    0.000;    0.000
874.302; 3205.300;    0.000;    0.000
874.483; 3055.300;    0.000;    0.000
874.664; 3132.300;    0.000;    0.000
874.845; 3027.300;    0.000;    0.000
875.026; 2912.300;    0.000;    0.000
875.207; 2926.300;    0.000;    0.000
875.388; 2923.300;    0.000;    0.000
875.568; 2950.300;    0.000;    0.000
875.749; 2809.300;    0.000;    0.000
875.930; 2856.300;    0.000;    0.000
876.111; 2787.300;    0.000;    0.000
876.292; 2665.300;    0.000;    0.000
876.472; 2785.300;    0.000;    0.000
876.653; 2746.300;    0.000;    0.000
876.834; 2708.300;    0.000;    0.000
877.015; 2653.300;    0.000;    0.000
877.195; 2696.300;    0.000;    0.000
877.376; 2572.300;    0.000;    0.000
877.556; 2713.300;    0.000;    0.000
877.737; 2616.300;    0.000;    0.000
877.918; 2682.300;    0.000;    0.000
878.098; 2524.300;    0.000;    0.000
878.279; 2646.300;    0.000;    0.000
878.459; 2518.300;    0.000;    0.000
878.640; 2534.300;    0.000;    0.000
878.820; 2645.300;    0.000;    0.000
879.000; 2580.300;    0.000;    0.000
879.181; 2561.300;    0.000;    0.000
879.361; 2547.300;    0.000;    0.000
879.542; 2541.300;    0.000;    0.000
879.722; 2592.300;    0.000;    0.000
879.902; 2588.300;    0.000;    0.000
880.083; 2666.300;    0.000;    0.000
880.263; 2663.300;    0.000;    0.000
880.443; 2990.300;    0.000;    0.000
880.623; 3414.300;    0.000;    0.000
880.803; 3466.300;    0.000;    0.000
880.984; 3123.300;    0.000;    0.000
881.164; 2885.300;    0.000;    0.000
881.344; 2755.300;    0.000;    0.000
881.524; 2791.300;    0.000;    0.000
881.704; 2739.300;    0.000;    0.000
881.884; 2909.300;    0.000;    0.000
882.064; 2826.300;    0.000;    0.000
882.244; 2873.300;    0.000;    0.000
882.424; 2815.300;    0.000;    0.000
882.604; 2669.300;    0.000;    0.000
882.784; 2672.300;    0.000;    0.000
882.964; 2633.300;    0.000;    0.000
883.144; 2560.300;    0.000;    0.000
883.324; 2585.300;    0.000;    0.000
883.504; 2546.300;    0.000;    0.000
883.683; 2546.300;    0.000;    0.000
883.863; 2496.300;    0.000;    0.000
884.043; 2504.300;    0.000;    0.000
884.223; 2404.300;    0.000;    0.000
884.402; 2421.300;    0.000;    0.000
884.582; 2443.300;    0.000;    0.000
884.762; 2426.300;    0.000;    0.000
884.941; 2450.300;    0.000;    0.000
885.121; 2428.300;    0.000;    0.000
885.301; 2482.300;    0.000;    0.000
885.480; 2431.300;    0.000;    0.000
885.660; 2445.300;    0.000;    0.000
885.839; 2329.300;    0.000;    0.000
886.019; 2330.300;    0.000;    0.000
886.198; 2341.300;    0.000;    0.000
886.378; 2389.300;    0.000;    0.000
886.557; 2384.300;    0.000;    0.000
886.737; 2250.300;    0.000;    0.000
886.916; 2273.300;    0.000;    0.000
887.095; 2434.300;    0.000;    0.000
887.275; 2398.300;    0.000;    0.000
887.454; 2312.300;    0.000;    0.000
887.633; 2445.300;    0.000;    0.000
887.813; 2410.300;    0.000;    0.000
887.992; 2369.300;    0.000;    0.000
888.171; 2245.300;    0.000;    0.000
888.350; 2314.300;    0.000;    0.000
888.530; 2232.300;    0.000;    0.000
888.709; 2265.300;    0.000;    0.000
888.888; 2284.300;    0.000;    0.000
889.067; 2328.300;    0.000;    0.000
889.246; 2339.300;    0.000;    0.000
889.425; 2346.300;    0.000;    0.000
889.604; 2270.300;    0.000;    0.000
889.783; 2244.300;    0.000;    0.000
889.962; 2214.300;    0.000;    0.000
890.141; 2323.300;    0.000;    0.000
890.320; 2271.300;    0.000;    0.000
890.499; 2317.300;    0.000;    0.000
890.678; 2296.300;    0.000;    0.000
890.857; 2183.300;    0.000;    0.000
891.036; 2353.300;    0.000;    0.000
891.214; 2191.300;    0.000;    0.000
891.393; 2338.300;    0.000;    0.000
891.572; 2300.300;    0.000;    0.000
891.751; 2323.300;    0.000;    0.000
891.930; 2158.300;    0.000;    0.000
892.108; 2255.300;    0.000;    0.000
892.287; 2263.300;    0.000;    0.000
892.466; 2250.300;    0.000;    0.000
892.644; 2315.300;    0.000;    0.000
892.823; 2225.300;    0.000;    0.000
893.001; 2239.300;    0.000;    0.000
893.180; 2161.300;    0.000;    0.000
893.359; 2345.300;    0.000;    0.000
893.537; 2201.300;    0.000;    0.000
893.716; 2304.300;    0.000;    0.000
893.894; 2315.300;    0.000;    0.000
894.073; 2238.300;    0.000;    0.000
894.251; 2216.300;    0.000;    0.000
894.429; 2188.300;    0.000;    0.000
894.608; 2244.300;    0.000;    0.000
894.786; 2175.300;    0.000;    0.000
894.964; 2279.300;    0.000;    0.000
895.143; 2264.300;    0.000;    0.000
895.321; 2246.300;    0.000;    0.000
895.499; 2222.300;    0.000;    0.000
895.677; 2247.300;    0.000;    0.000
895.856; 2315.300;    0.000;    0.000
896.034; 2300.300;    0.000;    0.000
896.212; 2255.300;    0.000;    0.000
896.390; 2255.300;    0.000;    0.000
896.568; 2223.300;    0.000;    0.000
896.746; 2237.300;    0.000;    0.000
896.924; 2214.300;    0.000;    0.000
897.102; 2273.300;    0.000;    0.000
897.280; 2207.300;    0.000;    0.000
897.458; 2257.300;    0.000;    0.000
897.636; 2250.300;    0.000;    0.000
897.814; 2281.300;    0.000;    0.000
897.992; 2404.300;    0.000;    0.000
898.170; 2219.300;    0.000;    0.000
898.348; 2264.300;    0.000;    0.000
898.526; 2345.300;    0.000;    0.000
898.704; 2344.300;    0.000;    0.000
898.882; 2296.300;    0.000;    0.000
899.059; 2311.300;    0.000;    0.000
899.237; 2302.300;    0.000;    0.000
899.415; 2326.300;    0.000;    0.000
899.593; 2304.300;    0.000;    0.000
899.770; 2314.300;    0.000;    0.000
899.948; 2421.300;    0.000;    0.000
900.125; 2319.300;    0.000;    0.000
900.303; 2359.300;    0.000;    0.000
900.481; 2272.300;    0.000;    0.000
900.658; 2441.300;    0.000;    0.000
900.836; 2382.300;    0.000;    0.000
901.013; 2381.300;    0.000;    0.000
901.191; 2425.300;    0.000;    0.000
901.368; 2416.300;    0.000;    0.000
901.546; 2468.300;    0.000;    0.000
901.723; 2485.300;    0.000;    0.000
901.901; 2526.300;    0.000;    0.000
902.078; 2518.300;    0.000;    0.000
902.255; 2514.300;    0.000;    0.000
902.433; 2594.300;    0.000;    0.000
902.610; 2628.300;    0.000;    0.000
902.787; 2551.300;    0.000;    0.000
902.964; 2549.300;    0.000;    0.000
903.142; 2585.300;    0.000;    0.000
903.319; 2709.300;    0.000;    0.000
903.496; 2656.300;    0.000;    0.000
903.673; 2747.300;    0.000;    0.000
903.850; 2836.300;    0.000;    0.000
904.027; 2964.300;    0.000;    0.000
904.204; 3098.300;    0.000;    0.000
904.381; 3214.300;    0.000;    0.000
904.558; 3485.300;    0.000;    0.000
904.735; 3630.300;    0.000;    0.000
904.912; 3714.300;    0.000;    0.000
905.089; 3639.300;    0.000;    0.000
905.266; 3465.300;    0.000;    0.000
905.443; 3354.300;    0.000;    0.000
905.620; 3279.300;    0.000;    0.000
905.797; 3089.300;    0.000;    0.000
905.974; 3141.300;    0.000;    0.000
906.151; 2980.300;    0.000;    0.000
906.327; 2963.300;    0.000;    0.000
906.504; 3001.300;    0.000;    0.000
906.681; 2918.300;    0.000;    0.000
906.858; 2924.300;    0.000;    0.000
907.034; 2846.300;    0.000;    0.000
907.211; 2713.300;    0.000;    0.000
907.388; 2730.300;    0.000;    0.000
907.564; 2721.300;    0.000;    0.000
907.741; 2718.300;    0.000;    0.000
907.917; 2695.300;    0.000;    0.000
908.094; 2550.300;    0.000;    0.000
908.271; 2601.300;    0.000;    0.000
908.447; 2606.300;    0.000;    0.000
908.623; 2551.300;    0.000;    0.000
908.800; 2587.300;    0.000;    0.000
908.976; 2581.300;    0.000;    0.000
909.153; 2480.300;    0.000;    0.000
909.329; 2603.300;    0.000;    0.000
909.505; 2467.300;    0.000;    0.000
909.682; 2419.300;    0.000;    0.000
909.858; 2496.300;    0.000;    0.000
910.034; 2444.300;    0.000;    0.000
910.211; 2437.300;    0.000;    0.000
910.387; 2519.300;    0.000;    0.000
910.563; 2489.300;    0.000;    0.000
910.739; 2432.300;    0.000;    0.000
910.915; 2392.300;    0.000;    0.000
911.091; 2480.300;    0.000;    0.000
911.268; 2461.300;    0.000;    0.000
911.444; 2420.300;    0.000;    0.000
911.620; 2388.300;    0.000;    0.000
911.796; 2450.300;    0.000;    0.000
911.972; 2428.300;    0.000;    0.000
912.148; 2420.300;    0.000;    0.000
912.324; 2434.300;    0.000;    0.000
912.500; 2498.300;    0.000;    0.000
912.676; 2465.300;    0.000;    0.000
912.851; 2460.300;    0.000;    0.000
913.027; 2436.300;    0.000;    0.000
913.203; 2423.300;    0.000;    0.000
913.379; 2409.300;    0.000;    0.000
913.555; 2404.300;    0.000;    0.000
913.730; 2424.300;    0.000;    0.000
913.906; 2464.300;    0.000;    0.000
914.082; 2485.300;    0.000;    0.000
914.258; 2408.300;    0.000;    0.000
914.433; 2362.300;    0.000;    0.000
914.609; 2354.300;    0.000;    0.000
914.784; 2304.300;    0.000;    0.000
914.960; 2398.300;    0.000;    0.000
915.136; 2354.300;    0.000;    0.000
915.311; 2495.300;    0.000;    0.000
915.487; 2299.300;    0.000;    0.000
915.662; 2432.300;    0.000;    0.000
915.838; 2395.300;    0.000;    0.000
916.013; 2375.300;    0.000;    0.000
916.189; 2427.300;    0.000;    0.000
916.364; 2469.300;    0.000;    0.000
916.539; 2438.300;    0.000;    0.000
916.715; 2397.300;    0.000;    0.000
916.890; 2345.300;    0.000;    0.000
917.065; 2417.300;    0.000;    0.000
917.240; 2442.300;    0.000;    0.000
917.416; 2451.300;    0.000;    0.000
917.591; 2432.300;    0.000;    0.000
917.766; 2442.300;    0.000;    0.000
917.941; 2346.300;    0.000;    0.000
918.116; 2459.300;    0.000;    0.000
918.292; 2465.300;    0.000;    0.000
918.467; 2376.300;    0.000;    0.000
918.642; 2447.300;    0.000;    0.000
918.817; 2507.300;    0.000;    0.000
918.992; 2431.300;    0.000;    0.000
919.167; 2504.300;    0.000;    0.000
919.342; 2514.300;    0.000;    0.000
919.517; 2541.300;    0.000;    0.000
919.692; 2543.300;    0.000;    0.000
919.867; 2515.300;    0.000;    0.000
920.041; 2592.300;    0.000;    0.000
920.216; 2593.300;    0.000;    0.000
920.391; 2618.300;    0.000;    0.000
920.566; 2637.300;    0.000;    0.000
920.741; 2791.300;    0.000;    0.000
920.915; 2856.300;    0.000;    0.000
921.090; 3192.300;    0.000;    0.000
921.265; 3453.300;    0.000;    0.000
921.439; 3630.300;    0.000;    0.000
921.614; 3415.300;    0.000;    0.000
921.789; 3142.300;    0.000;    0.000
921.963; 3128.300;    0.000;    0.000
922.138; 2984.300;    0.000;    0.000
922.312; 3037.300;    0.000;    0.000
922.487; 3007.300;    0.000;    0.000
922.661; 3137.300;    0.000;    0.000
922.836; 3288.300;    0.000;    0.000
923.010; 3244.300;    0.000;    0.000
923.185; 3122.300;    0.000;    0.000
923.359; 3081.300;    0.000;    0.000
923.534; 3064.300;    0.000;    0.000
923.708; 3198.300;    0.000;    0.000
923.882; 3234.300;    0.000;    0.000
924.057; 3089.300;    0.000;    0.000
924.231; 2974.300;    0.000;    0.000
924.405; 3034.300;    0.000;    0.000
924.579; 2877.300;    0.000;    0.000
924.753; 2881.300;    0.000;    0.000
924.928; 2914.300;    0.000;    0.000
925.102; 2881.300;    0.000;    0.000
925.276; 2837.300;    0.000;    0.000
925.450; 2876.300;    0.000;    0.000
925.624; 2872.300;    0.000;    0.000
925.798; 3037.300;    0.000;    0.000
925.972; 2884.300;    0.000;    0.000
926.146; 3188.300;    0.000;    0.000
926.320; 3292.300;    0.000;    0.000
926.494; 3466.300;    0.000;    0.000
926.668; 3406.300;    0.000;    0.000
926.842; 3636.300;    0.000;    0.000
927.016; 3596.300;    0.000;    0.000
927.190; 3534.300;    0.000;    0.000
927.363; 3515.300;    0.000;    0.000
927.537; 3447.300;    0.000;    0.000
927.711; 3336.300;    0.000;    0.000
927.885; 3230.300;    0.000;    0.000
928.058; 3203.300;    0.000;    0.000
928.232; 3227.300;    0.000;    0.000
928.406; 3163.300;    0.000;    0.000
928.579; 3048.300;    0.000;    0.000
928.753; 3067.300;    0.000;    0.000
928.927; 2983.300;    0.000;    0.000
929.100; 3027.300;    0.000;    0.000
929.274; 2865.300;    0.000;    0.000
929.447; 2862.300;    0.000;    0.000
929.621; 2907.300;    0.000;    0.000
929.794; 2843.300;    0.000;    0.000
929.968; 2811.300;    0.000;    0.000
930.141; 2882.300;    0.000;    0.000
930.315; 2725.300;    0.000;    0.000
930.488; 2725.300;    0.000;    0.000
930.661; 2651.300;    0.000;    0.000
930.835; 2625.300;    0.000;    0.000
931.008; 2639.300;    0.000;    0.000
931.181; 2704.300;    0.000;    0.000
931.354; 2576.300;    0.000;    0.000
931.528; 2549.300;    0.000;    0.000
931.701; 2554.300;    0.000;    0.000
931.874; 2487.300;    0.000;    0.000
932.047; 2452.300;    0.000;    0.000
932.220; 2506.300;    0.000;    0.000
932.393; 2460.300;    0.000;    0.000
932.566; 2511.300;    0.000;    0.000
932.739; 2451.300;    0.000;    0.000
932.912; 2388.300;    0.000;    0.000
933.085; 2481.300;    0.000;    0.000
933.258; 2490.300;    0.000;    0.000
933.431; 2391.300;    0.000;    0.000
933.604; 2389.300;    0.000;    0.000
933.777; 2382.300;    0.000;    0.000
933.950; 2422.300;    0.000;    0.000
934.123; 2437.300;    0.000;    0.000
934.296; 2373.300;    0.000;    0.000
934.468; 2426.300;    0.000;    0.000
934.641; 2387.300;    0.000;    0.000
934.814; 2385.300;    0.000;    0.000
934.987; 2360.300;    0.000;    0.000
935.159; 2366.300;    0.000;    0.000
935.332; 2253.300;    0.000;    0.000
935.505; 2381.300;    0.000;    0.000
935.677; 2288.300;    0.000;    0.000
935.850; 2242.300;    0.000;    0.000
936.022; 2291.300;    0.000;    0.000
936.195; 2332.300;    0.000;    0.000
936.367; 2308.300;    0.000;    0.000
936.540; 2346.300;    0.000;    0.000
936.712; 2367.300;    0.000;    0.000
936.885; 2309.300;    0.000;    0.000
937.057; 2338.300;    0.000;    0.000
937.229; 2304.300;    0.000;    0.000
937.402; 2307.300;    0.000;    0.000
937.574; 2307.300;    0.000;    0.000
937.746; 2430.300;    0.000;    0.000
937.919; 2519.300;    0.000;    0.000
938.091; 2444.300;    0.000;    0.000
938.263; 2615.300;    0.000;    0.000
938.435; 2777.300;    0.000;    0.000
938.608; 3027.300;    0.000;    0.000
938.780; 3193.300;    0.000;    0.000
938.952; 3314.300;    0.000;    0.000
939.124; 3327.300;    0.000;    0.000
939.296; 3514.300;    0.000;    0.000
939.468; 3557.300;    0.000;    0.000
939.640; 3272.300;    0.000;    0.000
939.812; 3125.300;    0.000;    0.000
939.984; 2879.300;    0.000;    0.000
940.156; 2833.300;    0.000;    0.000
940.328; 2630.300;    0.000;    0.000
940.500; 2556.300;    0.000;    0.000
940.672; 2562.300;    0.000;    0.000
940.843; 2503.300;    0.000;    0.000
941.015; 2508.300;    0.000;    0.000
941.187; 2357.300;    0.000;    0.000
941.359; 2414.300;    0.000;    0.000
941.531; 2441.300;    0.000;    0.000
941.702; 2435.300;    0.000;    0.000
941.874; 2368.300;    0.000;    0.000
942.046; 2310.300;    0.000;    0.000
942.217; 2281.300;    0.000;    0.000
942.389; 2364.300;    0.000;    0.000
942.560; 2233.300;    0.000;    0.000
942.732; 2240.300;    0.000;    0.000
942.904; 2159.300;    0.000;    0.000
943.075; 2184.300;    0.000;    0.000
943.247; 2072.300;    0.000;    0.000
943.418; 2080.300;    0.000;    0.000
943.589; 2096.300;    0.000;    0.000
943.761; 2081.300;    0.000;    0.000
943.932; 2118.300;    0.000;    0.000
944.104; 2092.300;    0.000;    0.000
944.275; 2104.300;    0.000;    0.000
944.446; 2084.300;    0.000;    0.000
944.617; 2014.300;    0.000;    0.000
944.789; 1971.300;    0.000;    0.000
944.960; 2116.300;    0.000;    0.000
945.131; 2034.300;    0.000;    0.000
945.302; 2094.300;    0.000;    0.000
945.473; 2033.300;    0.000;    0.000
945.645; 2085.300;    0.000;    0.000
945.816; 2088.300;    0.000;    0.000
945.987; 2165.300;    0.000;    0.000
946.158; 2159.300;    0.000;    0.000
946.329; 2160.300;    0.000;    0.000
946.500; 2146.300;    0.000;    0.000
946.671; 2064.300;    0.000;    0.000
946.842; 2074.300;    0.000;    0.000
947.013; 2039.300;    0.000;    0.000
947.183; 2076.300;    0.000;    0.000
947.354; 2071.300;    0.000;    0.000
947.525; 2046.300;    0.000;    0.000
947.696; 2037.300;    0.000;    0.000
947.867; 2151.300;    0.000;    0.000
948.037; 1962.300;    0.000;    0.000
948.208; 1981.300;    0.000;    0.000
948.379; 2037.300;    0.000;    0.000
948.550; 1992.300;    0.000;    0.000
948.720; 2107.300;    0.000;    0.000
948.891; 1975.300;    0.000;    0.000
949.061; 2010.300;    0.000;    0.000
949.232; 1970.300;    0.000;    0.000
949.403; 1968.300;    0.000;    0.000
949.573; 1961.300;    0.000;    0.000
949.744; 2011.300;    0.000;    0.000
949.914; 1973.300;    0.000;    0.000
950.085; 1963.300;    0.000;    0.000
950.255; 1980.300;    0.000;    0.000
950.425; 2020.300;    0.000;    0.000
950.596; 2033.300;    0.000;    0.000
950.766; 2086.300;    0.000;    0.000
950.936; 2091.300;    0.000;    0.000
951.107; 2078.300;    0.000;    0.000
951.277; 2042.300;    0.000;    0.000
951.447; 2026.300;    0.000;    0.000
951.617; 2011.300;    0.000;    0.000
951.788; 1967.300;    0.000;    0.000
951.958; 2035.300;    0.000;    0.000
952.128; 2013.300;    0.000;    0.000
952.298; 2053.300;    0.000;    0.000
952.468; 2017.300;    0.000;    0.000
952.638; 1949.300;    0.000;    0.000
952.808; 1989.300;    0.000;    0.000
952.978; 1934.300;    0.000;    0.000
953.148; 1972.300;    0.000;    0.000
953.318; 1956.300;    0.000;    0.000
953.488; 1934.300;    0.000;    0.000
953.658; 1930.300;    0.000;    0.000
953.828; 1937.300;    0.000;    0.000
953.998; 2044.300;    0.000;    0.000
954.167; 1910.300;    0.000;    0.000
954.337; 2053.300;    0.000;    0.000
954.507; 2085.300;    0.000;    0.000
954.677; 1972.300;    0.000;    0.000
954.846; 2028.300;    0.000;    0.000
955.016; 1947.300;    0.000;    0.000
955.186; 1958.300;    0.000;    0.000
955.355; 1982.300;    0.000;    0.000
955.525; 1986.300;    0.000;    0.000
955.695; 1886.300;    0.000;    0.000
955.864; 1981.300;    0.000;    0.000
956.034; 1997.300;    0.000;    0.000
956.203; 2033.300;    0.000;    0.000
956.373; 1983.300;    0.000;    0.000
956.542; 2023.300;    0.000;    0.000
956.711; 1980.300;    0.000;    0.000
956.881; 2042.300;    0.000;    0.000
957.050; 1966.300;    0.000;    0.000
957.220; 1975.300;    0.000;    0.000
957.389; 1961.300;    0.000;    0.000
957.558; 1950.300;    0.000;    0.000
957.727; 2013.300;    0.000;    0.000
957.897; 2039.300;    0.000;    0.000
958.066; 1979.300;    0.000;    0.000
958.235; 1986.300;    0.000;    0.000
958.404; 1941.300;    0.000;    0.000
958.573; 1950.300;    0.000;    0.000
958.743; 2001.300;    0.000;    0.000
958.912; 1937.300;    0.000;    0.000
959.081; 1973.300;    0.000;    0.000
959.250; 1918.300;    0.000;    0.000
959.419; 1939.300;    0.000;    0.000
959.588; 1900.300;    0.000;    0.000
959.757; 1912.300;    0.000;    0.000
959.926; 1980.300;    0.000;    0.000
960.094; 1953.300;    0.000;    0.000
960.263; 1997.300;    0.000;    0.000
960.432; 1914.300;    0.000;    0.000
960.601; 1846.300;    0.000;    0.000
960.770; 1910.300;    0.000;    0.000
960.939; 1932.300;    0.000;    0.000
961.107; 1920.300;    0.000;    0.000
961.276; 1955.300;    0.000;    0.000
961.445; 1913.300;    0.000;    0.000
961.613; 1845.300;    0.000;    0.000
961.782; 1966.300;    0.000;    0.000
961.951; 1872.300;    0.000;    0.000
962.119; 2013.300;    0.000;    0.000
962.288; 1910.300;    0.000;    0.000
962.456; 1884.300;    0.000;    0.000
962.625; 1943.300;    0.000;    0.000
962.793; 1916.300;    0.000;    0.000
962.962; 1936.300;    0.000;    0.000
963.130; 1913.300;    0.000;    0.000
963.298; 1926.300;    0.000;    0.000
963.467; 1921.300;    0.000;    0.000
963.635; 1964.300;    0.000;    0.000
963.803; 1890.300;    0.000;    0.000
963.972; 1842.300;    0.000;    0.000
964.140; 1881.300;    0.000;    0.000
964.308; 1880.300;    0.000;    0.000
964.477; 1928.300;    0.000;    0.000
964.645; 1981.300;    0.000;    0.000
964.813; 1997.300;    0.000;    0.000
964.981; 1926.300;    0.000;    0.000
965.149; 2022.300;    0.000;    0.000
965.317; 2034.300;    0.000;    0.000
965.485; 1974.300;    0.000;    0.000
965.653; 1978.300;    0.000;    0.000
965.821; 2003.300;    0.000;    0.000
965.989; 1927.300;    0.000;    0.000
966.157; 1955.300;    0.000;    0.000
966.325; 1945.300;    0.000;    0.000
966.493; 1865.300;    0.000;    0.000
966.661; 1907.300;    0.000;    0.000
966.829; 1853.300;    0.000;    0.000
966.996; 1921.300;    0.000;    0.000
967.164; 1854.300;    0.000;    0.000
967.332; 1946.300;    0.000;    0.000
967.500; 1867.300;    0.000;    0.000
967.667; 1960.300;    0.000;    0.000
967.835; 1934.300;    0.000;    0.000
968.003; 1897.300;    0.000;    0.000
968.170; 1929.300;    0.000;    0.000
968.338; 1919.300;    0.000;    0.000
968.505; 1830.300;    0.000;    0.000
968.673; 1869.300;    0.000;    0.000
968.841; 1788.300;    0.000;    0.000
969.008; 1908.300;    0.000;    0.000
969.175; 1867.300;    0.000;    0.000
969.343; 1871.300;    0.000;    0.000
969.510; 1834.300;    0.000;    0.000
969.678; 1882.300;    0.000;    0.000
969.845; 1878.300;    0.000;    0.000
970.012; 1921.300;    0.000;    0.000
970.180; 1897.300;    0.000;    0.000
970.347; 1987.300;    0.000;    0.000
970.514; 1907.300;    0.000;    0.000
970.681; 1919.300;    0.000;    0.000
970.849; 1838.300;    0.000;    0.000
971.016; 1916.300;    0.000;    0.000
971.183; 1925.300;    0.000;    0.000
971.350; 1881.300;    0.000;    0.000
971.517; 1999.300;    0.000;    0.000
971.684; 1977.300;    0.000;    0.000
971.851; 1890.300;    0.000;    0.000
972.018; 1942.300;    0.000;    0.000
972.185; 1904.300;    0.000;    0.000
972.352; 1951.300;    0.000;    0.000
972.519; 1944.300;    0.000;    0.000
972.686; 1941.300;    0.000;    0.000
972.853; 2013.300;    0.000;    0.000
973.020; 1976.300;    0.000;    0.000
973.186; 1925.300;    0.000;    0.000
973.353; 1958.300;    0.000;    0.000
973.520; 1966.300;    0.000;    0.000
973.687; 1868.300;    0.000;    0.000
973.853; 2012.300;    0.000;    0.000
974.020; 1986.300;    0.000;    0.000
974.187; 1889.300;    0.000;    0.000
974.353; 1877.300;    0.000;    0.000
974.520; 1910.300;    0.000;    0.000
974.687; 1964.300;    0.000;    0.000
974.853; 1925.300;    0.000;    0.000
975.020; 1996.300;    0.000;    0.000
975.186; 1892.300;    0.000;    0.000
975.353; 1927.300;    0.000;    0.000
975.519; 1948.300;    0.000;    0.000
975.685; 1914.300;    0.000;    0.000
975.852; 1914.300;    0.000;    0.000
976.018; 1862.300;    0.000;    0.000
976.184; 1905.300;    0.000;    0.000
976.351; 1934.300;    0.000;    0.000
976.517; 1873.300;    0.000;    0.000
976.683; 1971.300;    0.000;    0.000
976.849; 1963.300;    0.000;    0.000
977.016; 1840.300;    0.000;    0.000
977.182; 1805.300;    0.000;    0.000
977.348; 1874.300;    0.000;    0.000
977.514; 1857.300;    0.000;    0.000
977.680; 1903.300;    0.000;    0.000
977.846; 1914.300;    0.000;    0.000
978.012; 1918.300;    0.000;    0.000
978.178; 1879.300;    0.000;    0.000
978.344; 1878.300;    0.000;    0.000
978.510; 1867.300;    0.000;    0.000
978.676; 1849.300;    0.000;    0.000
978.842; 1831.300;    0.000;    0.000
979.008; 1873.300;    0.000;    0.000
979.174; 1947.300;    0.000;    0.000
979.340; 1917.300;    0.000;    0.000
979.505; 1866.300;    0.000;    0.000
979.671; 1885.300;    0.000;    0.000
979.837; 1848.300;    0.000;    0.000
980.003; 1867.300;    0.000;    0.000
980.168; 1844.300;    0.000;    0.000
980.334; 1953.300;    0.000;    0.000
980.499; 1890.300;    0.000;    0.000
980.665; 1882.300;    0.000;    0.000
980.831; 1997.300;    0.000;    0.000
980.996; 1870.300;    0.000;    0.000
981.162; 2030.300;    0.000;    0.000
981.327; 1901.300;    0.000;    0.000
981.493; 1959.300;    0.000;    0.000
981.658; 1960.300;    0.000;    0.000
981.823; 1859.300;    0.000;    0.000
981.989; 1911.300;    0.000;    0.000
982.154; 1946.300;    0.000;    0.000
982.319; 1937.300;    0.000;    0.000
982.485; 1930.300;    0.000;    0.000
982.650; 1965.300;    0.000;    0.000
982.815; 1941.300;    0.000;    0.000
982.980; 1997.300;    0.000;    0.000
983.146; 2004.300;    0.000;    0.000
983.311; 1937.300;    0.000;    0.000
983.476; 1914.300;    0.000;    0.000
983.641; 1822.300;    0.000;    0.000
983.806; 1914.300;    0.000;    0.000
983.971; 1926.300;    0.000;    0.000
984.136; 1898.300;    0.000;    0.000
984.301; 1961.300;    0.000;    0.000
984.466; 1847.300;    0.000;    0.000
984.631; 1963.300;    0.000;    0.000
984.796; 1959.300;    0.000;    0.000
984.961; 1943.300;    0.000;    0.000
985.126; 1954.300;    0.000;    0.000
985.291; 1933.300;    0.000;    0.000
985.455; 1897.300;    0.000;    0.000
985.620; 1843.300;    0.000;    0.000
985.785; 1901.300;    0.000;    0.000
985.950; 1829.300;    0.000;    0.000
986.114; 1934.300;    0.000;    0.000
986.279; 1900.300;    0.000;    0.000
986.444; 1899.300;    0.000;    0.000
986.608; 1916.300;    0.000;    0.000
986.773; 1902.300;    0.000;    0.000
986.937; 1995.300;    0.000;    0.000
987.102; 1972.300;    0.000;    0.000
987.266; 1969.300;    0.000;    0.000
987.431; 1940.300;    0.000;    0.000
987.595; 2003.300;    0.000;    0.000
987.760; 1983.300;    0.000;    0.000
987.924; 1948.300;    0.000;    0.000
988.088; 1946.300;    0.000;    0.000
988.253; 1970.300;    0.000;    0.000
988.417; 1985.300;    0.000;    0.000
988.581; 2011.300;    0.000;    0.000
988.746; 1918.300;    0.000;    0.000
988.910; 1973.300;    0.000;    0.000
989.074; 2025.300;    0.000;    0.000
989.238; 1954.300;    0.000;    0.000
989.402; 1987.300;    0.000;    0.000
989.566; 1927.300;    0.000;    0.000
989.731; 1954.300;    0.000;    0.000
989.895; 1914.300;    0.000;    0.000
990.059; 1905.300;    0.000;    0.000
990.223; 1925.300;    0.000;    0.000
990.387; 1897.300;    0.000;    0.000
990.551; 1935.300;    0.000;    0.000
990.714; 1955.300;    0.000;    0.000
990.878; 1972.300;    0.000;    0.000
991.042; 1960.300;    0.000;    0.000
991.206; 1976.300;    0.000;    0.000
991.370; 1969.300;    0.000;    0.000
991.534; 1907.300;    0.000;    0.000
991.697; 2030.300;    0.000;    0.000
991.861; 1978.300;    0.000;    0.000
992.025; 1942.300;    0.000;    0.000
992.188; 1966.300;    0.000;    0.000
992.352; 1943.300;    0.000;    0.000
992.516; 1911.300;    0.000;    0.000
992.679; 1917.300;    0.000;    0.000
992.843; 2003.300;    0.000;    0.000
993.006; 1977.300;    0.000;    0.000
993.170; 1925.300;    0.000;    0.000
993.333; 1859.300;    0.000;    0.000
993.497; 1842.300;    0.000;    0.000
993.660; 1913.300;    0.000;    0.000
993.824; 1924.300;    0.000;    0.000
993.987; 1952.300;    0.000;    0.000
994.150; 1865.300;    0.000;    0.000
994.314; 1981.300;    0.000;    0.000
994.477; 1974.300;    0.000;    0.000
994.640; 1952.300;    0.000;    0.000
994.803; 1980.300;    0.000;    0.000
994.967; 1950.300;    0.000;    0.000
995.130; 1908.300;    0.000;    0.000
995.293; 1945.300;    0.000;    0.000
995.456; 1912.300;    0.000;    0.000
995.619; 2050.300;    0.000;    0.000
995.782; 1887.300;    0.000;    0.000
995.945; 1902.300;    0.000;    0.000
996.108; 1870.300;    0.000;    0.000
996.271; 1976.300;    0.000;    0.000
996.434; 1891.300;    0.000;    0.000
996.597; 1893.300;    0.000;    0.000
996.760; 1967.300;    0.000;    0.000
996.923; 1887.300;    0.000;    0.000
997.086; 1912.300;    0.000;    0.000
997.248; 1963.300;    0.000;    0.000
997.411; 1924.300;    0.000;    0.000
997.574; 1833.300;    0.000;    0.000
997.737; 1939.300;    0.000;    0.000
997.899; 1906.300;    0.000;    0.000
998.062; 1889.300;    0.000;    0.000
998.225; 1894.300;    0.000;    0.000
998.387; 1906.300;    0.000;    0.000
998.550; 1951.300;    0.000;    0.000
998.712; 1907.300;    0.000;    0.000
998.875; 1926.300;    0.000;    0.000
999.037; 1929.300;    0.000;    0.000
999.200; 1985.300;    0.000;    0.000
999.362; 1965.300;    0.000;    0.000
999.525; 1957.300;    0.000;    0.000
999.687; 1899.300;    0.000;    0.000
999.849; 1924.300;    0.000;    0.000
1000.012; 1966.300;    0.000;    0.000
1000.174; 1944.300;    0.000;    0.000
1000.336; 1816.300;    0.000;    0.000
1000.499; 1963.300;    0.000;    0.000
1000.661; 1978.300;    0.000;    0.000
1000.823; 1923.300;    0.000;    0.000
1000.985; 2024.300;    0.000;    0.000
1001.147; 1998.300;    0.000;    0.000
1001.309; 1999.300;    0.000;    0.000
1001.471; 1945.300;    0.000;    0.000
1001.633; 1907.300;    0.000;    0.000
1001.796; 1982.300;    0.000;    0.000
1001.958; 2063.300;    0.000;    0.000
1002.119; 2057.300;    0.000;    0.000
1002.281; 2130.300;    0.000;    0.000
1002.443; 2083.300;    0.000;    0.000
1002.605; 2125.300;    0.000;    0.000
1002.767; 2053.300;    0.000;    0.000
1002.929; 2208.300;    0.000;    0.000
1003.091; 2239.300;    0.000;    0.000
1003.252; 2349.300;    0.000;    0.000
1003.414; 2410.300;    0.000;    0.000
1003.576; 2520.300;    0.000;    0.000
1003.738; 2564.300;    0.000;    0.000
1003.899; 2607.300;    0.000;    0.000
1004.061; 2598.300;    0.000;    0.000
1004.222; 2621.300;    0.000;    0.000
1004.384; 2860.300;    0.000;    0.000
1004.546; 2744.300;    0.000;    0.000
1004.707; 2815.300;    0.000;    0.000
1004.869; 2823.300;    0.000;    0.000
1005.030; 2742.300;    0.000;    0.000
1005.191; 2654.300;    0.000;    0.000
1005.353; 2598.300;    0.000;    0.000
1005.514; 2581.300;    0.000;    0.000
1005.675; 2573.300;    0.000;    0.000
1005.837; 2515.300;    0.000;    0.000
1005.998; 2571.300;    0.000;    0.000
1006.159; 2475.300;    0.000;    0.000
1006.321; 2500.300;    0.000;    0.000
1006.482; 2660.300;    0.000;    0.000
1006.643; 2645.300;    0.000;    0.000
1006.804; 2727.300;    0.000;    0.000
1006.965; 2709.300;    0.000;    0.000
1007.126; 2712.300;    0.000;    0.000
1007.287; 2694.300;    0.000;    0.000
1007.448; 2662.300;    0.000;    0.000
1007.609; 2761.300;    0.000;    0.000
1007.770; 2574.300;    0.000;    0.000
1007.931; 2672.300;    0.000;    0.000
1008.092; 2777.300;    0.000;    0.000
1008.253; 2753.300;    0.000;    0.000
1008.414; 2768.300;    0.000;    0.000
1008.575; 2881.300;    0.000;    0.000
1008.736; 2834.300;    0.000;    0.000
1008.896; 2738.300;    0.000;    0.000
1009.057; 2812.300;    0.000;    0.000
1009.218; 2852.300;    0.000;    0.000
1009.379; 2718.300;    0.000;    0.000
1009.539; 2905.300;    0.000;    0.000
1009.700; 2809.300;    0.000;    0.000
1009.860; 2852.300;    0.000;    0.000
1010.021; 2920.300;    0.000;    0.000
1010.182; 2805.300;    0.000;    0.000
1010.342; 2888.300;    0.000;    0.000
1010.503; 2854.300;    0.000;    0.000
1010.663; 3054.300;    0.000;    0.000
1010.823; 2910.300;    0.000;    0.000
1010.984; 3064.300;    0.000;    0.000
1011.144; 3034.300;    0.000;    0.000
1011.305; 3171.300;    0.000;    0.000
1011.465; 3213.300;    0.000;    0.000
1011.625; 3279.300;    0.000;    0.000
1011.785; 3288.300;    0.000;    0.000
1011.946; 3083.300;    0.000;    0.000
1012.106; 3175.300;    0.000;    0.000
1012.266; 3280.300;    0.000;    0.000
1012.426; 3217.300;    0.000;    0.000
1012.586; 3162.300;    0.000;    0.000
1012.746; 3301.300;    0.000;    0.000
1012.906; 3359.300;    0.000;    0.000
1013.066; 3306.300;    0.000;    0.000
1013.226; 3202.300;    0.000;    0.000
1013.386; 3125.300;    0.000;    0.000
1013.546; 3062.300;    0.000;    0.000
1013.706; 3167.300;    0.000;    0.000
1013.866; 3087.300;    0.000;    0.000
1014.026; 3165.300;    0.000;    0.000
1014.186; 3088.300;    0.000;    0.000
1014.346; 3117.300;    0.000;    0.000
1014.505; 3197.300;    0.000;    0.000
1014.665; 3131.300;    0.000;    0.000
1014.825; 3142.300;    0.000;    0.000
1014.985; 3170.300;    0.000;    0.000
1015.144; 3270.300;    0.000;    0.000
1015.304; 3408.300;    0.000;    0.000
1015.464; 3265.300;    0.000;    0.000
1015.623; 3339.300;    0.000;    0.000
1015.783; 3459.300;    0.000;    0.000
1015.942; 3677.300;    0.000;    0.000
1016.102; 3706.300;    0.000;    0.000
1016.261; 3638.300;    0.000;    0.000
1016.420; 3689.300;    0.000;    0.000
1016.580; 4055.300;    0.000;    0.000
1016.739; 3964.300;    0.000;    0.000
1016.899; 3793.300;    0.000;    0.000
1017.058; 3999.300;    0.000;    0.000
1017.217; 4118.300;    0.000;    0.000
1017.376; 3977.300;    0.000;    0.000
1017.536; 3716.300;    0.000;    0.000
1017.695; 3628.300;    0.000;    0.000
1017.854; 3673.300;    0.000;    0.000
1018.013; 3647.300;    0.000;    0.000
1018.172; 3680.300;    0.000;    0.000
1018.331; 3496.300;    0.000;    0.000
1018.490; 3656.300;    0.000;    0.000
1018.649; 3942.300;    0.000;    0.000
1018.808; 4077.300;    0.000;    0.000
1018.967; 3876.300;    0.000;    0.000
1019.126; 3938.300;    0.000;    0.000
1019.285; 3892.300;    0.000;    0.000
1019.444; 3935.300;    0.000;    0.000
1019.603; 3990.300;    0.000;    0.000
1019.762; 3738.300;    0.000;    0.000
1019.921; 3759.300;    0.000;    0.000
1020.079; 3942.300;    0.000;    0.000
1020.238; 4269.300;    0.000;    0.000
1020.397; 4067.300;    0.000;    0.000
1020.555; 3751.300;    0.000;    0.000
1020.714; 3845.300;    0.000;    0.000
1020.873; 4095.300;    0.000;    0.000
1021.031; 4276.300;    0.000;    0.000
1021.190; 3977.300;    0.000;    0.000
1021.348; 3727.300;    0.000;    0.000
1021.507; 4044.300;    0.000;    0.000
1021.665; 4375.300;    0.000;    0.000
1021.824; 4406.300;    0.000;    0.000
1021.982; 4012.300;    0.000;    0.000
1022.141; 3861.300;    0.000;    0.000
1022.299; 4286.300;    0.000;    0.000
1022.457; 4695.300;    0.000;    0.000
1022.616; 4403.300;    0.000;    0.000
1022.774; 3950.300;    0.000;    0.000
1022.932; 3940.300;    0.000;    0.000
1023.090; 4455.300;    0.000;    0.000
1023.249; 4729.300;    0.000;    0.000
1023.407; 4535.300;    0.000;    0.000
1023.565; 3919.300;    0.000;    0.000
1023.723; 4056.300;    0.000;    0.000
1023.881; 4375.300;    0.000;    0.000
1024.039; 4726.300;    0.000;    0.000
1024.197; 4495.300;    0.000;    0.000
1024.355; 4119.300;    0.000;    0.000
1024.513; 4044.300;    0.000;    0.000
1024.671; 4431.300;    0.000;    0.000
1024.829; 4811.300;    0.000;    0.000
1024.987; 4743.300;    0.000;    0.000
1025.145; 4077.300;    0.000;    0.000
1025.302; 3858.300;    0.000;    0.000
1025.460; 4235.300;    0.000;    0.000
1025.618; 4689.300;    0.000;    0.000
1025.776; 4843.300;    0.000;    0.000
1025.933; 4228.300;    0.000;    0.000
1026.091; 3977.300;    0.000;    0.000
1026.249; 4275.300;    0.000;    0.000
1026.406; 4848.300;    0.000;    0.000
1026.564; 4843.300;    0.000;    0.000
1026.721; 4676.300;    0.000;    0.000
1026.879; 4096.300;    0.000;    0.000
1027.036; 4439.300;    0.000;    0.000
1027.194; 4642.300;    0.000;    0.000
1027.351; 4923.300;    0.000;    0.000
1027.509; 4790.300;    0.000;    0.000
1027.666; 4608.300;    0.000;    0.000
1027.823; 4539.300;    0.000;    0.000
1027.981; 4529.300;    0.000;    0.000
1028.138; 4891.300;    0.000;    0.000
1028.295; 4903.300;    0.000;    0.000
1028.452; 4596.300;    0.000;    0.000
1028.609; 4541.300;    0.000;    0.000
1028.767; 4778.300;    0.000;    0.000
1028.924; 4771.300;    0.000;    0.000
1029.081; 4859.300;    0.000;    0.000
1029.238; 4774.300;    0.000;    0.000
1029.395; 4800.300;    0.000;    0.000
1029.552; 4851.300;    0.000;    0.000
1029.709; 4827.300;    0.000;    0.000
1029.866; 5019.300;    0.000;    0.000
1030.023; 4973.300;    0.000;    0.000
1030.180; 4696.300;    0.000;    0.000
1030.337; 4899.300;    0.000;    0.000
1030.494; 4991.300;    0.000;    0.000
1030.650; 5081.300;    0.000;    0.000
1030.807; 5152.300;    0.000;    0.000
1030.964; 4890.300;    0.000;    0.000
1031.121; 4757.300;    0.000;    0.000
1031.277; 4715.300;    0.000;    0.000
1031.434; 5164.300;    0.000;    0.000
1031.591; 5340.300;    0.000;    0.000
1031.747; 5299.300;    0.000;    0.000
1031.904; 5218.300;    0.000;    0.000
1032.060; 4989.300;    0.000;    0.000
1032.217; 4670.300;    0.000;    0.000
1032.373; 5372.300;    0.000;    0.000
1032.530; 5577.300;    0.000;    0.000
1032.686; 5963.300;    0.000;    0.000
1032.843; 5928.300;    0.000;    0.000
1032.999; 5351.300;    0.000;    0.000
1033.155; 5602.300;    0.000;    0.000
1033.312; 5724.300;    0.000;    0.000
1033.468; 6125.300;    0.000;    0.000
1033.624; 7188.300;    0.000;    0.000
1033.780; 6699.300;    0.000;    0.000
1033.937; 7177.300;    0.000;    0.000
1034.093; 6098.300;    0.000;    0.000
1034.249; 6180.300;    0.000;    0.000
1034.405; 6478.300;    0.000;    0.000
1034.561; 6503.300;    0.000;    0.000
1034.717; 7244.300;    0.000;    0.000
1034.873; 7297.300;    0.000;    0.000
1035.029; 7118.300;    0.000;    0.000
1035.185; 6867.300;    0.000;    0.000
1035.341; 6445.300;    0.000;    0.000
1035.497; 6638.300;    0.000;    0.000
1035.653; 7374.300;    0.000;    0.000
1035.809; 7341.300;    0.000;    0.000
1035.964; 8863.300;    0.000;    0.000
1036.120; 8038.300;    0.000;    0.000
1036.276; 7759.300;    0.000;    0.000
1036.432; 7717.300;    0.000;    0.000
1036.587; 7050.300;    0.000;    0.000
1036.743; 7051.300;    0.000;    0.000
1036.899; 8385.300;    0.000;    0.000
1037.054; 8045.300;    0.000;    0.000
1037.210; 9560.300;    0.000;    0.000
1037.365; 9783.300;    0.000;    0.000
1037.521; 8609.300;    0.000;    0.000
1037.676; 8720.300;    0.000;    0.000
1037.832; 8404.300;    0.000;    0.000
1037.987; 7518.300;    0.000;    0.000
1038.143; 7623.300;    0.000;    0.000
1038.298; 9108.300;    0.000;    0.000
1038.453; 8974.300;    0.000;    0.000
1038.609; 9684.300;    0.000;    0.000
1038.764;10443.300;    0.000;    0.000
1038.919; 9387.300;    0.000;    0.000
1039.074; 9038.300;    0.000;    0.000
1039.229; 8839.300;    0.000;    0.000
1039.385; 7986.300;    0.000;    0.000
1039.540; 8427.300;    0.000;    0.000
1039.695; 9193.300;    0.000;    0.000
1039.850; 9973.300;    0.000;    0.000
1040.005;10251.300;    0.000;    0.000
1040.160;11095.300;    0.000;    0.000
1040.315;11423.300;    0.000;    0.000
1040.470;10116.300;    0.000;    0.000
1040.625;10348.300;    0.000;    0.000
1040.780; 9729.300;    0.000;    0.000
1040.935; 9259.300;    0.000;    0.000
1041.089; 9715.300;    0.000;    0.000
1041.244;10564.300;    0.000;    0.000
1041.399;11456.300;    0.000;    0.000
1041.554;11756.300;    0.000;    0.000
1041.708;13379.300;    0.000;    0.000
1041.863;13435.300;    0.000;    0.000
1042.018;11908.300;    0.000;    0.000
1042.172;11976.300;    0.000;    0.000
1042.327;11562.300;    0.000;    0.000
1042.481;10833.300;    0.000;    0.000
1042.636;11319.300;    0.000;    0.000
1042.791;10962.300;    0.000;    0.000
1042.945;12354.300;    0.000;    0.000
1043.099;14873.300;    0.000;    0.000
1043.254;14076.300;    0.000;    0.000
1043.408;14267.300;    0.000;    0.000
1043.563;16693.301;    0.000;    0.000
1043.717;15809.300;    0.000;    0.000
1043.871;13728.300;    0.000;    0.000
1044.025;14064.300;    0.000;    0.000
1044.180;13569.300;    0.000;    0.000
1044.334;12688.300;    0.000;    0.000
1044.488;13388.300;    0.000;    0.000
1044.642;13458.300;    0.000;    0.000
1044.796;14176.300;    0.000;    0.000
1044.950;17968.301;    0.000;    0.000
1045.104;19536.301;    0.000;    0.000
1045.258;19372.301;    0.000;    0.000
1045.412;19691.301;    0.000;    0.000
1045.566;19608.301;    0.000;    0.000
1045.720;18222.301;    0.000;    0.000
1045.874;17754.301;    0.000;    0.000
1046.028;16944.301;    0.000;    0.000
1046.182;15263.300;    0.000;    0.000
1046.336;15836.300;    0.000;    0.000
1046.489;16541.301;    0.000;    0.000
1046.643;16173.300;    0.000;    0.000
1046.797;16978.301;    0.000;    0.000
1046.951;19223.301;    0.000;    0.000
1047.104;20098.301;    0.000;    0.000
1047.258;21084.301;    0.000;    0.000
1047.411;21810.301;    0.000;    0.000
1047.565;22867.301;    0.000;    0.000
1047.719;23295.301;    0.000;    0.000
1047.872;21587.301;    0.000;    0.000
1048.026;20268.301;    0.000;    0.000
1048.179;20283.301;    0.000;    0.000
1048.332;19595.301;    0.000;    0.000
1048.486;18945.301;    0.000;    0.000
1048.639;19219.301;    0.000;    0.000
1048.792;19420.301;    0.000;    0.000
1048.946;20731.301;    0.000;    0.000
1049.099;21613.301;    0.000;    0.000
1049.252;23310.301;    0.000;    0.000
1049.406;22603.301;    0.000;    0.000
1049.559;23506.301;    0.000;    0.000
1049.712;26465.301;    0.000;    0.000
1049.865;27414.301;    0.000;    0.000
1050.018;27965.301;    0.000;    0.000
1050.171;25501.301;    0.000;    0.000
1050.324;23285.301;    0.000;    0.000
1050.477;24700.301;    0.000;    0.000
1050.630;28289.301;    0.000;    0.000
1050.783;29834.301;    0.000;    0.000
1050.936;27798.301;    0.000;    0.000
1051.089;24248.301;    0.000;    0.000
1051.242;25018.301;    0.000;    0.000
1051.394;27020.301;    0.000;    0.000
1051.547;30923.301;    0.000;    0.000
1051.700;31003.301;    0.000;    0.000
1051.853;28254.301;    0.000;    0.000
1052.005;26859.301;    0.000;    0.000
1052.158;28764.301;    0.000;    0.000
1052.311;32745.301;    0.000;    0.000
1052.463;34577.301;    0.000;    0.000
1052.616;31753.301;    0.000;    0.000
1052.768;28719.301;    0.000;    0.000
1052.921;27300.301;    0.000;    0.000
1053.073;27688.301;    0.000;    0.000
1053.226;30950.301;    0.000;    0.000
1053.378;37380.301;    0.000;    0.000
1053.531;40415.301;    0.000;    0.000
1053.683;40512.301;    0.000;    0.000
1053.835;35638.301;    0.000;    0.000
1053.988;27083.301;    0.000;    0.000
1054.140; 4704.300;    0.000;    0.000
1054.292; 1141.300;    0.000;    0.000
1054.444;  910.300;    0.000;    0.000
1054.596;  823.300;    0.000;    0.000
1054.749;  765.300;    0.000;    0.000
1054.901;  712.300;    0.000;    0.000
1055.053;  726.300;    0.000;    0.000
1055.205;  721.300;    0.000;    0.000
1055.357;  691.300;    0.000;    0.000
1055.509;  596.300;    0.000;    0.000
1055.661;  664.300;    0.000;    0.000
1055.813;  569.300;    0.000;    0.000
1055.965;  590.300;    0.000;    0.000
1056.116;  557.300;    0.000;    0.000
1056.268;  574.300;    0.000;    0.000
1056.420;  630.300;    0.000;    0.000

