
Integration time [ms]:   1.000
Averaging Nr. [scans]: 1
Smoothing Nr. [pixels]: 0
Data measured with spectrometer [name]: UV1
Wave   ;Sample   ;Dark     ;Reference
[nm]   ;[counts] ;[counts] ;[counts] 

236.381;  144.600;    0.000;    0.000
236.451;  180.600;    0.000;    0.000
236.520;  158.600;    0.000;    0.000
236.590;  199.600;    0.000;    0.000
236.660;  195.600;    0.000;    0.000
236.730;  183.600;    0.000;    0.000
236.799;  193.600;    0.000;    0.000
236.869;  178.600;    0.000;    0.000
236.939;  163.600;    0.000;    0.000
237.009;  183.600;    0.000;    0.000
237.078;  161.600;    0.000;    0.000
237.148;  182.600;    0.000;    0.000
237.218;  202.600;    0.000;    0.000
237.287;  173.600;    0.000;    0.000
237.357;  175.600;    0.000;    0.000
237.427;  192.600;    0.000;    0.000
237.496;  446.600;    0.000;    0.000
237.566;  442.600;    0.000;    0.000
237.636;  426.600;    0.000;    0.000
237.705;  467.600;    0.000;    0.000
237.775;  407.600;    0.000;    0.000
237.845;  396.600;    0.000;    0.000
237.914;  440.600;    0.000;    0.000
237.984;  458.600;    0.000;    0.000
238.054;  455.600;    0.000;    0.000
238.123;  437.600;    0.000;    0.000
238.193;  425.600;    0.000;    0.000
238.263;  395.600;    0.000;    0.000
238.332;  400.600;    0.000;    0.000
238.402;  395.600;    0.000;    0.000
238.471;  414.600;    0.000;    0.000
238.541;  432.600;    0.000;    0.000
238.611;  385.600;    0.000;    0.000
238.680;  383.600;    0.000;    0.000
238.750;  403.600;    0.000;    0.000
238.819;  406.600;    0.000;    0.000
238.889;  419.600;    0.000;    0.000
238.958;  428.600;    0.000;    0.000
239.028;  401.600;    0.000;    0.000
239.097;  403.600;    0.000;    0.000
239.167;  464.600;    0.000;    0.000
239.237;  451.600;    0.000;    0.000
239.306;  407.600;    0.000;    0.000
239.376;  444.600;    0.000;    0.000
239.445;  421.600;    0.000;    0.000
239.515;  435.600;    0.000;    0.000
239.584;  425.600;    0.000;    0.000
239.654;  443.600;    0.000;    0.000
239.723;  441.600;    0.000;    0.000
239.793;  414.600;    0.000;    0.000
239.862;  407.600;    0.000;    0.000
239.932;  380.600;    0.000;    0.000
240.001;  423.600;    0.000;    0.000
240.070;  426.600;    0.000;    0.000
240.140;  412.600;    0.000;    0.000
240.209;  383.600;    0.000;    0.000
240.279;  405.600;    0.000;    0.000
240.348;  429.600;    0.000;    0.000
240.418;  422.600;    0.000;    0.000
240.487;  413.600;    0.000;    0.000
240.556;  421.600;    0.000;    0.000
240.626;  406.600;    0.000;    0.000
240.695;  422.600;    0.000;    0.000
240.765;  428.600;    0.000;    0.000
240.834;  410.600;    0.000;    0.000
240.903;  430.600;    0.000;    0.000
240.973;  400.600;    0.000;    0.000
241.042;  382.600;    0.000;    0.000
241.112;  423.600;    0.000;    0.000
241.181;  440.600;    0.000;    0.000
241.250;  360.600;    0.000;    0.000
241.320;  405.600;    0.000;    0.000
241.389;  358.600;    0.000;    0.000
241.458;  387.600;    0.000;    0.000
241.528;  447.600;    0.000;    0.000
241.597;  435.600;    0.000;    0.000
241.666;  406.600;    0.000;    0.000
241.736;  434.600;    0.000;    0.000
241.805;  381.600;    0.000;    0.000
241.874;  387.600;    0.000;    0.000
241.943;  431.600;    0.000;    0.000
242.013;  422.600;    0.000;    0.000
242.082;  386.600;    0.000;    0.000
242.151;  422.600;    0.000;    0.000
242.221;  445.600;    0.000;    0.000
242.290;  407.600;    0.000;    0.000
242.359;  430.600;    0.000;    0.000
242.428;  478.600;    0.000;    0.000
242.498;  334.600;    0.000;    0.000
242.567;  450.600;    0.000;    0.000
242.636;  423.600;    0.000;    0.000
242.705;  430.600;    0.000;    0.000
242.774;  404.600;    0.000;    0.000
242.844;  460.600;    0.000;    0.000
242.913;  404.600;    0.000;    0.000
242.982;  421.600;    0.000;    0.000
243.051;  452.600;    0.000;    0.000
243.120;  415.600;    0.000;    0.000
243.190;  363.600;    0.000;    0.000
243.259;  431.600;    0.000;    0.000
243.328;  396.600;    0.000;    0.000
243.397;  431.600;    0.000;    0.000
243.466;  423.600;    0.000;    0.000
243.535;  397.600;    0.000;    0.000
243.605;  387.600;    0.000;    0.000
243.674;  411.600;    0.000;    0.000
243.743;  445.600;    0.000;    0.000
243.812;  391.600;    0.000;    0.000
243.881;  434.600;    0.000;    0.000
243.950;  425.600;    0.000;    0.000
244.019;  407.600;    0.000;    0.000
244.088;  406.600;    0.000;    0.000
244.158;  447.600;    0.000;    0.000
244.227;  394.600;    0.000;    0.000
244.296;  380.600;    0.000;    0.000
244.365;  453.600;    0.000;    0.000
244.434;  352.600;    0.000;    0.000
244.503;  443.600;    0.000;    0.000
244.572;  398.600;    0.000;    0.000
244.641;  381.600;    0.000;    0.000
244.710;  460.600;    0.000;    0.000
244.779;  445.600;    0.000;    0.000
244.848;  393.600;    0.000;    0.000
244.917;  438.600;    0.000;    0.000
244.986;  398.600;    0.000;    0.000
245.055;  451.600;    0.000;    0.000
245.124;  454.600;    0.000;    0.000
245.193;  422.600;    0.000;    0.000
245.262;  402.600;    0.000;    0.000
245.331;  370.600;    0.000;    0.000
245.400;  411.600;    0.000;    0.000
245.469;  410.600;    0.000;    0.000
245.538;  394.600;    0.000;    0.000
245.607;  418.600;    0.000;    0.000
245.676;  424.600;    0.000;    0.000
245.745;  471.600;    0.000;    0.000
245.814;  400.600;    0.000;    0.000
245.883;  436.600;    0.000;    0.000
245.952;  456.600;    0.000;    0.000
246.021;  425.600;    0.000;    0.000
246.090;  425.600;    0.000;    0.000
246.159;  407.600;    0.000;    0.000
246.227;  437.600;    0.000;    0.000
246.296;  401.600;    0.000;    0.000
246.365;  418.600;    0.000;    0.000
246.434;  444.600;    0.000;    0.000
246.503;  389.600;    0.000;    0.000
246.572;  468.600;    0.000;    0.000
246.641;  390.600;    0.000;    0.000
246.710;  398.600;    0.000;    0.000
246.779;  455.600;    0.000;    0.000
246.847;  486.600;    0.000;    0.000
246.916;  407.600;    0.000;    0.000
246.985;  414.600;    0.000;    0.000
247.054;  426.600;    0.000;    0.000
247.123;  395.600;    0.000;    0.000
247.192;  448.600;    0.000;    0.000
247.260;  443.600;    0.000;    0.000
247.329;  408.600;    0.000;    0.000
247.398;  454.600;    0.000;    0.000
247.467;  397.600;    0.000;    0.000
247.536;  447.600;    0.000;    0.000
247.604;  459.600;    0.000;    0.000
247.673;  417.600;    0.000;    0.000
247.742;  406.600;    0.000;    0.000
247.811;  454.600;    0.000;    0.000
247.879;  455.600;    0.000;    0.000
247.948;  427.600;    0.000;    0.000
248.017;  422.600;    0.000;    0.000
248.086;  500.600;    0.000;    0.000
248.154;  420.600;    0.000;    0.000
248.223;  445.600;    0.000;    0.000
248.292;  433.600;    0.000;    0.000
248.361;  470.600;    0.000;    0.000
248.429;  403.600;    0.000;    0.000
248.498;  403.600;    0.000;    0.000
248.567;  462.600;    0.000;    0.000
248.635;  430.600;    0.000;    0.000
248.704;  436.600;    0.000;    0.000
248.773;  391.600;    0.000;    0.000
248.841;  437.600;    0.000;    0.000
248.910;  440.600;    0.000;    0.000
248.979;  364.600;    0.000;    0.000
249.047;  369.600;    0.000;    0.000
249.116;  407.600;    0.000;    0.000
249.185;  446.600;    0.000;    0.000
249.253;  403.600;    0.000;    0.000
249.322;  443.600;    0.000;    0.000
249.390;  368.600;    0.000;    0.000
249.459;  395.600;    0.000;    0.000
249.528;  366.600;    0.000;    0.000
249.596;  421.600;    0.000;    0.000
249.665;  357.600;    0.000;    0.000
249.733;  381.600;    0.000;    0.000
249.802;  431.600;    0.000;    0.000
249.871;  404.600;    0.000;    0.000
249.939;  352.600;    0.000;    0.000
250.008;  392.600;    0.000;    0.000
250.076;  414.600;    0.000;    0.000
250.145;  387.600;    0.000;    0.000
250.213;  393.600;    0.000;    0.000
250.282;  339.600;    0.000;    0.000
250.350;  353.600;    0.000;    0.000
250.419;  394.600;    0.000;    0.000
250.487;  405.600;    0.000;    0.000
250.556;  430.600;    0.000;    0.000
250.624;  417.600;    0.000;    0.000
250.693;  348.600;    0.000;    0.000
250.761;  356.600;    0.000;    0.000
250.830;  370.600;    0.000;    0.000
250.898;  380.600;    0.000;    0.000
250.967;  362.600;    0.000;    0.000
251.035;  359.600;    0.000;    0.000
251.104;  355.600;    0.000;    0.000
251.172;  376.600;    0.000;    0.000
251.241;  377.600;    0.000;    0.000
251.309;  428.600;    0.000;    0.000
251.378;  383.600;    0.000;    0.000
251.446;  355.600;    0.000;    0.000
251.514;  361.600;    0.000;    0.000
251.583;  336.600;    0.000;    0.000
251.651;  377.600;    0.000;    0.000
251.720;  379.600;    0.000;    0.000
251.788;  399.600;    0.000;    0.000
251.856;  304.600;    0.000;    0.000
251.925;  357.600;    0.000;    0.000
251.993;  372.600;    0.000;    0.000
252.062;  377.600;    0.000;    0.000
252.130;  397.600;    0.000;    0.000
252.198;  375.600;    0.000;    0.000
252.267;  312.600;    0.000;    0.000
252.335;  357.600;    0.000;    0.000
252.403;  330.600;    0.000;    0.000
252.472;  344.600;    0.000;    0.000
252.540;  351.600;    0.000;    0.000
252.608;  333.600;    0.000;    0.000
252.677;  336.600;    0.000;    0.000
252.745;  400.600;    0.000;    0.000
252.813;  325.600;    0.000;    0.000
252.881;  301.600;    0.000;    0.000
252.950;  344.600;    0.000;    0.000
253.018;  343.600;    0.000;    0.000
253.086;  365.600;    0.000;    0.000
253.155;  316.600;    0.000;    0.000
253.223;  320.600;    0.000;    0.000
253.291;  333.600;    0.000;    0.000
253.359;  323.600;    0.000;    0.000
253.428;  332.600;    0.000;    0.000
253.496;  337.600;    0.000;    0.000
253.564;  291.600;    0.000;    0.000
253.632;  306.600;    0.000;    0.000
253.700;  285.600;    0.000;    0.000
253.769;  287.600;    0.000;    0.000
253.837;  338.600;    0.000;    0.000
253.905;  339.600;    0.000;    0.000
253.973;  318.600;    0.000;    0.000
254.041;  336.600;    0.000;    0.000
254.110;  273.600;    0.000;    0.000
254.178;  346.600;    0.000;    0.000
254.246;  277.600;    0.000;    0.000
254.314;  346.600;    0.000;    0.000
254.382;  347.600;    0.000;    0.000
254.450;  294.600;    0.000;    0.000
254.518;  352.600;    0.000;    0.000
254.587;  266.600;    0.000;    0.000
254.655;  322.600;    0.000;    0.000
254.723;  313.600;    0.000;    0.000
254.791;  342.600;    0.000;    0.000
254.859;  325.600;    0.000;    0.000
254.927;  338.600;    0.000;    0.000
254.995;  282.600;    0.000;    0.000
255.063;  342.600;    0.000;    0.000
255.131;  300.600;    0.000;    0.000
255.199;  318.600;    0.000;    0.000
255.267;  262.600;    0.000;    0.000
255.336;  342.600;    0.000;    0.000
255.404;  272.600;    0.000;    0.000
255.472;  347.600;    0.000;    0.000
255.540;  284.600;    0.000;    0.000
255.608;  332.600;    0.000;    0.000
255.676;  310.600;    0.000;    0.000
255.744;  307.600;    0.000;    0.000
255.812;  337.600;    0.000;    0.000
255.880;  323.600;    0.000;    0.000
255.948;  313.600;    0.000;    0.000
256.016;  328.600;    0.000;    0.000
256.084;  283.600;    0.000;    0.000
256.152;  302.600;    0.000;    0.000
256.220;  303.600;    0.000;    0.000
256.288;  318.600;    0.000;    0.000
256.356;  281.600;    0.000;    0.000
256.424;  281.600;    0.000;    0.000
256.491;  310.600;    0.000;    0.000
256.559;  333.600;    0.000;    0.000
256.627;  308.600;    0.000;    0.000
256.695;  306.600;    0.000;    0.000
256.763;  306.600;    0.000;    0.000
256.831;  292.600;    0.000;    0.000
256.899;  324.600;    0.000;    0.000
256.967;  295.600;    0.000;    0.000
257.035;  296.600;    0.000;    0.000
257.103;  346.600;    0.000;    0.000
257.171;  283.600;    0.000;    0.000
257.238;  305.600;    0.000;    0.000
257.306;  311.600;    0.000;    0.000
257.374;  283.600;    0.000;    0.000
257.442;  284.600;    0.000;    0.000
257.510;  311.600;    0.000;    0.000
257.578;  302.600;    0.000;    0.000
257.646;  325.600;    0.000;    0.000
257.713;  265.600;    0.000;    0.000
257.781;  343.600;    0.000;    0.000
257.849;  337.600;    0.000;    0.000
257.917;  268.600;    0.000;    0.000
257.985;  290.600;    0.000;    0.000
258.052;  326.600;    0.000;    0.000
258.120;  311.600;    0.000;    0.000
258.188;  314.600;    0.000;    0.000
258.256;  321.600;    0.000;    0.000
258.324;  338.600;    0.000;    0.000
258.391;  296.600;    0.000;    0.000
258.459;  335.600;    0.000;    0.000
258.527;  322.600;    0.000;    0.000
258.595;  300.600;    0.000;    0.000
258.662;  294.600;    0.000;    0.000
258.730;  355.600;    0.000;    0.000
258.798;  311.600;    0.000;    0.000
258.865;  350.600;    0.000;    0.000
258.933;  343.600;    0.000;    0.000
259.001;  338.600;    0.000;    0.000
259.069;  303.600;    0.000;    0.000
259.136;  363.600;    0.000;    0.000
259.204;  340.600;    0.000;    0.000
259.272;  387.600;    0.000;    0.000
259.339;  318.600;    0.000;    0.000
259.407;  399.600;    0.000;    0.000
259.475;  323.600;    0.000;    0.000
259.542;  313.600;    0.000;    0.000
259.610;  385.600;    0.000;    0.000
259.677;  378.600;    0.000;    0.000
259.745;  337.600;    0.000;    0.000
259.813;  339.600;    0.000;    0.000
259.880;  364.600;    0.000;    0.000
259.948;  336.600;    0.000;    0.000
260.016;  354.600;    0.000;    0.000
260.083;  358.600;    0.000;    0.000
260.151;  319.600;    0.000;    0.000
260.218;  391.600;    0.000;    0.000
260.286;  357.600;    0.000;    0.000
260.353;  362.600;    0.000;    0.000
260.421;  382.600;    0.000;    0.000
260.489;  379.600;    0.000;    0.000
260.556;  383.600;    0.000;    0.000
260.624;  406.600;    0.000;    0.000
260.691;  408.600;    0.000;    0.000
260.759;  402.600;    0.000;    0.000
260.826;  379.600;    0.000;    0.000
260.894;  381.600;    0.000;    0.000
260.961;  414.600;    0.000;    0.000
261.029;  429.600;    0.000;    0.000
261.096;  408.600;    0.000;    0.000
261.164;  383.600;    0.000;    0.000
261.231;  414.600;    0.000;    0.000
261.299;  412.600;    0.000;    0.000
261.366;  448.600;    0.000;    0.000
261.434;  399.600;    0.000;    0.000
261.501;  435.600;    0.000;    0.000
261.568;  460.600;    0.000;    0.000
261.636;  465.600;    0.000;    0.000
261.703;  463.600;    0.000;    0.000
261.771;  421.600;    0.000;    0.000
261.838;  419.600;    0.000;    0.000
261.906;  387.600;    0.000;    0.000
261.973;  456.600;    0.000;    0.000
262.040;  495.600;    0.000;    0.000
262.108;  438.600;    0.000;    0.000
262.175;  409.600;    0.000;    0.000
262.243;  511.600;    0.000;    0.000
262.310;  463.600;    0.000;    0.000
262.377;  411.600;    0.000;    0.000
262.445;  490.600;    0.000;    0.000
262.512;  492.600;    0.000;    0.000
262.579;  475.600;    0.000;    0.000
262.647;  451.600;    0.000;    0.000
262.714;  541.600;    0.000;    0.000
262.781;  510.600;    0.000;    0.000
262.849;  517.600;    0.000;    0.000
262.916;  539.600;    0.000;    0.000
262.983;  485.600;    0.000;    0.000
263.051;  462.600;    0.000;    0.000
263.118;  512.600;    0.000;    0.000
263.185;  534.600;    0.000;    0.000
263.252;  487.600;    0.000;    0.000
263.320;  480.600;    0.000;    0.000
263.387;  494.600;    0.000;    0.000
263.454;  547.600;    0.000;    0.000
263.522;  514.600;    0.000;    0.000
263.589;  511.600;    0.000;    0.000
263.656;  475.600;    0.000;    0.000
263.723;  486.600;    0.000;    0.000
263.790;  531.600;    0.000;    0.000
263.858;  580.600;    0.000;    0.000
263.925;  575.600;    0.000;    0.000
263.992;  545.600;    0.000;    0.000
264.059;  550.600;    0.000;    0.000
264.126;  535.600;    0.000;    0.000
264.194;  547.600;    0.000;    0.000
264.261;  571.600;    0.000;    0.000
264.328;  616.600;    0.000;    0.000
264.395;  568.600;    0.000;    0.000
264.462;  577.600;    0.000;    0.000
264.529;  577.600;    0.000;    0.000
264.597;  537.600;    0.000;    0.000
264.664;  577.600;    0.000;    0.000
264.731;  611.600;    0.000;    0.000
264.798;  578.600;    0.000;    0.000
264.865;  594.600;    0.000;    0.000
264.932;  546.600;    0.000;    0.000
264.999;  532.600;    0.000;    0.000
265.066;  607.600;    0.000;    0.000
265.133;  550.600;    0.000;    0.000
265.201;  546.600;    0.000;    0.000
265.268;  598.600;    0.000;    0.000
265.335;  613.600;    0.000;    0.000
265.402;  607.600;    0.000;    0.000
265.469;  624.600;    0.000;    0.000
265.536;  564.600;    0.000;    0.000
265.603;  634.600;    0.000;    0.000
265.670;  640.600;    0.000;    0.000
265.737;  647.600;    0.000;    0.000
265.804;  645.600;    0.000;    0.000
265.871;  633.600;    0.000;    0.000
265.938;  608.600;    0.000;    0.000
266.005;  671.600;    0.000;    0.000
266.072;  599.600;    0.000;    0.000
266.139;  658.600;    0.000;    0.000
266.206;  624.600;    0.000;    0.000
266.273;  661.600;    0.000;    0.000
266.340;  597.600;    0.000;    0.000
266.407;  599.600;    0.000;    0.000
266.474;  636.600;    0.000;    0.000
266.541;  619.600;    0.000;    0.000
266.608;  602.600;    0.000;    0.000
266.675;  652.600;    0.000;    0.000
266.742;  655.600;    0.000;    0.000
266.808;  613.600;    0.000;    0.000
266.875;  631.600;    0.000;    0.000
266.942;  640.600;    0.000;    0.000
267.009;  667.600;    0.000;    0.000
267.076;  699.600;    0.000;    0.000
267.143;  678.600;    0.000;    0.000
267.210;  661.600;    0.000;    0.000
267.277;  645.600;    0.000;    0.000
267.344;  679.600;    0.000;    0.000
267.410;  685.600;    0.000;    0.000
267.477;  688.600;    0.000;    0.000
267.544;  716.600;    0.000;    0.000
267.611;  728.600;    0.000;    0.000
267.678;  705.600;    0.000;    0.000
267.745;  696.600;    0.000;    0.000
267.811;  685.600;    0.000;    0.000
267.878;  693.600;    0.000;    0.000
267.945;  639.600;    0.000;    0.000
268.012;  656.600;    0.000;    0.000
268.079;  723.600;    0.000;    0.000
268.145;  722.600;    0.000;    0.000
268.212;  662.600;    0.000;    0.000
268.279;  673.600;    0.000;    0.000
268.346;  713.600;    0.000;    0.000
268.412;  665.600;    0.000;    0.000
268.479;  672.600;    0.000;    0.000
268.546;  626.600;    0.000;    0.000
268.613;  672.600;    0.000;    0.000
268.679;  680.600;    0.000;    0.000
268.746;  720.600;    0.000;    0.000
268.813;  691.600;    0.000;    0.000
268.879;  618.600;    0.000;    0.000
268.946;  719.600;    0.000;    0.000
269.013;  649.600;    0.000;    0.000
269.079;  699.600;    0.000;    0.000
269.146;  687.600;    0.000;    0.000
269.213;  726.600;    0.000;    0.000
269.280;  703.600;    0.000;    0.000
269.346;  662.600;    0.000;    0.000
269.413;  645.600;    0.000;    0.000
269.479;  723.600;    0.000;    0.000
269.546;  704.600;    0.000;    0.000
269.613;  647.600;    0.000;    0.000
269.679;  740.600;    0.000;    0.000
269.746;  676.600;    0.000;    0.000
269.813;  673.600;    0.000;    0.000
269.879;  729.600;    0.000;    0.000
269.946;  695.600;    0.000;    0.000
270.012;  717.600;    0.000;    0.000
270.079;  643.600;    0.000;    0.000
270.145;  702.600;    0.000;    0.000
270.212;  712.600;    0.000;    0.000
270.279;  713.600;    0.000;    0.000
270.345;  664.600;    0.000;    0.000
270.412;  693.600;    0.000;    0.000
270.478;  672.600;    0.000;    0.000
270.545;  683.600;    0.000;    0.000
270.611;  698.600;    0.000;    0.000
270.678;  661.600;    0.000;    0.000
270.744;  654.600;    0.000;    0.000
270.811;  683.600;    0.000;    0.000
270.877;  697.600;    0.000;    0.000
270.944;  702.600;    0.000;    0.000
271.010;  700.600;    0.000;    0.000
271.077;  688.600;    0.000;    0.000
271.143;  709.600;    0.000;    0.000
271.210;  674.600;    0.000;    0.000
271.276;  644.600;    0.000;    0.000
271.342;  727.600;    0.000;    0.000
271.409;  689.600;    0.000;    0.000
271.475;  682.600;    0.000;    0.000
271.542;  672.600;    0.000;    0.000
271.608;  703.600;    0.000;    0.000
271.675;  663.600;    0.000;    0.000
271.741;  740.600;    0.000;    0.000
271.807;  652.600;    0.000;    0.000
271.874;  763.600;    0.000;    0.000
271.940;  731.600;    0.000;    0.000
272.007;  725.600;    0.000;    0.000
272.073;  681.600;    0.000;    0.000
272.139;  707.600;    0.000;    0.000
272.206;  727.600;    0.000;    0.000
272.272;  739.600;    0.000;    0.000
272.338;  738.600;    0.000;    0.000
272.405;  690.600;    0.000;    0.000
272.471;  685.600;    0.000;    0.000
272.537;  719.600;    0.000;    0.000
272.604;  721.600;    0.000;    0.000
272.670;  676.600;    0.000;    0.000
272.736;  726.600;    0.000;    0.000
272.802;  756.600;    0.000;    0.000
272.869;  729.600;    0.000;    0.000
272.935;  676.600;    0.000;    0.000
273.001;  673.600;    0.000;    0.000
273.068;  744.600;    0.000;    0.000
273.134;  707.600;    0.000;    0.000
273.200;  750.600;    0.000;    0.000
273.266;  677.600;    0.000;    0.000
273.333;  702.600;    0.000;    0.000
273.399;  729.600;    0.000;    0.000
273.465;  787.600;    0.000;    0.000
273.531;  724.600;    0.000;    0.000
273.597;  714.600;    0.000;    0.000
273.664;  728.600;    0.000;    0.000
273.730;  704.600;    0.000;    0.000
273.796;  747.600;    0.000;    0.000
273.862;  739.600;    0.000;    0.000
273.928;  776.600;    0.000;    0.000
273.995;  767.600;    0.000;    0.000
274.061;  821.600;    0.000;    0.000
274.127;  739.600;    0.000;    0.000
274.193;  731.600;    0.000;    0.000
274.259;  791.600;    0.000;    0.000
274.325;  731.600;    0.000;    0.000
274.391;  756.600;    0.000;    0.000
274.457;  767.600;    0.000;    0.000
274.524;  759.600;    0.000;    0.000
274.590;  757.600;    0.000;    0.000
274.656;  757.600;    0.000;    0.000
274.722;  771.600;    0.000;    0.000
274.788;  859.600;    0.000;    0.000
274.854;  841.600;    0.000;    0.000
274.920;  800.600;    0.000;    0.000
274.986;  744.600;    0.000;    0.000
275.052;  809.600;    0.000;    0.000
275.118;  805.600;    0.000;    0.000
275.184;  794.600;    0.000;    0.000
275.250;  799.600;    0.000;    0.000
275.316;  837.600;    0.000;    0.000
275.382;  758.600;    0.000;    0.000
275.448;  826.600;    0.000;    0.000
275.514;  812.600;    0.000;    0.000
275.580;  813.600;    0.000;    0.000
275.646;  850.600;    0.000;    0.000
275.712;  852.600;    0.000;    0.000
275.778;  874.600;    0.000;    0.000
275.844;  813.600;    0.000;    0.000
275.910;  826.600;    0.000;    0.000
275.976;  934.600;    0.000;    0.000
276.042;  883.600;    0.000;    0.000
276.108;  916.600;    0.000;    0.000
276.174;  926.600;    0.000;    0.000
276.240;  880.600;    0.000;    0.000
276.306;  918.600;    0.000;    0.000
276.372;  937.600;    0.000;    0.000
276.437;  929.600;    0.000;    0.000
276.503;  934.600;    0.000;    0.000
276.569;  959.600;    0.000;    0.000
276.635; 1020.600;    0.000;    0.000
276.701; 1040.600;    0.000;    0.000
276.767; 1002.600;    0.000;    0.000
276.833;  998.600;    0.000;    0.000
276.899; 1043.600;    0.000;    0.000
276.964; 1063.600;    0.000;    0.000
277.030; 1165.600;    0.000;    0.000
277.096; 1138.600;    0.000;    0.000
277.162; 1142.600;    0.000;    0.000
277.228; 1145.600;    0.000;    0.000
277.293; 1185.600;    0.000;    0.000
277.359; 1264.600;    0.000;    0.000
277.425; 1330.600;    0.000;    0.000
277.491; 1340.600;    0.000;    0.000
277.557; 1504.600;    0.000;    0.000
277.622; 2050.600;    0.000;    0.000
277.688; 2317.600;    0.000;    0.000
277.754; 2180.600;    0.000;    0.000
277.820; 2457.600;    0.000;    0.000
277.885; 2659.600;    0.000;    0.000
277.951; 3550.600;    0.000;    0.000
278.017; 3440.600;    0.000;    0.000
278.083; 2711.600;    0.000;    0.000
278.148; 2644.600;    0.000;    0.000
278.214; 2623.600;    0.000;    0.000
278.280; 2772.600;    0.000;    0.000
278.345; 2621.600;    0.000;    0.000
278.411; 2363.600;    0.000;    0.000
278.477; 2353.600;    0.000;    0.000
278.542; 2515.600;    0.000;    0.000
278.608; 2687.600;    0.000;    0.000
278.674; 2898.600;    0.000;    0.000
278.739; 3305.600;    0.000;    0.000
278.805; 3632.600;    0.000;    0.000
278.871; 4113.600;    0.000;    0.000
278.936; 4943.600;    0.000;    0.000
279.002; 6578.600;    0.000;    0.000
279.067; 9170.600;    0.000;    0.000
279.133; 9707.600;    0.000;    0.000
279.199; 9102.600;    0.000;    0.000
279.264; 8981.600;    0.000;    0.000
279.330; 9964.600;    0.000;    0.000
279.395;12096.600;    0.000;    0.000
279.461;15111.600;    0.000;    0.000
279.527;17038.600;    0.000;    0.000
279.592;16804.600;    0.000;    0.000
279.658;15413.600;    0.000;    0.000
279.723;14045.600;    0.000;    0.000
279.789;14731.600;    0.000;    0.000
279.854;13790.600;    0.000;    0.000
279.920;11915.600;    0.000;    0.000
279.985;10764.600;    0.000;    0.000
280.051;10502.600;    0.000;    0.000
280.116;11457.600;    0.000;    0.000
280.182;14212.600;    0.000;    0.000
280.247;16993.600;    0.000;    0.000
280.313;15709.600;    0.000;    0.000
280.378;12552.600;    0.000;    0.000
280.444; 9528.600;    0.000;    0.000
280.509; 7477.600;    0.000;    0.000
280.574; 6410.600;    0.000;    0.000
280.640; 5574.600;    0.000;    0.000
280.705; 4729.600;    0.000;    0.000
280.771; 4409.600;    0.000;    0.000
280.836; 3956.600;    0.000;    0.000
280.902; 3648.600;    0.000;    0.000
280.967; 3420.600;    0.000;    0.000
281.032; 3250.600;    0.000;    0.000
281.098; 2968.600;    0.000;    0.000
281.163; 2713.600;    0.000;    0.000
281.229; 2721.600;    0.000;    0.000
281.294; 2553.600;    0.000;    0.000
281.359; 2376.600;    0.000;    0.000
281.425; 2317.600;    0.000;    0.000
281.490; 2266.600;    0.000;    0.000
281.555; 2252.600;    0.000;    0.000
281.621; 2182.600;    0.000;    0.000
281.686; 2081.600;    0.000;    0.000
281.751; 2002.600;    0.000;    0.000
281.816; 1914.600;    0.000;    0.000
281.882; 1903.600;    0.000;    0.000
281.947; 1794.600;    0.000;    0.000
282.012; 1740.600;    0.000;    0.000
282.078; 1696.600;    0.000;    0.000
282.143; 1658.600;    0.000;    0.000
282.208; 1657.600;    0.000;    0.000
282.273; 1656.600;    0.000;    0.000
282.339; 1619.600;    0.000;    0.000
282.404; 1591.600;    0.000;    0.000
282.469; 1524.600;    0.000;    0.000
282.534; 1542.600;    0.000;    0.000
282.600; 1479.600;    0.000;    0.000
282.665; 1489.600;    0.000;    0.000
282.730; 1431.600;    0.000;    0.000
282.795; 1463.600;    0.000;    0.000
282.860; 1422.600;    0.000;    0.000
282.926; 1461.600;    0.000;    0.000
282.991; 1334.600;    0.000;    0.000
283.056; 1397.600;    0.000;    0.000
283.121; 1409.600;    0.000;    0.000
283.186; 1404.600;    0.000;    0.000
283.251; 1330.600;    0.000;    0.000
283.316; 1348.600;    0.000;    0.000
283.382; 1330.600;    0.000;    0.000
283.447; 1444.600;    0.000;    0.000
283.512; 1321.600;    0.000;    0.000
283.577; 1338.600;    0.000;    0.000
283.642; 1327.600;    0.000;    0.000
283.707; 1274.600;    0.000;    0.000
283.772; 1299.600;    0.000;    0.000
283.837; 1300.600;    0.000;    0.000
283.902; 1322.600;    0.000;    0.000
283.967; 1279.600;    0.000;    0.000
284.032; 1306.600;    0.000;    0.000
284.097; 1311.600;    0.000;    0.000
284.163; 1239.600;    0.000;    0.000
284.228; 1278.600;    0.000;    0.000
284.293; 1357.600;    0.000;    0.000
284.358; 1336.600;    0.000;    0.000
284.423; 1303.600;    0.000;    0.000
284.488; 1345.600;    0.000;    0.000
284.553; 1318.600;    0.000;    0.000
284.618; 1392.600;    0.000;    0.000
284.683; 1421.600;    0.000;    0.000
284.748; 1543.600;    0.000;    0.000
284.812; 1660.600;    0.000;    0.000
284.877; 1768.600;    0.000;    0.000
284.942; 1935.600;    0.000;    0.000
285.007; 2306.600;    0.000;    0.000
285.072; 3037.600;    0.000;    0.000
285.137; 4645.600;    0.000;    0.000
285.202; 6495.600;    0.000;    0.000
285.267; 6681.600;    0.000;    0.000
285.332; 4842.600;    0.000;    0.000
285.397; 3386.600;    0.000;    0.000
285.462; 2612.600;    0.000;    0.000
285.527; 2207.600;    0.000;    0.000
285.591; 1950.600;    0.000;    0.000
285.656; 1790.600;    0.000;    0.000
285.721; 1700.600;    0.000;    0.000
285.786; 1589.600;    0.000;    0.000
285.851; 1547.600;    0.000;    0.000
285.916; 1442.600;    0.000;    0.000
285.981; 1372.600;    0.000;    0.000
286.045; 1369.600;    0.000;    0.000
286.110; 1330.600;    0.000;    0.000
286.175; 1315.600;    0.000;    0.000
286.240; 1294.600;    0.000;    0.000
286.305; 1259.600;    0.000;    0.000
286.369; 1238.600;    0.000;    0.000
286.434; 1300.600;    0.000;    0.000
286.499; 1291.600;    0.000;    0.000
286.564; 1200.600;    0.000;    0.000
286.628; 1199.600;    0.000;    0.000
286.693; 1162.600;    0.000;    0.000
286.758; 1141.600;    0.000;    0.000
286.823; 1191.600;    0.000;    0.000
286.887; 1187.600;    0.000;    0.000
286.952; 1207.600;    0.000;    0.000
287.017; 1194.600;    0.000;    0.000
287.082; 1172.600;    0.000;    0.000
287.146; 1145.600;    0.000;    0.000
287.211; 1169.600;    0.000;    0.000
287.276; 1175.600;    0.000;    0.000
287.340; 1184.600;    0.000;    0.000
287.405; 1151.600;    0.000;    0.000
287.470; 1140.600;    0.000;    0.000
287.534; 1194.600;    0.000;    0.000
287.599; 1185.600;    0.000;    0.000
287.663; 1113.600;    0.000;    0.000
287.728; 1139.600;    0.000;    0.000
287.793; 1219.600;    0.000;    0.000
287.857; 1164.600;    0.000;    0.000
287.922; 1138.600;    0.000;    0.000
287.987; 1124.600;    0.000;    0.000
288.051; 1193.600;    0.000;    0.000
288.116; 1183.600;    0.000;    0.000
288.180; 1155.600;    0.000;    0.000
288.245; 1162.600;    0.000;    0.000
288.309; 1203.600;    0.000;    0.000
288.374; 1172.600;    0.000;    0.000
288.439; 1123.600;    0.000;    0.000
288.503; 1125.600;    0.000;    0.000
288.568; 1112.600;    0.000;    0.000
288.632; 1093.600;    0.000;    0.000
288.697; 1181.600;    0.000;    0.000
288.761; 1087.600;    0.000;    0.000
288.826; 1124.600;    0.000;    0.000
288.890; 1157.600;    0.000;    0.000
288.955; 1044.600;    0.000;    0.000
289.019; 1072.600;    0.000;    0.000
289.084; 1063.600;    0.000;    0.000
289.148; 1123.600;    0.000;    0.000
289.212; 1112.600;    0.000;    0.000
289.277; 1159.600;    0.000;    0.000
289.341; 1111.600;    0.000;    0.000
289.406; 1117.600;    0.000;    0.000
289.470; 1083.600;    0.000;    0.000
289.535; 1135.600;    0.000;    0.000
289.599; 1157.600;    0.000;    0.000
289.663; 1085.600;    0.000;    0.000
289.728; 1082.600;    0.000;    0.000
289.792; 1145.600;    0.000;    0.000
289.857; 1147.600;    0.000;    0.000
289.921; 1104.600;    0.000;    0.000
289.985; 1106.600;    0.000;    0.000
290.050; 1140.600;    0.000;    0.000
290.114; 1102.600;    0.000;    0.000
290.178; 1093.600;    0.000;    0.000
290.243; 1063.600;    0.000;    0.000
290.307; 1206.600;    0.000;    0.000
290.371; 1145.600;    0.000;    0.000
290.436; 1110.600;    0.000;    0.000
290.500; 1120.600;    0.000;    0.000
290.564; 1113.600;    0.000;    0.000
290.629; 1078.600;    0.000;    0.000
290.693; 1122.600;    0.000;    0.000
290.757; 1122.600;    0.000;    0.000
290.821; 1143.600;    0.000;    0.000
290.886; 1102.600;    0.000;    0.000
290.950; 1142.600;    0.000;    0.000
291.014; 1150.600;    0.000;    0.000
291.078; 1132.600;    0.000;    0.000
291.143; 1235.600;    0.000;    0.000
291.207; 1166.600;    0.000;    0.000
291.271; 1148.600;    0.000;    0.000
291.335; 1240.600;    0.000;    0.000
291.399; 1197.600;    0.000;    0.000
291.464; 1257.600;    0.000;    0.000
291.528; 1344.600;    0.000;    0.000
291.592; 1373.600;    0.000;    0.000
291.656; 1253.600;    0.000;    0.000
291.720; 1310.600;    0.000;    0.000
291.784; 1290.600;    0.000;    0.000
291.849; 1239.600;    0.000;    0.000
291.913; 1208.600;    0.000;    0.000
291.977; 1282.600;    0.000;    0.000
292.041; 1306.600;    0.000;    0.000
292.105; 1312.600;    0.000;    0.000
292.169; 1277.600;    0.000;    0.000
292.233; 1355.600;    0.000;    0.000
292.297; 1354.600;    0.000;    0.000
292.361; 1306.600;    0.000;    0.000
292.425; 1419.600;    0.000;    0.000
292.490; 1372.600;    0.000;    0.000
292.554; 1511.600;    0.000;    0.000
292.618; 1546.600;    0.000;    0.000
292.682; 1694.600;    0.000;    0.000
292.746; 1833.600;    0.000;    0.000
292.810; 2357.600;    0.000;    0.000
292.874; 2991.600;    0.000;    0.000
292.938; 3298.600;    0.000;    0.000
293.002; 3026.600;    0.000;    0.000
293.066; 2782.600;    0.000;    0.000
293.130; 2572.600;    0.000;    0.000
293.194; 2345.600;    0.000;    0.000
293.258; 2244.600;    0.000;    0.000
293.322; 2232.600;    0.000;    0.000
293.386; 2346.600;    0.000;    0.000
293.450; 2411.600;    0.000;    0.000
293.514; 2558.600;    0.000;    0.000
293.577; 3277.600;    0.000;    0.000
293.641; 4527.600;    0.000;    0.000
293.705; 5104.600;    0.000;    0.000
293.769; 4841.600;    0.000;    0.000
293.833; 4170.600;    0.000;    0.000
293.897; 3696.600;    0.000;    0.000
293.961; 3395.600;    0.000;    0.000
294.025; 2951.600;    0.000;    0.000
294.089; 2680.600;    0.000;    0.000
294.152; 2488.600;    0.000;    0.000
294.216; 2317.600;    0.000;    0.000
294.280; 2235.600;    0.000;    0.000
294.344; 2185.600;    0.000;    0.000
294.408; 2121.600;    0.000;    0.000
294.472; 1979.600;    0.000;    0.000
294.536; 1916.600;    0.000;    0.000
294.599; 1849.600;    0.000;    0.000
294.663; 1788.600;    0.000;    0.000
294.727; 1754.600;    0.000;    0.000
294.791; 1749.600;    0.000;    0.000
294.855; 1725.600;    0.000;    0.000
294.918; 1644.600;    0.000;    0.000
294.982; 1657.600;    0.000;    0.000
295.046; 1586.600;    0.000;    0.000
295.110; 1564.600;    0.000;    0.000
295.173; 1518.600;    0.000;    0.000
295.237; 1571.600;    0.000;    0.000
295.301; 1498.600;    0.000;    0.000
295.364; 1532.600;    0.000;    0.000
295.428; 1487.600;    0.000;    0.000
295.492; 1502.600;    0.000;    0.000
295.556; 1437.600;    0.000;    0.000
295.619; 1508.600;    0.000;    0.000
295.683; 1437.600;    0.000;    0.000
295.747; 1463.600;    0.000;    0.000
295.810; 1426.600;    0.000;    0.000
295.874; 1398.600;    0.000;    0.000
295.938; 1403.600;    0.000;    0.000
296.001; 1418.600;    0.000;    0.000
296.065; 1373.600;    0.000;    0.000
296.128; 1400.600;    0.000;    0.000
296.192; 1374.600;    0.000;    0.000
296.256; 1315.600;    0.000;    0.000
296.319; 1332.600;    0.000;    0.000
296.383; 1390.600;    0.000;    0.000
296.447; 1305.600;    0.000;    0.000
296.510; 1430.600;    0.000;    0.000
296.574; 1273.600;    0.000;    0.000
296.637; 1399.600;    0.000;    0.000
296.701; 1372.600;    0.000;    0.000
296.764; 1288.600;    0.000;    0.000
296.828; 1390.600;    0.000;    0.000
296.891; 1362.600;    0.000;    0.000
296.955; 1367.600;    0.000;    0.000
297.018; 1381.600;    0.000;    0.000
297.082; 1309.600;    0.000;    0.000
297.145; 1288.600;    0.000;    0.000
297.209; 1304.600;    0.000;    0.000
297.272; 1301.600;    0.000;    0.000
297.336; 1282.600;    0.000;    0.000
297.399; 1318.600;    0.000;    0.000
297.463; 1393.600;    0.000;    0.000
297.526; 1345.600;    0.000;    0.000
297.590; 1334.600;    0.000;    0.000
297.653; 1320.600;    0.000;    0.000
297.717; 1314.600;    0.000;    0.000
297.780; 1250.600;    0.000;    0.000
297.843; 1312.600;    0.000;    0.000
297.907; 1316.600;    0.000;    0.000
297.970; 1285.600;    0.000;    0.000
298.034; 1312.600;    0.000;    0.000
298.097; 1312.600;    0.000;    0.000
298.160; 1267.600;    0.000;    0.000
298.224; 1287.600;    0.000;    0.000
298.287; 1280.600;    0.000;    0.000
298.350; 1301.600;    0.000;    0.000
298.414; 1293.600;    0.000;    0.000
298.477; 1185.600;    0.000;    0.000
298.540; 1357.600;    0.000;    0.000
298.604; 1279.600;    0.000;    0.000
298.667; 1246.600;    0.000;    0.000
298.730; 1256.600;    0.000;    0.000
298.794; 1324.600;    0.000;    0.000
298.857; 1270.600;    0.000;    0.000
298.920; 1229.600;    0.000;    0.000
298.984; 1294.600;    0.000;    0.000
299.047; 1235.600;    0.000;    0.000
299.110; 1209.600;    0.000;    0.000
299.173; 1338.600;    0.000;    0.000
299.237; 1282.600;    0.000;    0.000
299.300; 1212.600;    0.000;    0.000
299.363; 1257.600;    0.000;    0.000
299.426; 1270.600;    0.000;    0.000
299.489; 1210.600;    0.000;    0.000
299.553; 1260.600;    0.000;    0.000
299.616; 1197.600;    0.000;    0.000
299.679; 1278.600;    0.000;    0.000
299.742; 1240.600;    0.000;    0.000
299.805; 1272.600;    0.000;    0.000
299.868; 1271.600;    0.000;    0.000
299.932; 1170.600;    0.000;    0.000
299.995; 1208.600;    0.000;    0.000
300.058; 1221.600;    0.000;    0.000
300.121; 1227.600;    0.000;    0.000
300.184; 1301.600;    0.000;    0.000
300.247; 1254.600;    0.000;    0.000
300.310; 1243.600;    0.000;    0.000
300.374; 1268.600;    0.000;    0.000
300.437; 1187.600;    0.000;    0.000
300.500; 1282.600;    0.000;    0.000
300.563; 1266.600;    0.000;    0.000
300.626; 1295.600;    0.000;    0.000
300.689; 1251.600;    0.000;    0.000
300.752; 1189.600;    0.000;    0.000
300.815; 1218.600;    0.000;    0.000
300.878; 1320.600;    0.000;    0.000
300.941; 1247.600;    0.000;    0.000
301.004; 1253.600;    0.000;    0.000
301.067; 1238.600;    0.000;    0.000
301.130; 1242.600;    0.000;    0.000
301.193; 1319.600;    0.000;    0.000
301.256; 1267.600;    0.000;    0.000
301.319; 1288.600;    0.000;    0.000
301.382; 1246.600;    0.000;    0.000
301.445; 1264.600;    0.000;    0.000
301.508; 1255.600;    0.000;    0.000
301.571; 1231.600;    0.000;    0.000
301.634; 1285.600;    0.000;    0.000
301.697; 1190.600;    0.000;    0.000
301.760; 1255.600;    0.000;    0.000
301.823; 1235.600;    0.000;    0.000
301.885; 1199.600;    0.000;    0.000
301.948; 1224.600;    0.000;    0.000
302.011; 1222.600;    0.000;    0.000
302.074; 1275.600;    0.000;    0.000
302.137; 1201.600;    0.000;    0.000
302.200; 1263.600;    0.000;    0.000
302.263; 1225.600;    0.000;    0.000
302.326; 1304.600;    0.000;    0.000
302.388; 1345.600;    0.000;    0.000
302.451; 1272.600;    0.000;    0.000
302.514; 1299.600;    0.000;    0.000
302.577; 1268.600;    0.000;    0.000
302.640; 1235.600;    0.000;    0.000
302.703; 1328.600;    0.000;    0.000
302.765; 1315.600;    0.000;    0.000
302.828; 1293.600;    0.000;    0.000
302.891; 1313.600;    0.000;    0.000
302.954; 1263.600;    0.000;    0.000
303.016; 1343.600;    0.000;    0.000
303.079; 1343.600;    0.000;    0.000
303.142; 1326.600;    0.000;    0.000
303.205; 1300.600;    0.000;    0.000
303.267; 1287.600;    0.000;    0.000
303.330; 1317.600;    0.000;    0.000
303.393; 1327.600;    0.000;    0.000
303.456; 1350.600;    0.000;    0.000
303.518; 1339.600;    0.000;    0.000
303.581; 1347.600;    0.000;    0.000
303.644; 1300.600;    0.000;    0.000
303.706; 1307.600;    0.000;    0.000
303.769; 1364.600;    0.000;    0.000
303.832; 1295.600;    0.000;    0.000
303.894; 1317.600;    0.000;    0.000
303.957; 1291.600;    0.000;    0.000
304.020; 1337.600;    0.000;    0.000
304.082; 1337.600;    0.000;    0.000
304.145; 1361.600;    0.000;    0.000
304.207; 1332.600;    0.000;    0.000
304.270; 1411.600;    0.000;    0.000
304.333; 1362.600;    0.000;    0.000
304.395; 1364.600;    0.000;    0.000
304.458; 1360.600;    0.000;    0.000
304.520; 1399.600;    0.000;    0.000
304.583; 1377.600;    0.000;    0.000
304.646; 1414.600;    0.000;    0.000
304.708; 1389.600;    0.000;    0.000
304.771; 1377.600;    0.000;    0.000
304.833; 1371.600;    0.000;    0.000
304.896; 1408.600;    0.000;    0.000
304.958; 1390.600;    0.000;    0.000
305.021; 1396.600;    0.000;    0.000
305.083; 1334.600;    0.000;    0.000
305.146; 1469.600;    0.000;    0.000
305.208; 1401.600;    0.000;    0.000
305.271; 1380.600;    0.000;    0.000
305.333; 1481.600;    0.000;    0.000
305.396; 1424.600;    0.000;    0.000
305.458; 1426.600;    0.000;    0.000
305.520; 1416.600;    0.000;    0.000
305.583; 1427.600;    0.000;    0.000
305.645; 1392.600;    0.000;    0.000
305.708; 1513.600;    0.000;    0.000
305.770; 1526.600;    0.000;    0.000
305.833; 1449.600;    0.000;    0.000
305.895; 1519.600;    0.000;    0.000
305.957; 1415.600;    0.000;    0.000
306.020; 1400.600;    0.000;    0.000
306.082; 1496.600;    0.000;    0.000
306.144; 1462.600;    0.000;    0.000
306.207; 1407.600;    0.000;    0.000
306.269; 1427.600;    0.000;    0.000
306.331; 1465.600;    0.000;    0.000
306.394; 1477.600;    0.000;    0.000
306.456; 1492.600;    0.000;    0.000
306.518; 1477.600;    0.000;    0.000
306.581; 1423.600;    0.000;    0.000
306.643; 1504.600;    0.000;    0.000
306.705; 1482.600;    0.000;    0.000
306.768; 1559.600;    0.000;    0.000
306.830; 1528.600;    0.000;    0.000
306.892; 1507.600;    0.000;    0.000
306.954; 1549.600;    0.000;    0.000
307.017; 1572.600;    0.000;    0.000
307.079; 1575.600;    0.000;    0.000
307.141; 1583.600;    0.000;    0.000
307.203; 1575.600;    0.000;    0.000
307.266; 1552.600;    0.000;    0.000
307.328; 1611.600;    0.000;    0.000
307.390; 1587.600;    0.000;    0.000
307.452; 1541.600;    0.000;    0.000
307.514; 1595.600;    0.000;    0.000
307.577; 1577.600;    0.000;    0.000
307.639; 1609.600;    0.000;    0.000
307.701; 1629.600;    0.000;    0.000
307.763; 1656.600;    0.000;    0.000
307.825; 1621.600;    0.000;    0.000
307.887; 1726.600;    0.000;    0.000
307.949; 1676.600;    0.000;    0.000
308.012; 1682.600;    0.000;    0.000
308.074; 1625.600;    0.000;    0.000
308.136; 1670.600;    0.000;    0.000
308.198; 1710.600;    0.000;    0.000
308.260; 1687.600;    0.000;    0.000
308.322; 1716.600;    0.000;    0.000
308.384; 1682.600;    0.000;    0.000
308.446; 1662.600;    0.000;    0.000
308.508; 1728.600;    0.000;    0.000
308.570; 1773.600;    0.000;    0.000
308.632; 1745.600;    0.000;    0.000
308.694; 1706.600;    0.000;    0.000
308.756; 1702.600;    0.000;    0.000
308.818; 1755.600;    0.000;    0.000
308.880; 1730.600;    0.000;    0.000
308.942; 1804.600;    0.000;    0.000
309.004; 1806.600;    0.000;    0.000
309.066; 1796.600;    0.000;    0.000
309.128; 1775.600;    0.000;    0.000
309.190; 1854.600;    0.000;    0.000
309.252; 1873.600;    0.000;    0.000
309.314; 1990.600;    0.000;    0.000
309.376; 2013.600;    0.000;    0.000
309.438; 1917.600;    0.000;    0.000
309.500; 1924.600;    0.000;    0.000
309.562; 1966.600;    0.000;    0.000
309.624; 1956.600;    0.000;    0.000
309.686; 1924.600;    0.000;    0.000
309.747; 2082.600;    0.000;    0.000
309.809; 2051.600;    0.000;    0.000
309.871; 1966.600;    0.000;    0.000
309.933; 1937.600;    0.000;    0.000
309.995; 1897.600;    0.000;    0.000
310.057; 1880.600;    0.000;    0.000
310.119; 1921.600;    0.000;    0.000
310.180; 1796.600;    0.000;    0.000
310.242; 1798.600;    0.000;    0.000
310.304; 1856.600;    0.000;    0.000
310.366; 1843.600;    0.000;    0.000
310.428; 1800.600;    0.000;    0.000
310.489; 1789.600;    0.000;    0.000
310.551; 1818.600;    0.000;    0.000
310.613; 1839.600;    0.000;    0.000
310.675; 1795.600;    0.000;    0.000
310.737; 1781.600;    0.000;    0.000
310.798; 1810.600;    0.000;    0.000
310.860; 1832.600;    0.000;    0.000
310.922; 1717.600;    0.000;    0.000
310.983; 1715.600;    0.000;    0.000
311.045; 1766.600;    0.000;    0.000
311.107; 1782.600;    0.000;    0.000
311.169; 1717.600;    0.000;    0.000
311.230; 1756.600;    0.000;    0.000
311.292; 1781.600;    0.000;    0.000
311.354; 1688.600;    0.000;    0.000
311.415; 1744.600;    0.000;    0.000
311.477; 1774.600;    0.000;    0.000
311.539; 1763.600;    0.000;    0.000
311.600; 1836.600;    0.000;    0.000
311.662; 1795.600;    0.000;    0.000
311.724; 1789.600;    0.000;    0.000
311.785; 1764.600;    0.000;    0.000
311.847; 1811.600;    0.000;    0.000
311.908; 1703.600;    0.000;    0.000
311.970; 1777.600;    0.000;    0.000
312.032; 1828.600;    0.000;    0.000
312.093; 1785.600;    0.000;    0.000
312.155; 1819.600;    0.000;    0.000
312.216; 1793.600;    0.000;    0.000
312.278; 1786.600;    0.000;    0.000
312.339; 1803.600;    0.000;    0.000
312.401; 1828.600;    0.000;    0.000
312.462; 1797.600;    0.000;    0.000
312.524; 1736.600;    0.000;    0.000
312.585; 1760.600;    0.000;    0.000
312.647; 1765.600;    0.000;    0.000
312.708; 1791.600;    0.000;    0.000
312.770; 1790.600;    0.000;    0.000
312.831; 1841.600;    0.000;    0.000
312.893; 1857.600;    0.000;    0.000
312.954; 1782.600;    0.000;    0.000
313.016; 1859.600;    0.000;    0.000
313.077; 1840.600;    0.000;    0.000
313.139; 1830.600;    0.000;    0.000
313.200; 1846.600;    0.000;    0.000
313.261; 1880.600;    0.000;    0.000
313.323; 1863.600;    0.000;    0.000
313.384; 1913.600;    0.000;    0.000
313.446; 1816.600;    0.000;    0.000
313.507; 1808.600;    0.000;    0.000
313.568; 1807.600;    0.000;    0.000
313.630; 1797.600;    0.000;    0.000
313.691; 1758.600;    0.000;    0.000
313.752; 1815.600;    0.000;    0.000
313.814; 1881.600;    0.000;    0.000
313.875; 1885.600;    0.000;    0.000
313.936; 1850.600;    0.000;    0.000
313.998; 1858.600;    0.000;    0.000
314.059; 1877.600;    0.000;    0.000
314.120; 1904.600;    0.000;    0.000
314.182; 1850.600;    0.000;    0.000
314.243; 1864.600;    0.000;    0.000
314.304; 1882.600;    0.000;    0.000
314.365; 1960.600;    0.000;    0.000
314.427; 1859.600;    0.000;    0.000
314.488; 1854.600;    0.000;    0.000
314.549; 1903.600;    0.000;    0.000
314.610; 1990.600;    0.000;    0.000
314.672; 1911.600;    0.000;    0.000
314.733; 1841.600;    0.000;    0.000
314.794; 1866.600;    0.000;    0.000
314.855; 1885.600;    0.000;    0.000
314.917; 1920.600;    0.000;    0.000
314.978; 1815.600;    0.000;    0.000
315.039; 1868.600;    0.000;    0.000
315.100; 1878.600;    0.000;    0.000
315.161; 2026.600;    0.000;    0.000
315.222; 1973.600;    0.000;    0.000
315.283; 1907.600;    0.000;    0.000
315.345; 1849.600;    0.000;    0.000
315.406; 1882.600;    0.000;    0.000
315.467; 1912.600;    0.000;    0.000
315.528; 1874.600;    0.000;    0.000
315.589; 1875.600;    0.000;    0.000
315.650; 1844.600;    0.000;    0.000
315.711; 1904.600;    0.000;    0.000
315.772; 1869.600;    0.000;    0.000
315.833; 1842.600;    0.000;    0.000
315.894; 1845.600;    0.000;    0.000
315.955; 1907.600;    0.000;    0.000
316.016; 1859.600;    0.000;    0.000
316.078; 1900.600;    0.000;    0.000
316.139; 1898.600;    0.000;    0.000
316.200; 1944.600;    0.000;    0.000
316.261; 1943.600;    0.000;    0.000
316.322; 1867.600;    0.000;    0.000
316.383; 1903.600;    0.000;    0.000
316.444; 1888.600;    0.000;    0.000
316.504; 1899.600;    0.000;    0.000
316.565; 1959.600;    0.000;    0.000
316.626; 1959.600;    0.000;    0.000
316.687; 1893.600;    0.000;    0.000
316.748; 1901.600;    0.000;    0.000
316.809; 1913.600;    0.000;    0.000
316.870; 1949.600;    0.000;    0.000
316.931; 1927.600;    0.000;    0.000
316.992; 1990.600;    0.000;    0.000
317.053; 1908.600;    0.000;    0.000
317.114; 1956.600;    0.000;    0.000
317.175; 1944.600;    0.000;    0.000
317.235; 1907.600;    0.000;    0.000
317.296; 1960.600;    0.000;    0.000
317.357; 1959.600;    0.000;    0.000
317.418; 1979.600;    0.000;    0.000
317.479; 1991.600;    0.000;    0.000
317.540; 1965.600;    0.000;    0.000
317.601; 1901.600;    0.000;    0.000
317.661; 1903.600;    0.000;    0.000
317.722; 1905.600;    0.000;    0.000
317.783; 1901.600;    0.000;    0.000
317.844; 1890.600;    0.000;    0.000
317.904; 1946.600;    0.000;    0.000
317.965; 1953.600;    0.000;    0.000
318.026; 1996.600;    0.000;    0.000
318.087; 1900.600;    0.000;    0.000
318.148; 2008.600;    0.000;    0.000
318.208; 2058.600;    0.000;    0.000
318.269; 1968.600;    0.000;    0.000
318.330; 2117.600;    0.000;    0.000
318.390; 2027.600;    0.000;    0.000
318.451; 2025.600;    0.000;    0.000
318.512; 1968.600;    0.000;    0.000
318.572; 1965.600;    0.000;    0.000
318.633; 2078.600;    0.000;    0.000
318.694; 2057.600;    0.000;    0.000
318.754; 2030.600;    0.000;    0.000
318.815; 2073.600;    0.000;    0.000
318.876; 1900.600;    0.000;    0.000
318.936; 2000.600;    0.000;    0.000
318.997; 1914.600;    0.000;    0.000
319.058; 1914.600;    0.000;    0.000
319.118; 2018.600;    0.000;    0.000
319.179; 1943.600;    0.000;    0.000
319.239; 1993.600;    0.000;    0.000
319.300; 2002.600;    0.000;    0.000
319.361; 2000.600;    0.000;    0.000
319.421; 1916.600;    0.000;    0.000
319.482; 1927.600;    0.000;    0.000
319.542; 1968.600;    0.000;    0.000
319.603; 1914.600;    0.000;    0.000
319.663; 1931.600;    0.000;    0.000
319.724; 1963.600;    0.000;    0.000
319.784; 1959.600;    0.000;    0.000
319.845; 1939.600;    0.000;    0.000
319.905; 1988.600;    0.000;    0.000
319.966; 2033.600;    0.000;    0.000
320.026; 1963.600;    0.000;    0.000
320.087; 1977.600;    0.000;    0.000
320.147; 1957.600;    0.000;    0.000
320.208; 1951.600;    0.000;    0.000
320.268; 2036.600;    0.000;    0.000
320.329; 2013.600;    0.000;    0.000
320.389; 2036.600;    0.000;    0.000
320.449; 2040.600;    0.000;    0.000
320.510; 2107.600;    0.000;    0.000
320.570; 2049.600;    0.000;    0.000
320.631; 1970.600;    0.000;    0.000
320.691; 2041.600;    0.000;    0.000
320.751; 2035.600;    0.000;    0.000
320.812; 2031.600;    0.000;    0.000
320.872; 2050.600;    0.000;    0.000
320.932; 2040.600;    0.000;    0.000
320.993; 2058.600;    0.000;    0.000
321.053; 2101.600;    0.000;    0.000
321.113; 2091.600;    0.000;    0.000
321.174; 2046.600;    0.000;    0.000
321.234; 2021.600;    0.000;    0.000
321.294; 2044.600;    0.000;    0.000
321.355; 1994.600;    0.000;    0.000
321.415; 1967.600;    0.000;    0.000
321.475; 2042.600;    0.000;    0.000
321.535; 2090.600;    0.000;    0.000
321.596; 2135.600;    0.000;    0.000
321.656; 2142.600;    0.000;    0.000
321.716; 2089.600;    0.000;    0.000
321.776; 2146.600;    0.000;    0.000
321.837; 2064.600;    0.000;    0.000
321.897; 2063.600;    0.000;    0.000
321.957; 2052.600;    0.000;    0.000
322.017; 2120.600;    0.000;    0.000
322.077; 2176.600;    0.000;    0.000
322.138; 2187.600;    0.000;    0.000
322.198; 2105.600;    0.000;    0.000
322.258; 2177.600;    0.000;    0.000
322.318; 2119.600;    0.000;    0.000
322.378; 2173.600;    0.000;    0.000
322.438; 2125.600;    0.000;    0.000
322.499; 2138.600;    0.000;    0.000
322.559; 2050.600;    0.000;    0.000
322.619; 2105.600;    0.000;    0.000
322.679; 2098.600;    0.000;    0.000
322.739; 2064.600;    0.000;    0.000
322.799; 2120.600;    0.000;    0.000
322.859; 2090.600;    0.000;    0.000
322.919; 2194.600;    0.000;    0.000
322.979; 2206.600;    0.000;    0.000
323.039; 2073.600;    0.000;    0.000
323.099; 2131.600;    0.000;    0.000
323.159; 2120.600;    0.000;    0.000
323.219; 2028.600;    0.000;    0.000
323.279; 2072.600;    0.000;    0.000
323.339; 2178.600;    0.000;    0.000
323.399; 2161.600;    0.000;    0.000
323.459; 2173.600;    0.000;    0.000
323.519; 2303.600;    0.000;    0.000
323.579; 2151.600;    0.000;    0.000
323.639; 2154.600;    0.000;    0.000
323.699; 2170.600;    0.000;    0.000
323.759; 2214.600;    0.000;    0.000
323.819; 2279.600;    0.000;    0.000
323.879; 2245.600;    0.000;    0.000
323.939; 2190.600;    0.000;    0.000
323.999; 2186.600;    0.000;    0.000
324.059; 2180.600;    0.000;    0.000
324.119; 2163.600;    0.000;    0.000
324.178; 2110.600;    0.000;    0.000
324.238; 2100.600;    0.000;    0.000
324.298; 2116.600;    0.000;    0.000
324.358; 2085.600;    0.000;    0.000
324.418; 2151.600;    0.000;    0.000
324.478; 2220.600;    0.000;    0.000
324.538; 2215.600;    0.000;    0.000
324.597; 2217.600;    0.000;    0.000
324.657; 2148.600;    0.000;    0.000
324.717; 2163.600;    0.000;    0.000
324.777; 2099.600;    0.000;    0.000
324.837; 2067.600;    0.000;    0.000
324.896; 2092.600;    0.000;    0.000
324.956; 2113.600;    0.000;    0.000
325.016; 2075.600;    0.000;    0.000
325.076; 2091.600;    0.000;    0.000
325.135; 2171.600;    0.000;    0.000
325.195; 2093.600;    0.000;    0.000
325.255; 2066.600;    0.000;    0.000
325.315; 2171.600;    0.000;    0.000
325.374; 2179.600;    0.000;    0.000
325.434; 2127.600;    0.000;    0.000
325.494; 2182.600;    0.000;    0.000
325.553; 2190.600;    0.000;    0.000
325.613; 2257.600;    0.000;    0.000
325.673; 2105.600;    0.000;    0.000
325.732; 2065.600;    0.000;    0.000
325.792; 2118.600;    0.000;    0.000
325.852; 2112.600;    0.000;    0.000
325.911; 2056.600;    0.000;    0.000
325.971; 2106.600;    0.000;    0.000
326.031; 2058.600;    0.000;    0.000
326.090; 2108.600;    0.000;    0.000
326.150; 2045.600;    0.000;    0.000
326.209; 2157.600;    0.000;    0.000
326.269; 2044.600;    0.000;    0.000
326.328; 2154.600;    0.000;    0.000
326.388; 2193.600;    0.000;    0.000
326.448; 2236.600;    0.000;    0.000
326.507; 2156.600;    0.000;    0.000
326.567; 2111.600;    0.000;    0.000
326.626; 2158.600;    0.000;    0.000
326.686; 2112.600;    0.000;    0.000
326.745; 2095.600;    0.000;    0.000
326.805; 2131.600;    0.000;    0.000
326.864; 2211.600;    0.000;    0.000
326.924; 2204.600;    0.000;    0.000
326.983; 2121.600;    0.000;    0.000
327.043; 2237.600;    0.000;    0.000
327.102; 2141.600;    0.000;    0.000
327.161; 2183.600;    0.000;    0.000
327.221; 2095.600;    0.000;    0.000
327.280; 2246.600;    0.000;    0.000
327.340; 2140.600;    0.000;    0.000
327.399; 2254.600;    0.000;    0.000
327.459; 2193.600;    0.000;    0.000
327.518; 2185.600;    0.000;    0.000
327.577; 2122.600;    0.000;    0.000
327.637; 2113.600;    0.000;    0.000
327.696; 2106.600;    0.000;    0.000
327.755; 2218.600;    0.000;    0.000
327.815; 2212.600;    0.000;    0.000
327.874; 2232.600;    0.000;    0.000
327.933; 2200.600;    0.000;    0.000
327.993; 2234.600;    0.000;    0.000
328.052; 2214.600;    0.000;    0.000
328.111; 2195.600;    0.000;    0.000
328.171; 2217.600;    0.000;    0.000
328.230; 2273.600;    0.000;    0.000
328.289; 2236.600;    0.000;    0.000
328.349; 2268.600;    0.000;    0.000
328.408; 2251.600;    0.000;    0.000
328.467; 2288.600;    0.000;    0.000
328.526; 2232.600;    0.000;    0.000
328.586; 2265.600;    0.000;    0.000
328.645; 2249.600;    0.000;    0.000
328.704; 2259.600;    0.000;    0.000
328.763; 2213.600;    0.000;    0.000
328.822; 2263.600;    0.000;    0.000
328.882; 2242.600;    0.000;    0.000
328.941; 2266.600;    0.000;    0.000
329.000; 2297.600;    0.000;    0.000
329.059; 2218.600;    0.000;    0.000
329.118; 2295.600;    0.000;    0.000
329.177; 2260.600;    0.000;    0.000
329.237; 2316.600;    0.000;    0.000
329.296; 2292.600;    0.000;    0.000
329.355; 2312.600;    0.000;    0.000
329.414; 2253.600;    0.000;    0.000
329.473; 2365.600;    0.000;    0.000
329.532; 2293.600;    0.000;    0.000
329.591; 2325.600;    0.000;    0.000
329.650; 2331.600;    0.000;    0.000
329.709; 2540.600;    0.000;    0.000
329.768; 2446.600;    0.000;    0.000
329.827; 2630.600;    0.000;    0.000
329.886; 2616.600;    0.000;    0.000
329.945; 2655.600;    0.000;    0.000
330.004; 2661.600;    0.000;    0.000
330.063; 2650.600;    0.000;    0.000
330.122; 2628.600;    0.000;    0.000
330.181; 2739.600;    0.000;    0.000
330.240; 2813.600;    0.000;    0.000
330.299; 2648.600;    0.000;    0.000
330.358; 2546.600;    0.000;    0.000
330.417; 2467.600;    0.000;    0.000
330.476; 2511.600;    0.000;    0.000
330.535; 2508.600;    0.000;    0.000
330.594; 2381.600;    0.000;    0.000
330.653; 2362.600;    0.000;    0.000
330.712; 2435.600;    0.000;    0.000
330.771; 2439.600;    0.000;    0.000
330.830; 2351.600;    0.000;    0.000
330.889; 2310.600;    0.000;    0.000
330.948; 2504.600;    0.000;    0.000
331.006; 2371.600;    0.000;    0.000
331.065; 2245.600;    0.000;    0.000
331.124; 2383.600;    0.000;    0.000
331.183; 2306.600;    0.000;    0.000
331.242; 2267.600;    0.000;    0.000
331.301; 2345.600;    0.000;    0.000
331.359; 2244.600;    0.000;    0.000
331.418; 2305.600;    0.000;    0.000
331.477; 2224.600;    0.000;    0.000
331.536; 2265.600;    0.000;    0.000
331.595; 2170.600;    0.000;    0.000
331.653; 2215.600;    0.000;    0.000
331.712; 2236.600;    0.000;    0.000
331.771; 2181.600;    0.000;    0.000
331.830; 2148.600;    0.000;    0.000
331.888; 2208.600;    0.000;    0.000
331.947; 2263.600;    0.000;    0.000
332.006; 2257.600;    0.000;    0.000
332.065; 2208.600;    0.000;    0.000
332.123; 2251.600;    0.000;    0.000
332.182; 2231.600;    0.000;    0.000
332.241; 2357.600;    0.000;    0.000
332.299; 2326.600;    0.000;    0.000
332.358; 2257.600;    0.000;    0.000
332.417; 2321.600;    0.000;    0.000
332.475; 2283.600;    0.000;    0.000
332.534; 2312.600;    0.000;    0.000
332.592; 2316.600;    0.000;    0.000
332.651; 2296.600;    0.000;    0.000
332.710; 2272.600;    0.000;    0.000
332.768; 2275.600;    0.000;    0.000
332.827; 2215.600;    0.000;    0.000
332.885; 2253.600;    0.000;    0.000
332.944; 2197.600;    0.000;    0.000
333.003; 2327.600;    0.000;    0.000
333.061; 2241.600;    0.000;    0.000
333.120; 2437.600;    0.000;    0.000
333.178; 2458.600;    0.000;    0.000
333.237; 2400.600;    0.000;    0.000
333.295; 2483.600;    0.000;    0.000
333.354; 2510.600;    0.000;    0.000
333.412; 2494.600;    0.000;    0.000
333.471; 2568.600;    0.000;    0.000
333.529; 2587.600;    0.000;    0.000
333.588; 2655.600;    0.000;    0.000
333.646; 2680.600;    0.000;    0.000
333.705; 2670.600;    0.000;    0.000
333.763; 2583.600;    0.000;    0.000
333.822; 2623.600;    0.000;    0.000
333.880; 2519.600;    0.000;    0.000
333.938; 2601.600;    0.000;    0.000
333.997; 2554.600;    0.000;    0.000
334.055; 2569.600;    0.000;    0.000
334.114; 2501.600;    0.000;    0.000
334.172; 2455.600;    0.000;    0.000
334.230; 2508.600;    0.000;    0.000
334.289; 2510.600;    0.000;    0.000
334.347; 2542.600;    0.000;    0.000
334.405; 2534.600;    0.000;    0.000
334.464; 2475.600;    0.000;    0.000
334.522; 2439.600;    0.000;    0.000
334.580; 2440.600;    0.000;    0.000
334.639; 2422.600;    0.000;    0.000
334.697; 2460.600;    0.000;    0.000
334.755; 2537.600;    0.000;    0.000
334.814; 2479.600;    0.000;    0.000
334.872; 2475.600;    0.000;    0.000
334.930; 2346.600;    0.000;    0.000
334.988; 2411.600;    0.000;    0.000
335.047; 2390.600;    0.000;    0.000
335.105; 2501.600;    0.000;    0.000
335.163; 2447.600;    0.000;    0.000
335.221; 2568.600;    0.000;    0.000
335.280; 2447.600;    0.000;    0.000
335.338; 2540.600;    0.000;    0.000
335.396; 2498.600;    0.000;    0.000
335.454; 2411.600;    0.000;    0.000
335.512; 2375.600;    0.000;    0.000
335.570; 2441.600;    0.000;    0.000
335.629; 2559.600;    0.000;    0.000
335.687; 2628.600;    0.000;    0.000
335.745; 2779.600;    0.000;    0.000
335.803; 2843.600;    0.000;    0.000
335.861; 2804.600;    0.000;    0.000
335.919; 2759.600;    0.000;    0.000
335.977; 2705.600;    0.000;    0.000
336.035; 2639.600;    0.000;    0.000
336.094; 2643.600;    0.000;    0.000
336.152; 2717.600;    0.000;    0.000
336.210; 2685.600;    0.000;    0.000
336.268; 2806.600;    0.000;    0.000
336.326; 2811.600;    0.000;    0.000
336.384; 2761.600;    0.000;    0.000
336.442; 2730.600;    0.000;    0.000
336.500; 2648.600;    0.000;    0.000
336.558; 2624.600;    0.000;    0.000
336.616; 2677.600;    0.000;    0.000
336.674; 2648.600;    0.000;    0.000
336.732; 2718.600;    0.000;    0.000
336.790; 2669.600;    0.000;    0.000
336.848; 2713.600;    0.000;    0.000
336.906; 2654.600;    0.000;    0.000
336.964; 2565.600;    0.000;    0.000
337.022; 2704.600;    0.000;    0.000
337.080; 2782.600;    0.000;    0.000
337.138; 2698.600;    0.000;    0.000
337.195; 2722.600;    0.000;    0.000
337.253; 2680.600;    0.000;    0.000
337.311; 2645.600;    0.000;    0.000
337.369; 2590.600;    0.000;    0.000
337.427; 2614.600;    0.000;    0.000
337.485; 2572.600;    0.000;    0.000
337.543; 2595.600;    0.000;    0.000
337.601; 2528.600;    0.000;    0.000
337.658; 2546.600;    0.000;    0.000
337.716; 2518.600;    0.000;    0.000
337.774; 2573.600;    0.000;    0.000
337.832; 2455.600;    0.000;    0.000
337.890; 2433.600;    0.000;    0.000
337.947; 2430.600;    0.000;    0.000
338.005; 2496.600;    0.000;    0.000
338.063; 2406.600;    0.000;    0.000
338.121; 2571.600;    0.000;    0.000
338.178; 2438.600;    0.000;    0.000
338.236; 2638.600;    0.000;    0.000
338.294; 2607.600;    0.000;    0.000
338.352; 2582.600;    0.000;    0.000
338.409; 2509.600;    0.000;    0.000
338.467; 2456.600;    0.000;    0.000
338.525; 2472.600;    0.000;    0.000
338.583; 2449.600;    0.000;    0.000
338.640; 2374.600;    0.000;    0.000
338.698; 2492.600;    0.000;    0.000
338.756; 2519.600;    0.000;    0.000
338.813; 2643.600;    0.000;    0.000
338.871; 2716.600;    0.000;    0.000
338.928; 2684.600;    0.000;    0.000
338.986; 2835.600;    0.000;    0.000
339.044; 2703.600;    0.000;    0.000
339.101; 2631.600;    0.000;    0.000
339.159; 2617.600;    0.000;    0.000
339.216; 2605.600;    0.000;    0.000
339.274; 2593.600;    0.000;    0.000
339.332; 2577.600;    0.000;    0.000
339.389; 2659.600;    0.000;    0.000
339.447; 2580.600;    0.000;    0.000
339.504; 2610.600;    0.000;    0.000
339.562; 2538.600;    0.000;    0.000
339.619; 2566.600;    0.000;    0.000
339.677; 2621.600;    0.000;    0.000
339.734; 2509.600;    0.000;    0.000
339.792; 2584.600;    0.000;    0.000
339.849; 2638.600;    0.000;    0.000
339.907; 2628.600;    0.000;    0.000
339.964; 2442.600;    0.000;    0.000
340.022; 2568.600;    0.000;    0.000
340.079; 2563.600;    0.000;    0.000
340.137; 2570.600;    0.000;    0.000
340.194; 2509.600;    0.000;    0.000
340.252; 2606.600;    0.000;    0.000
340.309; 2449.600;    0.000;    0.000
340.366; 2469.600;    0.000;    0.000
340.424; 2576.600;    0.000;    0.000
340.481; 2608.600;    0.000;    0.000
340.538; 2616.600;    0.000;    0.000
340.596; 2582.600;    0.000;    0.000
340.653; 2580.600;    0.000;    0.000
340.711; 2639.600;    0.000;    0.000
340.768; 2701.600;    0.000;    0.000
340.825; 2619.600;    0.000;    0.000
340.883; 2680.600;    0.000;    0.000
340.940; 2633.600;    0.000;    0.000
340.997; 2613.600;    0.000;    0.000
341.054; 2592.600;    0.000;    0.000
341.112; 2673.600;    0.000;    0.000
341.169; 2691.600;    0.000;    0.000
341.226; 2680.600;    0.000;    0.000
341.284; 2684.600;    0.000;    0.000
341.341; 2669.600;    0.000;    0.000
341.398; 2642.600;    0.000;    0.000
341.455; 2603.600;    0.000;    0.000
341.512; 2759.600;    0.000;    0.000
341.570; 2613.600;    0.000;    0.000
341.627; 2606.600;    0.000;    0.000
341.684; 2476.600;    0.000;    0.000
341.741; 2755.600;    0.000;    0.000
341.798; 2687.600;    0.000;    0.000
341.856; 2632.600;    0.000;    0.000
341.913; 2670.600;    0.000;    0.000
341.970; 2741.600;    0.000;    0.000
342.027; 2805.600;    0.000;    0.000
342.084; 2713.600;    0.000;    0.000
342.141; 2905.600;    0.000;    0.000
342.198; 2846.600;    0.000;    0.000
342.255; 2740.600;    0.000;    0.000
342.313; 2750.600;    0.000;    0.000
342.370; 2650.600;    0.000;    0.000
342.427; 2592.600;    0.000;    0.000
342.484; 2606.600;    0.000;    0.000
342.541; 2483.600;    0.000;    0.000
342.598; 2524.600;    0.000;    0.000
342.655; 2612.600;    0.000;    0.000
342.712; 2581.600;    0.000;    0.000
342.769; 2544.600;    0.000;    0.000
342.826; 2593.600;    0.000;    0.000
342.883; 2443.600;    0.000;    0.000
342.940; 2525.600;    0.000;    0.000
342.997; 2548.600;    0.000;    0.000
343.054; 2599.600;    0.000;    0.000
343.111; 2438.600;    0.000;    0.000
343.168; 2527.600;    0.000;    0.000
343.225; 2612.600;    0.000;    0.000
343.282; 2547.600;    0.000;    0.000
343.339; 2645.600;    0.000;    0.000
343.395; 2638.600;    0.000;    0.000
343.452; 2573.600;    0.000;    0.000
343.509; 2623.600;    0.000;    0.000
343.566; 2661.600;    0.000;    0.000
343.623; 2658.600;    0.000;    0.000
343.680; 2566.600;    0.000;    0.000
343.737; 2630.600;    0.000;    0.000
343.794; 2651.600;    0.000;    0.000
343.850; 2574.600;    0.000;    0.000
343.907; 2712.600;    0.000;    0.000
343.964; 2644.600;    0.000;    0.000
344.021; 2750.600;    0.000;    0.000
344.078; 2667.600;    0.000;    0.000
344.134; 2684.600;    0.000;    0.000
344.191; 2687.600;    0.000;    0.000
344.248; 2723.600;    0.000;    0.000
344.305; 2738.600;    0.000;    0.000
344.361; 2745.600;    0.000;    0.000
344.418; 2817.600;    0.000;    0.000
344.475; 2701.600;    0.000;    0.000
344.532; 2731.600;    0.000;    0.000
344.588; 2628.600;    0.000;    0.000
344.645; 2600.600;    0.000;    0.000
344.702; 2648.600;    0.000;    0.000
344.758; 2732.600;    0.000;    0.000
344.815; 2637.600;    0.000;    0.000
344.872; 2725.600;    0.000;    0.000
344.928; 2895.600;    0.000;    0.000
344.985; 2853.600;    0.000;    0.000
345.042; 2815.600;    0.000;    0.000
345.098; 2778.600;    0.000;    0.000
345.155; 2856.600;    0.000;    0.000
345.212; 2685.600;    0.000;    0.000
345.268; 2794.600;    0.000;    0.000
345.325; 2797.600;    0.000;    0.000
345.381; 2834.600;    0.000;    0.000
345.438; 3027.600;    0.000;    0.000
345.495; 2910.600;    0.000;    0.000
345.551; 2944.600;    0.000;    0.000
345.608; 2836.600;    0.000;    0.000
345.664; 2728.600;    0.000;    0.000
345.721; 2681.600;    0.000;    0.000
345.777; 2612.600;    0.000;    0.000
345.834; 2583.600;    0.000;    0.000
345.890; 2671.600;    0.000;    0.000
345.947; 2697.600;    0.000;    0.000
346.003; 2822.600;    0.000;    0.000
346.060; 2663.600;    0.000;    0.000
346.116; 2663.600;    0.000;    0.000
346.173; 2689.600;    0.000;    0.000
346.229; 2650.600;    0.000;    0.000
346.285; 2656.600;    0.000;    0.000
346.342; 2635.600;    0.000;    0.000
346.398; 2787.600;    0.000;    0.000
346.455; 2768.600;    0.000;    0.000
346.511; 2866.600;    0.000;    0.000
346.567; 2843.600;    0.000;    0.000
346.624; 2857.600;    0.000;    0.000
346.680; 2923.600;    0.000;    0.000
346.737; 2821.600;    0.000;    0.000
346.793; 2884.600;    0.000;    0.000
346.849; 2933.600;    0.000;    0.000
346.906; 2996.600;    0.000;    0.000
346.962; 2943.600;    0.000;    0.000
347.018; 3006.600;    0.000;    0.000
347.074; 2925.600;    0.000;    0.000
347.131; 3012.600;    0.000;    0.000
347.187; 2931.600;    0.000;    0.000
347.243; 2983.600;    0.000;    0.000
347.300; 2870.600;    0.000;    0.000
347.356; 2772.600;    0.000;    0.000
347.412; 2773.600;    0.000;    0.000
347.468; 2703.600;    0.000;    0.000
347.524; 2597.600;    0.000;    0.000
347.581; 2676.600;    0.000;    0.000
347.637; 2803.600;    0.000;    0.000
347.693; 2638.600;    0.000;    0.000
347.749; 2727.600;    0.000;    0.000
347.805; 2670.600;    0.000;    0.000
347.862; 2763.600;    0.000;    0.000
347.918; 2723.600;    0.000;    0.000
347.974; 2700.600;    0.000;    0.000
348.030; 2795.600;    0.000;    0.000
348.086; 2744.600;    0.000;    0.000
348.142; 2671.600;    0.000;    0.000
348.198; 2677.600;    0.000;    0.000
348.254; 2645.600;    0.000;    0.000
348.311; 2683.600;    0.000;    0.000
348.367; 2613.600;    0.000;    0.000
348.423; 2623.600;    0.000;    0.000
348.479; 2584.600;    0.000;    0.000
348.535; 2596.600;    0.000;    0.000
348.591; 2581.600;    0.000;    0.000
348.647; 2688.600;    0.000;    0.000
348.703; 2651.600;    0.000;    0.000
348.759; 2731.600;    0.000;    0.000
348.815; 2639.600;    0.000;    0.000
348.871; 2690.600;    0.000;    0.000
348.927; 2693.600;    0.000;    0.000
348.983; 2781.600;    0.000;    0.000
349.039; 2723.600;    0.000;    0.000
349.095; 2851.600;    0.000;    0.000
349.151; 2734.600;    0.000;    0.000
349.207; 2672.600;    0.000;    0.000
349.263; 2750.600;    0.000;    0.000
349.319; 2705.600;    0.000;    0.000
349.374; 2793.600;    0.000;    0.000
349.430; 2756.600;    0.000;    0.000
349.486; 2823.600;    0.000;    0.000
349.542; 2770.600;    0.000;    0.000
349.598; 2786.600;    0.000;    0.000
349.654; 2776.600;    0.000;    0.000
349.710; 2681.600;    0.000;    0.000
349.766; 2731.600;    0.000;    0.000
349.821; 2732.600;    0.000;    0.000
349.877; 2722.600;    0.000;    0.000
349.933; 2701.600;    0.000;    0.000
349.989; 2776.600;    0.000;    0.000
350.045; 2757.600;    0.000;    0.000
350.100; 2703.600;    0.000;    0.000
350.156; 2780.600;    0.000;    0.000
350.212; 2696.600;    0.000;    0.000
350.268; 2731.600;    0.000;    0.000
350.323; 2720.600;    0.000;    0.000
350.379; 2733.600;    0.000;    0.000
350.435; 2717.600;    0.000;    0.000
350.491; 2719.600;    0.000;    0.000
350.546; 2729.600;    0.000;    0.000
350.602; 2767.600;    0.000;    0.000
350.658; 2636.600;    0.000;    0.000
350.713; 2636.600;    0.000;    0.000
350.769; 2657.600;    0.000;    0.000
350.825; 2680.600;    0.000;    0.000
350.880; 2689.600;    0.000;    0.000
350.936; 2701.600;    0.000;    0.000
350.992; 2671.600;    0.000;    0.000
351.047; 2670.600;    0.000;    0.000
351.103; 2637.600;    0.000;    0.000
351.158; 2736.600;    0.000;    0.000
351.214; 2678.600;    0.000;    0.000
351.270; 2561.600;    0.000;    0.000
351.325; 2668.600;    0.000;    0.000
351.381; 2618.600;    0.000;    0.000
351.436; 2695.600;    0.000;    0.000
351.492; 2702.600;    0.000;    0.000
351.547; 2886.600;    0.000;    0.000
351.603; 2915.600;    0.000;    0.000
351.658; 2872.600;    0.000;    0.000
351.714; 2749.600;    0.000;    0.000
351.769; 2906.600;    0.000;    0.000
351.825; 2864.600;    0.000;    0.000
351.880; 2805.600;    0.000;    0.000
351.936; 3011.600;    0.000;    0.000
351.991; 2988.600;    0.000;    0.000
352.047; 2930.600;    0.000;    0.000
352.102; 2851.600;    0.000;    0.000
352.158; 2806.600;    0.000;    0.000
352.213; 2809.600;    0.000;    0.000
352.268; 2661.600;    0.000;    0.000
352.324; 2642.600;    0.000;    0.000
352.379; 2793.600;    0.000;    0.000
352.434; 2710.600;    0.000;    0.000
352.490; 2786.600;    0.000;    0.000
352.545; 2774.600;    0.000;    0.000
352.601; 2730.600;    0.000;    0.000
352.656; 2684.600;    0.000;    0.000
352.711; 2600.600;    0.000;    0.000
352.767; 2598.600;    0.000;    0.000
352.822; 2614.600;    0.000;    0.000
352.877; 2596.600;    0.000;    0.000
352.932; 2693.600;    0.000;    0.000
352.988; 2731.600;    0.000;    0.000
353.043; 2662.600;    0.000;    0.000
353.098; 2742.600;    0.000;    0.000
353.153; 2747.600;    0.000;    0.000
353.209; 2698.600;    0.000;    0.000
353.264; 2609.600;    0.000;    0.000
353.319; 2622.600;    0.000;    0.000
353.374; 2632.600;    0.000;    0.000
353.430; 2633.600;    0.000;    0.000
353.485; 2684.600;    0.000;    0.000
353.540; 2622.600;    0.000;    0.000
353.595; 2622.600;    0.000;    0.000
353.650; 2593.600;    0.000;    0.000
353.705; 2614.600;    0.000;    0.000
353.761; 2537.600;    0.000;    0.000
353.816; 2586.600;    0.000;    0.000
353.871; 2636.600;    0.000;    0.000
353.926; 2528.600;    0.000;    0.000
353.981; 2586.600;    0.000;    0.000
354.036; 2528.600;    0.000;    0.000
354.091; 2486.600;    0.000;    0.000
354.146; 2557.600;    0.000;    0.000
354.201; 2571.600;    0.000;    0.000
354.256; 2572.600;    0.000;    0.000
354.311; 2633.600;    0.000;    0.000
354.367; 2658.600;    0.000;    0.000
354.422; 2590.600;    0.000;    0.000
354.477; 2641.600;    0.000;    0.000
354.532; 2659.600;    0.000;    0.000
354.587; 2704.600;    0.000;    0.000
354.642; 2678.600;    0.000;    0.000
354.697; 2752.600;    0.000;    0.000
354.751; 2720.600;    0.000;    0.000
354.806; 2633.600;    0.000;    0.000
354.861; 2723.600;    0.000;    0.000
354.916; 2654.600;    0.000;    0.000
354.971; 2693.600;    0.000;    0.000
355.026; 2625.600;    0.000;    0.000
355.081; 2596.600;    0.000;    0.000
355.136; 2627.600;    0.000;    0.000
355.191; 2522.600;    0.000;    0.000
355.246; 2622.600;    0.000;    0.000
355.301; 2648.600;    0.000;    0.000
355.355; 2657.600;    0.000;    0.000
355.410; 2621.600;    0.000;    0.000
355.465; 2528.600;    0.000;    0.000
355.520; 2562.600;    0.000;    0.000
355.575; 2563.600;    0.000;    0.000
355.630; 2500.600;    0.000;    0.000
355.684; 2478.600;    0.000;    0.000
355.739; 2491.600;    0.000;    0.000
355.794; 2440.600;    0.000;    0.000
355.849; 2541.600;    0.000;    0.000
355.904; 2585.600;    0.000;    0.000
355.958; 2486.600;    0.000;    0.000
356.013; 2509.600;    0.000;    0.000
356.068; 2605.600;    0.000;    0.000
356.123; 2668.600;    0.000;    0.000
356.177; 2550.600;    0.000;    0.000
356.232; 2692.600;    0.000;    0.000
356.287; 2628.600;    0.000;    0.000
356.341; 2672.600;    0.000;    0.000
356.396; 2529.600;    0.000;    0.000
356.451; 2596.600;    0.000;    0.000
356.505; 2601.600;    0.000;    0.000
356.560; 2613.600;    0.000;    0.000
356.615; 2573.600;    0.000;    0.000
356.669; 2650.600;    0.000;    0.000
356.724; 2677.600;    0.000;    0.000
356.778; 2592.600;    0.000;    0.000
356.833; 2594.600;    0.000;    0.000
356.888; 2642.600;    0.000;    0.000
356.942; 2554.600;    0.000;    0.000
356.997; 2566.600;    0.000;    0.000
357.051; 2525.600;    0.000;    0.000
357.106; 2528.600;    0.000;    0.000
357.160; 2448.600;    0.000;    0.000
357.215; 2450.600;    0.000;    0.000
357.269; 2634.600;    0.000;    0.000
357.324; 2504.600;    0.000;    0.000
357.378; 2493.600;    0.000;    0.000
357.433; 2503.600;    0.000;    0.000
357.487; 2538.600;    0.000;    0.000
357.542; 2480.600;    0.000;    0.000
357.596; 2443.600;    0.000;    0.000
357.651; 2482.600;    0.000;    0.000
357.705; 2487.600;    0.000;    0.000
357.760; 2546.600;    0.000;    0.000
357.814; 2443.600;    0.000;    0.000
357.868; 2469.600;    0.000;    0.000
357.923; 2374.600;    0.000;    0.000
357.977; 2455.600;    0.000;    0.000
358.032; 2466.600;    0.000;    0.000
358.086; 2605.600;    0.000;    0.000
358.140; 2548.600;    0.000;    0.000
358.195; 2558.600;    0.000;    0.000
358.249; 2553.600;    0.000;    0.000
358.303; 2468.600;    0.000;    0.000
358.358; 2400.600;    0.000;    0.000
358.412; 2409.600;    0.000;    0.000
358.466; 2488.600;    0.000;    0.000
358.521; 2374.600;    0.000;    0.000
358.575; 2401.600;    0.000;    0.000
358.629; 2395.600;    0.000;    0.000
358.683; 2400.600;    0.000;    0.000
358.738; 2447.600;    0.000;    0.000
358.792; 2394.600;    0.000;    0.000
358.846; 2454.600;    0.000;    0.000
358.900; 2385.600;    0.000;    0.000
358.954; 2379.600;    0.000;    0.000
359.009; 2359.600;    0.000;    0.000
359.063; 2484.600;    0.000;    0.000
359.117; 2466.600;    0.000;    0.000
359.171; 2466.600;    0.000;    0.000
359.225; 2445.600;    0.000;    0.000
359.280; 2449.600;    0.000;    0.000
359.334; 2493.600;    0.000;    0.000
359.388; 2474.600;    0.000;    0.000
359.442; 2470.600;    0.000;    0.000
359.496; 2402.600;    0.000;    0.000
359.550; 2364.600;    0.000;    0.000
359.604; 2486.600;    0.000;    0.000
359.658; 2382.600;    0.000;    0.000
359.712; 2412.600;    0.000;    0.000
359.766; 2370.600;    0.000;    0.000
359.820; 2389.600;    0.000;    0.000
359.875; 2376.600;    0.000;    0.000
359.929; 2324.600;    0.000;    0.000
359.983; 2307.600;    0.000;    0.000
360.037; 2348.600;    0.000;    0.000
360.091; 2356.600;    0.000;    0.000
360.145; 2295.600;    0.000;    0.000
360.199; 2383.600;    0.000;    0.000
360.253; 2359.600;    0.000;    0.000
360.306; 2303.600;    0.000;    0.000
360.360; 2395.600;    0.000;    0.000
360.414; 2271.600;    0.000;    0.000
360.468; 2353.600;    0.000;    0.000
360.522; 2393.600;    0.000;    0.000
360.576; 2345.600;    0.000;    0.000
360.630; 2401.600;    0.000;    0.000
360.684; 2385.600;    0.000;    0.000
360.738; 2396.600;    0.000;    0.000
360.792; 2422.600;    0.000;    0.000
360.846; 2322.600;    0.000;    0.000
360.899; 2358.600;    0.000;    0.000
360.953; 2394.600;    0.000;    0.000
361.007; 2345.600;    0.000;    0.000
361.061; 2410.600;    0.000;    0.000
361.115; 2344.600;    0.000;    0.000
361.168; 2340.600;    0.000;    0.000
361.222; 2306.600;    0.000;    0.000
361.276; 2294.600;    0.000;    0.000
361.330; 2430.600;    0.000;    0.000
361.384; 2393.600;    0.000;    0.000
361.437; 2313.600;    0.000;    0.000
361.491; 2358.600;    0.000;    0.000
361.545; 2342.600;    0.000;    0.000
361.599; 2262.600;    0.000;    0.000
361.652; 2320.600;    0.000;    0.000
361.706; 2340.600;    0.000;    0.000
361.760; 2316.600;    0.000;    0.000
361.813; 2350.600;    0.000;    0.000
361.867; 2362.600;    0.000;    0.000
361.921; 2307.600;    0.000;    0.000
361.974; 2177.600;    0.000;    0.000
362.028; 2273.600;    0.000;    0.000
362.082; 2300.600;    0.000;    0.000
362.135; 2238.600;    0.000;    0.000
362.189; 2305.600;    0.000;    0.000
362.242; 2294.600;    0.000;    0.000
362.296; 2308.600;    0.000;    0.000
362.350; 2291.600;    0.000;    0.000
362.403; 2330.600;    0.000;    0.000
362.457; 2248.600;    0.000;    0.000
362.510; 2220.600;    0.000;    0.000
362.564; 2173.600;    0.000;    0.000
362.617; 2209.600;    0.000;    0.000
362.671; 2314.600;    0.000;    0.000
362.724; 2217.600;    0.000;    0.000
362.778; 2317.600;    0.000;    0.000
362.831; 2316.600;    0.000;    0.000
362.885; 2252.600;    0.000;    0.000
362.938; 2116.600;    0.000;    0.000
362.992;  452.600;    0.000;    0.000
363.045;  324.600;    0.000;    0.000
363.099;  321.600;    0.000;    0.000
363.152;  317.600;    0.000;    0.000
363.205;  297.600;    0.000;    0.000
363.259;  305.600;    0.000;    0.000
363.312;  301.600;    0.000;    0.000
363.366;  314.600;    0.000;    0.000
363.419;  320.600;    0.000;    0.000
363.472;  316.600;    0.000;    0.000
363.526;  328.600;    0.000;    0.000
363.579;  310.600;    0.000;    0.000
363.632;  314.600;    0.000;    0.000
363.686;  305.600;    0.000;    0.000
363.739;  309.600;    0.000;    0.000
363.792;  283.600;    0.000;    0.000

