
Integration time [ms]:   0.300
Averaging Nr. [scans]: 1
Smoothing Nr. [pixels]: 0
Data measured with spectrometer [name]: UV2
Wave   ;Sample   ;Dark     ;Reference
[nm]   ;[counts] ;[counts] ;[counts] 

353.533;  209.825;  178.050;    0.000
353.597;  221.825;  251.050;    0.000
353.660;  209.825;  213.050;    0.000
353.723;  203.825;  185.050;    0.000
353.786;  175.825;  191.050;    0.000
353.850;  255.825;  238.050;    0.000
353.913;  191.825;  181.050;    0.000
353.976;  233.825;  190.050;    0.000
354.039;  160.825;  184.050;    0.000
354.102;  230.825;  231.050;    0.000
354.166;  210.825;  188.050;    0.000
354.229;  214.825;  224.050;    0.000
354.292;  197.825;  186.050;    0.000
354.355;  202.825;  175.050;    0.000
354.418;  169.825;  191.050;    0.000
354.481;  191.825;  181.050;    0.000
354.545;  595.825;  193.050;    0.000
354.608;  689.825;  210.050;    0.000
354.671;  625.825;  183.050;    0.000
354.734;  659.825;  189.050;    0.000
354.797;  672.825;  168.050;    0.000
354.860;  708.825;  178.050;    0.000
354.923;  679.825;  236.050;    0.000
354.986;  707.825;  181.050;    0.000
355.050;  672.825;  168.050;    0.000
355.113;  726.825;  201.050;    0.000
355.176;  734.825;  206.050;    0.000
355.239;  662.825;  213.050;    0.000
355.302;  752.825;  198.050;    0.000
355.365;  750.825;  199.050;    0.000
355.428;  731.825;  200.050;    0.000
355.491;  753.825;  232.050;    0.000
355.554;  731.825;  184.050;    0.000
355.617;  810.825;  214.050;    0.000
355.680;  851.825;  191.050;    0.000
355.743;  836.825;  161.050;    0.000
355.806;  811.825;  153.050;    0.000
355.869;  838.825;  221.050;    0.000
355.932;  801.825;  152.050;    0.000
355.995;  848.825;  195.050;    0.000
356.058;  870.825;  172.050;    0.000
356.121;  820.825;  186.050;    0.000
356.184;  909.825;  196.050;    0.000
356.247;  825.825;  183.050;    0.000
356.310;  840.825;  159.050;    0.000
356.373;  871.825;  183.050;    0.000
356.436;  912.825;  176.050;    0.000
356.498;  841.825;  191.050;    0.000
356.561;  865.825;  145.050;    0.000
356.624;  850.825;  187.050;    0.000
356.687;  886.825;  181.050;    0.000
356.750;  892.825;  227.050;    0.000
356.813;  909.825;  147.050;    0.000
356.876;  969.825;  184.050;    0.000
356.939;  901.825;  141.050;    0.000
357.001;  881.825;  188.050;    0.000
357.064;  854.825;  173.050;    0.000
357.127;  907.825;  159.050;    0.000
357.190;  921.825;  185.050;    0.000
357.253;  865.825;  180.050;    0.000
357.316;  997.825;  199.050;    0.000
357.378;  951.825;  196.050;    0.000
357.441;  888.825;  175.050;    0.000
357.504;  905.825;  164.050;    0.000
357.567;  901.825;  145.050;    0.000
357.629;  915.825;  205.050;    0.000
357.692;  928.825;  175.050;    0.000
357.755;  862.825;  205.050;    0.000
357.818;  917.825;  141.050;    0.000
357.880;  909.825;  170.050;    0.000
357.943;  906.825;  152.050;    0.000
358.006;  922.825;  145.050;    0.000
358.069;  939.825;  164.050;    0.000
358.131;  917.825;  148.050;    0.000
358.194;  871.825;  122.050;    0.000
358.257;  899.825;  147.050;    0.000
358.319;  905.825;  156.050;    0.000
358.382; 1004.825;  193.050;    0.000
358.445;  915.825;  155.050;    0.000
358.507;  982.825;  160.050;    0.000
358.570;  956.825;  159.050;    0.000
358.633;  935.825;  163.050;    0.000
358.695;  946.825;  174.050;    0.000
358.758;  894.825;  127.050;    0.000
358.821;  969.825;  165.050;    0.000
358.883;  980.825;  145.050;    0.000
358.946;  926.825;  127.050;    0.000
359.008; 1043.825;  180.050;    0.000
359.071;  985.825;  173.050;    0.000
359.134;  947.825;  150.050;    0.000
359.196;  998.825;  158.050;    0.000
359.259;  953.825;  159.050;    0.000
359.321;  936.825;  159.050;    0.000
359.384;  959.825;  182.050;    0.000
359.446;  962.825;  140.050;    0.000
359.509;  959.825;  146.050;    0.000
359.571;  989.825;  133.050;    0.000
359.634; 1020.825;   93.050;    0.000
359.696;  960.825;  142.050;    0.000
359.759; 1015.825;  161.050;    0.000
359.821; 1092.825;  110.050;    0.000
359.884; 1007.825;  114.050;    0.000
359.946; 1032.825;  180.050;    0.000
360.009;  996.825;  158.050;    0.000
360.071;  952.825;  116.050;    0.000
360.134; 1054.825;  170.050;    0.000
360.196;  990.825;  128.050;    0.000
360.259; 1014.825;  157.050;    0.000
360.321; 1044.825;  122.050;    0.000
360.384;  994.825;  119.050;    0.000
360.446;  989.825;  122.050;    0.000
360.508; 1017.825;  195.050;    0.000
360.571; 1049.825;  128.050;    0.000
360.633; 1056.825;  172.050;    0.000
360.696; 1043.825;  115.050;    0.000
360.758; 1013.825;  162.050;    0.000
360.820; 1047.825;  149.050;    0.000
360.883; 1023.825;  151.050;    0.000
360.945; 1054.825;  149.050;    0.000
361.007; 1014.825;  135.050;    0.000
361.070; 1015.825;  162.050;    0.000
361.132; 1046.825;  198.050;    0.000
361.194; 1136.825;  141.050;    0.000
361.257;  987.825;  154.050;    0.000
361.319;  995.825;  147.050;    0.000
361.381; 1024.825;  154.050;    0.000
361.443;  971.825;  144.050;    0.000
361.506; 1046.825;  164.050;    0.000
361.568; 1038.825;  148.050;    0.000
361.630; 1106.825;  127.050;    0.000
361.693; 1090.825;  158.050;    0.000
361.755; 1088.825;  161.050;    0.000
361.817; 1103.825;  173.050;    0.000
361.879; 1109.825;  159.050;    0.000
361.941; 1103.825;  153.050;    0.000
362.004; 1117.825;  148.050;    0.000
362.066; 1078.825;  150.050;    0.000
362.128; 1068.825;  132.050;    0.000
362.190; 1047.825;  207.050;    0.000
362.252; 1072.825;  142.050;    0.000
362.315; 1079.825;  153.050;    0.000
362.377; 1029.825;  164.050;    0.000
362.439; 1032.825;  155.050;    0.000
362.501; 1072.825;  157.050;    0.000
362.563; 1038.825;  188.050;    0.000
362.625; 1044.825;  194.050;    0.000
362.688; 1113.825;  159.050;    0.000
362.750; 1124.825;  205.050;    0.000
362.812; 1060.825;  148.050;    0.000
362.874; 1109.825;  173.050;    0.000
362.936; 1158.825;  152.050;    0.000
362.998; 1133.825;  145.050;    0.000
363.060; 1152.825;  184.050;    0.000
363.122; 1190.825;  147.050;    0.000
363.184; 1133.825;  136.050;    0.000
363.246; 1111.825;  171.050;    0.000
363.308; 1187.825;  154.050;    0.000
363.370; 1130.825;  175.050;    0.000
363.432; 1099.825;  139.050;    0.000
363.494; 1135.825;  163.050;    0.000
363.556; 1154.825;  117.050;    0.000
363.618; 1190.825;  126.050;    0.000
363.680; 1139.825;  147.050;    0.000
363.742; 1154.825;  161.050;    0.000
363.804; 1196.825;  159.050;    0.000
363.866; 1167.825;  170.050;    0.000
363.928; 1123.825;  122.050;    0.000
363.990; 1144.825;  167.050;    0.000
364.052; 1145.825;  180.050;    0.000
364.114; 1086.825;  119.050;    0.000
364.176; 1112.825;  184.050;    0.000
364.238; 1148.825;  180.050;    0.000
364.300; 1190.825;  159.050;    0.000
364.362; 1181.825;  163.050;    0.000
364.424; 1109.825;  139.050;    0.000
364.486; 1180.825;  189.050;    0.000
364.548; 1116.825;  167.050;    0.000
364.609; 1159.825;  165.050;    0.000
364.671; 1185.825;  171.050;    0.000
364.733; 1147.825;  165.050;    0.000
364.795; 1092.825;  122.050;    0.000
364.857; 1152.825;  147.050;    0.000
364.919; 1164.825;  104.050;    0.000
364.981; 1105.825;  143.050;    0.000
365.042; 1168.825;  166.050;    0.000
365.104; 1188.825;  162.050;    0.000
365.166; 1106.825;  155.050;    0.000
365.228; 1156.825;  179.050;    0.000
365.290; 1145.825;  133.050;    0.000
365.351; 1168.825;  142.050;    0.000
365.413; 1134.825;  144.050;    0.000
365.475; 1177.825;  139.050;    0.000
365.537; 1156.825;  181.050;    0.000
365.598; 1189.825;  166.050;    0.000
365.660; 1108.825;  130.050;    0.000
365.722; 1225.825;  177.050;    0.000
365.784; 1125.825;  149.050;    0.000
365.845; 1134.825;  156.050;    0.000
365.907; 1129.825;  122.050;    0.000
365.969; 1126.825;  140.050;    0.000
366.030; 1113.825;  156.050;    0.000
366.092; 1179.825;  140.050;    0.000
366.154; 1171.825;  169.050;    0.000
366.215; 1137.825;  170.050;    0.000
366.277; 1227.825;  143.050;    0.000
366.339; 1233.825;  139.050;    0.000
366.400; 1172.825;  139.050;    0.000
366.462; 1216.825;  140.050;    0.000
366.524; 1199.825;  150.050;    0.000
366.585; 1164.825;  163.050;    0.000
366.647; 1225.825;  193.050;    0.000
366.708; 1194.825;  135.050;    0.000
366.770; 1218.825;  165.050;    0.000
366.832; 1268.825;  168.050;    0.000
366.893; 1212.825;  157.050;    0.000
366.955; 1227.825;  132.050;    0.000
367.016; 1237.825;  127.050;    0.000
367.078; 1173.825;  146.050;    0.000
367.139; 1232.825;  129.050;    0.000
367.201; 1214.825;  148.050;    0.000
367.262; 1232.825;  165.050;    0.000
367.324; 1211.825;  171.050;    0.000
367.385; 1183.825;  118.050;    0.000
367.447; 1230.825;  144.050;    0.000
367.508; 1105.825;  135.050;    0.000
367.570; 1200.825;  160.050;    0.000
367.631; 1240.825;  157.050;    0.000
367.693; 1178.825;  168.050;    0.000
367.754; 1261.825;  139.050;    0.000
367.816; 1191.825;  141.050;    0.000
367.877; 1238.825;  195.050;    0.000
367.939; 1264.825;  166.050;    0.000
368.000; 1173.825;  127.050;    0.000
368.062; 1209.825;  143.050;    0.000
368.123; 1250.825;  156.050;    0.000
368.184; 1161.825;  179.050;    0.000
368.246; 1210.825;  168.050;    0.000
368.307; 1265.825;  203.050;    0.000
368.369; 1197.825;  149.050;    0.000
368.430; 1205.825;  121.050;    0.000
368.491; 1195.825;  131.050;    0.000
368.553; 1219.825;  161.050;    0.000
368.614; 1249.825;  157.050;    0.000
368.675; 1223.825;  152.050;    0.000
368.737; 1281.825;  168.050;    0.000
368.798; 1182.825;  147.050;    0.000
368.859; 1270.825;  174.050;    0.000
368.921; 1223.825;  168.050;    0.000
368.982; 1270.825;  151.050;    0.000
369.043; 1219.825;  169.050;    0.000
369.104; 1257.825;  149.050;    0.000
369.166; 1255.825;  178.050;    0.000
369.227; 1208.825;  149.050;    0.000
369.288; 1241.825;  131.050;    0.000
369.349; 1282.825;  128.050;    0.000
369.411; 1287.825;  198.050;    0.000
369.472; 1246.825;  156.050;    0.000
369.533; 1276.825;  142.050;    0.000
369.594; 1291.825;  125.050;    0.000
369.656; 1303.825;  153.050;    0.000
369.717; 1216.825;  124.050;    0.000
369.778; 1295.825;  163.050;    0.000
369.839; 1270.825;  130.050;    0.000
369.900; 1302.825;  170.050;    0.000
369.961; 1276.825;  142.050;    0.000
370.023; 1284.825;  197.050;    0.000
370.084; 1262.825;  151.050;    0.000
370.145; 1255.825;  128.050;    0.000
370.206; 1301.825;  152.050;    0.000
370.267; 1246.825;  154.050;    0.000
370.328; 1344.825;  154.050;    0.000
370.389; 1213.825;  173.050;    0.000
370.451; 1314.825;  191.050;    0.000
370.512; 1233.825;  155.050;    0.000
370.573; 1295.825;  134.050;    0.000
370.634; 1264.825;  160.050;    0.000
370.695; 1201.825;  124.050;    0.000
370.756; 1267.825;  169.050;    0.000
370.817; 1343.825;  169.050;    0.000
370.878; 1330.825;  200.050;    0.000
370.939; 1324.825;  157.050;    0.000
371.000; 1277.825;  131.050;    0.000
371.061; 1260.825;  136.050;    0.000
371.122; 1280.825;  176.050;    0.000
371.183; 1301.825;   81.050;    0.000
371.244; 1370.825;  156.050;    0.000
371.305; 1331.825;  131.050;    0.000
371.366; 1310.825;  161.050;    0.000
371.427; 1292.825;  127.050;    0.000
371.488; 1355.825;  184.050;    0.000
371.549; 1365.825;  159.050;    0.000
371.610; 1336.825;  147.050;    0.000
371.671; 1235.825;  132.050;    0.000
371.732; 1384.825;  163.050;    0.000
371.793; 1340.825;  179.050;    0.000
371.853; 1269.825;  179.050;    0.000
371.914; 1290.825;  149.050;    0.000
371.975; 1270.825;  117.050;    0.000
372.036; 1308.825;  141.050;    0.000
372.097; 1300.825;  101.050;    0.000
372.158; 1335.825;  115.050;    0.000
372.219; 1303.825;  174.050;    0.000
372.280; 1367.825;  134.050;    0.000
372.340; 1350.825;  180.050;    0.000
372.401; 1334.825;  166.050;    0.000
372.462; 1300.825;  171.050;    0.000
372.523; 1336.825;  132.050;    0.000
372.584; 1402.825;  182.050;    0.000
372.645; 1327.825;  149.050;    0.000
372.705; 1331.825;  182.050;    0.000
372.766; 1394.825;  145.050;    0.000
372.827; 1348.825;  161.050;    0.000
372.888; 1327.825;  156.050;    0.000
372.948; 1400.825;  158.050;    0.000
373.009; 1280.825;  178.050;    0.000
373.070; 1301.825;  166.050;    0.000
373.131; 1400.825;  154.050;    0.000
373.191; 1370.825;  193.050;    0.000
373.252; 1378.825;  148.050;    0.000
373.313; 1358.825;  152.050;    0.000
373.373; 1281.825;  156.050;    0.000
373.434; 1398.825;  166.050;    0.000
373.495; 1373.825;  152.050;    0.000
373.555; 1307.825;  145.050;    0.000
373.616; 1323.825;  141.050;    0.000
373.677; 1389.825;  169.050;    0.000
373.737; 1277.825;  166.050;    0.000
373.798; 1363.825;  151.050;    0.000
373.859; 1330.825;  170.050;    0.000
373.919; 1424.825;  206.050;    0.000
373.980; 1315.825;  140.050;    0.000
374.041; 1403.825;  148.050;    0.000
374.101; 1356.825;  165.050;    0.000
374.162; 1415.825;  166.050;    0.000
374.222; 1368.825;  156.050;    0.000
374.283; 1430.825;  161.050;    0.000
374.343; 1452.825;  185.050;    0.000
374.404; 1370.825;  148.050;    0.000
374.465; 1432.825;  162.050;    0.000
374.525; 1362.825;  177.050;    0.000
374.586; 1431.825;  164.050;    0.000
374.646; 1394.825;  180.050;    0.000
374.707; 1391.825;  203.050;    0.000
374.767; 1436.825;  148.050;    0.000
374.828; 1431.825;  142.050;    0.000
374.888; 1462.825;  187.050;    0.000
374.949; 1545.825;  137.050;    0.000
375.009; 1440.825;  155.050;    0.000
375.070; 1454.825;  165.050;    0.000
375.130; 1480.825;  168.050;    0.000
375.190; 1479.825;  157.050;    0.000
375.251; 1509.825;  206.050;    0.000
375.311; 1408.825;  141.050;    0.000
375.372; 1497.825;  144.050;    0.000
375.432; 1432.825;  153.050;    0.000
375.493; 1464.825;  168.050;    0.000
375.553; 1411.825;  146.050;    0.000
375.613; 1426.825;  142.050;    0.000
375.674; 1395.825;  153.050;    0.000
375.734; 1466.825;  166.050;    0.000
375.794; 1458.825;  145.050;    0.000
375.855; 1434.825;  162.050;    0.000
375.915; 1461.825;  162.050;    0.000
375.975; 1350.825;  144.050;    0.000
376.036; 1417.825;  128.050;    0.000
376.096; 1451.825;  122.050;    0.000
376.156; 1485.825;  140.050;    0.000
376.217; 1481.825;  158.050;    0.000
376.277; 1441.825;  163.050;    0.000
376.337; 1471.825;  139.050;    0.000
376.398; 1400.825;  176.050;    0.000
376.458; 1441.825;  143.050;    0.000
376.518; 1383.825;  136.050;    0.000
376.578; 1427.825;  177.050;    0.000
376.639; 1492.825;  163.050;    0.000
376.699; 1478.825;  183.050;    0.000
376.759; 1513.825;  169.050;    0.000
376.819; 1436.825;  147.050;    0.000
376.880; 1454.825;  188.050;    0.000
376.940; 1510.825;  185.050;    0.000
377.000; 1419.825;  131.050;    0.000
377.060; 1517.825;  182.050;    0.000
377.120; 1352.825;  165.050;    0.000
377.180; 1473.825;  169.050;    0.000
377.241; 1479.825;  146.050;    0.000
377.301; 1516.825;  183.050;    0.000
377.361; 1435.825;  124.050;    0.000
377.421; 1486.825;  186.050;    0.000
377.481; 1487.825;  178.050;    0.000
377.541; 1456.825;  140.050;    0.000
377.601; 1466.825;  175.050;    0.000
377.661; 1482.825;  169.050;    0.000
377.722; 1521.825;  144.050;    0.000
377.782; 1468.825;  182.050;    0.000
377.842; 1568.825;  161.050;    0.000
377.902; 1547.825;  151.050;    0.000
377.962; 1469.825;  134.050;    0.000
378.022; 1545.825;  153.050;    0.000
378.082; 1530.825;  178.050;    0.000
378.142; 1560.825;  118.050;    0.000
378.202; 1588.825;  153.050;    0.000
378.262; 1519.825;  166.050;    0.000
378.322; 1591.825;  174.050;    0.000
378.382; 1527.825;  148.050;    0.000
378.442; 1546.825;  190.050;    0.000
378.502; 1554.825;  136.050;    0.000
378.562; 1554.825;  130.050;    0.000
378.622; 1588.825;  188.050;    0.000
378.682; 1606.825;  163.050;    0.000
378.742; 1613.825;  150.050;    0.000
378.802; 1571.825;  127.050;    0.000
378.862; 1627.825;  186.050;    0.000
378.921; 1608.825;  203.050;    0.000
378.981; 1621.825;  177.050;    0.000
379.041; 1609.825;  134.050;    0.000
379.101; 1666.825;  167.050;    0.000
379.161; 1614.825;  130.050;    0.000
379.221; 1610.825;  169.050;    0.000
379.281; 1629.825;  162.050;    0.000
379.341; 1625.825;  134.050;    0.000
379.401; 1685.825;  151.050;    0.000
379.460; 1733.825;  190.050;    0.000
379.520; 1609.825;  158.050;    0.000
379.580; 1685.825;  162.050;    0.000
379.640; 1631.825;  146.050;    0.000
379.700; 1755.825;  167.050;    0.000
379.759; 1673.825;  194.050;    0.000
379.819; 1661.825;  176.050;    0.000
379.879; 1625.825;  140.050;    0.000
379.939; 1666.825;  184.050;    0.000
379.999; 1680.825;  165.050;    0.000
380.058; 1719.825;  194.050;    0.000
380.118; 1747.825;  137.050;    0.000
380.178; 1713.825;  139.050;    0.000
380.237; 1761.825;  139.050;    0.000
380.297; 1726.825;  160.050;    0.000
380.357; 1782.825;  194.050;    0.000
380.417; 1762.825;  174.050;    0.000
380.476; 1759.825;  153.050;    0.000
380.536; 1711.825;  169.050;    0.000
380.596; 1783.825;  159.050;    0.000
380.655; 1823.825;  178.050;    0.000
380.715; 1775.825;  196.050;    0.000
380.775; 1788.825;  202.050;    0.000
380.834; 1756.825;  186.050;    0.000
380.894; 1780.825;  167.050;    0.000
380.954; 1762.825;  150.050;    0.000
381.013; 1862.825;  187.050;    0.000
381.073; 1796.825;  114.050;    0.000
381.132; 1814.825;  176.050;    0.000
381.192; 1862.825;  197.050;    0.000
381.252; 1923.825;  172.050;    0.000
381.311; 1893.825;  155.050;    0.000
381.371; 1826.825;  172.050;    0.000
381.430; 1881.825;  143.050;    0.000
381.490; 1873.825;  136.050;    0.000
381.549; 1898.825;  131.050;    0.000
381.609; 1917.825;  203.050;    0.000
381.668; 1955.825;  135.050;    0.000
381.728; 1991.825;  163.050;    0.000
381.787; 1949.825;  195.050;    0.000
381.847; 1997.825;  185.050;    0.000
381.906; 2025.825;  187.050;    0.000
381.966; 1996.825;  153.050;    0.000
382.025; 2004.825;  175.050;    0.000
382.085; 2019.825;  195.050;    0.000
382.144; 2079.825;  210.050;    0.000
382.204; 2095.825;  201.050;    0.000
382.263; 2182.825;  178.050;    0.000
382.323; 2154.825;  151.050;    0.000
382.382; 2176.825;  147.050;    0.000
382.441; 2216.825;  144.050;    0.000
382.501; 2332.825;  156.050;    0.000
382.560; 2315.825;  160.050;    0.000
382.619; 2467.825;  173.050;    0.000
382.679; 2516.825;  167.050;    0.000
382.738; 2730.825;  189.050;    0.000
382.798; 2908.825;  181.050;    0.000
382.857; 3164.825;  161.050;    0.000
382.916; 3492.825;  162.050;    0.000
382.976; 3482.825;  169.050;    0.000
383.035; 3273.825;  174.050;    0.000
383.094; 3628.825;  178.050;    0.000
383.154; 3858.825;  188.050;    0.000
383.213; 4642.825;  162.050;    0.000
383.272; 4445.825;  144.050;    0.000
383.331; 3553.825;  144.050;    0.000
383.391; 3282.825;  198.050;    0.000
383.450; 3127.825;  185.050;    0.000
383.509; 3051.825;  132.050;    0.000
383.568; 3209.825;  171.050;    0.000
383.628; 3505.825;  171.050;    0.000
383.687; 3811.825;  172.050;    0.000
383.746; 4374.825;  144.050;    0.000
383.805; 5422.825;  177.050;    0.000
383.864; 5199.825;  145.050;    0.000
383.924; 3975.825;  203.050;    0.000
383.983; 3220.825;  153.050;    0.000
384.042; 2857.825;  171.050;    0.000
384.101; 2739.825;  186.050;    0.000
384.160; 2600.825;  132.050;    0.000
384.219; 2422.825;  157.050;    0.000
384.279; 2394.825;  166.050;    0.000
384.338; 2293.825;  141.050;    0.000
384.397; 2272.825;  142.050;    0.000
384.456; 2232.825;  155.050;    0.000
384.515; 2183.825;  158.050;    0.000
384.574; 2213.825;  208.050;    0.000
384.633; 2207.825;  158.050;    0.000
384.692; 2080.825;  162.050;    0.000
384.751; 2194.825;  179.050;    0.000
384.810; 2162.825;  150.050;    0.000
384.869; 2031.825;  147.050;    0.000
384.929; 2142.825;  132.050;    0.000
384.988; 2160.825;  166.050;    0.000
385.047; 2047.825;  161.050;    0.000
385.106; 2159.825;  180.050;    0.000
385.165; 2052.825;  123.050;    0.000
385.224; 2081.825;  153.050;    0.000
385.283; 2098.825;  158.050;    0.000
385.342; 2034.825;  184.050;    0.000
385.401; 2076.825;  191.050;    0.000
385.459; 2116.825;  143.050;    0.000
385.518; 2051.825;  152.050;    0.000
385.577; 2097.825;  134.050;    0.000
385.636; 2097.825;  187.050;    0.000
385.695; 2030.825;  141.050;    0.000
385.754; 2058.825;  143.050;    0.000
385.813; 2106.825;  145.050;    0.000
385.872; 2093.825;  116.050;    0.000
385.931; 2063.825;  147.050;    0.000
385.990; 2039.825;  170.050;    0.000
386.049; 1943.825;  189.050;    0.000
386.107; 2045.825;  122.050;    0.000
386.166; 2007.825;  155.050;    0.000
386.225; 2044.825;  173.050;    0.000
386.284; 2026.825;  138.050;    0.000
386.343; 2024.825;  216.050;    0.000
386.402; 2009.825;  162.050;    0.000
386.460; 2052.825;  131.050;    0.000
386.519; 1982.825;  122.050;    0.000
386.578; 2009.825;  140.050;    0.000
386.637; 2034.825;  169.050;    0.000
386.696; 2109.825;  176.050;    0.000
386.754; 1966.825;  127.050;    0.000
386.813; 2025.825;  138.050;    0.000
386.872; 1973.825;  135.050;    0.000
386.931; 2025.825;  170.050;    0.000
386.989; 2109.825;  167.050;    0.000
387.048; 2039.825;  131.050;    0.000
387.107; 2059.825;  176.050;    0.000
387.165; 1951.825;  139.050;    0.000
387.224; 2009.825;  150.050;    0.000
387.283; 2025.825;  169.050;    0.000
387.342; 2006.825;  191.050;    0.000
387.400; 1970.825;  131.050;    0.000
387.459; 2008.825;  139.050;    0.000
387.517; 2027.825;  214.050;    0.000
387.576; 1927.825;  146.050;    0.000
387.635; 1959.825;  161.050;    0.000
387.693; 1977.825;  197.050;    0.000
387.752; 2014.825;  159.050;    0.000
387.811; 1910.825;  144.050;    0.000
387.869; 2028.825;  172.050;    0.000
387.928; 2022.825;  160.050;    0.000
387.986; 1959.825;  192.050;    0.000
388.045; 1903.825;  121.050;    0.000
388.103; 1963.825;  129.050;    0.000
388.162; 1904.825;  169.050;    0.000
388.221; 1971.825;  171.050;    0.000
388.279; 1932.825;  135.050;    0.000
388.338; 2058.825;  222.050;    0.000
388.396; 1874.825;  168.050;    0.000
388.455; 1986.825;  178.050;    0.000
388.513; 1902.825;  151.050;    0.000
388.572; 2022.825;  147.050;    0.000
388.630; 1929.825;  158.050;    0.000
388.689; 1947.825;  163.050;    0.000
388.747; 1885.825;  180.050;    0.000
388.806; 1949.825;  119.050;    0.000
388.864; 1941.825;  159.050;    0.000
388.922; 1951.825;  152.050;    0.000
388.981; 1990.825;  125.050;    0.000
389.039; 1869.825;  151.050;    0.000
389.098; 1989.825;  151.050;    0.000
389.156; 1965.825;  175.050;    0.000
389.214; 1976.825;  133.050;    0.000
389.273; 1929.825;  142.050;    0.000
389.331; 1999.825;  179.050;    0.000
389.390; 1961.825;  179.050;    0.000
389.448; 1975.825;  159.050;    0.000
389.506; 1960.825;  140.050;    0.000
389.565; 1895.825;  160.050;    0.000
389.623; 1970.825;  181.050;    0.000
389.681; 1957.825;  181.050;    0.000
389.740; 1922.825;  187.050;    0.000
389.798; 1972.825;  163.050;    0.000
389.856; 1948.825;  185.050;    0.000
389.914; 1875.825;  170.050;    0.000
389.973; 1901.825;  150.050;    0.000
390.031; 1935.825;  149.050;    0.000
390.089; 1972.825;  191.050;    0.000
390.147; 1942.825;  126.050;    0.000
390.206; 1878.825;  174.050;    0.000
390.264; 1923.825;  164.050;    0.000
390.322; 1900.825;  150.050;    0.000
390.380; 1898.825;  137.050;    0.000
390.439; 1879.825;  176.050;    0.000
390.497; 1925.825;  188.050;    0.000
390.555; 1884.825;  143.050;    0.000
390.613; 1878.825;  174.050;    0.000
390.671; 1973.825;  208.050;    0.000
390.729; 1938.825;  135.050;    0.000
390.788; 1911.825;  169.050;    0.000
390.846; 1870.825;  173.050;    0.000
390.904; 1905.825;  176.050;    0.000
390.962; 1985.825;  179.050;    0.000
391.020; 2013.825;  201.050;    0.000
391.078; 1978.825;  192.050;    0.000
391.136; 1881.825;  170.050;    0.000
391.194; 1993.825;  163.050;    0.000
391.253; 2029.825;  203.050;    0.000
391.311; 2003.825;  170.050;    0.000
391.369; 1963.825;  191.050;    0.000
391.427; 1983.825;  226.050;    0.000
391.485; 2033.825;  181.050;    0.000
391.543; 1943.825;  177.050;    0.000
391.601; 2014.825;  150.050;    0.000
391.659; 2004.825;  201.050;    0.000
391.717; 1976.825;  166.050;    0.000
391.775; 2005.825;  200.050;    0.000
391.833; 2022.825;  180.050;    0.000
391.891; 1977.825;  172.050;    0.000
391.949; 2008.825;  174.050;    0.000
392.007; 2094.825;  194.050;    0.000
392.065; 2061.825;  161.050;    0.000
392.123; 2063.825;  159.050;    0.000
392.180; 1987.825;  193.050;    0.000
392.238; 2026.825;  188.050;    0.000
392.296; 1947.825;  206.050;    0.000
392.354; 2019.825;  170.050;    0.000
392.412; 2036.825;  207.050;    0.000
392.470; 2052.825;  168.050;    0.000
392.528; 2039.825;  185.050;    0.000
392.586; 1974.825;  154.050;    0.000
392.644; 2018.825;  190.050;    0.000
392.701; 2062.825;  195.050;    0.000
392.759; 2006.825;  229.050;    0.000
392.817; 1988.825;  176.050;    0.000
392.875; 2053.825;  198.050;    0.000
392.933; 2005.825;  174.050;    0.000
392.991; 2011.825;  237.050;    0.000
393.048; 2063.825;  212.050;    0.000
393.106; 2078.825;  191.050;    0.000
393.164; 1961.825;  136.050;    0.000
393.222; 2029.825;  164.050;    0.000
393.279; 2132.825;  208.050;    0.000
393.337; 2212.825;  203.050;    0.000
393.395; 2071.825;  191.050;    0.000
393.453; 2041.825;  153.050;    0.000
393.510; 2119.825;  171.050;    0.000
393.568; 2020.825;  203.050;    0.000
393.626; 2024.825;  169.050;    0.000
393.684; 2026.825;  201.050;    0.000
393.741; 2079.825;  172.050;    0.000
393.799; 2064.825;  149.050;    0.000
393.857; 1954.825;  151.050;    0.000
393.914; 2114.825;  192.050;    0.000
393.972; 2105.825;  176.050;    0.000
394.030; 2044.825;  165.050;    0.000
394.087; 2106.825;  192.050;    0.000
394.145; 2067.825;  183.050;    0.000
394.202; 2087.825;  161.050;    0.000
394.260; 2015.825;  135.050;    0.000
394.318; 2074.825;  188.050;    0.000
394.375; 2107.825;  163.050;    0.000
394.433; 2066.825;  151.050;    0.000
394.490; 2010.825;  190.050;    0.000
394.548; 2090.825;  157.050;    0.000
394.605; 2057.825;  205.050;    0.000
394.663; 2054.825;  173.050;    0.000
394.720; 2153.825;  171.050;    0.000
394.778; 2167.825;  190.050;    0.000
394.836; 2107.825;  134.050;    0.000
394.893; 2077.825;  142.050;    0.000
394.951; 2181.825;  192.050;    0.000
395.008; 2035.825;  149.050;    0.000
395.065; 2124.825;  194.050;    0.000
395.123; 2148.825;  160.050;    0.000
395.180; 2117.825;  178.050;    0.000
395.238; 2081.825;  191.050;    0.000
395.295; 2086.825;  160.050;    0.000
395.353; 2120.825;  162.050;    0.000
395.410; 2110.825;  165.050;    0.000
395.468; 2147.825;  190.050;    0.000
395.525; 2245.825;  173.050;    0.000
395.582; 2133.825;  161.050;    0.000
395.640; 2168.825;  200.050;    0.000
395.697; 2189.825;  198.050;    0.000
395.754; 2188.825;  136.050;    0.000
395.812; 2225.825;  172.050;    0.000
395.869; 2195.825;  172.050;    0.000
395.927; 2100.825;  145.050;    0.000
395.984; 2163.825;  220.050;    0.000
396.041; 2222.825;  137.050;    0.000
396.098; 2193.825;  161.050;    0.000
396.156; 2244.825;  159.050;    0.000
396.213; 2214.825;  200.050;    0.000
396.270; 2176.825;  209.050;    0.000
396.328; 2197.825;  162.050;    0.000
396.385; 2137.825;  186.050;    0.000
396.442; 2126.825;  177.050;    0.000
396.499; 2137.825;  183.050;    0.000
396.557; 2238.825;  182.050;    0.000
396.614; 2217.825;  186.050;    0.000
396.671; 2131.825;  144.050;    0.000
396.728; 2269.825;  176.050;    0.000
396.785; 2265.825;  169.050;    0.000
396.843; 2231.825;  134.050;    0.000
396.900; 2243.825;  184.050;    0.000
396.957; 2264.825;  197.050;    0.000
397.014; 2261.825;  187.050;    0.000
397.071; 2297.825;  186.050;    0.000
397.128; 2206.825;  200.050;    0.000
397.186; 2256.825;  175.050;    0.000
397.243; 2242.825;  154.050;    0.000
397.300; 2257.825;  191.050;    0.000
397.357; 2305.825;  238.050;    0.000
397.414; 2279.825;  161.050;    0.000
397.471; 2280.825;  135.050;    0.000
397.528; 2245.825;  158.050;    0.000
397.585; 2301.825;  159.050;    0.000
397.642; 2311.825;  180.050;    0.000
397.699; 2270.825;  170.050;    0.000
397.756; 2244.825;  175.050;    0.000
397.814; 2347.825;  182.050;    0.000
397.871; 2267.825;  173.050;    0.000
397.928; 2266.825;  173.050;    0.000
397.985; 2227.825;  176.050;    0.000
398.042; 2372.825;  189.050;    0.000
398.099; 2324.825;  160.050;    0.000
398.156; 2246.825;  218.050;    0.000
398.212; 2357.825;  194.050;    0.000
398.269; 2418.825;  199.050;    0.000
398.326; 2306.825;  188.050;    0.000
398.383; 2362.825;  187.050;    0.000
398.440; 2421.825;  174.050;    0.000
398.497; 2411.825;  214.050;    0.000
398.554; 2363.825;  181.050;    0.000
398.611; 2389.825;  195.050;    0.000
398.668; 2377.825;  145.050;    0.000
398.725; 2385.825;  178.050;    0.000
398.782; 2444.825;  210.050;    0.000
398.839; 2478.825;  216.050;    0.000
398.895; 2495.825;  189.050;    0.000
398.952; 2531.825;  206.050;    0.000
399.009; 2529.825;  142.050;    0.000
399.066; 2468.825;  192.050;    0.000
399.123; 2513.825;  181.050;    0.000
399.180; 2522.825;  200.050;    0.000
399.236; 2648.825;  156.050;    0.000
399.293; 2567.825;  194.050;    0.000
399.350; 2686.825;  167.050;    0.000
399.407; 2673.825;  192.050;    0.000
399.463; 2613.825;  161.050;    0.000
399.520; 2698.825;  149.050;    0.000
399.577; 2816.825;  156.050;    0.000
399.634; 2807.825;  195.050;    0.000
399.690; 2759.825;  163.050;    0.000
399.747; 2757.825;  192.050;    0.000
399.804; 2757.825;  212.050;    0.000
399.861; 2772.825;  203.050;    0.000
399.917; 2702.825;  221.050;    0.000
399.974; 2734.825;  221.050;    0.000
400.031; 2717.825;  195.050;    0.000
400.087; 2623.825;  159.050;    0.000
400.144; 2658.825;  201.050;    0.000
400.201; 2667.825;  206.050;    0.000
400.257; 2587.825;  168.050;    0.000
400.314; 2751.825;  183.050;    0.000
400.370; 2658.825;  209.050;    0.000
400.427; 2655.825;  192.050;    0.000
400.484; 2584.825;  150.050;    0.000
400.540; 2546.825;  213.050;    0.000
400.597; 2556.825;  161.050;    0.000
400.653; 2673.825;  170.050;    0.000
400.710; 2578.825;  173.050;    0.000
400.766; 2544.825;  204.050;    0.000
400.823; 2585.825;  194.050;    0.000
400.879; 2562.825;  188.050;    0.000
400.936; 2425.825;  172.050;    0.000
400.993; 2569.825;  154.050;    0.000
401.049; 2578.825;  157.050;    0.000
401.105; 2615.825;  214.050;    0.000
401.162; 2543.825;  195.050;    0.000
401.218; 2539.825;  195.050;    0.000
401.275; 2537.825;  182.050;    0.000
401.331; 2621.825;  188.050;    0.000
401.388; 2636.825;  194.050;    0.000
401.444; 2578.825;  175.050;    0.000
401.501; 2528.825;  169.050;    0.000
401.557; 2585.825;  176.050;    0.000
401.614; 2561.825;  153.050;    0.000
401.670; 2456.825;  178.050;    0.000
401.726; 2467.825;  179.050;    0.000
401.783; 2512.825;  198.050;    0.000
401.839; 2539.825;  179.050;    0.000
401.895; 2577.825;  154.050;    0.000
401.952; 2512.825;  138.050;    0.000
402.008; 2504.825;  135.050;    0.000
402.064; 2572.825;  154.050;    0.000
402.121; 2496.825;  199.050;    0.000
402.177; 2505.825;  126.050;    0.000
402.233; 2576.825;  190.050;    0.000
402.290; 2584.825;  175.050;    0.000
402.346; 2618.825;  200.050;    0.000
402.402; 2566.825;  191.050;    0.000
402.458; 2517.825;  172.050;    0.000
402.515; 2638.825;  186.050;    0.000
402.571; 2550.825;  189.050;    0.000
402.627; 2571.825;  151.050;    0.000
402.683; 2567.825;  187.050;    0.000
402.740; 2613.825;  147.050;    0.000
402.796; 2573.825;  176.050;    0.000
402.852; 2619.825;  200.050;    0.000
402.908; 2584.825;  201.050;    0.000
402.964; 2690.825;  153.050;    0.000
403.021; 2629.825;  165.050;    0.000
403.077; 2571.825;  195.050;    0.000
403.133; 2606.825;  139.050;    0.000
403.189; 2664.825;  166.050;    0.000
403.245; 2647.825;  194.050;    0.000
403.301; 2661.825;  210.050;    0.000
403.357; 2644.825;  187.050;    0.000
403.414; 2685.825;  195.050;    0.000
403.470; 2672.825;  150.050;    0.000
403.526; 2704.825;  158.050;    0.000
403.582; 2571.825;  184.050;    0.000
403.638; 2654.825;  171.050;    0.000
403.694; 2693.825;  197.050;    0.000
403.750; 2676.825;  196.050;    0.000
403.806; 2772.825;  192.050;    0.000
403.862; 2686.825;  169.050;    0.000
403.918; 2677.825;  199.050;    0.000
403.974; 2783.825;  156.050;    0.000
404.030; 2614.825;  193.050;    0.000
404.086; 2656.825;  161.050;    0.000
404.142; 2777.825;  172.050;    0.000
404.198; 2751.825;  195.050;    0.000
404.254; 2726.825;  167.050;    0.000
404.310; 2715.825;  156.050;    0.000
404.366; 2740.825;  144.050;    0.000
404.422; 2701.825;  161.050;    0.000
404.478; 2740.825;  179.050;    0.000
404.534; 2663.825;  163.050;    0.000
404.590; 2680.825;  183.050;    0.000
404.646; 2698.825;  155.050;    0.000
404.701; 2765.825;  142.050;    0.000
404.757; 2760.825;  175.050;    0.000
404.813; 2790.825;  153.050;    0.000
404.869; 2782.825;  199.050;    0.000
404.925; 2741.825;  153.050;    0.000
404.981; 2835.825;  174.050;    0.000
405.037; 2706.825;  185.050;    0.000
405.092; 2759.825;  166.050;    0.000
405.148; 2673.825;  161.050;    0.000
405.204; 2763.825;  170.050;    0.000
405.260; 2760.825;  154.050;    0.000
405.316; 2689.825;  128.050;    0.000
405.371; 2702.825;  142.050;    0.000
405.427; 2753.825;  196.050;    0.000
405.483; 2798.825;  172.050;    0.000
405.539; 2762.825;  182.050;    0.000
405.594; 2739.825;  153.050;    0.000
405.650; 2811.825;  124.050;    0.000
405.706; 2851.825;  189.050;    0.000
405.761; 2839.825;  165.050;    0.000
405.817; 2805.825;  152.050;    0.000
405.873; 2814.825;  174.050;    0.000
405.928; 2798.825;  167.050;    0.000
405.984; 2760.825;  210.050;    0.000
406.040; 2824.825;  160.050;    0.000
406.095; 2851.825;  163.050;    0.000
406.151; 2737.825;  208.050;    0.000
406.207; 2833.825;  177.050;    0.000
406.262; 2844.825;  176.050;    0.000
406.318; 2898.825;  157.050;    0.000
406.374; 2782.825;  141.050;    0.000
406.429; 2889.825;  189.050;    0.000
406.485; 2859.825;  190.050;    0.000
406.540; 2960.825;  155.050;    0.000
406.596; 2877.825;  182.050;    0.000
406.651; 2877.825;  200.050;    0.000
406.707; 2987.825;  130.050;    0.000
406.763; 2944.825;  174.050;    0.000
406.818; 2938.825;  151.050;    0.000
406.874; 2913.825;  122.050;    0.000
406.929; 3021.825;  153.050;    0.000
406.985; 3028.825;  198.050;    0.000
407.040; 3034.825;  174.050;    0.000
407.095; 3073.825;  161.050;    0.000
407.151; 3025.825;  184.050;    0.000
407.206; 3081.825;  188.050;    0.000
407.262; 3042.825;  180.050;    0.000
407.317; 3069.825;  186.050;    0.000
407.373; 3205.825;  200.050;    0.000
407.428; 3225.825;  211.050;    0.000
407.484; 3195.825;  193.050;    0.000
407.539; 3135.825;  167.050;    0.000
407.594; 3215.825;  178.050;    0.000
407.650; 3221.825;  171.050;    0.000
407.705; 3125.825;  153.050;    0.000
407.760; 3162.825;  196.050;    0.000
407.816; 3140.825;  205.050;    0.000
407.871; 3174.825;  232.050;    0.000
407.926; 3199.825;  215.050;    0.000
407.982; 3129.825;  154.050;    0.000
408.037; 3031.825;  217.050;    0.000
408.092; 3090.825;  190.050;    0.000
408.148; 3125.825;  181.050;    0.000
408.203; 3026.825;  203.050;    0.000
408.258; 3095.825;  154.050;    0.000
408.314; 3032.825;  198.050;    0.000
408.369; 3093.825;  156.050;    0.000
408.424; 3123.825;  216.050;    0.000
408.479; 3051.825;  191.050;    0.000
408.534; 3092.825;  200.050;    0.000
408.590; 3064.825;  182.050;    0.000
408.645; 2979.825;  141.050;    0.000
408.700; 3034.825;  209.050;    0.000
408.755; 3062.825;  205.050;    0.000
408.810; 3054.825;  171.050;    0.000
408.866; 3086.825;  200.050;    0.000
408.921; 2982.825;  188.050;    0.000
408.976; 3005.825;  156.050;    0.000
409.031; 2997.825;  164.050;    0.000
409.086; 3027.825;  155.050;    0.000
409.141; 3065.825;  205.050;    0.000
409.196; 3085.825;  173.050;    0.000
409.252; 2961.825;  179.050;    0.000
409.307; 2889.825;  131.050;    0.000
409.362; 3040.825;  173.050;    0.000
409.417; 3045.825;  120.050;    0.000
409.472; 2969.825;  198.050;    0.000
409.527; 3025.825;  153.050;    0.000
409.582; 3031.825;  177.050;    0.000
409.637; 3108.825;  184.050;    0.000
409.692; 3035.825;  203.050;    0.000
409.747; 3025.825;  158.050;    0.000
409.802; 3091.825;  212.050;    0.000
409.857; 3004.825;  192.050;    0.000
409.912; 2954.825;  179.050;    0.000
409.967; 2982.825;  177.050;    0.000
410.022; 3077.825;  204.050;    0.000
410.077; 3040.825;  175.050;    0.000
410.132; 2992.825;  207.050;    0.000
410.187; 3007.825;  169.050;    0.000
410.242; 2935.825;  186.050;    0.000
410.297; 2925.825;  185.050;    0.000
410.351; 3056.825;  191.050;    0.000
410.406; 3092.825;  215.050;    0.000
410.461; 3014.825;  190.050;    0.000
410.516; 3000.825;  172.050;    0.000
410.571; 3073.825;  190.050;    0.000
410.626; 3184.825;  189.050;    0.000
410.681; 3164.825;  191.050;    0.000
410.736; 3037.825;  166.050;    0.000
410.790; 3050.825;  179.050;    0.000
410.845; 3033.825;  196.050;    0.000
410.900; 3094.825;  168.050;    0.000
410.955; 3038.825;  173.050;    0.000
411.010; 3023.825;  162.050;    0.000
411.064; 3003.825;  205.050;    0.000
411.119; 2979.825;  203.050;    0.000
411.174; 3041.825;  207.050;    0.000
411.229; 3021.825;  218.050;    0.000
411.283; 3014.825;  218.050;    0.000
411.338; 2998.825;  180.050;    0.000
411.393; 3002.825;  191.050;    0.000
411.447; 3083.825;  207.050;    0.000
411.502; 3109.825;  204.050;    0.000
411.557; 3035.825;  208.050;    0.000
411.612; 2951.825;  191.050;    0.000
411.666; 2999.825;  233.050;    0.000
411.721; 3040.825;  193.050;    0.000
411.776; 3113.825;  195.050;    0.000
411.830; 3030.825;  229.050;    0.000
411.885; 3056.825;  181.050;    0.000
411.939; 3076.825;  214.050;    0.000
411.994; 3014.825;  140.050;    0.000
412.049; 3081.825;  205.050;    0.000
412.103; 3151.825;  232.050;    0.000
412.158; 3060.825;  228.050;    0.000
412.212; 2986.825;  204.050;    0.000
412.267; 3097.825;  203.050;    0.000
412.322; 3065.825;  212.050;    0.000
412.376; 2954.825;  195.050;    0.000
412.431; 3094.825;  197.050;    0.000
412.485; 2917.825;  235.050;    0.000
412.540; 3015.825;  197.050;    0.000
412.594; 2935.825;  199.050;    0.000
412.649; 2969.825;  195.050;    0.000
412.703; 3119.825;  214.050;    0.000
412.758; 3069.825;  213.050;    0.000
412.812; 2984.825;  154.050;    0.000
412.866; 2930.825;  159.050;    0.000
412.921; 2947.825;  207.050;    0.000
412.975; 2958.825;  194.050;    0.000
413.030; 3049.825;  214.050;    0.000
413.084; 3032.825;  174.050;    0.000
413.139; 3013.825;  211.050;    0.000
413.193; 2996.825;  223.050;    0.000
413.247; 2985.825;  198.050;    0.000
413.302; 3015.825;  184.050;    0.000
413.356; 3082.825;  194.050;    0.000
413.410; 2987.825;  219.050;    0.000
413.465; 2978.825;  209.050;    0.000
413.519; 3037.825;  178.050;    0.000
413.573; 2964.825;  189.050;    0.000
413.628; 2995.825;  184.050;    0.000
413.682; 2908.825;  189.050;    0.000
413.736; 2981.825;  196.050;    0.000
413.791; 3037.825;  208.050;    0.000
413.845; 3008.825;  206.050;    0.000
413.899; 2944.825;  193.050;    0.000
413.953; 3006.825;  176.050;    0.000
414.008; 2965.825;  163.050;    0.000
414.062; 2985.825;  195.050;    0.000
414.116; 2974.825;  176.050;    0.000
414.170; 2962.825;  218.050;    0.000
414.225; 2967.825;  183.050;    0.000
414.279; 3051.825;  191.050;    0.000
414.333; 3055.825;  215.050;    0.000
414.387; 3005.825;  187.050;    0.000
414.441; 3085.825;  182.050;    0.000
414.496; 2990.825;  205.050;    0.000
414.550; 3034.825;  203.050;    0.000
414.604; 3086.825;  223.050;    0.000
414.658; 3041.825;  159.050;    0.000
414.712; 2983.825;  194.050;    0.000
414.766; 3099.825;  232.050;    0.000
414.820; 2989.825;  235.050;    0.000
414.874; 3169.825;  169.050;    0.000
414.928; 3037.825;  207.050;    0.000
414.982; 2998.825;  174.050;    0.000
415.037; 3028.825;  173.050;    0.000
415.091; 3037.825;  219.050;    0.000
415.145; 3139.825;  174.050;    0.000
415.199; 3053.825;  207.050;    0.000
415.253; 3001.825;  228.050;    0.000
415.307; 3020.825;  182.050;    0.000
415.361; 3015.825;  219.050;    0.000
415.415; 3010.825;  218.050;    0.000
415.469; 3085.825;  233.050;    0.000
415.523; 3029.825;  203.050;    0.000
415.577; 3022.825;  186.050;    0.000
415.631; 3026.825;  215.050;    0.000
415.684; 3009.825;  212.050;    0.000
415.738; 2999.825;  206.050;    0.000
415.792; 3043.825;  219.050;    0.000
415.846; 2975.825;  208.050;    0.000
415.900; 3017.825;  203.050;    0.000
415.954; 3049.825;  237.050;    0.000
416.008; 2944.825;  242.050;    0.000
416.062; 2970.825;  197.050;    0.000
416.116; 2994.825;  189.050;    0.000
416.169; 2979.825;  199.050;    0.000
416.223; 2993.825;  230.050;    0.000
416.277; 3064.825;  226.050;    0.000
416.331; 3057.825;  254.050;    0.000
416.385; 3053.825;  204.050;    0.000
416.439; 3020.825;  201.050;    0.000
416.492; 2975.825;  238.050;    0.000
416.546; 3114.825;  234.050;    0.000
416.600; 3055.825;  244.050;    0.000
416.654; 3065.825;  233.050;    0.000
416.707; 3102.825;  214.050;    0.000
416.761; 2992.825;  214.050;    0.000
416.815; 3075.825;  192.050;    0.000
416.869; 2976.825;  225.050;    0.000
416.922; 2989.825;  214.050;    0.000
416.976; 3089.825;  206.050;    0.000
417.030; 3118.825;  226.050;    0.000
417.083; 3022.825;  207.050;    0.000
417.137; 3014.825;  236.050;    0.000
417.191; 2979.825;  208.050;    0.000
417.244; 2971.825;  260.050;    0.000
417.298; 2991.825;  222.050;    0.000
417.352; 2947.825;  191.050;    0.000
417.405; 3003.825;  229.050;    0.000
417.459; 3042.825;  249.050;    0.000
417.512; 2954.825;  259.050;    0.000
417.566; 3036.825;  220.050;    0.000
417.620; 3020.825;  229.050;    0.000
417.673; 3006.825;  190.050;    0.000
417.727; 2983.825;  204.050;    0.000
417.780; 2987.825;  223.050;    0.000
417.834; 2958.825;  213.050;    0.000
417.887; 3068.825;  238.050;    0.000
417.941; 3019.825;  244.050;    0.000
417.994; 2978.825;  247.050;    0.000
418.048; 3014.825;  225.050;    0.000
418.101; 2945.825;  210.050;    0.000
418.155; 2970.825;  224.050;    0.000
418.208; 3050.825;  229.050;    0.000
418.262; 2987.825;  255.050;    0.000
418.315; 3043.825;  248.050;    0.000
418.369; 3057.825;  212.050;    0.000
418.422; 3081.825;  241.050;    0.000
418.476; 3025.825;  220.050;    0.000
418.529; 3036.825;  257.050;    0.000
418.582; 3028.825;  203.050;    0.000
418.636; 3013.825;  221.050;    0.000
418.689; 2957.825;  202.050;    0.000
418.743; 3143.825;  227.050;    0.000
418.796; 3002.825;  226.050;    0.000
418.849; 3044.825;  199.050;    0.000
418.903; 2895.825;  234.050;    0.000
418.956; 3035.825;  236.050;    0.000
419.009; 3064.825;  305.050;    0.000
419.063; 3011.825;  216.050;    0.000
419.116; 3096.825;  245.050;    0.000
419.169; 3096.825;  208.050;    0.000
419.222; 2938.825;  233.050;    0.000
419.276; 3082.825;  244.050;    0.000
419.329; 3020.825;  197.050;    0.000
419.382; 2924.825;  222.050;    0.000
419.435; 2938.825;  199.050;    0.000
419.489; 3057.825;  226.050;    0.000
419.542; 2991.825;  223.050;    0.000
419.595; 3102.825;  204.050;    0.000
419.648; 3030.825;  234.050;    0.000
419.701; 2945.825;  211.050;    0.000
419.755; 2869.825;  184.050;    0.000
419.808; 2960.825;  223.050;    0.000
419.861; 2949.825;  197.050;    0.000
419.914; 2875.825;  258.050;    0.000
419.967; 2911.825;  205.050;    0.000
420.020; 2953.825;  195.050;    0.000
420.073; 2916.825;  191.050;    0.000
420.127; 3045.825;  256.050;    0.000
420.180; 2908.825;  232.050;    0.000
420.233; 2968.825;  200.050;    0.000
420.286; 2871.825;  207.050;    0.000
420.339; 2956.825;  223.050;    0.000
420.392; 2849.825;  243.050;    0.000
420.445; 2886.825;  195.050;    0.000
420.498; 2920.825;  239.050;    0.000
420.551; 2842.825;  201.050;    0.000
420.604; 2892.825;  245.050;    0.000
420.657; 2877.825;  221.050;    0.000
420.710; 2847.825;  223.050;    0.000
420.763; 2884.825;  241.050;    0.000
420.816; 2883.825;  198.050;    0.000
420.869; 2842.825;  210.050;    0.000
420.922; 2879.825;  206.050;    0.000
420.975; 2910.825;  239.050;    0.000
421.028; 2952.825;  248.050;    0.000
421.081; 2958.825;  236.050;    0.000
421.134; 2891.825;  208.050;    0.000
421.187; 2760.825;  216.050;    0.000
421.239; 2815.825;  199.050;    0.000
421.292; 2834.825;  255.050;    0.000
421.345; 2801.825;  241.050;    0.000
421.398; 2784.825;  221.050;    0.000
421.451; 2830.825;  237.050;    0.000
421.504; 2828.825;  225.050;    0.000
421.557; 2797.825;  213.050;    0.000
421.609; 2797.825;  178.050;    0.000
421.662; 2816.825;  206.050;    0.000
421.715; 2751.825;  212.050;    0.000
421.768; 2910.825;  236.050;    0.000
421.821; 2865.825;  228.050;    0.000
421.873; 2889.825;  200.050;    0.000
421.926; 2828.825;  226.050;    0.000
421.979; 2882.825;  221.050;    0.000
422.032; 2793.825;  219.050;    0.000
422.084; 2843.825;  253.050;    0.000
422.137; 2681.825;  195.050;    0.000
422.190; 2770.825;  192.050;    0.000
422.243; 2929.825;  236.050;    0.000
422.295; 2821.825;  205.050;    0.000
422.348; 2780.825;  198.050;    0.000
422.401; 2785.825;  245.050;    0.000
422.453; 2769.825;  241.050;    0.000
422.506; 2817.825;  255.050;    0.000
422.559; 2847.825;  188.050;    0.000
422.611; 2768.825;  236.050;    0.000
422.664; 2833.825;  218.050;    0.000
422.716; 2821.825;  210.050;    0.000
422.769; 2815.825;  209.050;    0.000
422.822; 2848.825;  213.050;    0.000
422.874; 2698.825;  227.050;    0.000
422.927; 2831.825;  272.050;    0.000
422.979; 2701.825;  204.050;    0.000
423.032; 2826.825;  210.050;    0.000
423.084; 2822.825;  236.050;    0.000
423.137; 2795.825;  223.050;    0.000
423.189; 2752.825;  253.050;    0.000
423.242; 2715.825;  185.050;    0.000
423.294; 2799.825;  232.050;    0.000
423.347; 2759.825;  213.050;    0.000
423.399; 2786.825;  227.050;    0.000
423.452; 2828.825;  236.050;    0.000
423.504; 2834.825;  232.050;    0.000
423.557; 2736.825;  195.050;    0.000
423.609; 2784.825;  238.050;    0.000
423.662; 2753.825;  207.050;    0.000
423.714; 2750.825;  231.050;    0.000
423.766; 2757.825;  211.050;    0.000
423.819; 2716.825;  207.050;    0.000
423.871; 2714.825;  228.050;    0.000
423.923; 2719.825;  223.050;    0.000
423.976; 2833.825;  217.050;    0.000
424.028; 2639.825;  231.050;    0.000
424.081; 2716.825;  219.050;    0.000
424.133; 2817.825;  255.050;    0.000
424.185; 2740.825;  199.050;    0.000
424.238; 2713.825;  238.050;    0.000
424.290; 2714.825;  209.050;    0.000
424.342; 2758.825;  213.050;    0.000
424.394; 2673.825;  215.050;    0.000
424.447; 2728.825;  265.050;    0.000
424.499; 2703.825;  238.050;    0.000
424.551; 2745.825;  256.050;    0.000
424.603; 2675.825;  222.050;    0.000
424.656; 2637.825;  227.050;    0.000
424.708; 2654.825;  250.050;    0.000
424.760; 2672.825;  228.050;    0.000
424.812; 2651.825;  249.050;    0.000
424.864; 2770.825;  222.050;    0.000
424.917; 2737.825;  235.050;    0.000
424.969; 2633.825;  266.050;    0.000
425.021; 2684.825;  233.050;    0.000
425.073; 2722.825;  194.050;    0.000
425.125; 2601.825;  256.050;    0.000
425.177; 2709.825;  225.050;    0.000
425.229; 2691.825;  242.050;    0.000
425.282; 2712.825;  236.050;    0.000
425.334; 2611.825;  250.050;    0.000
425.386; 2721.825;  231.050;    0.000
425.438; 2643.825;  216.050;    0.000
425.490; 2574.825;  240.050;    0.000
425.542; 2708.825;  231.050;    0.000
425.594; 2558.825;  206.050;    0.000
425.646; 2685.825;  201.050;    0.000
425.698; 2640.825;  193.050;    0.000
425.750; 2655.825;  241.050;    0.000
425.802; 2710.825;  199.050;    0.000
425.854; 2719.825;  216.050;    0.000
425.906; 2627.825;  220.050;    0.000
425.958; 2634.825;  200.050;    0.000
426.010; 2640.825;  214.050;    0.000
426.062; 2609.825;  245.050;    0.000
426.114; 2562.825;  241.050;    0.000
426.166; 2550.825;  241.050;    0.000
426.218; 2587.825;  255.050;    0.000
426.270; 2592.825;  228.050;    0.000
426.321; 2613.825;  222.050;    0.000
426.373; 2565.825;  218.050;    0.000
426.425; 2693.825;  258.050;    0.000
426.477; 2586.825;  225.050;    0.000
426.529; 2606.825;  223.050;    0.000
426.581; 2555.825;  198.050;    0.000
426.633; 2561.825;  228.050;    0.000
426.684; 2577.825;  210.050;    0.000
426.736; 2505.825;  208.050;    0.000
426.788; 2547.825;  231.050;    0.000
426.840; 2412.825;  212.050;    0.000
426.892; 2537.825;  221.050;    0.000
426.943; 2495.825;  240.050;    0.000
426.995; 2599.825;  243.050;    0.000
427.047; 2540.825;  231.050;    0.000
427.099; 2668.825;  189.050;    0.000
427.150; 2547.825;  212.050;    0.000
427.202; 2530.825;  219.050;    0.000
427.254; 2476.825;  203.050;    0.000
427.306; 2366.825;  217.050;    0.000
427.357; 2570.825;  232.050;    0.000
427.409; 2582.825;  251.050;    0.000
427.461; 2431.825;  185.050;    0.000
427.512; 2510.825;  239.050;    0.000
427.564; 2517.825;  208.050;    0.000
427.616; 2539.825;  233.050;    0.000
427.667; 2535.825;  223.050;    0.000
427.719; 2586.825;  206.050;    0.000
427.770; 2555.825;  195.050;    0.000
427.822; 2543.825;  223.050;    0.000
427.874; 2466.825;  232.050;    0.000
427.925; 2506.825;  209.050;    0.000
427.977; 2509.825;  208.050;    0.000
428.028; 2512.825;  187.050;    0.000
428.080; 2580.825;  209.050;    0.000
428.131; 2531.825;  237.050;    0.000
428.183; 2573.825;  200.050;    0.000
428.234; 2499.825;  215.050;    0.000
428.286; 2552.825;  229.050;    0.000
428.337; 2502.825;  206.050;    0.000
428.389; 2440.825;  216.050;    0.000
428.440; 2541.825;  287.050;    0.000
428.492; 2468.825;  269.050;    0.000
428.543; 2498.825;  234.050;    0.000
428.595; 2561.825;  214.050;    0.000
428.646; 2460.825;  229.050;    0.000
428.697; 2403.825;  249.050;    0.000
428.749; 2432.825;  250.050;    0.000
428.800; 2561.825;  242.050;    0.000
428.852; 2555.825;  232.050;    0.000
428.903; 2436.825;  196.050;    0.000
428.954; 2456.825;  226.050;    0.000
429.006; 2532.825;  232.050;    0.000
429.057; 2445.825;  188.050;    0.000
429.108; 2438.825;  237.050;    0.000
429.160; 2462.825;  221.050;    0.000
429.211; 2426.825;  222.050;    0.000
429.262; 2418.825;  215.050;    0.000
429.314; 2409.825;  225.050;    0.000
429.365; 2403.825;  220.050;    0.000
429.416; 2463.825;  242.050;    0.000
429.467; 2479.825;  220.050;    0.000
429.519; 2367.825;  217.050;    0.000
429.570; 2437.825;  248.050;    0.000
429.621; 2418.825;  233.050;    0.000
429.672; 2506.825;  220.050;    0.000
429.724; 2416.825;  179.050;    0.000
429.775; 2448.825;  218.050;    0.000
429.826; 2357.825;  197.050;    0.000
429.877; 2493.825;  206.050;    0.000
429.928; 2401.825;  229.050;    0.000
429.980; 2328.825;  207.050;    0.000
430.031; 2420.825;  264.050;    0.000
430.082; 2353.825;  210.050;    0.000
430.133; 2415.825;  218.050;    0.000
430.184; 2405.825;  246.050;    0.000
430.235; 2358.825;  201.050;    0.000
430.286; 2318.825;  207.050;    0.000
430.337; 2423.825;  224.050;    0.000
430.388; 2388.825;  216.050;    0.000
430.439; 2403.825;  210.050;    0.000
430.490; 2369.825;  208.050;    0.000
430.542; 2369.825;  211.050;    0.000
430.593; 2358.825;  203.050;    0.000
430.644; 2392.825;  235.050;    0.000
430.695; 2418.825;  200.050;    0.000
430.746; 2361.825;  215.050;    0.000
430.797; 2453.825;  235.050;    0.000
430.848; 2413.825;  197.050;    0.000
430.898; 2346.825;  209.050;    0.000
430.949; 2287.825;  231.050;    0.000
431.000; 2385.825;  227.050;    0.000
431.051; 2341.825;  225.050;    0.000
431.102; 2317.825;  180.050;    0.000
431.153; 2449.825;  248.050;    0.000
431.204; 2372.825;  185.050;    0.000
431.255; 2379.825;  199.050;    0.000
431.306; 2429.825;  228.050;    0.000
431.357; 2467.825;  237.050;    0.000
431.408; 2313.825;  223.050;    0.000
431.458; 2414.825;  240.050;    0.000
431.509; 2362.825;  207.050;    0.000
431.560; 2409.825;  219.050;    0.000
431.611; 2410.825;  206.050;    0.000
431.662; 2357.825;  253.050;    0.000
431.713; 2381.825;  199.050;    0.000
431.763; 2409.825;  197.050;    0.000
431.814; 2435.825;  205.050;    0.000
431.865; 2355.825;  218.050;    0.000
431.916; 2393.825;  202.050;    0.000
431.966; 2411.825;  203.050;    0.000
432.017; 2363.825;  244.050;    0.000
432.068; 2454.825;  246.050;    0.000
432.118; 2468.825;  212.050;    0.000
432.169; 2471.825;  214.050;    0.000
432.220; 2406.825;  241.050;    0.000
432.271; 2348.825;  237.050;    0.000
432.321; 2337.825;  246.050;    0.000
432.372; 2362.825;  257.050;    0.000
432.423; 2328.825;  198.050;    0.000
432.473; 2387.825;  202.050;    0.000
432.524; 2354.825;  242.050;    0.000
432.574; 2339.825;  202.050;    0.000
432.625; 2429.825;  212.050;    0.000
432.676; 2364.825;  242.050;    0.000
432.726; 2324.825;  268.050;    0.000
432.777; 2351.825;  228.050;    0.000
432.827; 2348.825;  230.050;    0.000
432.878; 2327.825;  221.050;    0.000
432.928; 2426.825;  218.050;    0.000
432.979; 2334.825;  243.050;    0.000
433.029; 2320.825;  217.050;    0.000
433.080; 2348.825;  208.050;    0.000
433.130; 2280.825;  236.050;    0.000
433.181; 2343.825;  282.050;    0.000
433.231; 2391.825;  257.050;    0.000
433.282; 2360.825;  268.050;    0.000
433.332; 2356.825;  241.050;    0.000
433.383; 2344.825;  271.050;    0.000
433.433; 2366.825;  262.050;    0.000
433.484; 2360.825;  266.050;    0.000
433.534; 2388.825;  217.050;    0.000
433.585; 2354.825;  230.050;    0.000
433.635; 2336.825;  245.050;    0.000
433.685; 2407.825;  250.050;    0.000
433.736; 2366.825;  308.050;    0.000
433.786; 2318.825;  242.050;    0.000
433.836; 2355.825;  256.050;    0.000
433.887; 2314.825;  250.050;    0.000
433.937; 2352.825;  250.050;    0.000
433.987; 2419.825;  219.050;    0.000
434.038; 2337.825;  248.050;    0.000
434.088; 2374.825;  231.050;    0.000
434.138; 2367.825;  266.050;    0.000
434.189; 2342.825;  240.050;    0.000
434.239; 2434.825;  245.050;    0.000
434.289; 2487.825;  285.050;    0.000
434.339; 2415.825;  255.050;    0.000
434.389; 2416.825;  242.050;    0.000
434.440; 2487.825;  273.050;    0.000
434.490; 2459.825;  272.050;    0.000
434.540; 2462.825;  264.050;    0.000
434.590; 2392.825;  233.050;    0.000
434.640; 2520.825;  244.050;    0.000
434.691; 2464.825;  226.050;    0.000
434.741; 2480.825;  253.050;    0.000
434.791; 2475.825;  269.050;    0.000
434.841; 2492.825;  252.050;    0.000
434.891; 2510.825;  281.050;    0.000
434.941; 2608.825;  296.050;    0.000
434.991; 2528.825;  264.050;    0.000
435.042; 2450.825;  262.050;    0.000
435.092; 2412.825;  237.050;    0.000
435.142; 2407.825;  232.050;    0.000
435.192; 2334.825;  251.050;    0.000
435.242; 2460.825;  251.050;    0.000
435.292; 2323.825;  246.050;    0.000
435.342; 2336.825;  236.050;    0.000
435.392; 2404.825;  273.050;    0.000
435.442; 2389.825;  273.050;    0.000
435.492; 2386.825;  273.050;    0.000
435.542; 2332.825;  242.050;    0.000
435.592; 2344.825;  213.050;    0.000
435.642; 2390.825;  248.050;    0.000
435.692; 2303.825;  242.050;    0.000
435.742; 2315.825;  222.050;    0.000
435.792; 2378.825;  260.050;    0.000
435.842; 2304.825;  266.050;    0.000
435.891; 2271.825;  227.050;    0.000
435.941; 2364.825;  228.050;    0.000
435.991; 2346.825;  282.050;    0.000
436.041; 2275.825;  231.050;    0.000
436.091; 2332.825;  250.050;    0.000
436.141; 2292.825;  221.050;    0.000
436.191; 2280.825;  223.050;    0.000
436.241; 2323.825;  250.050;    0.000
436.290; 2260.825;  243.050;    0.000
436.340; 2352.825;  236.050;    0.000
436.390; 2268.825;  260.050;    0.000
436.440; 2342.825;  253.050;    0.000
436.490; 2252.825;  236.050;    0.000
436.539; 2286.825;  249.050;    0.000
436.589; 2254.825;  231.050;    0.000
436.639; 2312.825;  237.050;    0.000
436.689; 2253.825;  222.050;    0.000
436.738; 2232.825;  263.050;    0.000
436.788; 2199.825;  230.050;    0.000
436.838; 2283.825;  281.050;    0.000
436.887; 2268.825;  230.050;    0.000
436.937; 2255.825;  250.050;    0.000
436.987; 2220.825;  251.050;    0.000
437.036; 2282.825;  238.050;    0.000
437.086; 2242.825;  234.050;    0.000
437.136; 2236.825;  250.050;    0.000
437.185; 2224.825;  228.050;    0.000
437.235; 2206.825;  309.050;    0.000
437.285; 2171.825;  246.050;    0.000
437.334; 2371.825;  262.050;    0.000
437.384; 2208.825;  228.050;    0.000
437.433; 2168.825;  241.050;    0.000
437.483; 2227.825;  220.050;    0.000
437.532; 2134.825;  252.050;    0.000
437.582; 2212.825;  270.050;    0.000
437.631; 2218.825;  251.050;    0.000
437.681; 2212.825;  284.050;    0.000
437.730; 2216.825;  239.050;    0.000
437.780; 2151.825;  221.050;    0.000
437.829; 2198.825;  254.050;    0.000
437.879; 2163.825;  221.050;    0.000
437.928; 2162.825;  205.050;    0.000
437.978; 2152.825;  223.050;    0.000
438.027; 2276.825;  262.050;    0.000
438.077; 2219.825;  280.050;    0.000
438.126; 2182.825;  254.050;    0.000
438.176; 2193.825;  230.050;    0.000
438.225; 2136.825;  227.050;    0.000
438.274; 2138.825;  264.050;    0.000
438.324; 2180.825;  233.050;    0.000
438.373; 2119.825;  238.050;    0.000
438.422; 2151.825;  260.050;    0.000
438.472; 2186.825;  223.050;    0.000
438.521; 2123.825;  213.050;    0.000
438.570; 2276.825;  236.050;    0.000
438.620; 2234.825;  282.050;    0.000
438.669; 2172.825;  209.050;    0.000
438.718; 2069.825;  245.050;    0.000
438.768; 2210.825;  238.050;    0.000
438.817; 2112.825;  259.050;    0.000
438.866; 2165.825;  232.050;    0.000
438.915; 2154.825;  288.050;    0.000
438.965; 2211.825;  228.050;    0.000
439.014; 2225.825;  246.050;    0.000
439.063; 2174.825;  287.050;    0.000
439.112; 2095.825;  217.050;    0.000
439.162; 2125.825;  275.050;    0.000
439.211; 2182.825;  287.050;    0.000
439.260; 2109.825;  238.050;    0.000
439.309; 2215.825;  225.050;    0.000
439.358; 2176.825;  248.050;    0.000
439.407; 2181.825;  237.050;    0.000
439.456; 2135.825;  223.050;    0.000
439.506; 2181.825;  266.050;    0.000
439.555; 2158.825;  260.050;    0.000
439.604; 2204.825;  233.050;    0.000
439.653; 2147.825;  242.050;    0.000
439.702; 2204.825;  255.050;    0.000
439.751; 2203.825;  202.050;    0.000
439.800; 2117.825;  247.050;    0.000
439.849; 2200.825;  250.050;    0.000
439.898; 2144.825;  216.050;    0.000
439.947; 2104.825;  231.050;    0.000
439.996; 2176.825;  272.050;    0.000
440.045; 2227.825;  217.050;    0.000
440.094; 2188.825;  220.050;    0.000
440.143; 2204.825;  245.050;    0.000
440.192; 2172.825;  267.050;    0.000
440.241; 2176.825;  263.050;    0.000
440.290; 2184.825;  246.050;    0.000
440.339; 2126.825;  225.050;    0.000
440.388; 2158.825;  256.050;    0.000
440.437; 2138.825;  253.050;    0.000
440.486; 2224.825;  249.050;    0.000
440.535; 2244.825;  232.050;    0.000
440.583; 2249.825;  220.050;    0.000
440.632; 2195.825;  239.050;    0.000
440.681; 2215.825;  236.050;    0.000
440.730; 2238.825;  282.050;    0.000
440.779; 2170.825;  245.050;    0.000
440.828; 2167.825;  213.050;    0.000
440.876; 2158.825;  231.050;    0.000
440.925; 2160.825;  271.050;    0.000
440.974; 2159.825;  240.050;    0.000
441.023; 2213.825;  214.050;    0.000
441.072; 2240.825;  236.050;    0.000
441.120; 2271.825;  271.050;    0.000
441.169; 2308.825;  281.050;    0.000
441.218; 2272.825;  255.050;    0.000
441.267; 2235.825;  272.050;    0.000
441.315; 2216.825;  229.050;    0.000
441.364; 2280.825;  241.050;    0.000
441.413; 2262.825;  224.050;    0.000
441.461; 2298.825;  241.050;    0.000
441.510; 2318.825;  289.050;    0.000
441.559; 2350.825;  222.050;    0.000
441.607; 2306.825;  242.050;    0.000
441.656; 2319.825;  255.050;    0.000
441.705; 2327.825;  260.050;    0.000
441.753; 2335.825;  290.050;    0.000
441.802; 2347.825;  264.050;    0.000
441.850; 2277.825;  224.050;    0.000
441.899; 2316.825;  275.050;    0.000
441.948; 2372.825;  227.050;    0.000
441.996; 2342.825;  216.050;    0.000
442.045; 2376.825;  271.050;    0.000
442.093; 2279.825;  227.050;    0.000
442.142; 2368.825;  273.050;    0.000
442.190; 2288.825;  257.050;    0.000
442.239; 2273.825;  269.050;    0.000
442.287; 2332.825;  257.050;    0.000
442.336; 2296.825;  237.050;    0.000
442.384; 2300.825;  214.050;    0.000
442.433; 2384.825;  272.050;    0.000
442.481; 2297.825;  258.050;    0.000
442.529; 2338.825;  242.050;    0.000
442.578; 2342.825;  278.050;    0.000
442.626; 2292.825;  264.050;    0.000
442.675; 2284.825;  293.050;    0.000
442.723; 2265.825;  244.050;    0.000
442.771; 2277.825;  232.050;    0.000
442.820; 2241.825;  266.050;    0.000
442.868; 2304.825;  253.050;    0.000
442.917; 2310.825;  250.050;    0.000
442.965; 2359.825;  279.050;    0.000
443.013; 2291.825;  253.050;    0.000
443.062; 2223.825;  282.050;    0.000
443.110; 2288.825;  258.050;    0.000
443.158; 2275.825;  246.050;    0.000
443.206; 2282.825;  255.050;    0.000
443.255; 2284.825;  296.050;    0.000
443.303; 2270.825;  272.050;    0.000
443.351; 2304.825;  270.050;    0.000
443.399; 2272.825;  258.050;    0.000
443.448; 2349.825;  265.050;    0.000
443.496; 2272.825;  219.050;    0.000
443.544; 2229.825;  205.050;    0.000
443.592; 2306.825;  266.050;    0.000
443.640; 2402.825;  260.050;    0.000
443.689; 2365.825;  232.050;    0.000
443.737; 2386.825;  281.050;    0.000
443.785; 2303.825;  248.050;    0.000
443.833; 2385.825;  286.050;    0.000
443.881; 2325.825;  225.050;    0.000
443.929; 2421.825;  255.050;    0.000
443.977; 2363.825;  248.050;    0.000
444.025; 2350.825;  255.050;    0.000
444.074; 2407.825;  266.050;    0.000
444.122; 2417.825;  266.050;    0.000
444.170; 2395.825;  207.050;    0.000
444.218; 2336.825;  253.050;    0.000
444.266; 2477.825;  263.050;    0.000
444.314; 2424.825;  272.050;    0.000
444.362; 2425.825;  272.050;    0.000
444.410; 2474.825;  255.050;    0.000
444.458; 2480.825;  288.050;    0.000
444.506; 2503.825;  263.050;    0.000
444.554; 2432.825;  243.050;    0.000
444.602; 2485.825;  285.050;    0.000
444.650; 2439.825;  273.050;    0.000
444.698; 2458.825;  221.050;    0.000
444.746; 2436.825;  243.050;    0.000
444.793; 2436.825;  217.050;    0.000
444.841; 2537.825;  262.050;    0.000
444.889; 2488.825;  264.050;    0.000
444.937; 2459.825;  226.050;    0.000
444.985; 2518.825;  257.050;    0.000
445.033; 2478.825;  264.050;    0.000
445.081; 2463.825;  264.050;    0.000
445.129; 2442.825;  187.050;    0.000
445.176; 2414.825;  212.050;    0.000
445.224; 2445.825;  198.050;    0.000
445.272; 2463.825;  265.050;    0.000
445.320; 2472.825;  239.050;    0.000
445.368; 2423.825;  245.050;    0.000
445.415; 2401.825;  215.050;    0.000
445.463; 2363.825;  202.050;    0.000
445.511; 2468.825;  234.050;    0.000
445.559; 2402.825;  269.050;    0.000
445.606; 2418.825;  214.050;    0.000
445.654; 2481.825;  227.050;    0.000
445.702; 2436.825;  276.050;    0.000
445.749; 2502.825;  256.050;    0.000
445.797; 2357.825;  236.050;    0.000
445.845; 2375.825;  230.050;    0.000
445.892; 2455.825;  233.050;    0.000
445.940; 2424.825;  257.050;    0.000
445.988; 2427.825;  253.050;    0.000
446.035; 2387.825;  265.050;    0.000
446.083; 2490.825;  254.050;    0.000
446.130; 2376.825;  228.050;    0.000
446.178; 2568.825;  256.050;    0.000
446.226; 2444.825;  238.050;    0.000
446.273; 2502.825;  228.050;    0.000
446.321; 2373.825;  220.050;    0.000
446.368; 2462.825;  249.050;    0.000
446.416; 2530.825;  221.050;    0.000
446.463; 2510.825;  232.050;    0.000
446.511; 2451.825;  243.050;    0.000
446.558; 2555.825;  217.050;    0.000
446.606; 2559.825;  256.050;    0.000
446.653; 2485.825;  238.050;    0.000
446.701; 2529.825;  259.050;    0.000
446.748; 2506.825;  227.050;    0.000
446.796; 2564.825;  236.050;    0.000
446.843; 2616.825;  241.050;    0.000
446.891; 2551.825;  292.050;    0.000
446.938; 2609.825;  219.050;    0.000
446.985; 2665.825;  255.050;    0.000
447.033; 2740.825;  237.050;    0.000
447.080; 2556.825;  278.050;    0.000
447.128; 2706.825;  237.050;    0.000
447.175; 2707.825;  247.050;    0.000
447.222; 2707.825;  235.050;    0.000
447.270; 2778.825;  274.050;    0.000
447.317; 2650.825;  222.050;    0.000
447.364; 2769.825;  230.050;    0.000
447.411; 2814.825;  297.050;    0.000
447.459; 2760.825;  243.050;    0.000
447.506; 2727.825;  202.050;    0.000
447.553; 2845.825;  232.050;    0.000
447.601; 2801.825;  262.050;    0.000
447.648; 2877.825;  254.050;    0.000
447.695; 2930.825;  287.050;    0.000
447.742; 2946.825;  232.050;    0.000
447.789; 3017.825;  257.050;    0.000
447.837; 3093.825;  260.050;    0.000
447.884; 3049.825;  272.050;    0.000
447.931; 3133.825;  241.050;    0.000
447.978; 3205.825;  241.050;    0.000
448.025; 3237.825;  264.050;    0.000
448.072; 3243.825;  279.050;    0.000
448.120; 3297.825;  263.050;    0.000
448.167; 3255.825;  284.050;    0.000
448.214; 3143.825;  252.050;    0.000
448.261; 3119.825;  247.050;    0.000
448.308; 3024.825;  249.050;    0.000
448.355; 3057.825;  263.050;    0.000
448.402; 3038.825;  251.050;    0.000
448.449; 2868.825;  257.050;    0.000
448.496; 2866.825;  243.050;    0.000
448.543; 2786.825;  274.050;    0.000
448.590; 2915.825;  299.050;    0.000
448.637; 2773.825;  259.050;    0.000
448.684; 2750.825;  266.050;    0.000
448.731; 2711.825;  261.050;    0.000
448.778; 2611.825;  292.050;    0.000
448.825; 2728.825;  253.050;    0.000
448.872; 2519.825;  253.050;    0.000
448.919; 2531.825;  218.050;    0.000
448.966; 2680.825;  254.050;    0.000
449.013; 2552.825;  263.050;    0.000
449.060; 2604.825;  282.050;    0.000
449.107; 2590.825;  244.050;    0.000
449.154; 2448.825;  236.050;    0.000
449.200; 2542.825;  226.050;    0.000
449.247; 2580.825;  273.050;    0.000
449.294; 2486.825;  270.050;    0.000
449.341; 2447.825;  283.050;    0.000
449.388; 2422.825;  261.050;    0.000
449.435; 2497.825;  254.050;    0.000
449.481; 2456.825;  318.050;    0.000
449.528; 2439.825;  274.050;    0.000
449.575; 2348.825;  251.050;    0.000
449.622; 2427.825;  276.050;    0.000
449.668; 2479.825;  242.050;    0.000
449.715; 2404.825;  286.050;    0.000
449.762; 2344.825;  268.050;    0.000
449.809; 2374.825;  285.050;    0.000
449.855; 2318.825;  277.050;    0.000
449.902; 2360.825;  246.050;    0.000
449.949; 2232.825;  268.050;    0.000
449.995; 2424.825;  289.050;    0.000
450.042; 2339.825;  256.050;    0.000
450.089; 2387.825;  290.050;    0.000
450.135; 2362.825;  300.050;    0.000
450.182; 2256.825;  317.050;    0.000
450.229; 2242.825;  282.050;    0.000
450.275; 2262.825;  307.050;    0.000
450.322; 2362.825;  260.050;    0.000
450.368; 2309.825;  315.050;    0.000
450.415; 2382.825;  306.050;    0.000
450.462; 2279.825;  314.050;    0.000
450.508; 2295.825;  303.050;    0.000
450.555; 2269.825;  281.050;    0.000
450.601; 2309.825;  291.050;    0.000
450.648; 2271.825;  288.050;    0.000
450.694; 2276.825;  290.050;    0.000
450.741; 2348.825;  303.050;    0.000
450.787; 2319.825;  298.050;    0.000
450.834; 2273.825;  265.050;    0.000
450.880; 2254.825;  273.050;    0.000
450.927; 2248.825;  312.050;    0.000
450.973; 2254.825;  303.050;    0.000
451.019; 2186.825;  222.050;    0.000
451.066; 2343.825;  284.050;    0.000
451.112; 2295.825;  296.050;    0.000
451.159; 2326.825;  299.050;    0.000
451.205; 2231.825;  311.050;    0.000
451.251; 2293.825;  306.050;    0.000
451.298; 2196.825;  281.050;    0.000
451.344; 2250.825;  311.050;    0.000
451.390; 2303.825;  331.050;    0.000
451.437; 2196.825;  303.050;    0.000
451.483; 2229.825;  284.050;    0.000
451.529; 2098.825;  310.050;    0.000
451.576; 2199.825;  301.050;    0.000
451.622; 2170.825;  275.050;    0.000
451.668; 2196.825;  269.050;    0.000
451.714; 2209.825;  277.050;    0.000
451.761; 2133.825;  298.050;    0.000
451.807; 2212.825;  316.050;    0.000
451.853; 2209.825;  301.050;    0.000
451.899; 2158.825;  292.050;    0.000
451.945; 2227.825;  324.050;    0.000
451.992; 2195.825;  292.050;    0.000
452.038; 2056.825;  261.050;    0.000
452.084; 2111.825;  286.050;    0.000
452.130; 2129.825;  301.050;    0.000
452.176; 2124.825;  287.050;    0.000
452.222; 2112.825;  265.050;    0.000
452.268; 2170.825;  268.050;    0.000
452.315; 2110.825;  272.050;    0.000
452.361; 2121.825;  258.050;    0.000
452.407; 2114.825;  279.050;    0.000
452.453; 2132.825;  252.050;    0.000
452.499; 2163.825;  305.050;    0.000
452.545; 2157.825;  263.050;    0.000
452.591; 2103.825;  284.050;    0.000
452.637; 2119.825;  289.050;    0.000
452.683; 2098.825;  249.050;    0.000
452.729; 2130.825;  290.050;    0.000
452.775; 2099.825;  315.050;    0.000
452.821; 2080.825;  271.050;    0.000
452.867; 2088.825;  258.050;    0.000
452.913; 2143.825;  256.050;    0.000
452.959; 2135.825;  266.050;    0.000
453.005; 2130.825;  299.050;    0.000
453.051; 2070.825;  299.050;    0.000
453.097; 2080.825;  268.050;    0.000
453.142; 2050.825;  251.050;    0.000
453.188; 2128.825;  284.050;    0.000
453.234; 2095.825;  285.050;    0.000
453.280; 2163.825;  263.050;    0.000
453.326; 2074.825;  273.050;    0.000
453.372; 2057.825;  253.050;    0.000
453.418; 2068.825;  269.050;    0.000
453.463; 2098.825;  250.050;    0.000
453.509; 2050.825;  289.050;    0.000
453.555; 2047.825;  262.050;    0.000
453.601; 2035.825;  274.050;    0.000
453.647; 2204.825;  306.050;    0.000
453.692; 2071.825;  264.050;    0.000
453.738; 2049.825;  312.050;    0.000
453.784; 2064.825;  300.050;    0.000
453.829; 2070.825;  284.050;    0.000
453.875; 2094.825;  270.050;    0.000
453.921; 2024.825;  237.050;    0.000
453.967; 2051.825;  263.050;    0.000
454.012; 2106.825;  295.050;    0.000
454.058; 2097.825;  293.050;    0.000
454.104; 2079.825;  264.050;    0.000
454.149; 2148.825;  282.050;    0.000
454.195; 2034.825;  277.050;    0.000
454.240; 2011.825;  307.050;    0.000
454.286; 2057.825;  282.050;    0.000
454.332; 2086.825;  291.050;    0.000
454.377; 2002.825;  302.050;    0.000
454.423; 2015.825;  276.050;    0.000
454.468; 2092.825;  281.050;    0.000
454.514; 2011.825;  290.050;    0.000
454.559; 2103.825;  289.050;    0.000
454.605; 2101.825;  258.050;    0.000
454.650; 2030.825;  281.050;    0.000
454.696; 2040.825;  308.050;    0.000
454.741; 2098.825;  288.050;    0.000
454.787; 1980.825;  284.050;    0.000
454.832; 2069.825;  306.050;    0.000
454.878; 2007.825;  288.050;    0.000
454.923; 2064.825;  287.050;    0.000
454.969; 2097.825;  325.050;    0.000
455.014; 2084.825;  323.050;    0.000
455.060; 2045.825;  290.050;    0.000
455.105; 1976.825;  285.050;    0.000
455.150; 2070.825;  303.050;    0.000
455.196; 1987.825;  282.050;    0.000
455.241; 2120.825;  281.050;    0.000
455.286; 2017.825;  290.050;    0.000
455.332; 1976.825;  280.050;    0.000
455.377; 2057.825;  243.050;    0.000
455.422; 2038.825;  308.050;    0.000
455.468; 2022.825;  308.050;    0.000
455.513; 1973.825;  290.050;    0.000
455.558; 2040.825;  211.050;    0.000
455.604; 2085.825;  289.050;    0.000
455.649; 1993.825;  297.050;    0.000
455.694; 1999.825;  287.050;    0.000
455.739; 1999.825;  296.050;    0.000
455.785; 2082.825;  315.050;    0.000
455.830; 2065.825;  328.050;    0.000
455.875; 2069.825;  310.050;    0.000
455.920; 1980.825;  261.050;    0.000
455.965; 1972.825;  277.050;    0.000
456.010; 2071.825;  317.050;    0.000
456.056; 2061.825;  299.050;    0.000
456.101; 2017.825;  262.050;    0.000
456.146; 2074.825;  318.050;    0.000
456.191; 2074.825;  274.050;    0.000
456.236; 2072.825;  274.050;    0.000
456.281; 2039.825;  275.050;    0.000
456.326; 2047.825;  256.050;    0.000
456.371; 2049.825;  260.050;    0.000
456.416; 2035.825;  304.050;    0.000
456.461; 1966.825;  278.050;    0.000
456.507; 2036.825;  299.050;    0.000
456.552; 2082.825;  305.050;    0.000
456.597; 2011.825;  271.050;    0.000
456.642; 2064.825;  273.050;    0.000
456.687; 2035.825;  290.050;    0.000
456.732; 2058.825;  327.050;    0.000
456.776; 1995.825;  284.050;    0.000
456.821; 1978.825;  321.050;    0.000
456.866; 2058.825;  272.050;    0.000
456.911; 2018.825;  232.050;    0.000
456.956; 2069.825;  263.050;    0.000
457.001; 2014.825;  277.050;    0.000
457.046; 2017.825;  284.050;    0.000
457.091; 2009.825;  269.050;    0.000
457.136; 1993.825;  269.050;    0.000
457.181; 2031.825;  275.050;    0.000
457.225; 2069.825;  310.050;    0.000
457.270; 2097.825;  295.050;    0.000
457.315; 2001.825;  284.050;    0.000
457.360; 1985.825;  264.050;    0.000
457.405; 2044.825;  273.050;    0.000
457.450; 2081.825;  284.050;    0.000
457.494; 1989.825;  273.050;    0.000
457.539; 2013.825;  287.050;    0.000
457.584; 2081.825;  279.050;    0.000
457.629; 1980.825;  288.050;    0.000
457.673; 2121.825;  297.050;    0.000
457.718; 2113.825;  270.050;    0.000
457.763; 2087.825;  295.050;    0.000
457.807; 2089.825;  321.050;    0.000
457.852; 2124.825;  293.050;    0.000
457.897; 2037.825;  282.050;    0.000
457.941; 2111.825;  320.050;    0.000
457.986; 2140.825;  295.050;    0.000
458.031; 2119.825;  314.050;    0.000
458.075; 2052.825;  280.050;    0.000
458.120; 2127.825;  314.050;    0.000
458.165; 1998.825;  289.050;    0.000
458.209; 2052.825;  289.050;    0.000
458.254; 2076.825;  272.050;    0.000
458.298; 2174.825;  305.050;    0.000
458.343; 2112.825;  284.050;    0.000
458.387; 2157.825;  340.050;    0.000
458.432; 2196.825;  306.050;    0.000
458.476; 2128.825;  311.050;    0.000
458.521; 2113.825;  304.050;    0.000
458.565; 2192.825;  329.050;    0.000
458.610; 2173.825;  287.050;    0.000
458.654; 2140.825;  300.050;    0.000
458.699; 2056.825;  295.050;    0.000
458.743; 2147.825;  269.050;    0.000
458.788; 2188.825;  294.050;    0.000
458.832; 2157.825;  301.050;    0.000
458.877; 2174.825;  303.050;    0.000
458.921; 2202.825;  259.050;    0.000
458.965; 2280.825;  308.050;    0.000
459.010; 2234.825;  330.050;    0.000
459.054; 2255.825;  298.050;    0.000
459.099; 2267.825;  303.050;    0.000
459.143; 2177.825;  333.050;    0.000
459.187; 2244.825;  291.050;    0.000
459.231; 2303.825;  316.050;    0.000
459.276; 2308.825;  294.050;    0.000
459.320; 2232.825;  291.050;    0.000
459.364; 2273.825;  318.050;    0.000
459.409; 2242.825;  325.050;    0.000
459.453; 2300.825;  293.050;    0.000
459.497; 2352.825;  354.050;    0.000
459.541; 2308.825;  313.050;    0.000
459.586; 2237.825;  282.050;    0.000
459.630; 2317.825;  286.050;    0.000
459.674; 2252.825;  292.050;    0.000
459.718; 2302.825;  280.050;    0.000
459.762; 2288.825;  304.050;    0.000
459.807; 2345.825;  352.050;    0.000
459.851; 2249.825;  300.050;    0.000
459.895; 2286.825;  311.050;    0.000
459.939; 2265.825;  303.050;    0.000
459.983; 2312.825;  299.050;    0.000
460.027; 2285.825;  307.050;    0.000
460.071; 2315.825;  313.050;    0.000
460.115; 2219.825;  325.050;    0.000
460.159; 2319.825;  331.050;    0.000
460.204; 2304.825;  301.050;    0.000
460.248; 2425.825;  329.050;    0.000
460.292; 2300.825;  310.050;    0.000
460.336; 2306.825;  304.050;    0.000
460.380; 2390.825;  313.050;    0.000
460.424; 2316.825;  300.050;    0.000
460.468; 2385.825;  338.050;    0.000
460.512; 2442.825;  310.050;    0.000
460.556; 2401.825;  337.050;    0.000
460.599; 2361.825;  310.050;    0.000
460.643; 2348.825;  303.050;    0.000
460.687; 2415.825;  316.050;    0.000
460.731; 2261.825;  292.050;    0.000
460.775; 2349.825;  294.050;    0.000
460.819; 2399.825;  310.050;    0.000
460.863; 2430.825;  349.050;    0.000
460.907; 2352.825;  265.050;    0.000
460.951; 2345.825;  325.050;    0.000
460.995; 2351.825;  338.050;    0.000
461.038; 2362.825;  304.050;    0.000
461.082; 2335.825;  312.050;    0.000
461.126; 2338.825;  358.050;    0.000
461.170; 2303.825;  306.050;    0.000
461.214; 2374.825;  330.050;    0.000
461.257; 2355.825;  311.050;    0.000
461.301; 2386.825;  303.050;    0.000
461.345; 2399.825;  310.050;    0.000
461.389; 2388.825;  296.050;    0.000
461.432; 2375.825;  304.050;    0.000
461.476; 2388.825;  305.050;    0.000
461.520; 2385.825;  319.050;    0.000
461.563; 2380.825;  294.050;    0.000
461.607; 2290.825;  295.050;    0.000
461.651; 2326.825;  335.050;    0.000
461.694; 2348.825;  276.050;    0.000
461.738; 2377.825;  327.050;    0.000
461.782; 2420.825;  288.050;    0.000
461.825; 2391.825;  319.050;    0.000
461.869; 2473.825;  305.050;    0.000
461.913; 2426.825;  281.050;    0.000
461.956; 2485.825;  281.050;    0.000
462.000; 2442.825;  339.050;    0.000
462.043; 2474.825;  347.050;    0.000
462.087; 2437.825;  314.050;    0.000
462.130; 2453.825;  332.050;    0.000
462.174; 2477.825;  332.050;    0.000
462.217; 2409.825;  299.050;    0.000
462.261; 2425.825;  323.050;    0.000
462.304; 2401.825;  286.050;    0.000
462.348; 2411.825;  305.050;    0.000
462.391; 2485.825;  293.050;    0.000
462.435; 2635.825;  365.050;    0.000
462.478; 2445.825;  329.050;    0.000
462.522; 2491.825;  316.050;    0.000
462.565; 2522.825;  328.050;    0.000
462.608; 2547.825;  350.050;    0.000
462.652; 2576.825;  328.050;    0.000
462.695; 2571.825;  358.050;    0.000
462.739; 2610.825;  317.050;    0.000
462.782; 2635.825;  329.050;    0.000
462.825; 2576.825;  368.050;    0.000
462.869; 2610.825;  343.050;    0.000
462.912; 2618.825;  404.050;    0.000
462.955; 2603.825;  328.050;    0.000
462.998; 2600.825;  340.050;    0.000
463.042; 2628.825;  361.050;    0.000
463.085; 2707.825;  337.050;    0.000
463.128; 2727.825;  373.050;    0.000
463.172; 2540.825;  347.050;    0.000
463.215;  404.825;  305.050;    0.000
463.258;  352.825;  324.050;    0.000
463.301;  262.825;  296.050;    0.000
463.344;  324.825;  332.050;    0.000
463.388;  322.825;  309.050;    0.000
463.431;  294.825;  298.050;    0.000
463.474;  346.825;  351.050;    0.000
463.517;  301.825;  319.050;    0.000
463.560;  342.825;  325.050;    0.000
463.603;  331.825;  330.050;    0.000
463.646;  337.825;  332.050;    0.000
463.690;  309.825;  325.050;    0.000
463.733;  355.825;  323.050;    0.000
463.776;  295.825;  276.050;    0.000
463.819;  312.825;  320.050;    0.000
463.862;  293.825;  275.050;    0.000

