
Integration time [ms]:   0.300
Averaging Nr. [scans]: 1
Smoothing Nr. [pixels]: 0
Data measured with spectrometer [name]: VIS
Wave   ;Sample   ;Dark     ;Reference
[nm]   ;[counts] ;[counts] ;[counts] 

450.961;  168.350;  204.125;    0.000
451.100;  203.350;  219.125;    0.000
451.239;  210.350;  196.125;    0.000
451.377;  253.350;  252.125;    0.000
451.516;  199.350;  215.125;    0.000
451.655;  228.350;  214.125;    0.000
451.794;  216.350;  241.125;    0.000
451.932;  241.350;  242.125;    0.000
452.071;  215.350;  204.125;    0.000
452.210;  222.350;  243.125;    0.000
452.348;  220.350;  241.125;    0.000
452.487;  206.350;  246.125;    0.000
452.626;  203.350;  235.125;    0.000
452.764;  214.350;  230.125;    0.000
452.903;  233.350;  199.125;    0.000
453.042;  266.350;  178.125;    0.000
453.180; 3025.350;  291.125;    0.000
453.319; 2990.350;  335.125;    0.000
453.458; 2921.350;  245.125;    0.000
453.596; 3019.350;  325.125;    0.000
453.735; 3093.350;  291.125;    0.000
453.873; 3187.350;  295.125;    0.000
454.012; 3135.350;  291.125;    0.000
454.150; 3169.350;  292.125;    0.000
454.289; 3096.350;  328.125;    0.000
454.427; 3229.350;  295.125;    0.000
454.566; 3288.350;  295.125;    0.000
454.704; 3306.350;  301.125;    0.000
454.843; 3261.350;  278.125;    0.000
454.981; 3350.350;  306.125;    0.000
455.120; 3375.350;  237.125;    0.000
455.258; 3502.350;  325.125;    0.000
455.397; 3401.350;  276.125;    0.000
455.535; 3445.350;  269.125;    0.000
455.674; 3557.350;  259.125;    0.000
455.812; 3494.350;  264.125;    0.000
455.951; 3515.350;  286.125;    0.000
456.089; 3645.350;  302.125;    0.000
456.227; 3607.350;  230.125;    0.000
456.366; 3699.350;  303.125;    0.000
456.504; 3735.350;  316.125;    0.000
456.642; 3658.350;  309.125;    0.000
456.781; 3735.350;  299.125;    0.000
456.919; 3798.350;  281.125;    0.000
457.057; 3860.350;  253.125;    0.000
457.196; 3844.350;  268.125;    0.000
457.334; 3859.350;  292.125;    0.000
457.472; 3998.350;  287.125;    0.000
457.610; 4045.350;  300.125;    0.000
457.749; 4094.350;  342.125;    0.000
457.887; 4168.350;  310.125;    0.000
458.025; 4142.350;  310.125;    0.000
458.163; 4181.350;  323.125;    0.000
458.301; 4363.350;  336.125;    0.000
458.440; 4271.350;  297.125;    0.000
458.578; 4506.350;  295.125;    0.000
458.716; 4475.350;  309.125;    0.000
458.854; 4527.350;  335.125;    0.000
458.992; 4574.350;  244.125;    0.000
459.130; 4684.350;  370.125;    0.000
459.269; 4849.350;  313.125;    0.000
459.407; 4864.350;  370.125;    0.000
459.545; 4870.350;  341.125;    0.000
459.683; 4965.350;  336.125;    0.000
459.821; 5056.350;  311.125;    0.000
459.959; 5013.350;  330.125;    0.000
460.097; 5170.350;  355.125;    0.000
460.235; 5115.350;  348.125;    0.000
460.373; 5093.350;  338.125;    0.000
460.511; 5166.350;  361.125;    0.000
460.649; 5197.350;  295.125;    0.000
460.787; 5249.350;  325.125;    0.000
460.925; 5190.350;  266.125;    0.000
461.063; 5319.350;  365.125;    0.000
461.201; 5311.350;  334.125;    0.000
461.339; 5423.350;  341.125;    0.000
461.477; 5413.350;  304.125;    0.000
461.615; 5471.350;  311.125;    0.000
461.753; 5428.350;  342.125;    0.000
461.891; 5500.350;  333.125;    0.000
462.029; 5632.350;  336.125;    0.000
462.166; 5719.350;  272.125;    0.000
462.304; 5754.350;  313.125;    0.000
462.442; 5978.350;  313.125;    0.000
462.580; 6006.350;  328.125;    0.000
462.718; 5980.350;  358.125;    0.000
462.856; 6132.350;  302.125;    0.000
462.993; 6167.350;  360.125;    0.000
463.131; 6039.350;  280.125;    0.000
463.269; 6191.350;  312.125;    0.000
463.407; 5980.350;  263.125;    0.000
463.545; 5776.350;  253.125;    0.000
463.682; 5882.350;  296.125;    0.000
463.820; 6036.350;  308.125;    0.000
463.958; 6308.350;  300.125;    0.000
464.095; 6358.350;  289.125;    0.000
464.233; 6386.350;  340.125;    0.000
464.371; 6469.350;  300.125;    0.000
464.509; 6490.350;  266.125;    0.000
464.646; 6464.350;  294.125;    0.000
464.784; 6351.350;  284.125;    0.000
464.921; 6329.350;  350.125;    0.000
465.059; 6243.350;  256.125;    0.000
465.197; 6087.350;  289.125;    0.000
465.334; 6018.350;  287.125;    0.000
465.472; 5830.350;  322.125;    0.000
465.609; 5805.350;  311.125;    0.000
465.747; 5694.350;  336.125;    0.000
465.885; 5694.350;  308.125;    0.000
466.022; 5737.350;  299.125;    0.000
466.160; 5663.350;  293.125;    0.000
466.297; 5679.350;  317.125;    0.000
466.435; 5575.350;  336.125;    0.000
466.572; 5611.350;  282.125;    0.000
466.710; 5565.350;  299.125;    0.000
466.847; 5632.350;  288.125;    0.000
466.985; 5588.350;  274.125;    0.000
467.122; 5600.350;  302.125;    0.000
467.260; 5438.350;  271.125;    0.000
467.397; 5521.350;  263.125;    0.000
467.534; 5380.350;  320.125;    0.000
467.672; 5554.350;  309.125;    0.000
467.809; 5398.350;  275.125;    0.000
467.947; 5443.350;  319.125;    0.000
468.084; 5435.350;  309.125;    0.000
468.221; 5520.350;  302.125;    0.000
468.359; 5475.350;  286.125;    0.000
468.496; 5473.350;  293.125;    0.000
468.633; 5442.350;  273.125;    0.000
468.771; 5448.350;  296.125;    0.000
468.908; 5416.350;  277.125;    0.000
469.045; 5596.350;  303.125;    0.000
469.183; 5573.350;  314.125;    0.000
469.320; 5629.350;  278.125;    0.000
469.457; 5738.350;  308.125;    0.000
469.594; 5768.350;  272.125;    0.000
469.732; 5746.350;  321.125;    0.000
469.869; 5811.350;  299.125;    0.000
470.006; 5867.350;  267.125;    0.000
470.143; 5861.350;  298.125;    0.000
470.280; 6014.350;  272.125;    0.000
470.417; 5877.350;  314.125;    0.000
470.555; 5968.350;  305.125;    0.000
470.692; 5952.350;  309.125;    0.000
470.829; 5895.350;  311.125;    0.000
470.966; 5815.350;  260.125;    0.000
471.103; 5937.350;  267.125;    0.000
471.240; 5814.350;  290.125;    0.000
471.377; 5844.350;  290.125;    0.000
471.514; 5806.350;  295.125;    0.000
471.651; 5742.350;  300.125;    0.000
471.789; 5691.350;  281.125;    0.000
471.926; 5669.350;  291.125;    0.000
472.063; 5706.350;  305.125;    0.000
472.200; 5693.350;  285.125;    0.000
472.337; 5573.350;  288.125;    0.000
472.474; 5598.350;  276.125;    0.000
472.611; 5521.350;  309.125;    0.000
472.748; 5443.350;  280.125;    0.000
472.884; 5517.350;  300.125;    0.000
473.021; 5395.350;  280.125;    0.000
473.158; 5451.350;  304.125;    0.000
473.295; 5469.350;  308.125;    0.000
473.432; 5414.350;  294.125;    0.000
473.569; 5589.350;  288.125;    0.000
473.706; 5466.350;  254.125;    0.000
473.843; 5390.350;  282.125;    0.000
473.980; 5567.350;  286.125;    0.000
474.117; 5541.350;  257.125;    0.000
474.253; 5509.350;  298.125;    0.000
474.390; 5459.350;  253.125;    0.000
474.527; 5543.350;  271.125;    0.000
474.664; 5568.350;  257.125;    0.000
474.801; 5471.350;  296.125;    0.000
474.937; 5503.350;  263.125;    0.000
475.074; 5408.350;  262.125;    0.000
475.211; 5718.350;  299.125;    0.000
475.348; 5496.350;  308.125;    0.000
475.484; 5736.350;  278.125;    0.000
475.621; 5568.350;  287.125;    0.000
475.758; 5646.350;  231.125;    0.000
475.894; 5591.350;  295.125;    0.000
476.031; 5674.350;  290.125;    0.000
476.168; 5604.350;  287.125;    0.000
476.304; 5768.350;  331.125;    0.000
476.441; 5541.350;  301.125;    0.000
476.578; 5666.350;  263.125;    0.000
476.714; 5755.350;  261.125;    0.000
476.851; 5612.350;  247.125;    0.000
476.987; 5790.350;  297.125;    0.000
477.124; 5723.350;  296.125;    0.000
477.261; 5795.350;  299.125;    0.000
477.397; 5804.350;  292.125;    0.000
477.534; 5842.350;  289.125;    0.000
477.670; 5889.350;  268.125;    0.000
477.807; 6000.350;  234.125;    0.000
477.943; 6032.350;  279.125;    0.000
478.080; 6088.350;  276.125;    0.000
478.216; 6129.350;  248.125;    0.000
478.353; 6131.350;  296.125;    0.000
478.489; 6124.350;  267.125;    0.000
478.626; 6150.350;  243.125;    0.000
478.762; 6202.350;  252.125;    0.000
478.898; 6287.350;  266.125;    0.000
479.035; 6410.350;  290.125;    0.000
479.171; 6282.350;  247.125;    0.000
479.308; 6199.350;  283.125;    0.000
479.444; 6183.350;  244.125;    0.000
479.580; 6274.350;  259.125;    0.000
479.717; 6283.350;  301.125;    0.000
479.853; 6221.350;  257.125;    0.000
479.989; 6292.350;  249.125;    0.000
480.126; 6376.350;  218.125;    0.000
480.262; 6431.350;  275.125;    0.000
480.398; 6422.350;  246.125;    0.000
480.535; 6385.350;  246.125;    0.000
480.671; 6394.350;  272.125;    0.000
480.807; 6304.350;  281.125;    0.000
480.943; 6298.350;  233.125;    0.000
481.080; 6361.350;  303.125;    0.000
481.216; 6337.350;  229.125;    0.000
481.352; 6347.350;  240.125;    0.000
481.488; 6244.350;  284.125;    0.000
481.624; 6203.350;  236.125;    0.000
481.760; 6085.350;  255.125;    0.000
481.897; 6095.350;  206.125;    0.000
482.033; 6212.350;  254.125;    0.000
482.169; 6204.350;  268.125;    0.000
482.305; 6252.350;  214.125;    0.000
482.441; 6189.350;  225.125;    0.000
482.577; 6176.350;  251.125;    0.000
482.713; 6156.350;  221.125;    0.000
482.849; 6098.350;  218.125;    0.000
482.985; 6086.350;  245.125;    0.000
483.121; 6223.350;  224.125;    0.000
483.258; 6170.350;  249.125;    0.000
483.394; 6158.350;  224.125;    0.000
483.530; 6173.350;  247.125;    0.000
483.665; 6149.350;  256.125;    0.000
483.801; 6126.350;  220.125;    0.000
483.937; 6083.350;  200.125;    0.000
484.073; 6239.350;  272.125;    0.000
484.209; 6241.350;  243.125;    0.000
484.345; 6297.350;  274.125;    0.000
484.481; 6221.350;  264.125;    0.000
484.617; 6262.350;  270.125;    0.000
484.753; 6210.350;  244.125;    0.000
484.889; 6283.350;  293.125;    0.000
485.025; 6275.350;  257.125;    0.000
485.161; 6213.350;  264.125;    0.000
485.296; 6203.350;  247.125;    0.000
485.432; 6353.350;  240.125;    0.000
485.568; 6320.350;  240.125;    0.000
485.704; 6236.350;  232.125;    0.000
485.840; 6327.350;  280.125;    0.000
485.975; 6410.350;  253.125;    0.000
486.111; 6327.350;  250.125;    0.000
486.247; 6300.350;  272.125;    0.000
486.383; 6400.350;  258.125;    0.000
486.518; 6354.350;  256.125;    0.000
486.654; 6383.350;  250.125;    0.000
486.790; 6288.350;  259.125;    0.000
486.926; 6278.350;  256.125;    0.000
487.061; 6270.350;  267.125;    0.000
487.197; 6339.350;  224.125;    0.000
487.333; 6302.350;  265.125;    0.000
487.468; 6338.350;  223.125;    0.000
487.604; 6199.350;  298.125;    0.000
487.740; 6347.350;  261.125;    0.000
487.875; 6378.350;  278.125;    0.000
488.011; 6313.350;  292.125;    0.000
488.146; 6491.350;  239.125;    0.000
488.282; 6316.350;  265.125;    0.000
488.417; 6298.350;  286.125;    0.000
488.553; 6345.350;  271.125;    0.000
488.688; 6371.350;  252.125;    0.000
488.824; 6250.350;  239.125;    0.000
488.960; 6418.350;  266.125;    0.000
489.095; 6275.350;  229.125;    0.000
489.230; 6395.350;  247.125;    0.000
489.366; 6454.350;  260.125;    0.000
489.501; 6469.350;  257.125;    0.000
489.637; 6491.350;  233.125;    0.000
489.772; 6372.350;  254.125;    0.000
489.908; 6400.350;  235.125;    0.000
490.043; 6565.350;  266.125;    0.000
490.178; 6467.350;  228.125;    0.000
490.314; 6468.350;  310.125;    0.000
490.449; 6516.350;  251.125;    0.000
490.585; 6372.350;  221.125;    0.000
490.720; 6453.350;  203.125;    0.000
490.855; 6424.350;  266.125;    0.000
490.991; 6378.350;  249.125;    0.000
491.126; 6568.350;  313.125;    0.000
491.261; 6382.350;  284.125;    0.000
491.396; 6411.350;  225.125;    0.000
491.532; 6550.350;  227.125;    0.000
491.667; 6467.350;  210.125;    0.000
491.802; 6572.350;  214.125;    0.000
491.937; 6543.350;  246.125;    0.000
492.073; 6608.350;  250.125;    0.000
492.208; 6677.350;  267.125;    0.000
492.343; 6708.350;  245.125;    0.000
492.478; 6662.350;  271.125;    0.000
492.613; 6604.350;  253.125;    0.000
492.749; 6658.350;  249.125;    0.000
492.884; 6613.350;  217.125;    0.000
493.019; 6682.350;  244.125;    0.000
493.154; 6503.350;  265.125;    0.000
493.289; 6572.350;  266.125;    0.000
493.424; 6589.350;  226.125;    0.000
493.559; 6627.350;  222.125;    0.000
493.694; 6585.350;  218.125;    0.000
493.829; 6552.350;  246.125;    0.000
493.964; 6526.350;  243.125;    0.000
494.099; 6633.350;  269.125;    0.000
494.234; 6446.350;  249.125;    0.000
494.369; 6681.350;  279.125;    0.000
494.504; 6690.350;  261.125;    0.000
494.639; 6725.350;  289.125;    0.000
494.774; 6619.350;  252.125;    0.000
494.909; 6537.350;  250.125;    0.000
495.044; 6467.350;  207.125;    0.000
495.179; 6529.350;  266.125;    0.000
495.314; 6723.350;  228.125;    0.000
495.449; 6674.350;  262.125;    0.000
495.584; 6565.350;  281.125;    0.000
495.719; 6786.350;  251.125;    0.000
495.854; 6707.350;  237.125;    0.000
495.988; 6770.350;  238.125;    0.000
496.123; 6809.350;  255.125;    0.000
496.258; 6817.350;  264.125;    0.000
496.393; 6791.350;  253.125;    0.000
496.528; 6804.350;  244.125;    0.000
496.663; 6945.350;  267.125;    0.000
496.797; 7001.350;  271.125;    0.000
496.932; 7025.350;  262.125;    0.000
497.067; 7092.350;  260.125;    0.000
497.202; 7106.350;  264.125;    0.000
497.336; 7431.350;  243.125;    0.000
497.471; 7335.350;  251.125;    0.000
497.606; 7467.350;  219.125;    0.000
497.740; 7706.350;  264.125;    0.000
497.875; 8063.350;  252.125;    0.000
498.010; 8134.350;  241.125;    0.000
498.144; 8186.350;  261.125;    0.000
498.279; 8502.350;  221.125;    0.000
498.414; 8629.350;  246.125;    0.000
498.548; 8744.350;  212.125;    0.000
498.683; 8581.350;  260.125;    0.000
498.817; 8901.350;  244.125;    0.000
498.952; 9059.350;  252.125;    0.000
499.087; 9231.350;  251.125;    0.000
499.221; 9670.350;  282.125;    0.000
499.356; 9697.350;  264.125;    0.000
499.490;10049.350;  280.125;    0.000
499.625;10380.350;  256.125;    0.000
499.759;10494.350;  253.125;    0.000
499.894;10969.350;  261.125;    0.000
500.028;11329.350;  304.125;    0.000
500.162;11587.350;  272.125;    0.000
500.297;11870.350;  274.125;    0.000
500.431;11803.350;  320.125;    0.000
500.566;11897.350;  268.125;    0.000
500.700;11713.350;  280.125;    0.000
500.835;11424.350;  288.125;    0.000
500.969;11041.350;  253.125;    0.000
501.103;10776.350;  234.125;    0.000
501.238;10381.350;  302.125;    0.000
501.372; 9875.350;  292.125;    0.000
501.506; 9610.350;  222.125;    0.000
501.641; 9339.350;  274.125;    0.000
501.775; 8768.350;  245.125;    0.000
501.909; 8635.350;  283.125;    0.000
502.043; 8630.350;  252.125;    0.000
502.178; 8391.350;  293.125;    0.000
502.312; 8186.350;  223.125;    0.000
502.446; 8134.350;  292.125;    0.000
502.580; 7694.350;  253.125;    0.000
502.715; 7763.350;  282.125;    0.000
502.849; 7708.350;  258.125;    0.000
502.983; 7585.350;  267.125;    0.000
503.117; 7581.350;  226.125;    0.000
503.251; 7495.350;  260.125;    0.000
503.385; 7326.350;  291.125;    0.000
503.520; 7234.350;  279.125;    0.000
503.654; 6987.350;  229.125;    0.000
503.788; 6979.350;  259.125;    0.000
503.922; 6880.350;  246.125;    0.000
504.056; 6937.350;  269.125;    0.000
504.190; 6849.350;  265.125;    0.000
504.324; 6670.350;  298.125;    0.000
504.458; 6738.350;  235.125;    0.000
504.592; 6522.350;  275.125;    0.000
504.726; 6491.350;  226.125;    0.000
504.860; 6401.350;  298.125;    0.000
504.994; 6341.350;  253.125;    0.000
505.128; 6271.350;  283.125;    0.000
505.262; 6121.350;  255.125;    0.000
505.396; 6100.350;  219.125;    0.000
505.530; 5909.350;  279.125;    0.000
505.664; 5933.350;  306.125;    0.000
505.798; 5814.350;  297.125;    0.000
505.932; 5767.350;  273.125;    0.000
506.066; 5726.350;  271.125;    0.000
506.199; 5699.350;  273.125;    0.000
506.333; 5515.350;  227.125;    0.000
506.467; 5471.350;  302.125;    0.000
506.601; 5444.350;  254.125;    0.000
506.735; 5441.350;  299.125;    0.000
506.869; 5490.350;  278.125;    0.000
507.002; 5386.350;  259.125;    0.000
507.136; 5398.350;  285.125;    0.000
507.270; 5286.350;  255.125;    0.000
507.404; 5399.350;  273.125;    0.000
507.537; 5271.350;  245.125;    0.000
507.671; 5345.350;  251.125;    0.000
507.805; 5231.350;  286.125;    0.000
507.939; 5155.350;  261.125;    0.000
508.072; 5208.350;  298.125;    0.000
508.206; 5112.350;  238.125;    0.000
508.340; 5229.350;  289.125;    0.000
508.473; 5170.350;  255.125;    0.000
508.607; 5160.350;  266.125;    0.000
508.740; 5070.350;  253.125;    0.000
508.874; 5094.350;  233.125;    0.000
509.008; 5071.350;  274.125;    0.000
509.141; 5033.350;  235.125;    0.000
509.275; 5096.350;  225.125;    0.000
509.408; 5001.350;  254.125;    0.000
509.542; 5119.350;  244.125;    0.000
509.675; 5066.350;  263.125;    0.000
509.809; 4937.350;  271.125;    0.000
509.942; 5006.350;  246.125;    0.000
510.076; 5015.350;  221.125;    0.000
510.209; 4964.350;  270.125;    0.000
510.343; 4937.350;  265.125;    0.000
510.476; 4937.350;  291.125;    0.000
510.610; 4911.350;  251.125;    0.000
510.743; 5016.350;  304.125;    0.000
510.877; 4868.350;  259.125;    0.000
511.010; 4841.350;  274.125;    0.000
511.143; 4795.350;  255.125;    0.000
511.277; 4870.350;  267.125;    0.000
511.410; 4806.350;  270.125;    0.000
511.543; 4812.350;  231.125;    0.000
511.677; 4711.350;  275.125;    0.000
511.810; 4852.350;  265.125;    0.000
511.943; 4775.350;  231.125;    0.000
512.077; 4839.350;  225.125;    0.000
512.210; 4702.350;  235.125;    0.000
512.343; 4786.350;  251.125;    0.000
512.476; 4734.350;  260.125;    0.000
512.610; 4834.350;  289.125;    0.000
512.743; 4760.350;  270.125;    0.000
512.876; 4833.350;  289.125;    0.000
513.009; 4841.350;  293.125;    0.000
513.142; 4889.350;  282.125;    0.000
513.276; 4739.350;  244.125;    0.000
513.409; 4842.350;  277.125;    0.000
513.542; 4919.350;  254.125;    0.000
513.675; 4717.350;  258.125;    0.000
513.808; 4733.350;  243.125;    0.000
513.941; 4750.350;  274.125;    0.000
514.074; 4779.350;  296.125;    0.000
514.207; 4878.350;  267.125;    0.000
514.340; 4935.350;  283.125;    0.000
514.474; 4823.350;  255.125;    0.000
514.607; 4721.350;  291.125;    0.000
514.740; 4906.350;  296.125;    0.000
514.873; 4995.350;  275.125;    0.000
515.006; 5088.350;  313.125;    0.000
515.139; 5090.350;  253.125;    0.000
515.272; 5125.350;  263.125;    0.000
515.404; 5217.350;  258.125;    0.000
515.537; 5228.350;  285.125;    0.000
515.670; 5086.350;  286.125;    0.000
515.803; 5131.350;  266.125;    0.000
515.936; 5135.350;  251.125;    0.000
516.069; 5213.350;  231.125;    0.000
516.202; 5202.350;  278.125;    0.000
516.335; 5439.350;  295.125;    0.000
516.468; 5546.350;  239.125;    0.000
516.600; 6618.350;  229.125;    0.000
516.733; 8219.350;  301.125;    0.000
516.866; 8193.350;  287.125;    0.000
516.999; 7230.350;  265.125;    0.000
517.132; 9147.350;  291.125;    0.000
517.264;13289.350;  262.125;    0.000
517.397;12552.350;  292.125;    0.000
517.530; 9327.350;  299.125;    0.000
517.663; 7629.350;  268.125;    0.000
517.795; 7020.350;  323.125;    0.000
517.928; 6809.350;  281.125;    0.000
518.061; 7024.350;  242.125;    0.000
518.193; 9214.350;  279.125;    0.000
518.326;15341.350;  288.125;    0.000
518.459;16434.350;  251.125;    0.000
518.591;11955.350;  314.125;    0.000
518.724; 8578.350;  279.125;    0.000
518.857; 7351.350;  245.125;    0.000
518.989; 6707.350;  290.125;    0.000
519.122; 6349.350;  319.125;    0.000
519.254; 6036.350;  295.125;    0.000
519.387; 5771.350;  271.125;    0.000
519.519; 5524.350;  312.125;    0.000
519.652; 5472.350;  289.125;    0.000
519.784; 5359.350;  311.125;    0.000
519.917; 5144.350;  283.125;    0.000
520.049; 5124.350;  281.125;    0.000
520.182; 5108.350;  242.125;    0.000
520.314; 5082.350;  310.125;    0.000
520.447; 5032.350;  215.125;    0.000
520.579; 4992.350;  277.125;    0.000
520.712; 4932.350;  224.125;    0.000
520.844; 4782.350;  293.125;    0.000
520.976; 4805.350;  281.125;    0.000
521.109; 4754.350;  279.125;    0.000
521.241; 4720.350;  318.125;    0.000
521.373; 4710.350;  242.125;    0.000
521.506; 4557.350;  246.125;    0.000
521.638; 4667.350;  312.125;    0.000
521.770; 4461.350;  257.125;    0.000
521.903; 4416.350;  295.125;    0.000
522.035; 4479.350;  283.125;    0.000
522.167; 4371.350;  281.125;    0.000
522.300; 4408.350;  262.125;    0.000
522.432; 4433.350;  272.125;    0.000
522.564; 4376.350;  277.125;    0.000
522.696; 4340.350;  295.125;    0.000
522.828; 4332.350;  284.125;    0.000
522.961; 4300.350;  295.125;    0.000
523.093; 4347.350;  282.125;    0.000
523.225; 4282.350;  270.125;    0.000
523.357; 4168.350;  285.125;    0.000
523.489; 4180.350;  292.125;    0.000
523.621; 4214.350;  285.125;    0.000
523.753; 4190.350;  273.125;    0.000
523.885; 4113.350;  271.125;    0.000
524.018; 4090.350;  276.125;    0.000
524.150; 4042.350;  320.125;    0.000
524.282; 4083.350;  304.125;    0.000
524.414; 4059.350;  302.125;    0.000
524.546; 4087.350;  305.125;    0.000
524.678; 3971.350;  264.125;    0.000
524.810; 4097.350;  258.125;    0.000
524.942; 4020.350;  252.125;    0.000
525.074; 3950.350;  275.125;    0.000
525.206; 3964.350;  286.125;    0.000
525.338; 3966.350;  280.125;    0.000
525.469; 3899.350;  267.125;    0.000
525.601; 3868.350;  266.125;    0.000
525.733; 4037.350;  283.125;    0.000
525.865; 4020.350;  273.125;    0.000
525.997; 3927.350;  286.125;    0.000
526.129; 4006.350;  249.125;    0.000
526.261; 3900.350;  233.125;    0.000
526.393; 3879.350;  257.125;    0.000
526.524; 3884.350;  184.125;    0.000
526.656; 3866.350;  259.125;    0.000
526.788; 4009.350;  268.125;    0.000
526.920; 3852.350;  262.125;    0.000
527.052; 3792.350;  250.125;    0.000
527.183; 3886.350;  264.125;    0.000
527.315; 3793.350;  301.125;    0.000
527.447; 3869.350;  262.125;    0.000
527.578; 3852.350;  267.125;    0.000
527.710; 3830.350;  299.125;    0.000
527.842; 3875.350;  266.125;    0.000
527.973; 3897.350;  240.125;    0.000
528.105; 3853.350;  275.125;    0.000
528.237; 3934.350;  239.125;    0.000
528.368; 3817.350;  275.125;    0.000
528.500; 3888.350;  271.125;    0.000
528.632; 3859.350;  252.125;    0.000
528.763; 3871.350;  253.125;    0.000
528.895; 3807.350;  259.125;    0.000
529.026; 3831.350;  209.125;    0.000
529.158; 3724.350;  291.125;    0.000
529.289; 3828.350;  280.125;    0.000
529.421; 3870.350;  274.125;    0.000
529.552; 3822.350;  253.125;    0.000
529.684; 3798.350;  310.125;    0.000
529.815; 3856.350;  305.125;    0.000
529.947; 3810.350;  234.125;    0.000
530.078; 3835.350;  259.125;    0.000
530.210; 3765.350;  264.125;    0.000
530.341; 3725.350;  267.125;    0.000
530.472; 3814.350;  232.125;    0.000
530.604; 3843.350;  293.125;    0.000
530.735; 3734.350;  275.125;    0.000
530.867; 3833.350;  280.125;    0.000
530.998; 3907.350;  295.125;    0.000
531.129; 3809.350;  274.125;    0.000
531.260; 3900.350;  272.125;    0.000
531.392; 3833.350;  275.125;    0.000
531.523; 3945.350;  244.125;    0.000
531.654; 4042.350;  289.125;    0.000
531.786; 3971.350;  259.125;    0.000
531.917; 3928.350;  286.125;    0.000
532.048; 4051.350;  293.125;    0.000
532.179; 3963.350;  288.125;    0.000
532.311; 3989.350;  296.125;    0.000
532.442; 3814.350;  277.125;    0.000
532.573; 3938.350;  273.125;    0.000
532.704; 3814.350;  308.125;    0.000
532.835; 3892.350;  308.125;    0.000
532.966; 3913.350;  274.125;    0.000
533.097; 3805.350;  310.125;    0.000
533.229; 3735.350;  294.125;    0.000
533.360; 3889.350;  324.125;    0.000
533.491; 3838.350;  278.125;    0.000
533.622; 3827.350;  319.125;    0.000
533.753; 3799.350;  303.125;    0.000
533.884; 3792.350;  269.125;    0.000
534.015; 3911.350;  266.125;    0.000
534.146; 3961.350;  283.125;    0.000
534.277; 4062.350;  299.125;    0.000
534.408; 4000.350;  265.125;    0.000
534.539; 3914.350;  310.125;    0.000
534.670; 3930.350;  319.125;    0.000
534.801; 3917.350;  281.125;    0.000
534.932; 3909.350;  239.125;    0.000
535.063; 3892.350;  276.125;    0.000
535.194; 3897.350;  361.125;    0.000
535.324; 3741.350;  283.125;    0.000
535.455; 3797.350;  282.125;    0.000
535.586; 3839.350;  331.125;    0.000
535.717; 3722.350;  262.125;    0.000
535.848; 3923.350;  308.125;    0.000
535.979; 3727.350;  273.125;    0.000
536.109; 3763.350;  277.125;    0.000
536.240; 3684.350;  293.125;    0.000
536.371; 3675.350;  295.125;    0.000
536.502; 3712.350;  330.125;    0.000
536.632; 3794.350;  280.125;    0.000
536.763; 3754.350;  332.125;    0.000
536.894; 3764.350;  334.125;    0.000
537.025; 3738.350;  295.125;    0.000
537.155; 3630.350;  321.125;    0.000
537.286; 3639.350;  292.125;    0.000
537.417; 3795.350;  314.125;    0.000
537.547; 3680.350;  287.125;    0.000
537.678; 3633.350;  287.125;    0.000
537.808; 3719.350;  278.125;    0.000
537.939; 3666.350;  304.125;    0.000
538.070; 3788.350;  303.125;    0.000
538.200; 3652.350;  279.125;    0.000
538.331; 3729.350;  321.125;    0.000
538.461; 3646.350;  313.125;    0.000
538.592; 3707.350;  290.125;    0.000
538.722; 3706.350;  285.125;    0.000
538.853; 3652.350;  261.125;    0.000
538.983; 3641.350;  280.125;    0.000
539.114; 3703.350;  310.125;    0.000
539.244; 3708.350;  281.125;    0.000
539.375; 3631.350;  292.125;    0.000
539.505; 3646.350;  286.125;    0.000
539.636; 3641.350;  276.125;    0.000
539.766; 3604.350;  287.125;    0.000
539.896; 3688.350;  292.125;    0.000
540.027; 3644.350;  262.125;    0.000
540.157; 3643.350;  269.125;    0.000
540.287; 3637.350;  282.125;    0.000
540.418; 3714.350;  269.125;    0.000
540.548; 3662.350;  328.125;    0.000
540.678; 3648.350;  271.125;    0.000
540.809; 3694.350;  272.125;    0.000
540.939; 3665.350;  299.125;    0.000
541.069; 3803.350;  266.125;    0.000
541.200; 3727.350;  242.125;    0.000
541.330; 3786.350;  257.125;    0.000
541.460; 3791.350;  270.125;    0.000
541.590; 3751.350;  287.125;    0.000
541.720; 3630.350;  255.125;    0.000
541.851; 3822.350;  273.125;    0.000
541.981; 3837.350;  244.125;    0.000
542.111; 3816.350;  263.125;    0.000
542.241; 3934.350;  271.125;    0.000
542.371; 3941.350;  263.125;    0.000
542.501; 3961.350;  274.125;    0.000
542.631; 3983.350;  288.125;    0.000
542.761; 4138.350;  261.125;    0.000
542.891; 4069.350;  253.125;    0.000
543.021; 4051.350;  249.125;    0.000
543.151; 4117.350;  261.125;    0.000
543.281; 4058.350;  256.125;    0.000
543.411; 4013.350;  290.125;    0.000
543.542; 3953.350;  278.125;    0.000
543.671; 3984.350;  238.125;    0.000
543.801; 3959.350;  256.125;    0.000
543.931; 3963.350;  254.125;    0.000
544.061; 3953.350;  237.125;    0.000
544.191; 3803.350;  245.125;    0.000
544.321; 3944.350;  267.125;    0.000
544.451; 3952.350;  262.125;    0.000
544.581; 4012.350;  221.125;    0.000
544.711; 4093.350;  252.125;    0.000
544.841; 4074.350;  264.125;    0.000
544.970; 4114.350;  315.125;    0.000
545.100; 4228.350;  245.125;    0.000
545.230; 4464.350;  276.125;    0.000
545.360; 4281.350;  278.125;    0.000
545.490; 4197.350;  268.125;    0.000
545.619; 4055.350;  237.125;    0.000
545.749; 3968.350;  228.125;    0.000
545.879; 3988.350;  234.125;    0.000
546.009; 3879.350;  287.125;    0.000
546.138; 3975.350;  222.125;    0.000
546.268; 3934.350;  228.125;    0.000
546.398; 3884.350;  244.125;    0.000
546.527; 3962.350;  233.125;    0.000
546.657; 3834.350;  189.125;    0.000
546.786; 3970.350;  247.125;    0.000
546.916; 3957.350;  244.125;    0.000
547.046; 3936.350;  214.125;    0.000
547.175; 3911.350;  242.125;    0.000
547.305; 3977.350;  252.125;    0.000
547.434; 3911.350;  191.125;    0.000
547.564; 3933.350;  208.125;    0.000
547.693; 3934.350;  213.125;    0.000
547.823; 3914.350;  209.125;    0.000
547.953; 3937.350;  250.125;    0.000
548.082; 3962.350;  231.125;    0.000
548.211; 3879.350;  226.125;    0.000
548.341; 3973.350;  254.125;    0.000
548.470; 3951.350;  266.125;    0.000
548.600; 3793.350;  229.125;    0.000
548.729; 3849.350;  225.125;    0.000
548.859; 3848.350;  185.125;    0.000
548.988; 3847.350;  225.125;    0.000
549.117; 3794.350;  241.125;    0.000
549.247; 3983.350;  236.125;    0.000
549.376; 4053.350;  220.125;    0.000
549.505; 3900.350;  254.125;    0.000
549.635; 4014.350;  268.125;    0.000
549.764; 3947.350;  194.125;    0.000
549.893; 4034.350;  232.125;    0.000
550.023; 4021.350;  222.125;    0.000
550.152; 3880.350;  223.125;    0.000
550.281; 4023.350;  210.125;    0.000
550.410; 3958.350;  197.125;    0.000
550.539; 4059.350;  222.125;    0.000
550.669; 4021.350;  245.125;    0.000
550.798; 4052.350;  265.125;    0.000
550.927; 4052.350;  249.125;    0.000
551.056; 4045.350;  184.125;    0.000
551.185; 3948.350;  247.125;    0.000
551.314; 4001.350;  258.125;    0.000
551.443; 4014.350;  224.125;    0.000
551.573; 4000.350;  204.125;    0.000
551.702; 3967.350;  220.125;    0.000
551.831; 4074.350;  287.125;    0.000
551.960; 4039.350;  259.125;    0.000
552.089; 4015.350;  222.125;    0.000
552.218; 4098.350;  254.125;    0.000
552.347; 4078.350;  260.125;    0.000
552.476; 4233.350;  251.125;    0.000
552.605; 4286.350;  229.125;    0.000
552.734; 4338.350;  261.125;    0.000
552.863; 4551.350;  225.125;    0.000
552.992; 4527.350;  202.125;    0.000
553.121; 4457.350;  193.125;    0.000
553.249; 4347.350;  224.125;    0.000
553.378; 4375.350;  274.125;    0.000
553.507; 4138.350;  248.125;    0.000
553.636; 4206.350;  203.125;    0.000
553.765; 4151.350;  224.125;    0.000
553.894; 4072.350;  246.125;    0.000
554.023; 4156.350;  229.125;    0.000
554.151; 4145.350;  216.125;    0.000
554.280; 4195.350;  223.125;    0.000
554.409; 4124.350;  240.125;    0.000
554.538; 4154.350;  277.125;    0.000
554.666; 4140.350;  244.125;    0.000
554.795; 4119.350;  240.125;    0.000
554.924; 4028.350;  257.125;    0.000
555.052; 4196.350;  266.125;    0.000
555.181; 4105.350;  244.125;    0.000
555.310; 4062.350;  262.125;    0.000
555.439; 4020.350;  260.125;    0.000
555.567; 3932.350;  234.125;    0.000
555.696; 3894.350;  237.125;    0.000
555.824; 3929.350;  232.125;    0.000
555.953; 4115.350;  279.125;    0.000
556.082; 3984.350;  234.125;    0.000
556.210; 4072.350;  235.125;    0.000
556.339; 3935.350;  198.125;    0.000
556.467; 3977.350;  216.125;    0.000
556.596; 4044.350;  273.125;    0.000
556.724; 3914.350;  245.125;    0.000
556.853; 3862.350;  241.125;    0.000
556.981; 3802.350;  219.125;    0.000
557.110; 3891.350;  242.125;    0.000
557.238; 3964.350;  202.125;    0.000
557.367; 3875.350;  254.125;    0.000
557.495; 3787.350;  260.125;    0.000
557.623; 3891.350;  207.125;    0.000
557.752; 3818.350;  219.125;    0.000
557.880; 3864.350;  209.125;    0.000
558.008; 3934.350;  243.125;    0.000
558.137; 3998.350;  244.125;    0.000
558.265; 3888.350;  221.125;    0.000
558.393; 3941.350;  297.125;    0.000
558.522; 3880.350;  232.125;    0.000
558.650; 3913.350;  299.125;    0.000
558.778; 3911.350;  210.125;    0.000
558.906; 3870.350;  240.125;    0.000
559.035; 3965.350;  252.125;    0.000
559.163; 3928.350;  246.125;    0.000
559.291; 3901.350;  213.125;    0.000
559.419; 3916.350;  221.125;    0.000
559.548; 3809.350;  208.125;    0.000
559.676; 3963.350;  254.125;    0.000
559.804; 3982.350;  213.125;    0.000
559.932; 4057.350;  208.125;    0.000
560.060; 3994.350;  276.125;    0.000
560.188; 4041.350;  278.125;    0.000
560.316; 4012.350;  217.125;    0.000
560.444; 4083.350;  254.125;    0.000
560.572; 4077.350;  226.125;    0.000
560.700; 4279.350;  282.125;    0.000
560.828; 4197.350;  211.125;    0.000
560.956; 4136.350;  264.125;    0.000
561.085; 4252.350;  295.125;    0.000
561.212; 4211.350;  229.125;    0.000
561.340; 4286.350;  259.125;    0.000
561.468; 4221.350;  253.125;    0.000
561.596; 4082.350;  240.125;    0.000
561.724; 4086.350;  259.125;    0.000
561.852; 4172.350;  224.125;    0.000
561.980; 4271.350;  251.125;    0.000
562.108; 4239.350;  214.125;    0.000
562.236; 4289.350;  258.125;    0.000
562.364; 4241.350;  237.125;    0.000
562.492; 4294.350;  228.125;    0.000
562.619; 4326.350;  223.125;    0.000
562.747; 4396.350;  263.125;    0.000
562.875; 4333.350;  257.125;    0.000
563.003; 4351.350;  216.125;    0.000
563.130; 4389.350;  190.125;    0.000
563.258; 4493.350;  225.125;    0.000
563.386; 4596.350;  259.125;    0.000
563.514; 4563.350;  264.125;    0.000
563.641; 4742.350;  230.125;    0.000
563.769; 4773.350;  257.125;    0.000
563.897; 4751.350;  210.125;    0.000
564.024; 4958.350;  221.125;    0.000
564.152; 4926.350;  256.125;    0.000
564.280; 4889.350;  225.125;    0.000
564.407; 4981.350;  262.125;    0.000
564.535; 5020.350;  235.125;    0.000
564.662; 5025.350;  238.125;    0.000
564.790; 5105.350;  248.125;    0.000
564.917; 5109.350;  214.125;    0.000
565.045; 5181.350;  253.125;    0.000
565.173; 5062.350;  225.125;    0.000
565.300; 5257.350;  261.125;    0.000
565.428; 5231.350;  218.125;    0.000
565.555; 5353.350;  245.125;    0.000
565.682; 5391.350;  242.125;    0.000
565.810; 5501.350;  228.125;    0.000
565.937; 5713.350;  230.125;    0.000
566.065; 5784.350;  251.125;    0.000
566.192; 5919.350;  196.125;    0.000
566.320; 6198.350;  217.125;    0.000
566.447; 6147.350;  224.125;    0.000
566.574; 6341.350;  221.125;    0.000
566.702; 6460.350;  221.125;    0.000
566.829; 6672.350;  252.125;    0.000
566.956; 6643.350;  214.125;    0.000
567.083; 6586.350;  204.125;    0.000
567.211; 6767.350;  216.125;    0.000
567.338; 6750.350;  228.125;    0.000
567.465; 6864.350;  208.125;    0.000
567.593; 6804.350;  205.125;    0.000
567.720; 6889.350;  194.125;    0.000
567.847; 6984.350;  268.125;    0.000
567.974; 6963.350;  198.125;    0.000
568.101; 7436.350;  224.125;    0.000
568.228; 8686.350;  236.125;    0.000
568.356; 9131.350;  207.125;    0.000
568.483; 8782.350;  220.125;    0.000
568.610; 8538.350;  181.125;    0.000
568.737; 9960.350;  216.125;    0.000
568.864;11491.350;  258.125;    0.000
568.991;10874.350;  203.125;    0.000
569.118; 9447.350;  232.125;    0.000
569.245; 8427.350;  192.125;    0.000
569.372; 7794.350;  226.125;    0.000
569.499; 7282.350;  211.125;    0.000
569.626; 6859.350;  247.125;    0.000
569.753; 6498.350;  248.125;    0.000
569.880; 6402.350;  226.125;    0.000
570.007; 6239.350;  215.125;    0.000
570.134; 5853.350;  205.125;    0.000
570.261; 5886.350;  187.125;    0.000
570.388; 5763.350;  258.125;    0.000
570.515; 5699.350;  241.125;    0.000
570.642; 5576.350;  211.125;    0.000
570.768; 5451.350;  228.125;    0.000
570.895; 5333.350;  229.125;    0.000
571.022; 5274.350;  203.125;    0.000
571.149; 5344.350;  206.125;    0.000
571.276; 5194.350;  191.125;    0.000
571.402; 5152.350;  218.125;    0.000
571.529; 5071.350;  192.125;    0.000
571.656; 5061.350;  209.125;    0.000
571.783; 4992.350;  181.125;    0.000
571.909; 4927.350;  251.125;    0.000
572.036; 4812.350;  225.125;    0.000
572.163; 4768.350;  214.125;    0.000
572.289; 4785.350;  252.125;    0.000
572.416; 4632.350;  220.125;    0.000
572.543; 4760.350;  225.125;    0.000
572.669; 4616.350;  226.125;    0.000
572.796; 4576.350;  231.125;    0.000
572.922; 4667.350;  258.125;    0.000
573.049; 4556.350;  202.125;    0.000
573.176; 4504.350;  254.125;    0.000
573.302; 4602.350;  215.125;    0.000
573.429; 4362.350;  251.125;    0.000
573.555; 4432.350;  221.125;    0.000
573.682; 4490.350;  227.125;    0.000
573.808; 4530.350;  259.125;    0.000
573.935; 4319.350;  233.125;    0.000
574.061; 4475.350;  241.125;    0.000
574.188; 4390.350;  238.125;    0.000
574.314; 4339.350;  221.125;    0.000
574.440; 4431.350;  221.125;    0.000
574.567; 4336.350;  216.125;    0.000
574.693; 4428.350;  224.125;    0.000
574.820; 4297.350;  199.125;    0.000
574.946; 4352.350;  248.125;    0.000
575.072; 4358.350;  220.125;    0.000
575.198; 4360.350;  262.125;    0.000
575.325; 4300.350;  232.125;    0.000
575.451; 4321.350;  225.125;    0.000
575.577; 4268.350;  216.125;    0.000
575.704; 4343.350;  248.125;    0.000
575.830; 4320.350;  227.125;    0.000
575.956; 4308.350;  206.125;    0.000
576.082; 4345.350;  222.125;    0.000
576.208; 4230.350;  206.125;    0.000
576.335; 4340.350;  256.125;    0.000
576.461; 4300.350;  247.125;    0.000
576.587; 4308.350;  219.125;    0.000
576.713; 4323.350;  215.125;    0.000
576.839; 4197.350;  225.125;    0.000
576.965; 4296.350;  230.125;    0.000
577.091; 4248.350;  235.125;    0.000
577.217; 4364.350;  235.125;    0.000
577.343; 4242.350;  233.125;    0.000
577.469; 4283.350;  242.125;    0.000
577.596; 4254.350;  241.125;    0.000
577.722; 4348.350;  255.125;    0.000
577.848; 4286.350;  235.125;    0.000
577.974; 4389.350;  210.125;    0.000
578.099; 4264.350;  239.125;    0.000
578.225; 4387.350;  258.125;    0.000
578.351; 4364.350;  209.125;    0.000
578.477; 4335.350;  255.125;    0.000
578.603; 4261.350;  213.125;    0.000
578.729; 4272.350;  221.125;    0.000
578.855; 4334.350;  209.125;    0.000
578.981; 4390.350;  206.125;    0.000
579.107; 4288.350;  221.125;    0.000
579.232; 4321.350;  206.125;    0.000
579.358; 4442.350;  226.125;    0.000
579.484; 4395.350;  244.125;    0.000
579.610; 4465.350;  261.125;    0.000
579.735; 4400.350;  270.125;    0.000
579.861; 4347.350;  255.125;    0.000
579.987; 4461.350;  249.125;    0.000
580.113; 4470.350;  260.125;    0.000
580.238; 4431.350;  206.125;    0.000
580.364; 4582.350;  249.125;    0.000
580.490; 4470.350;  225.125;    0.000
580.615; 4485.350;  266.125;    0.000
580.741; 4291.350;  224.125;    0.000
580.867; 4580.350;  251.125;    0.000
580.992; 4581.350;  270.125;    0.000
581.118; 4621.350;  248.125;    0.000
581.243; 4599.350;  251.125;    0.000
581.369; 4642.350;  192.125;    0.000
581.494; 4588.350;  259.125;    0.000
581.620; 4573.350;  245.125;    0.000
581.745; 4727.350;  232.125;    0.000
581.871; 4652.350;  243.125;    0.000
581.996; 4803.350;  216.125;    0.000
582.122; 4892.350;  263.125;    0.000
582.247; 4783.350;  254.125;    0.000
582.373; 4732.350;  232.125;    0.000
582.498; 4890.350;  275.125;    0.000
582.624; 4836.350;  260.125;    0.000
582.749; 4944.350;  251.125;    0.000
582.874; 4934.350;  245.125;    0.000
583.000; 5020.350;  278.125;    0.000
583.125; 4963.350;  211.125;    0.000
583.250; 5112.350;  246.125;    0.000
583.376; 5330.350;  259.125;    0.000
583.501; 5273.350;  254.125;    0.000
583.626; 5158.350;  209.125;    0.000
583.751; 5296.350;  239.125;    0.000
583.877; 5462.350;  255.125;    0.000
584.002; 5499.350;  263.125;    0.000
584.127; 5551.350;  205.125;    0.000
584.252; 5585.350;  196.125;    0.000
584.377; 5730.350;  249.125;    0.000
584.503; 5705.350;  219.125;    0.000
584.628; 5832.350;  243.125;    0.000
584.753; 6014.350;  250.125;    0.000
584.878; 6027.350;  208.125;    0.000
585.003; 6191.350;  234.125;    0.000
585.128; 6319.350;  207.125;    0.000
585.253; 6574.350;  219.125;    0.000
585.378; 6599.350;  205.125;    0.000
585.503; 6728.350;  256.125;    0.000
585.628; 6928.350;  217.125;    0.000
585.753; 7172.350;  213.125;    0.000
585.878; 7115.350;  147.125;    0.000
586.003; 7390.350;  256.125;    0.000
586.128; 7594.350;  214.125;    0.000
586.253; 7838.350;  254.125;    0.000
586.378; 8174.350;  252.125;    0.000
586.503; 8458.350;  219.125;    0.000
586.628; 8771.350;  226.125;    0.000
586.753; 9269.350;  237.125;    0.000
586.878; 9791.350;  185.125;    0.000
587.003;10171.350;  248.125;    0.000
587.127;10701.350;  237.125;    0.000
587.252;11326.350;  221.125;    0.000
587.377;12085.350;  244.125;    0.000
587.502;12772.350;  260.125;    0.000
587.627;13938.350;  232.125;    0.000
587.751;15207.350;  250.125;    0.000
587.876;16473.350;  234.125;    0.000
588.001;18093.350;  248.125;    0.000
588.125;20388.350;  236.125;    0.000
588.250;23107.350;  192.125;    0.000
588.375;26794.350;  265.125;    0.000
588.499;31111.350;  235.125;    0.000
588.624;36871.352;  212.125;    0.000
588.749;44882.352;  214.125;    0.000
588.873;53650.352;  236.125;    0.000
588.998;62129.352;  230.125;    0.000
589.122;64808.352;  231.125;    0.000
589.247;60032.352;  250.125;    0.000
589.372;54281.352;  247.125;    0.000
589.496;54935.352;  230.125;    0.000
589.621;58721.352;  237.125;    0.000
589.745;57760.352;  277.125;    0.000
589.870;48800.352;  283.125;    0.000
589.994;39237.352;  263.125;    0.000
590.118;32702.350;  239.125;    0.000
590.243;28137.350;  218.125;    0.000
590.367;24220.350;  226.125;    0.000
590.492;21462.350;  269.125;    0.000
590.616;19353.350;  205.125;    0.000
590.740;17675.350;  243.125;    0.000
590.865;16151.350;  281.125;    0.000
590.989;15046.350;  233.125;    0.000
591.114;13831.350;  222.125;    0.000
591.238;12935.350;  204.125;    0.000
591.362;12416.350;  283.125;    0.000
591.486;11768.350;  236.125;    0.000
591.611;11161.350;  228.125;    0.000
591.735;10702.350;  249.125;    0.000
591.859;10218.350;  202.125;    0.000
591.983; 9826.350;  257.125;    0.000
592.107; 9748.350;  230.125;    0.000
592.232; 9299.350;  266.125;    0.000
592.356; 8985.350;  232.125;    0.000
592.480; 8641.350;  245.125;    0.000
592.604; 8507.350;  254.125;    0.000
592.728; 8368.350;  233.125;    0.000
592.852; 8058.350;  213.125;    0.000
592.976; 7773.350;  234.125;    0.000
593.100; 7801.350;  246.125;    0.000
593.224; 7660.350;  305.125;    0.000
593.349; 7416.350;  240.125;    0.000
593.473; 7371.350;  206.125;    0.000
593.597; 7189.350;  243.125;    0.000
593.721; 6999.350;  247.125;    0.000
593.844; 7056.350;  230.125;    0.000
593.968; 6820.350;  226.125;    0.000
594.092; 6742.350;  193.125;    0.000
594.216; 6575.350;  237.125;    0.000
594.340; 6534.350;  235.125;    0.000
594.464; 6370.350;  225.125;    0.000
594.588; 6282.350;  269.125;    0.000
594.712; 6055.350;  242.125;    0.000
594.836; 6046.350;  240.125;    0.000
594.959; 5957.350;  255.125;    0.000
595.083; 5827.350;  258.125;    0.000
595.207; 5745.350;  264.125;    0.000
595.331; 5720.350;  215.125;    0.000
595.455; 5597.350;  234.125;    0.000
595.578; 5615.350;  215.125;    0.000
595.702; 5498.350;  259.125;    0.000
595.826; 5405.350;  232.125;    0.000
595.949; 5246.350;  251.125;    0.000
596.073; 5217.350;  197.125;    0.000
596.197; 5162.350;  239.125;    0.000
596.320; 5109.350;  229.125;    0.000
596.444; 5051.350;  264.125;    0.000
596.568; 5011.350;  207.125;    0.000
596.691; 4953.350;  234.125;    0.000
596.815; 4841.350;  241.125;    0.000
596.938; 4863.350;  244.125;    0.000
597.062; 4766.350;  210.125;    0.000
597.186; 4684.350;  247.125;    0.000
597.309; 4657.350;  215.125;    0.000
597.433; 4669.350;  266.125;    0.000
597.556; 4708.350;  234.125;    0.000
597.680; 4711.350;  261.125;    0.000
597.803; 4556.350;  239.125;    0.000
597.926; 4579.350;  251.125;    0.000
598.050; 4573.350;  227.125;    0.000
598.173; 4390.350;  247.125;    0.000
598.297; 4390.350;  244.125;    0.000
598.420; 4366.350;  243.125;    0.000
598.543; 4396.350;  237.125;    0.000
598.667; 4349.350;  239.125;    0.000
598.790; 4287.350;  217.125;    0.000
598.913; 4295.350;  244.125;    0.000
599.037; 4235.350;  249.125;    0.000
599.160; 4114.350;  222.125;    0.000
599.283; 4301.350;  235.125;    0.000
599.406; 4196.350;  228.125;    0.000
599.530; 4146.350;  234.125;    0.000
599.653; 4160.350;  228.125;    0.000
599.776; 4147.350;  263.125;    0.000
599.899; 4149.350;  197.125;    0.000
600.022; 4150.350;  224.125;    0.000
600.145; 4071.350;  211.125;    0.000
600.269; 4120.350;  246.125;    0.000
600.392; 4034.350;  233.125;    0.000
600.515; 4029.350;  266.125;    0.000
600.638; 3935.350;  246.125;    0.000
600.761; 4002.350;  213.125;    0.000
600.884; 3970.350;  279.125;    0.000
601.007; 3961.350;  268.125;    0.000
601.130; 3951.350;  203.125;    0.000
601.253; 4014.350;  241.125;    0.000
601.376; 3999.350;  248.125;    0.000
601.499; 4045.350;  241.125;    0.000
601.622; 3991.350;  266.125;    0.000
601.745; 3810.350;  237.125;    0.000
601.868; 3953.350;  256.125;    0.000
601.991; 3990.350;  260.125;    0.000
602.113; 3863.350;  246.125;    0.000
602.236; 3912.350;  243.125;    0.000
602.359; 3941.350;  220.125;    0.000
602.482; 3891.350;  236.125;    0.000
602.605; 3803.350;  216.125;    0.000
602.728; 3802.350;  247.125;    0.000
602.850; 3816.350;  255.125;    0.000
602.973; 3865.350;  224.125;    0.000
603.096; 3812.350;  258.125;    0.000
603.219; 3710.350;  222.125;    0.000
603.341; 3859.350;  235.125;    0.000
603.464; 3744.350;  223.125;    0.000
603.587; 3723.350;  250.125;    0.000
603.709; 3738.350;  229.125;    0.000
603.832; 3657.350;  285.125;    0.000
603.955; 3784.350;  225.125;    0.000
604.077; 3726.350;  235.125;    0.000
604.200; 3662.350;  209.125;    0.000
604.323; 3705.350;  240.125;    0.000
604.445; 3697.350;  198.125;    0.000
604.568; 3752.350;  230.125;    0.000
604.690; 3621.350;  225.125;    0.000
604.813; 3725.350;  248.125;    0.000
604.935; 3661.350;  204.125;    0.000
605.058; 3603.350;  191.125;    0.000
605.180; 3684.350;  237.125;    0.000
605.303; 3643.350;  224.125;    0.000
605.425; 3655.350;  244.125;    0.000
605.547; 3715.350;  268.125;    0.000
605.670; 3586.350;  211.125;    0.000
605.792; 3646.350;  266.125;    0.000
605.915; 3562.350;  202.125;    0.000
606.037; 3606.350;  236.125;    0.000
606.159; 3580.350;  234.125;    0.000
606.282; 3665.350;  223.125;    0.000
606.404; 3689.350;  217.125;    0.000
606.526; 3541.350;  221.125;    0.000
606.648; 3551.350;  204.125;    0.000
606.771; 3632.350;  265.125;    0.000
606.893; 3495.350;  211.125;    0.000
607.015; 3569.350;  206.125;    0.000
607.137; 3451.350;  222.125;    0.000
607.260; 3586.350;  228.125;    0.000
607.382; 3528.350;  202.125;    0.000
607.504; 3612.350;  257.125;    0.000
607.626; 3573.350;  249.125;    0.000
607.748; 3506.350;  233.125;    0.000
607.870; 3489.350;  222.125;    0.000
607.992; 3514.350;  227.125;    0.000
608.114; 3564.350;  228.125;    0.000
608.237; 3563.350;  254.125;    0.000
608.359; 3405.350;  216.125;    0.000
608.481; 3441.350;  197.125;    0.000
608.603; 3581.350;  209.125;    0.000
608.725; 3492.350;  220.125;    0.000
608.847; 3598.350;  259.125;    0.000
608.969; 3595.350;  242.125;    0.000
609.090; 3491.350;  218.125;    0.000
609.212; 3417.350;  200.125;    0.000
609.334; 3534.350;  212.125;    0.000
609.456; 3433.350;  231.125;    0.000
609.578; 3350.350;  249.125;    0.000
609.700; 3466.350;  185.125;    0.000
609.822; 3363.350;  200.125;    0.000
609.944; 3461.350;  236.125;    0.000
610.065; 3473.350;  255.125;    0.000
610.187; 3447.350;  208.125;    0.000
610.309; 3387.350;  202.125;    0.000
610.431; 3438.350;  232.125;    0.000
610.552; 3433.350;  232.125;    0.000
610.674; 3375.350;  217.125;    0.000
610.796; 3414.350;  186.125;    0.000
610.918; 3342.350;  211.125;    0.000
611.039; 3427.350;  244.125;    0.000
611.161; 3449.350;  202.125;    0.000
611.282; 3422.350;  212.125;    0.000
611.404; 3421.350;  235.125;    0.000
611.526; 3479.350;  213.125;    0.000
611.647; 3390.350;  248.125;    0.000
611.769; 3391.350;  205.125;    0.000
611.890; 3343.350;  224.125;    0.000
612.012; 3305.350;  189.125;    0.000
612.133; 3442.350;  186.125;    0.000
612.255; 3391.350;  246.125;    0.000
612.377; 3348.350;  230.125;    0.000
612.498; 3310.350;  196.125;    0.000
612.619; 3355.350;  234.125;    0.000
612.741; 3319.350;  221.125;    0.000
612.862; 3360.350;  227.125;    0.000
612.984; 3410.350;  189.125;    0.000
613.105; 3443.350;  232.125;    0.000
613.226; 3334.350;  199.125;    0.000
613.348; 3416.350;  260.125;    0.000
613.469; 3408.350;  217.125;    0.000
613.590; 3303.350;  236.125;    0.000
613.712; 3308.350;  226.125;    0.000
613.833; 3407.350;  231.125;    0.000
613.954; 3308.350;  236.125;    0.000
614.076; 3374.350;  236.125;    0.000
614.197; 3278.350;  228.125;    0.000
614.318; 3292.350;  207.125;    0.000
614.439; 3470.350;  237.125;    0.000
614.560; 3368.350;  202.125;    0.000
614.682; 3319.350;  230.125;    0.000
614.803; 3385.350;  236.125;    0.000
614.924; 3344.350;  257.125;    0.000
615.045; 3425.350;  228.125;    0.000
615.166; 3388.350;  221.125;    0.000
615.287; 3768.350;  199.125;    0.000
615.408; 4311.350;  228.125;    0.000
615.529; 4618.350;  200.125;    0.000
615.650; 4061.350;  224.125;    0.000
615.771; 3836.350;  202.125;    0.000
615.892; 3898.350;  215.125;    0.000
616.013; 4858.350;  246.125;    0.000
616.134; 5583.350;  210.125;    0.000
616.255; 5189.350;  232.125;    0.000
616.376; 4452.350;  241.125;    0.000
616.497; 4007.350;  213.125;    0.000
616.618; 3831.350;  171.125;    0.000
616.739; 3810.350;  221.125;    0.000
616.860; 3705.350;  244.125;    0.000
616.981; 3576.350;  240.125;    0.000
617.102; 3532.350;  234.125;    0.000
617.222; 3562.350;  265.125;    0.000
617.343; 3623.350;  206.125;    0.000
617.464; 3459.350;  246.125;    0.000
617.585; 3456.350;  256.125;    0.000
617.705; 3386.350;  249.125;    0.000
617.826; 3441.350;  218.125;    0.000
617.947; 3368.350;  225.125;    0.000
618.068; 3386.350;  199.125;    0.000
618.188; 3382.350;  202.125;    0.000
618.309; 3469.350;  220.125;    0.000
618.430; 3387.350;  229.125;    0.000
618.550; 3336.350;  252.125;    0.000
618.671; 3311.350;  233.125;    0.000
618.791; 3331.350;  227.125;    0.000
618.912; 3359.350;  236.125;    0.000
619.033; 3342.350;  220.125;    0.000
619.153; 3280.350;  228.125;    0.000
619.274; 3238.350;  208.125;    0.000
619.394; 3270.350;  255.125;    0.000
619.515; 3222.350;  206.125;    0.000
619.635; 3207.350;  204.125;    0.000
619.756; 3194.350;  252.125;    0.000
619.876; 3267.350;  238.125;    0.000
619.996; 3335.350;  249.125;    0.000
620.117; 3275.350;  223.125;    0.000
620.237; 3206.350;  210.125;    0.000
620.358; 3265.350;  264.125;    0.000
620.478; 3354.350;  263.125;    0.000
620.598; 3208.350;  238.125;    0.000
620.719; 3244.350;  225.125;    0.000
620.839; 3195.350;  259.125;    0.000
620.959; 3125.350;  218.125;    0.000
621.079; 3125.350;  253.125;    0.000
621.200; 3146.350;  245.125;    0.000
621.320; 3258.350;  254.125;    0.000
621.440; 3160.350;  233.125;    0.000
621.560; 3175.350;  235.125;    0.000
621.681; 3117.350;  234.125;    0.000
621.801; 3151.350;  240.125;    0.000
621.921; 3113.350;  239.125;    0.000
622.041; 3272.350;  288.125;    0.000
622.161; 3086.350;  229.125;    0.000
622.281; 3173.350;  223.125;    0.000
622.401; 3188.350;  240.125;    0.000
622.521; 3117.350;  267.125;    0.000
622.641; 3076.350;  226.125;    0.000
622.761; 3193.350;  252.125;    0.000
622.882; 3173.350;  207.125;    0.000
623.002; 3098.350;  226.125;    0.000
623.121; 3089.350;  207.125;    0.000
623.241; 3094.350;  215.125;    0.000
623.361; 2953.350;  222.125;    0.000
623.481; 3069.350;  187.125;    0.000
623.601; 3057.350;  283.125;    0.000
623.721; 3149.350;  283.125;    0.000
623.841; 3013.350;  233.125;    0.000
623.961; 3123.350;  215.125;    0.000
624.081; 3025.350;  219.125;    0.000
624.201; 3073.350;  221.125;    0.000
624.320; 3051.350;  215.125;    0.000
624.440; 3091.350;  222.125;    0.000
624.560; 3058.350;  231.125;    0.000
624.680; 3025.350;  225.125;    0.000
624.799; 3021.350;  230.125;    0.000
624.919; 3040.350;  243.125;    0.000
625.039; 2960.350;  203.125;    0.000
625.159; 3075.350;  257.125;    0.000
625.278; 3021.350;  230.125;    0.000
625.398; 2937.350;  195.125;    0.000
625.518; 2956.350;  211.125;    0.000
625.637; 3054.350;  267.125;    0.000
625.757; 2948.350;  228.125;    0.000
625.876; 3027.350;  231.125;    0.000
625.996; 3015.350;  219.125;    0.000
626.115; 3036.350;  235.125;    0.000
626.235; 2991.350;  199.125;    0.000
626.354; 3000.350;  226.125;    0.000
626.474; 2944.350;  225.125;    0.000
626.594; 2982.350;  223.125;    0.000
626.713; 2972.350;  231.125;    0.000
626.832; 3104.350;  287.125;    0.000
626.952; 2896.350;  251.125;    0.000
627.071; 2954.350;  254.125;    0.000
627.191; 2943.350;  193.125;    0.000
627.310; 2946.350;  213.125;    0.000
627.429; 2982.350;  259.125;    0.000
627.549; 2962.350;  243.125;    0.000
627.668; 2897.350;  181.125;    0.000
627.787; 3030.350;  232.125;    0.000
627.907; 3005.350;  222.125;    0.000
628.026; 2989.350;  219.125;    0.000
628.145; 2927.350;  201.125;    0.000
628.264; 2951.350;  198.125;    0.000
628.384; 2965.350;  208.125;    0.000
628.503; 2979.350;  251.125;    0.000
628.622; 2941.350;  195.125;    0.000
628.741; 2984.350;  180.125;    0.000
628.860; 2944.350;  235.125;    0.000
628.980; 3023.350;  222.125;    0.000
629.099; 2980.350;  237.125;    0.000
629.218; 2921.350;  175.125;    0.000
629.337; 2980.350;  194.125;    0.000
629.456; 2972.350;  225.125;    0.000
629.575; 2962.350;  239.125;    0.000
629.694; 2974.350;  230.125;    0.000
629.813; 2955.350;  197.125;    0.000
629.932; 2958.350;  225.125;    0.000
630.051; 2880.350;  238.125;    0.000
630.170; 2953.350;  233.125;    0.000
630.289; 2879.350;  231.125;    0.000
630.408; 2900.350;  204.125;    0.000
630.527; 2979.350;  262.125;    0.000
630.646; 2848.350;  181.125;    0.000
630.764; 2861.350;  218.125;    0.000
630.883; 2914.350;  215.125;    0.000
631.002; 2920.350;  224.125;    0.000
631.121; 2904.350;  209.125;    0.000
631.240; 2950.350;  230.125;    0.000
631.359; 2925.350;  235.125;    0.000
631.477; 2955.350;  223.125;    0.000
631.596; 2882.350;  218.125;    0.000
631.715; 2956.350;  234.125;    0.000
631.834; 2837.350;  215.125;    0.000
631.952; 2963.350;  243.125;    0.000
632.071; 2868.350;  219.125;    0.000
632.190; 2867.350;  235.125;    0.000
632.308; 2810.350;  239.125;    0.000
632.427; 2907.350;  211.125;    0.000
632.546; 2840.350;  233.125;    0.000
632.664; 2914.350;  219.125;    0.000
632.783; 2878.350;  203.125;    0.000
632.901; 2861.350;  221.125;    0.000
633.020; 2796.350;  197.125;    0.000
633.138; 2898.350;  244.125;    0.000
633.257; 2859.350;  205.125;    0.000
633.375; 2877.350;  245.125;    0.000
633.494; 2841.350;  218.125;    0.000
633.612; 2832.350;  222.125;    0.000
633.731; 2845.350;  212.125;    0.000
633.849; 2860.350;  218.125;    0.000
633.968; 2833.350;  236.125;    0.000
634.086; 2703.350;  233.125;    0.000
634.204; 2848.350;  215.125;    0.000
634.323; 2869.350;  230.125;    0.000
634.441; 2802.350;  235.125;    0.000
634.559; 2749.350;  202.125;    0.000
634.678; 2796.350;  218.125;    0.000
634.796; 2794.350;  203.125;    0.000
634.914; 2793.350;  227.125;    0.000
635.032; 2779.350;  279.125;    0.000
635.151; 2855.350;  221.125;    0.000
635.269; 2708.350;  207.125;    0.000
635.387; 2849.350;  195.125;    0.000
635.505; 2801.350;  243.125;    0.000
635.623; 2822.350;  269.125;    0.000
635.742; 2760.350;  232.125;    0.000
635.860; 2738.350;  243.125;    0.000
635.978; 2841.350;  215.125;    0.000
636.096; 2787.350;  225.125;    0.000
636.214; 2747.350;  244.125;    0.000
636.332; 2768.350;  226.125;    0.000
636.450; 2813.350;  227.125;    0.000
636.568; 2773.350;  225.125;    0.000
636.686; 2750.350;  194.125;    0.000
636.804; 2752.350;  234.125;    0.000
636.922; 2788.350;  177.125;    0.000
637.040; 2769.350;  225.125;    0.000
637.158; 2845.350;  194.125;    0.000
637.276; 2757.350;  219.125;    0.000
637.394; 2748.350;  219.125;    0.000
637.512; 2780.350;  210.125;    0.000
637.629; 2731.350;  242.125;    0.000
637.747; 2733.350;  193.125;    0.000
637.865; 2741.350;  219.125;    0.000
637.983; 2646.350;  251.125;    0.000
638.101; 2710.350;  221.125;    0.000
638.218; 2682.350;  193.125;    0.000
638.336; 2785.350;  224.125;    0.000
638.454; 2703.350;  227.125;    0.000
638.572; 2767.350;  245.125;    0.000
638.689; 2775.350;  222.125;    0.000
638.807; 2781.350;  244.125;    0.000
638.925; 2689.350;  238.125;    0.000
639.042; 2726.350;  213.125;    0.000
639.160; 2730.350;  186.125;    0.000
639.278; 2666.350;  203.125;    0.000
639.395; 2709.350;  270.125;    0.000
639.513; 2685.350;  227.125;    0.000
639.630; 2755.350;  200.125;    0.000
639.748; 2601.350;  199.125;    0.000
639.865; 2757.350;  233.125;    0.000
639.983; 2757.350;  181.125;    0.000
640.100; 2721.350;  219.125;    0.000
640.218; 2698.350;  234.125;    0.000
640.335; 2677.350;  233.125;    0.000
640.453; 2709.350;  202.125;    0.000
640.570; 2661.350;  214.125;    0.000
640.688; 2751.350;  215.125;    0.000
640.805; 2707.350;  229.125;    0.000
640.922; 2759.350;  244.125;    0.000
641.040; 2693.350;  233.125;    0.000
641.157; 2653.350;  199.125;    0.000
641.274; 2714.350;  205.125;    0.000
641.391; 2718.350;  244.125;    0.000
641.509; 2650.350;  184.125;    0.000
641.626; 2745.350;  244.125;    0.000
641.743; 2643.350;  221.125;    0.000
641.860; 2731.350;  206.125;    0.000
641.978; 2739.350;  272.125;    0.000
642.095; 2671.350;  218.125;    0.000
642.212; 2673.350;  208.125;    0.000
642.329; 2660.350;  218.125;    0.000
642.446; 2640.350;  197.125;    0.000
642.563; 2710.350;  214.125;    0.000
642.681; 2612.350;  203.125;    0.000
642.798; 2643.350;  236.125;    0.000
642.915; 2712.350;  191.125;    0.000
643.032; 2608.350;  226.125;    0.000
643.149; 2643.350;  231.125;    0.000
643.266; 2586.350;  213.125;    0.000
643.383; 2586.350;  240.125;    0.000
643.500; 2634.350;  185.125;    0.000
643.617; 2606.350;  229.125;    0.000
643.734; 2654.350;  205.125;    0.000
643.850; 2669.350;  222.125;    0.000
643.967; 2655.350;  202.125;    0.000
644.084; 2699.350;  264.125;    0.000
644.201; 2643.350;  214.125;    0.000
644.318; 2677.350;  206.125;    0.000
644.435; 2621.350;  225.125;    0.000
644.552; 2730.350;  203.125;    0.000
644.668; 2756.350;  252.125;    0.000
644.785; 2802.350;  213.125;    0.000
644.902; 2691.350;  233.125;    0.000
645.019; 2699.350;  220.125;    0.000
645.135; 2687.350;  225.125;    0.000
645.252; 2676.350;  218.125;    0.000
645.369; 2751.350;  214.125;    0.000
645.485; 2774.350;  210.125;    0.000
645.602; 2692.350;  198.125;    0.000
645.719; 2768.350;  228.125;    0.000
645.835; 2810.350;  209.125;    0.000
645.952; 2822.350;  213.125;    0.000
646.068; 2813.350;  241.125;    0.000
646.185; 2780.350;  219.125;    0.000
646.302; 2760.350;  246.125;    0.000
646.418; 2739.350;  228.125;    0.000
646.535; 2785.350;  256.125;    0.000
646.651; 2861.350;  222.125;    0.000
646.768; 2810.350;  203.125;    0.000
646.884; 2826.350;  199.125;    0.000
647.000; 2758.350;  194.125;    0.000
647.117; 2885.350;  214.125;    0.000
647.233; 2781.350;  209.125;    0.000
647.350; 2851.350;  235.125;    0.000
647.466; 2825.350;  237.125;    0.000
647.582; 2799.350;  231.125;    0.000
647.699; 2945.350;  219.125;    0.000
647.815; 2871.350;  200.125;    0.000
647.931; 2988.350;  173.125;    0.000
648.047; 2889.350;  184.125;    0.000
648.164; 2828.350;  199.125;    0.000
648.280; 2883.350;  209.125;    0.000
648.396; 2876.350;  220.125;    0.000
648.512; 2942.350;  212.125;    0.000
648.629; 2885.350;  214.125;    0.000
648.745; 2890.350;  197.125;    0.000
648.861; 2938.350;  228.125;    0.000
648.977; 2826.350;  238.125;    0.000
649.093; 2841.350;  208.125;    0.000
649.209; 2873.350;  179.125;    0.000
649.325; 2961.350;  256.125;    0.000
649.441; 2963.350;  224.125;    0.000
649.557; 2931.350;  247.125;    0.000
649.673; 2955.350;  214.125;    0.000
649.789; 2867.350;  213.125;    0.000
649.905; 2857.350;  170.125;    0.000
650.021; 2924.350;  236.125;    0.000
650.137; 2894.350;  229.125;    0.000
650.253; 2870.350;  207.125;    0.000
650.369; 2894.350;  198.125;    0.000
650.485; 2843.350;  225.125;    0.000
650.601; 2920.350;  260.125;    0.000
650.717; 2931.350;  196.125;    0.000
650.833; 2947.350;  219.125;    0.000
650.948; 2997.350;  203.125;    0.000
651.064; 2962.350;  232.125;    0.000
651.180; 2958.350;  252.125;    0.000
651.296; 2994.350;  190.125;    0.000
651.411; 2932.350;  235.125;    0.000
651.527; 2991.350;  227.125;    0.000
651.643; 3019.350;  238.125;    0.000
651.759; 3087.350;  260.125;    0.000
651.874; 3015.350;  217.125;    0.000
651.990; 3038.350;  239.125;    0.000
652.105; 3034.350;  215.125;    0.000
652.221; 3106.350;  237.125;    0.000
652.337; 3088.350;  238.125;    0.000
652.452; 3142.350;  230.125;    0.000
652.568; 3023.350;  201.125;    0.000
652.683; 3125.350;  243.125;    0.000
652.799; 3231.350;  218.125;    0.000
652.914; 3134.350;  189.125;    0.000
653.030; 3209.350;  191.125;    0.000
653.145; 3282.350;  240.125;    0.000
653.261; 3201.350;  225.125;    0.000
653.376; 3312.350;  241.125;    0.000
653.492; 3305.350;  188.125;    0.000
653.607; 3337.350;  219.125;    0.000
653.722; 3325.350;  268.125;    0.000
653.838; 3451.350;  262.125;    0.000
653.953; 3434.350;  188.125;    0.000
654.068; 3549.350;  244.125;    0.000
654.184; 3605.350;  247.125;    0.000
654.299; 3611.350;  228.125;    0.000
654.414; 3640.350;  181.125;    0.000
654.530; 3693.350;  210.125;    0.000
654.645; 3749.350;  240.125;    0.000
654.760; 3805.350;  219.125;    0.000
654.875; 3850.350;  178.125;    0.000
654.990; 4120.350;  222.125;    0.000
655.106; 4077.350;  227.125;    0.000
655.221; 4137.350;  270.125;    0.000
655.336; 4193.350;  199.125;    0.000
655.451; 4365.350;  235.125;    0.000
655.566; 4492.350;  251.125;    0.000
655.681; 4737.350;  253.125;    0.000
655.796; 4887.350;  207.125;    0.000
655.911; 5197.350;  213.125;    0.000
656.026; 5303.350;  247.125;    0.000
656.141; 5492.350;  209.125;    0.000
656.256; 5809.350;  226.125;    0.000
656.371; 5642.350;  201.125;    0.000
656.486; 5719.350;  196.125;    0.000
656.601; 5532.350;  239.125;    0.000
656.716; 5478.350;  234.125;    0.000
656.831; 5357.350;  223.125;    0.000
656.946; 5237.350;  246.125;    0.000
657.060; 5028.350;  230.125;    0.000
657.175; 4722.350;  207.125;    0.000
657.290; 4729.350;  213.125;    0.000
657.405; 4659.350;  319.125;    0.000
657.520; 4473.350;  241.125;    0.000
657.634; 4440.350;  235.125;    0.000
657.749; 4383.350;  275.125;    0.000
657.864; 4285.350;  210.125;    0.000
657.979; 4244.350;  227.125;    0.000
658.093; 4145.350;  206.125;    0.000
658.208; 3968.350;  217.125;    0.000
658.323; 3934.350;  227.125;    0.000
658.437; 3857.350;  217.125;    0.000
658.552; 3922.350;  237.125;    0.000
658.666; 3819.350;  233.125;    0.000
658.781; 3836.350;  248.125;    0.000
658.895; 3709.350;  233.125;    0.000
659.010; 3611.350;  238.125;    0.000
659.125; 3617.350;  206.125;    0.000
659.239; 3548.350;  220.125;    0.000
659.353; 3486.350;  236.125;    0.000
659.468; 3385.350;  238.125;    0.000
659.582; 3442.350;  275.125;    0.000
659.697; 3399.350;  239.125;    0.000
659.811; 3420.350;  232.125;    0.000
659.926; 3259.350;  230.125;    0.000
660.040; 3279.350;  257.125;    0.000
660.154; 3281.350;  221.125;    0.000
660.269; 3272.350;  219.125;    0.000
660.383; 3280.350;  228.125;    0.000
660.497; 3360.350;  243.125;    0.000
660.612; 3114.350;  238.125;    0.000
660.726; 3297.350;  260.125;    0.000
660.840; 3122.350;  239.125;    0.000
660.954; 3076.350;  236.125;    0.000
661.068; 3130.350;  239.125;    0.000
661.183; 3109.350;  245.125;    0.000
661.297; 3037.350;  198.125;    0.000
661.411; 3071.350;  203.125;    0.000
661.525; 2996.350;  244.125;    0.000
661.639; 2973.350;  229.125;    0.000
661.753; 2881.350;  238.125;    0.000
661.867; 2993.350;  237.125;    0.000
661.981; 2852.350;  219.125;    0.000
662.095; 2874.350;  232.125;    0.000
662.209; 2853.350;  236.125;    0.000
662.323; 2857.350;  209.125;    0.000
662.437; 2717.350;  206.125;    0.000
662.551; 2836.350;  217.125;    0.000
662.665; 2885.350;  262.125;    0.000
662.779; 2799.350;  234.125;    0.000
662.893; 2779.350;  222.125;    0.000
663.007; 2693.350;  189.125;    0.000
663.121; 2738.350;  258.125;    0.000
663.235; 2721.350;  191.125;    0.000
663.349; 2666.350;  259.125;    0.000
663.462; 2654.350;  209.125;    0.000
663.576; 2563.350;  244.125;    0.000
663.690; 2651.350;  237.125;    0.000
663.804; 2685.350;  205.125;    0.000
663.917; 2553.350;  207.125;    0.000
664.031; 2601.350;  234.125;    0.000
664.145; 2632.350;  216.125;    0.000
664.258; 2470.350;  202.125;    0.000
664.372; 2625.350;  198.125;    0.000
664.486; 2533.350;  181.125;    0.000
664.599; 2507.350;  229.125;    0.000
664.713; 2548.350;  266.125;    0.000
664.827; 2433.350;  185.125;    0.000
664.940; 2527.350;  225.125;    0.000
665.054; 2509.350;  198.125;    0.000
665.167; 2480.350;  208.125;    0.000
665.281; 2502.350;  231.125;    0.000
665.394; 2503.350;  228.125;    0.000
665.508; 2416.350;  204.125;    0.000
665.621; 2521.350;  263.125;    0.000
665.735; 2494.350;  222.125;    0.000
665.848; 2403.350;  237.125;    0.000
665.961; 2444.350;  180.125;    0.000
666.075; 2474.350;  212.125;    0.000
666.188; 2481.350;  229.125;    0.000
666.301; 2423.350;  247.125;    0.000
666.415; 2374.350;  212.125;    0.000
666.528; 2498.350;  268.125;    0.000
666.641; 2441.350;  210.125;    0.000
666.755; 2447.350;  178.125;    0.000
666.868; 2300.350;  227.125;    0.000
666.981; 2493.350;  250.125;    0.000
667.094; 2445.350;  228.125;    0.000
667.207; 2333.350;  235.125;    0.000
667.321; 2316.350;  171.125;    0.000
667.434; 2204.350;  191.125;    0.000
667.547; 2329.350;  279.125;    0.000
667.660; 2309.350;  210.125;    0.000
667.773; 2249.350;  217.125;    0.000
667.886; 2326.350;  209.125;    0.000
667.999; 2252.350;  239.125;    0.000
668.112; 2231.350;  227.125;    0.000
668.225; 2289.350;  185.125;    0.000
668.338; 2311.350;  222.125;    0.000
668.451; 2341.350;  200.125;    0.000
668.564; 2308.350;  237.125;    0.000
668.677; 2182.350;  207.125;    0.000
668.790; 2219.350;  208.125;    0.000
668.903; 2284.350;  243.125;    0.000
669.016; 2195.350;  190.125;    0.000
669.129; 2222.350;  234.125;    0.000
669.242; 2205.350;  185.125;    0.000
669.354; 2178.350;  224.125;    0.000
669.467; 2240.350;  219.125;    0.000
669.580; 2214.350;  249.125;    0.000
669.693; 2153.350;  187.125;    0.000
669.806; 2193.350;  206.125;    0.000
669.918; 2149.350;  192.125;    0.000
670.031; 2276.350;  235.125;    0.000
670.144; 2161.350;  238.125;    0.000
670.256; 2189.350;  237.125;    0.000
670.369; 2195.350;  237.125;    0.000
670.482; 2165.350;  250.125;    0.000
670.594; 2170.350;  273.125;    0.000
670.707; 2163.350;  223.125;    0.000
670.820; 2267.350;  238.125;    0.000
670.932; 2186.350;  224.125;    0.000
671.045; 2197.350;  219.125;    0.000
671.157; 2221.350;  242.125;    0.000
671.270; 2154.350;  235.125;    0.000
671.382; 2172.350;  213.125;    0.000
671.495; 2213.350;  254.125;    0.000
671.607; 2149.350;  253.125;    0.000
671.720; 2125.350;  169.125;    0.000
671.832; 2065.350;  201.125;    0.000
671.944; 2158.350;  250.125;    0.000
672.057; 2163.350;  187.125;    0.000
672.169; 2119.350;  224.125;    0.000
672.281; 2221.350;  238.125;    0.000
672.394; 2131.350;  250.125;    0.000
672.506; 2213.350;  227.125;    0.000
672.618; 2084.350;  223.125;    0.000
672.731; 2160.350;  210.125;    0.000
672.843; 2063.350;  245.125;    0.000
672.955; 2120.350;  263.125;    0.000
673.067; 2143.350;  239.125;    0.000
673.180; 2084.350;  253.125;    0.000
673.292; 2150.350;  243.125;    0.000
673.404; 2112.350;  226.125;    0.000
673.516; 2066.350;  223.125;    0.000
673.628; 2142.350;  223.125;    0.000
673.740; 2104.350;  216.125;    0.000
673.852; 2169.350;  277.125;    0.000
673.964; 2096.350;  211.125;    0.000
674.076; 2075.350;  241.125;    0.000
674.188; 2041.350;  251.125;    0.000
674.300; 2084.350;  268.125;    0.000
674.412; 2055.350;  260.125;    0.000
674.524; 2154.350;  257.125;    0.000
674.636; 2030.350;  222.125;    0.000
674.748; 2055.350;  227.125;    0.000
674.860; 1988.350;  250.125;    0.000
674.972; 2122.350;  240.125;    0.000
675.084; 2053.350;  262.125;    0.000
675.196; 2115.350;  287.125;    0.000
675.307; 2094.350;  257.125;    0.000
675.419; 2048.350;  231.125;    0.000
675.531; 2119.350;  274.125;    0.000
675.643; 2103.350;  235.125;    0.000
675.755; 2086.350;  275.125;    0.000
675.866; 2007.350;  238.125;    0.000
675.978; 2018.350;  209.125;    0.000
676.090; 2068.350;  239.125;    0.000
676.201; 2100.350;  249.125;    0.000
676.313; 2035.350;  237.125;    0.000
676.425; 2070.350;  263.125;    0.000
676.536; 1983.350;  178.125;    0.000
676.648; 2044.350;  245.125;    0.000
676.759; 2064.350;  244.125;    0.000
676.871; 2024.350;  242.125;    0.000
676.983; 2051.350;  245.125;    0.000
677.094; 1986.350;  209.125;    0.000
677.206; 1944.350;  248.125;    0.000
677.317; 1986.350;  260.125;    0.000
677.429; 1976.350;  237.125;    0.000
677.540; 2006.350;  226.125;    0.000
677.651; 1963.350;  226.125;    0.000
677.763; 1920.350;  194.125;    0.000
677.874; 1993.350;  230.125;    0.000
677.986; 1936.350;  202.125;    0.000
678.097; 1893.350;  229.125;    0.000
678.208; 2018.350;  263.125;    0.000
678.320; 1968.350;  243.125;    0.000
678.431; 1869.350;  229.125;    0.000
678.542; 1926.350;  231.125;    0.000
678.653; 1923.350;  224.125;    0.000
678.765; 1873.350;  255.125;    0.000
678.876; 1914.350;  175.125;    0.000
678.987; 1875.350;  204.125;    0.000
679.098; 1927.350;  227.125;    0.000
679.209; 1942.350;  228.125;    0.000
679.320; 1915.350;  223.125;    0.000
679.432; 1927.350;  219.125;    0.000
679.543; 1858.350;  210.125;    0.000
679.654; 1936.350;  249.125;    0.000
679.765; 1953.350;  222.125;    0.000
679.876; 1942.350;  219.125;    0.000
679.987; 1950.350;  213.125;    0.000
680.098; 1965.350;  237.125;    0.000
680.209; 1900.350;  188.125;    0.000
680.320; 1951.350;  243.125;    0.000
680.431; 1931.350;  227.125;    0.000
680.542; 1985.350;  212.125;    0.000
680.653; 1927.350;  266.125;    0.000
680.763; 1900.350;  198.125;    0.000
680.874; 1860.350;  211.125;    0.000
680.985; 1852.350;  207.125;    0.000
681.096; 1883.350;  244.125;    0.000
681.207; 1852.350;  209.125;    0.000
681.318; 1908.350;  215.125;    0.000
681.428; 1872.350;  199.125;    0.000
681.539; 1910.350;  175.125;    0.000
681.650; 1904.350;  224.125;    0.000
681.760; 1952.350;  216.125;    0.000
681.871; 1836.350;  187.125;    0.000
681.982; 1868.350;  237.125;    0.000
682.093; 1839.350;  213.125;    0.000
682.203; 1886.350;  190.125;    0.000
682.314; 1852.350;  230.125;    0.000
682.424; 1898.350;  223.125;    0.000
682.535; 1800.350;  172.125;    0.000
682.646; 2002.350;  268.125;    0.000
682.756; 1881.350;  249.125;    0.000
682.867; 1838.350;  225.125;    0.000
682.977; 1865.350;  211.125;    0.000
683.088; 1840.350;  238.125;    0.000
683.198; 1931.350;  202.125;    0.000
683.308; 1893.350;  196.125;    0.000
683.419; 1887.350;  230.125;    0.000
683.529; 1851.350;  213.125;    0.000
683.640; 1960.350;  225.125;    0.000
683.750; 1844.350;  203.125;    0.000
683.860; 1955.350;  200.125;    0.000
683.971; 1914.350;  269.125;    0.000
684.081; 1944.350;  204.125;    0.000
684.191; 1928.350;  228.125;    0.000
684.301; 1894.350;  219.125;    0.000
684.412; 1836.350;  222.125;    0.000
684.522; 1847.350;  242.125;    0.000
684.632; 1878.350;  234.125;    0.000
684.742; 1932.350;  240.125;    0.000
684.852; 1893.350;  229.125;    0.000
684.963; 1914.350;  237.125;    0.000
685.073; 1766.350;  205.125;    0.000
685.183; 1827.350;  241.125;    0.000
685.293; 1846.350;  202.125;    0.000
685.403; 1895.350;  232.125;    0.000
685.513; 1877.350;  244.125;    0.000
685.623; 1893.350;  224.125;    0.000
685.733; 1812.350;  236.125;    0.000
685.843; 1851.350;  235.125;    0.000
685.953; 1956.350;  216.125;    0.000
686.063; 1877.350;  214.125;    0.000
686.173; 1883.350;  198.125;    0.000
686.283; 1788.350;  250.125;    0.000
686.393; 1898.350;  227.125;    0.000
686.503; 1844.350;  244.125;    0.000
686.612; 1887.350;  247.125;    0.000
686.722; 1892.350;  265.125;    0.000
686.832; 1820.350;  213.125;    0.000
686.942; 1859.350;  241.125;    0.000
687.052; 1836.350;  238.125;    0.000
687.161; 1892.350;  233.125;    0.000
687.271; 1862.350;  232.125;    0.000
687.381; 1856.350;  220.125;    0.000
687.491; 1798.350;  206.125;    0.000
687.600; 1838.350;  283.125;    0.000
687.710; 1860.350;  212.125;    0.000
687.820; 1817.350;  226.125;    0.000
687.929; 1838.350;  202.125;    0.000
688.039; 1839.350;  225.125;    0.000
688.148; 1903.350;  235.125;    0.000
688.258; 1886.350;  224.125;    0.000
688.367; 1841.350;  239.125;    0.000
688.477; 1745.350;  193.125;    0.000
688.586; 1804.350;  226.125;    0.000
688.696; 1836.350;  185.125;    0.000
688.805; 1883.350;  190.125;    0.000
688.915; 1815.350;  209.125;    0.000
689.024; 1907.350;  214.125;    0.000
689.134; 1822.350;  205.125;    0.000
689.243; 1800.350;  190.125;    0.000
689.352; 1932.350;  233.125;    0.000
689.462; 1888.350;  196.125;    0.000
689.571; 1828.350;  227.125;    0.000
689.680; 1853.350;  206.125;    0.000
689.790; 1784.350;  193.125;    0.000
689.899; 1834.350;  204.125;    0.000
690.008; 1820.350;  228.125;    0.000
690.117; 1804.350;  207.125;    0.000
690.227; 1799.350;  231.125;    0.000
690.336; 1808.350;  222.125;    0.000
690.445; 1819.350;  198.125;    0.000
690.554; 1826.350;  202.125;    0.000
690.663; 1852.350;  217.125;    0.000
690.772; 1766.350;  213.125;    0.000
690.881; 1802.350;  225.125;    0.000
690.990; 1750.350;  217.125;    0.000
691.099; 1817.350;  205.125;    0.000
691.209; 1830.350;  220.125;    0.000
691.318; 1843.350;  216.125;    0.000
691.427; 1771.350;  188.125;    0.000
691.536; 1849.350;  224.125;    0.000
691.644; 1787.350;  212.125;    0.000
691.753; 1787.350;  216.125;    0.000
691.862; 1790.350;  250.125;    0.000
691.971; 1748.350;  210.125;    0.000
692.080; 1793.350;  232.125;    0.000
692.189; 1796.350;  218.125;    0.000
692.298; 1782.350;  220.125;    0.000
692.406; 1801.350;  261.125;    0.000
692.515; 1848.350;  253.125;    0.000
692.624; 1761.350;  224.125;    0.000
692.733; 1760.350;  209.125;    0.000
692.842; 1847.350;  214.125;    0.000
692.950; 1757.350;  206.125;    0.000
693.059; 1704.350;  180.125;    0.000
693.168; 1809.350;  220.125;    0.000
693.276; 1752.350;  196.125;    0.000
693.385; 1810.350;  203.125;    0.000
693.494; 1855.350;  263.125;    0.000
693.602; 1844.350;  222.125;    0.000
693.711; 1801.350;  178.125;    0.000
693.819; 1814.350;  230.125;    0.000
693.928; 1835.350;  187.125;    0.000
694.036; 1832.350;  219.125;    0.000
694.145; 1752.350;  223.125;    0.000
694.253; 1779.350;  241.125;    0.000
694.362; 1767.350;  229.125;    0.000
694.470; 1826.350;  223.125;    0.000
694.579; 1790.350;  195.125;    0.000
694.687; 1826.350;  257.125;    0.000
694.795; 1792.350;  230.125;    0.000
694.904; 1732.350;  196.125;    0.000
695.012; 1831.350;  247.125;    0.000
695.120; 1829.350;  215.125;    0.000
695.229; 1927.350;  244.125;    0.000
695.337; 1836.350;  197.125;    0.000
695.445; 1832.350;  270.125;    0.000
695.553; 1858.350;  241.125;    0.000
695.662; 1793.350;  249.125;    0.000
695.770; 1826.350;  244.125;    0.000
695.878; 1826.350;  236.125;    0.000
695.986; 1800.350;  253.125;    0.000
696.094; 1743.350;  242.125;    0.000
696.202; 1753.350;  174.125;    0.000
696.310; 1767.350;  230.125;    0.000
696.419; 1769.350;  218.125;    0.000
696.527; 1770.350;  226.125;    0.000
696.635; 1760.350;  217.125;    0.000
696.743; 1831.350;  221.125;    0.000
696.851; 1790.350;  259.125;    0.000
696.959; 1865.350;  245.125;    0.000
697.067; 1825.350;  235.125;    0.000
697.174; 1758.350;  238.125;    0.000
697.282; 1814.350;  208.125;    0.000
697.390; 1841.350;  265.125;    0.000
697.498; 1749.350;  202.125;    0.000
697.606; 1779.350;  219.125;    0.000
697.714; 1819.350;  245.125;    0.000
697.822; 1813.350;  222.125;    0.000
697.929; 1733.350;  194.125;    0.000
698.037; 1753.350;  223.125;    0.000
698.145; 1726.350;  213.125;    0.000
698.253; 1692.350;  234.125;    0.000
698.360; 1793.350;  211.125;    0.000
698.468; 1745.350;  241.125;    0.000
698.576; 1847.350;  249.125;    0.000
698.683; 1799.350;  268.125;    0.000
698.791; 1766.350;  223.125;    0.000
698.899; 1783.350;  251.125;    0.000
699.006; 1747.350;  216.125;    0.000
699.114; 1810.350;  256.125;    0.000
699.221; 1832.350;  226.125;    0.000
699.329; 1793.350;  255.125;    0.000
699.436; 1738.350;  213.125;    0.000
699.544; 1744.350;  258.125;    0.000
699.651; 1783.350;  214.125;    0.000
699.759; 1736.350;  229.125;    0.000
699.866; 1819.350;  239.125;    0.000
699.974; 1697.350;  224.125;    0.000
700.081; 1794.350;  227.125;    0.000
700.188; 1788.350;  267.125;    0.000
700.296; 1754.350;  222.125;    0.000
700.403; 1754.350;  225.125;    0.000
700.510; 1767.350;  248.125;    0.000
700.618; 1761.350;  223.125;    0.000
700.725; 1764.350;  243.125;    0.000
700.832; 1759.350;  239.125;    0.000
700.940; 1759.350;  284.125;    0.000
701.047; 1714.350;  216.125;    0.000
701.154; 1747.350;  249.125;    0.000
701.261; 1768.350;  229.125;    0.000
701.368; 1760.350;  247.125;    0.000
701.475; 1696.350;  208.125;    0.000
701.582; 1723.350;  262.125;    0.000
701.690; 1734.350;  224.125;    0.000
701.797; 1772.350;  294.125;    0.000
701.904; 1872.350;  303.125;    0.000
702.011; 1818.350;  278.125;    0.000
702.118; 1794.350;  279.125;    0.000
702.225; 1803.350;  342.125;    0.000
702.332; 1814.350;  281.125;    0.000
702.439; 1770.350;  313.125;    0.000
702.546; 1779.350;  295.125;    0.000
702.652; 1747.350;  293.125;    0.000
702.759; 1832.350;  333.125;    0.000
702.866; 1831.350;  272.125;    0.000
702.973; 1783.350;  310.125;    0.000
703.080; 1878.350;  313.125;    0.000
703.187; 1792.350;  316.125;    0.000
703.294; 1810.350;  328.125;    0.000
703.400; 1662.350;  312.125;    0.000
703.507;  488.350;  349.125;    0.000
703.614;  327.350;  298.125;    0.000
703.720;  318.350;  300.125;    0.000
703.827;  323.350;  346.125;    0.000
703.934;  323.350;  308.125;    0.000
704.040;  294.350;  300.125;    0.000
704.147;  320.350;  317.125;    0.000
704.254;  327.350;  350.125;    0.000
704.360;  304.350;  285.125;    0.000
704.467;  342.350;  334.125;    0.000
704.573;  311.350;  330.125;    0.000
704.680;  324.350;  312.125;    0.000
704.786;  324.350;  305.125;    0.000
704.893;  340.350;  330.125;    0.000
704.999;  309.350;  315.125;    0.000
705.106;  350.350;  327.125;    0.000

