
Integration time [ms]:   0.300
Averaging Nr. [scans]: 1
Smoothing Nr. [pixels]: 0
Data measured with spectrometer [name]: UV1
Wave   ;Sample   ;Dark     ;Reference
[nm]   ;[counts] ;[counts] ;[counts] 

236.381;  167.300;  160.350;    0.000
236.451;  191.300;  198.350;    0.000
236.520;  173.300;  179.350;    0.000
236.590;  197.300;  205.350;    0.000
236.660;  190.300;  199.350;    0.000
236.730;  180.300;  178.350;    0.000
236.799;  196.300;  201.350;    0.000
236.869;  199.300;  197.350;    0.000
236.939;  181.300;  180.350;    0.000
237.009;  180.300;  165.350;    0.000
237.078;  173.300;  191.350;    0.000
237.148;  159.300;  146.350;    0.000
237.218;  206.300;  142.350;    0.000
237.287;  161.300;  190.350;    0.000
237.357;  183.300;  182.350;    0.000
237.427;  183.300;  139.350;    0.000
237.496; 1148.300;  221.350;    0.000
237.566; 1074.300;  183.350;    0.000
237.636; 1111.300;  157.350;    0.000
237.705; 1046.300;  189.350;    0.000
237.775; 1112.300;  169.350;    0.000
237.845; 1199.300;  156.350;    0.000
237.914; 1102.300;  185.350;    0.000
237.984; 1106.300;  194.350;    0.000
238.054; 1026.300;  138.350;    0.000
238.123; 1059.300;  166.350;    0.000
238.193; 1092.300;  174.350;    0.000
238.263; 1152.300;  158.350;    0.000
238.332; 1072.300;  167.350;    0.000
238.402; 1060.300;  173.350;    0.000
238.471; 1116.300;  153.350;    0.000
238.541; 1061.300;  167.350;    0.000
238.611; 1007.300;  165.350;    0.000
238.680; 1059.300;  157.350;    0.000
238.750; 1075.300;  152.350;    0.000
238.819; 1113.300;  190.350;    0.000
238.889; 1093.300;  151.350;    0.000
238.958; 1140.300;  166.350;    0.000
239.028; 1116.300;  180.350;    0.000
239.097; 1024.300;  170.350;    0.000
239.167; 1097.300;  177.350;    0.000
239.237; 1143.300;  195.350;    0.000
239.306; 1095.300;  145.350;    0.000
239.376; 1101.300;  158.350;    0.000
239.445; 1129.300;  187.350;    0.000
239.515; 1035.300;  160.350;    0.000
239.584; 1068.300;  173.350;    0.000
239.654; 1068.300;  184.350;    0.000
239.723; 1127.300;  195.350;    0.000
239.793; 1139.300;  183.350;    0.000
239.862; 1110.300;  190.350;    0.000
239.932; 1037.300;  168.350;    0.000
240.001; 1073.300;  164.350;    0.000
240.070; 1076.300;  183.350;    0.000
240.140; 1050.300;  175.350;    0.000
240.209; 1102.300;  135.350;    0.000
240.279; 1055.300;  176.350;    0.000
240.348; 1091.300;  184.350;    0.000
240.418; 1059.300;  157.350;    0.000
240.487; 1070.300;  189.350;    0.000
240.556; 1032.300;  157.350;    0.000
240.626;  992.300;  174.350;    0.000
240.695; 1060.300;  180.350;    0.000
240.765; 1146.300;  152.350;    0.000
240.834; 1070.300;  136.350;    0.000
240.903; 1093.300;  196.350;    0.000
240.973; 1111.300;  183.350;    0.000
241.042; 1033.300;  150.350;    0.000
241.112;  976.300;  168.350;    0.000
241.181; 1100.300;  152.350;    0.000
241.250; 1029.300;  132.350;    0.000
241.320; 1078.300;  209.350;    0.000
241.389; 1027.300;  169.350;    0.000
241.458; 1131.300;  204.350;    0.000
241.528; 1079.300;  176.350;    0.000
241.597; 1051.300;  170.350;    0.000
241.666;  982.300;  168.350;    0.000
241.736; 1086.300;  172.350;    0.000
241.805; 1086.300;  160.350;    0.000
241.874; 1036.300;  176.350;    0.000
241.943; 1084.300;  165.350;    0.000
242.013; 1032.300;  206.350;    0.000
242.082; 1006.300;  162.350;    0.000
242.151; 1022.300;  180.350;    0.000
242.221; 1003.300;  154.350;    0.000
242.290; 1059.300;  122.350;    0.000
242.359; 1051.300;  121.350;    0.000
242.428; 1056.300;  187.350;    0.000
242.498; 1032.300;  140.350;    0.000
242.567; 1106.300;  173.350;    0.000
242.636; 1000.300;  155.350;    0.000
242.705; 1034.300;  108.350;    0.000
242.774; 1057.300;  145.350;    0.000
242.844; 1071.300;  162.350;    0.000
242.913; 1066.300;  178.350;    0.000
242.982; 1095.300;  163.350;    0.000
243.051; 1024.300;  138.350;    0.000
243.120;  997.300;  172.350;    0.000
243.190;  932.300;  155.350;    0.000
243.259; 1084.300;  159.350;    0.000
243.328; 1068.300;  173.350;    0.000
243.397;  991.300;  175.350;    0.000
243.466;  999.300;  170.350;    0.000
243.535;  995.300;  161.350;    0.000
243.605;  971.300;  149.350;    0.000
243.674; 1051.300;  162.350;    0.000
243.743; 1026.300;  175.350;    0.000
243.812;  968.300;  159.350;    0.000
243.881; 1048.300;  158.350;    0.000
243.950;  990.300;  154.350;    0.000
244.019; 1070.300;  185.350;    0.000
244.088; 1016.300;  175.350;    0.000
244.158; 1029.300;  167.350;    0.000
244.227; 1015.300;  159.350;    0.000
244.296; 1026.300;  143.350;    0.000
244.365; 1010.300;  182.350;    0.000
244.434;  957.300;  117.350;    0.000
244.503; 1023.300;  109.350;    0.000
244.572; 1022.300;  147.350;    0.000
244.641;  962.300;  129.350;    0.000
244.710; 1014.300;  159.350;    0.000
244.779; 1013.300;  166.350;    0.000
244.848;  996.300;  122.350;    0.000
244.917; 1062.300;  167.350;    0.000
244.986;  974.300;  158.350;    0.000
245.055;  994.300;  175.350;    0.000
245.124;  985.300;  153.350;    0.000
245.193;  961.300;  155.350;    0.000
245.262;  988.300;  137.350;    0.000
245.331;  966.300;  145.350;    0.000
245.400;  946.300;  107.350;    0.000
245.469;  905.300;  162.350;    0.000
245.538;  943.300;  165.350;    0.000
245.607;  993.300;  178.350;    0.000
245.676;  870.300;  166.350;    0.000
245.745;  940.300;  169.350;    0.000
245.814;  879.300;  155.350;    0.000
245.883;  926.300;  186.350;    0.000
245.952;  883.300;  165.350;    0.000
246.021;  912.300;  169.350;    0.000
246.090;  941.300;  170.350;    0.000
246.159;  878.300;  155.350;    0.000
246.227;  848.300;  161.350;    0.000
246.296;  902.300;  142.350;    0.000
246.365;  863.300;  160.350;    0.000
246.434;  953.300;  199.350;    0.000
246.503;  906.300;  155.350;    0.000
246.572;  963.300;  206.350;    0.000
246.641;  890.300;  177.350;    0.000
246.710;  922.300;  178.350;    0.000
246.779;  835.300;  193.350;    0.000
246.847;  894.300;  147.350;    0.000
246.916;  862.300;  131.350;    0.000
246.985;  920.300;  168.350;    0.000
247.054;  876.300;  143.350;    0.000
247.123;  942.300;  130.350;    0.000
247.192;  846.300;  175.350;    0.000
247.260;  918.300;  171.350;    0.000
247.329;  823.300;  162.350;    0.000
247.398;  857.300;  163.350;    0.000
247.467;  886.300;  155.350;    0.000
247.536;  850.300;  149.350;    0.000
247.604;  910.300;  191.350;    0.000
247.673;  884.300;  193.350;    0.000
247.742;  813.300;  159.350;    0.000
247.811;  878.300;  167.350;    0.000
247.879;  892.300;  176.350;    0.000
247.948;  864.300;  157.350;    0.000
248.017;  893.300;  150.350;    0.000
248.086;  849.300;  153.350;    0.000
248.154;  834.300;  157.350;    0.000
248.223;  885.300;  198.350;    0.000
248.292;  905.300;  188.350;    0.000
248.361;  893.300;  157.350;    0.000
248.429;  857.300;  138.350;    0.000
248.498;  866.300;  166.350;    0.000
248.567;  831.300;  179.350;    0.000
248.635;  921.300;  210.350;    0.000
248.704;  863.300;  168.350;    0.000
248.773;  819.300;  147.350;    0.000
248.841;  804.300;  155.350;    0.000
248.910;  934.300;  183.350;    0.000
248.979;  829.300;  171.350;    0.000
249.047;  792.300;  152.350;    0.000
249.116;  862.300;  155.350;    0.000
249.185;  831.300;  217.350;    0.000
249.253;  770.300;  149.350;    0.000
249.322;  869.300;  167.350;    0.000
249.390;  845.300;  182.350;    0.000
249.459;  856.300;  173.350;    0.000
249.528;  878.300;  162.350;    0.000
249.596;  840.300;  162.350;    0.000
249.665;  747.300;  163.350;    0.000
249.733;  829.300;  147.350;    0.000
249.802;  865.300;  170.350;    0.000
249.871;  830.300;  179.350;    0.000
249.939;  813.300;  179.350;    0.000
250.008;  882.300;  201.350;    0.000
250.076;  851.300;  189.350;    0.000
250.145;  801.300;  171.350;    0.000
250.213;  808.300;  161.350;    0.000
250.282;  801.300;  171.350;    0.000
250.350;  788.300;  138.350;    0.000
250.419;  816.300;  172.350;    0.000
250.487;  815.300;  207.350;    0.000
250.556;  789.300;  160.350;    0.000
250.624;  809.300;  187.350;    0.000
250.693;  791.300;  141.350;    0.000
250.761;  799.300;  182.350;    0.000
250.830;  826.300;  203.350;    0.000
250.898;  835.300;  160.350;    0.000
250.967;  779.300;  143.350;    0.000
251.035;  798.300;  142.350;    0.000
251.104;  796.300;  159.350;    0.000
251.172;  798.300;  189.350;    0.000
251.241;  786.300;  134.350;    0.000
251.309;  792.300;  179.350;    0.000
251.378;  792.300;  203.350;    0.000
251.446;  785.300;  151.350;    0.000
251.514;  778.300;  176.350;    0.000
251.583;  776.300;  173.350;    0.000
251.651;  813.300;  163.350;    0.000
251.720;  783.300;  151.350;    0.000
251.788;  831.300;  205.350;    0.000
251.856;  748.300;  126.350;    0.000
251.925;  797.300;  118.350;    0.000
251.993;  799.300;  139.350;    0.000
252.062;  824.300;  161.350;    0.000
252.130;  824.300;  180.350;    0.000
252.198;  821.300;  141.350;    0.000
252.267;  775.300;  145.350;    0.000
252.335;  802.300;  159.350;    0.000
252.403;  805.300;  158.350;    0.000
252.472;  733.300;  142.350;    0.000
252.540;  777.300;  162.350;    0.000
252.608;  826.300;  180.350;    0.000
252.677;  740.300;  137.350;    0.000
252.745;  733.300;  183.350;    0.000
252.813;  713.300;  151.350;    0.000
252.881;  675.300;  109.350;    0.000
252.950;  714.300;  174.350;    0.000
253.018;  731.300;  136.350;    0.000
253.086;  665.300;  149.350;    0.000
253.155;  729.300;  127.350;    0.000
253.223;  648.300;  156.350;    0.000
253.291;  622.300;  163.350;    0.000
253.359;  672.300;  174.350;    0.000
253.428;  603.300;  174.350;    0.000
253.496;  621.300;  161.350;    0.000
253.564;  601.300;  128.350;    0.000
253.632;  624.300;  153.350;    0.000
253.700;  575.300;  185.350;    0.000
253.769;  578.300;  163.350;    0.000
253.837;  615.300;  176.350;    0.000
253.905;  645.300;  164.350;    0.000
253.973;  627.300;  156.350;    0.000
254.041;  602.300;  154.350;    0.000
254.110;  566.300;  165.350;    0.000
254.178;  572.300;  148.350;    0.000
254.246;  573.300;  138.350;    0.000
254.314;  554.300;  164.350;    0.000
254.382;  582.300;  167.350;    0.000
254.450;  598.300;  134.350;    0.000
254.518;  575.300;  192.350;    0.000
254.587;  579.300;  139.350;    0.000
254.655;  614.300;  162.350;    0.000
254.723;  590.300;  131.350;    0.000
254.791;  574.300;  181.350;    0.000
254.859;  600.300;  146.350;    0.000
254.927;  654.300;  189.350;    0.000
254.995;  622.300;  141.350;    0.000
255.063;  600.300;  181.350;    0.000
255.131;  614.300;  156.350;    0.000
255.199;  631.300;  175.350;    0.000
255.267;  562.300;  120.350;    0.000
255.336;  630.300;  186.350;    0.000
255.404;  599.300;  134.350;    0.000
255.472;  600.300;  172.350;    0.000
255.540;  636.300;  157.350;    0.000
255.608;  566.300;  186.350;    0.000
255.676;  590.300;  155.350;    0.000
255.744;  586.300;  143.350;    0.000
255.812;  617.300;  134.350;    0.000
255.880;  643.300;  188.350;    0.000
255.948;  646.300;  163.350;    0.000
256.016;  612.300;  175.350;    0.000
256.084;  688.300;  191.350;    0.000
256.152;  645.300;  187.350;    0.000
256.220;  576.300;  152.350;    0.000
256.288;  628.300;  141.350;    0.000
256.356;  647.300;  139.350;    0.000
256.424;  633.300;  121.350;    0.000
256.491;  617.300;  139.350;    0.000
256.559;  649.300;  144.350;    0.000
256.627;  685.300;  158.350;    0.000
256.695;  632.300;  121.350;    0.000
256.763;  711.300;  150.350;    0.000
256.831;  661.300;  181.350;    0.000
256.899;  641.300;  146.350;    0.000
256.967;  683.300;   71.350;    0.000
257.035;  711.300;  164.350;    0.000
257.103;  700.300;  191.350;    0.000
257.171;  679.300;  140.350;    0.000
257.238;  707.300;  165.350;    0.000
257.306;  750.300;  127.350;    0.000
257.374;  676.300;  120.350;    0.000
257.442;  693.300;  139.350;    0.000
257.510;  784.300;  158.350;    0.000
257.578;  690.300;  164.350;    0.000
257.646;  790.300;  151.350;    0.000
257.713;  733.300;  136.350;    0.000
257.781;  817.300;  137.350;    0.000
257.849;  775.300;  151.350;    0.000
257.917;  736.300;  154.350;    0.000
257.985;  728.300;  113.350;    0.000
258.052;  915.300;  140.350;    0.000
258.120;  797.300;  176.350;    0.000
258.188;  828.300;  157.350;    0.000
258.256;  855.300;  153.350;    0.000
258.324;  941.300;  184.350;    0.000
258.391;  808.300;  144.350;    0.000
258.459;  945.300;  162.350;    0.000
258.527;  799.300;  154.350;    0.000
258.595;  848.300;  122.350;    0.000
258.662;  813.300;  164.350;    0.000
258.730;  901.300;  114.350;    0.000
258.798;  879.300;  131.350;    0.000
258.865;  918.300;  171.350;    0.000
258.933;  911.300;  145.350;    0.000
259.001;  979.300;  150.350;    0.000
259.069;  883.300;  123.350;    0.000
259.136;  986.300;  139.350;    0.000
259.204;  960.300;  165.350;    0.000
259.272;  962.300;  114.350;    0.000
259.339;  984.300;  179.350;    0.000
259.407;  996.300;  153.350;    0.000
259.475;  980.300;  143.350;    0.000
259.542;  989.300;  136.350;    0.000
259.610; 1000.300;  133.350;    0.000
259.677;  989.300;  159.350;    0.000
259.745; 1029.300;  130.350;    0.000
259.813; 1057.300;  175.350;    0.000
259.880; 1093.300;  158.350;    0.000
259.948; 1079.300;  124.350;    0.000
260.016; 1067.300;  105.350;    0.000
260.083; 1109.300;  169.350;    0.000
260.151; 1053.300;  133.350;    0.000
260.218; 1119.300;  143.350;    0.000
260.286; 1134.300;  134.350;    0.000
260.353; 1146.300;  160.350;    0.000
260.421; 1199.300;  128.350;    0.000
260.489; 1221.300;  150.350;    0.000
260.556; 1180.300;  179.350;    0.000
260.624; 1192.300;  113.350;    0.000
260.691; 1162.300;  128.350;    0.000
260.759; 1248.300;  146.350;    0.000
260.826; 1183.300;  111.350;    0.000
260.894; 1185.300;  115.350;    0.000
260.961; 1267.300;  138.350;    0.000
261.029; 1176.300;  152.350;    0.000
261.096; 1281.300;  175.350;    0.000
261.164; 1232.300;  131.350;    0.000
261.231; 1253.300;  141.350;    0.000
261.299; 1280.300;  125.350;    0.000
261.366; 1317.300;  142.350;    0.000
261.434; 1275.300;  133.350;    0.000
261.501; 1295.300;  137.350;    0.000
261.568; 1365.300;  184.350;    0.000
261.636; 1323.300;  138.350;    0.000
261.703; 1465.300;  161.350;    0.000
261.771; 1402.300;  160.350;    0.000
261.838; 1446.300;  178.350;    0.000
261.906; 1445.300;  128.350;    0.000
261.973; 1410.300;  139.350;    0.000
262.040; 1447.300;  148.350;    0.000
262.108; 1474.300;  130.350;    0.000
262.175; 1410.300;  117.350;    0.000
262.243; 1557.300;  174.350;    0.000
262.310; 1450.300;  145.350;    0.000
262.377; 1370.300;  108.350;    0.000
262.445; 1474.300;  147.350;    0.000
262.512; 1494.300;  124.350;    0.000
262.579; 1517.300;  127.350;    0.000
262.647; 1494.300;  166.350;    0.000
262.714; 1540.300;  150.350;    0.000
262.781; 1528.300;  121.350;    0.000
262.849; 1596.300;  126.350;    0.000
262.916; 1663.300;  119.350;    0.000
262.983; 1666.300;  155.350;    0.000
263.051; 1557.300;  137.350;    0.000
263.118; 1637.300;  160.350;    0.000
263.185; 1651.300;  151.350;    0.000
263.252; 1706.300;  167.350;    0.000
263.320; 1688.300;  123.350;    0.000
263.387; 1629.300;  134.350;    0.000
263.454; 1665.300;  144.350;    0.000
263.522; 1632.300;  153.350;    0.000
263.589; 1666.300;  161.350;    0.000
263.656; 1701.300;  117.350;    0.000
263.723; 1719.300;  101.350;    0.000
263.790; 1729.300;  128.350;    0.000
263.858; 1709.300;  142.350;    0.000
263.925; 1714.300;  182.350;    0.000
263.992; 1773.300;  146.350;    0.000
264.059; 1850.300;  132.350;    0.000
264.126; 1845.300;  154.350;    0.000
264.194; 1715.300;  153.350;    0.000
264.261; 1824.300;  157.350;    0.000
264.328; 1823.300;  171.350;    0.000
264.395; 1910.300;  166.350;    0.000
264.462; 1835.300;  165.350;    0.000
264.529; 1800.300;  124.350;    0.000
264.597; 1867.300;  120.350;    0.000
264.664; 1860.300;  159.350;    0.000
264.731; 1846.300;  145.350;    0.000
264.798; 1860.300;  100.350;    0.000
264.865; 1931.300;  166.350;    0.000
264.932; 1794.300;  132.350;    0.000
264.999; 1929.300;  137.350;    0.000
265.066; 1878.300;  124.350;    0.000
265.133; 1973.300;  162.350;    0.000
265.201; 1934.300;  163.350;    0.000
265.268; 1866.300;  174.350;    0.000
265.335; 1921.300;  132.350;    0.000
265.402; 1936.300;  116.350;    0.000
265.469; 2029.300;  121.350;    0.000
265.536; 2078.300;  157.350;    0.000
265.603; 2042.300;  151.350;    0.000
265.670; 2027.300;  164.350;    0.000
265.737; 2047.300;  142.350;    0.000
265.804; 2035.300;  146.350;    0.000
265.871; 2136.300;  168.350;    0.000
265.938; 2058.300;  131.350;    0.000
266.005; 2022.300;  208.350;    0.000
266.072; 2008.300;  125.350;    0.000
266.139; 2078.300;  161.350;    0.000
266.206; 2083.300;  134.350;    0.000
266.273; 2138.300;  155.350;    0.000
266.340; 2090.300;  122.350;    0.000
266.407; 2089.300;  134.350;    0.000
266.474; 2056.300;  126.350;    0.000
266.541; 2024.300;  153.350;    0.000
266.608; 2142.300;  129.350;    0.000
266.675; 2166.300;  185.350;    0.000
266.742; 2189.300;  153.350;    0.000
266.808; 2121.300;  169.350;    0.000
266.875; 2135.300;  156.350;    0.000
266.942; 2094.300;  172.350;    0.000
267.009; 2166.300;  150.350;    0.000
267.076; 2207.300;  184.350;    0.000
267.143; 2179.300;  170.350;    0.000
267.210; 2220.300;  132.350;    0.000
267.277; 2160.300;  146.350;    0.000
267.344; 2278.300;  159.350;    0.000
267.410; 2208.300;  174.350;    0.000
267.477; 2216.300;  169.350;    0.000
267.544; 2221.300;  130.350;    0.000
267.611; 2273.300;  169.350;    0.000
267.678; 2244.300;  197.350;    0.000
267.745; 2295.300;  185.350;    0.000
267.811; 2313.300;  160.350;    0.000
267.878; 2187.300;  143.350;    0.000
267.945; 2287.300;  126.350;    0.000
268.012; 2223.300;  172.350;    0.000
268.079; 2230.300;  156.350;    0.000
268.145; 2275.300;  128.350;    0.000
268.212; 2280.300;  107.350;    0.000
268.279; 2254.300;  135.350;    0.000
268.346; 2248.300;  166.350;    0.000
268.412; 2230.300;  150.350;    0.000
268.479; 2198.300;  176.350;    0.000
268.546; 2289.300;  119.350;    0.000
268.613; 2308.300;  201.350;    0.000
268.679; 2211.300;  141.350;    0.000
268.746; 2198.300;  177.350;    0.000
268.813; 2232.300;  134.350;    0.000
268.879; 2233.300;  141.350;    0.000
268.946; 2189.300;  172.350;    0.000
269.013; 2206.300;  150.350;    0.000
269.079; 2292.300;  124.350;    0.000
269.146; 2197.300;  135.350;    0.000
269.213; 2263.300;  200.350;    0.000
269.280; 2217.300;  142.350;    0.000
269.346; 2218.300;  153.350;    0.000
269.413; 2225.300;  140.350;    0.000
269.479; 2275.300;  171.350;    0.000
269.546; 2264.300;  156.350;    0.000
269.613; 2193.300;  145.350;    0.000
269.679; 2226.300;  168.350;    0.000
269.746; 2273.300;  136.350;    0.000
269.813; 2166.300;  153.350;    0.000
269.879; 2275.300;  162.350;    0.000
269.946; 2209.300;  156.350;    0.000
270.012; 2224.300;  178.350;    0.000
270.079; 2179.300;  132.350;    0.000
270.145; 2240.300;  146.350;    0.000
270.212; 2274.300;  145.350;    0.000
270.279; 2221.300;  184.350;    0.000
270.345; 2215.300;  143.350;    0.000
270.412; 2258.300;  158.350;    0.000
270.478; 2235.300;  143.350;    0.000
270.545; 2264.300;  150.350;    0.000
270.611; 2353.300;  156.350;    0.000
270.678; 2192.300;  121.350;    0.000
270.744; 2220.300;  161.350;    0.000
270.811; 2190.300;  173.350;    0.000
270.877; 2227.300;  115.350;    0.000
270.944; 2239.300;  114.350;    0.000
271.010; 2207.300;  122.350;    0.000
271.077; 2205.300;  142.350;    0.000
271.143; 2280.300;  152.350;    0.000
271.210; 2140.300;  135.350;    0.000
271.276; 2150.300;  107.350;    0.000
271.342; 2220.300;  173.350;    0.000
271.409; 2181.300;  171.350;    0.000
271.475; 2247.300;  136.350;    0.000
271.542; 2261.300;  121.350;    0.000
271.608; 2224.300;  133.350;    0.000
271.675; 2183.300;  136.350;    0.000
271.741; 2251.300;  151.350;    0.000
271.807; 2254.300;  130.350;    0.000
271.874; 2225.300;  168.350;    0.000
271.940; 2187.300;  156.350;    0.000
272.007; 2190.300;  122.350;    0.000
272.073; 2238.300;  121.350;    0.000
272.139; 2282.300;  137.350;    0.000
272.206; 2233.300;  152.350;    0.000
272.272; 2218.300;  162.350;    0.000
272.338; 2246.300;  197.350;    0.000
272.405; 2210.300;  144.350;    0.000
272.471; 2212.300;  160.350;    0.000
272.537; 2267.300;  142.350;    0.000
272.604; 2182.300;  141.350;    0.000
272.670; 2210.300;  182.350;    0.000
272.736; 2370.300;  126.350;    0.000
272.802; 2209.300;  146.350;    0.000
272.869; 2196.300;  163.350;    0.000
272.935; 2252.300;  132.350;    0.000
273.001; 2284.300;  119.350;    0.000
273.068; 2288.300;  137.350;    0.000
273.134; 2225.300;  155.350;    0.000
273.200; 2355.300;  165.350;    0.000
273.266; 2291.300;  156.350;    0.000
273.333; 2371.300;  143.350;    0.000
273.399; 2193.300;  128.350;    0.000
273.465; 2333.300;  167.350;    0.000
273.531; 2254.300;  122.350;    0.000
273.597; 2344.300;  182.350;    0.000
273.664; 2346.300;  177.350;    0.000
273.730; 2325.300;  124.350;    0.000
273.796; 2213.300;  143.350;    0.000
273.862; 2386.300;  155.350;    0.000
273.928; 2355.300;  137.350;    0.000
273.995; 2388.300;  188.350;    0.000
274.061; 2373.300;  154.350;    0.000
274.127; 2351.300;  161.350;    0.000
274.193; 2388.300;   95.350;    0.000
274.259; 2394.300;  128.350;    0.000
274.325; 2311.300;  146.350;    0.000
274.391; 2371.300;  113.350;    0.000
274.457; 2404.300;  150.350;    0.000
274.524; 2485.300;  165.350;    0.000
274.590; 2368.300;  140.350;    0.000
274.656; 2378.300;  165.350;    0.000
274.722; 2378.300;  118.350;    0.000
274.788; 2495.300;  143.350;    0.000
274.854; 2391.300;  150.350;    0.000
274.920; 2379.300;   88.350;    0.000
274.986; 2488.300;  178.350;    0.000
275.052; 2512.300;  145.350;    0.000
275.118; 2546.300;  105.350;    0.000
275.184; 2646.300;  129.350;    0.000
275.250; 2648.300;  138.350;    0.000
275.316; 2605.300;  173.350;    0.000
275.382; 2471.300;  106.350;    0.000
275.448; 2596.300;  160.350;    0.000
275.514; 2594.300;  162.350;    0.000
275.580; 2669.300;  135.350;    0.000
275.646; 2701.300;  120.350;    0.000
275.712; 2646.300;  157.350;    0.000
275.778; 2681.300;  128.350;    0.000
275.844; 2690.300;  117.350;    0.000
275.910; 2791.300;  121.350;    0.000
275.976; 2867.300;  172.350;    0.000
276.042; 2862.300;  114.350;    0.000
276.108; 2815.300;  200.350;    0.000
276.174; 2882.300;  132.350;    0.000
276.240; 2966.300;  128.350;    0.000
276.306; 3004.300;  124.350;    0.000
276.372; 3008.300;  133.350;    0.000
276.437; 3034.300;  146.350;    0.000
276.503; 3094.300;  136.350;    0.000
276.569; 3244.300;  162.350;    0.000
276.635; 3135.300;  128.350;    0.000
276.701; 3305.300;  148.350;    0.000
276.767; 3294.300;  155.350;    0.000
276.833; 3388.300;  128.350;    0.000
276.899; 3445.300;  145.350;    0.000
276.964; 3566.300;  124.350;    0.000
277.030; 3631.300;  130.350;    0.000
277.096; 3728.300;  139.350;    0.000
277.162; 3721.300;  164.350;    0.000
277.228; 3981.300;  108.350;    0.000
277.293; 4038.300;  138.350;    0.000
277.359; 4208.300;  123.350;    0.000
277.425; 4399.300;  183.350;    0.000
277.491; 4677.300;  144.350;    0.000
277.557; 5621.300;  130.350;    0.000
277.622; 7468.300;  151.350;    0.000
277.688; 7361.300;  169.350;    0.000
277.754; 7674.300;  199.350;    0.000
277.820; 8319.300;  170.350;    0.000
277.885; 9965.300;  173.350;    0.000
277.951;12791.300;  187.350;    0.000
278.017;10541.300;  152.350;    0.000
278.083; 9052.300;  137.350;    0.000
278.148; 8822.300;  147.350;    0.000
278.214; 9011.300;  162.350;    0.000
278.280; 9502.300;  171.350;    0.000
278.345; 8505.300;  174.350;    0.000
278.411; 7925.300;  152.350;    0.000
278.477; 8234.300;  173.350;    0.000
278.542; 8696.300;  161.350;    0.000
278.608; 9706.300;  155.350;    0.000
278.674;10723.300;  169.350;    0.000
278.739;11967.300;  142.350;    0.000
278.805;13656.300;  164.350;    0.000
278.871;16471.301;  160.350;    0.000
278.936;21630.301;  121.350;    0.000
279.002;34240.301;  166.350;    0.000
279.067;44978.301;  199.350;    0.000
279.133;42053.301;  150.350;    0.000
279.199;36666.301;  154.350;    0.000
279.264;37534.301;  154.350;    0.000
279.330;43865.301;  159.350;    0.000
279.395;58336.301;  143.350;    0.000
279.461;65297.301;  173.350;    0.000
279.527;65297.301;  163.350;    0.000
279.592;65297.301;  167.350;    0.000
279.658;64975.301;  189.350;    0.000
279.723;64075.301;  153.350;    0.000
279.789;65297.301;  174.350;    0.000
279.854;59567.301;  129.350;    0.000
279.920;48057.301;  165.350;    0.000
279.985;42852.301;  152.350;    0.000
280.051;43646.301;  164.350;    0.000
280.116;52320.301;  187.350;    0.000
280.182;65297.301;  160.350;    0.000
280.247;65297.301;  124.350;    0.000
280.313;65297.301;  154.350;    0.000
280.378;46416.301;  152.350;    0.000
280.444;33425.301;  165.350;    0.000
280.509;25616.301;  164.350;    0.000
280.574;21690.301;  160.350;    0.000
280.640;18327.301;  167.350;    0.000
280.705;16357.300;  190.350;    0.000
280.771;14733.300;  154.350;    0.000
280.836;13423.300;  158.350;    0.000
280.902;12368.300;  124.350;    0.000
280.967;11516.300;  179.350;    0.000
281.032;11025.300;  187.350;    0.000
281.098;10297.300;  155.350;    0.000
281.163; 9614.300;  133.350;    0.000
281.229; 9163.300;  170.350;    0.000
281.294; 8777.300;  175.350;    0.000
281.359; 8339.300;  163.350;    0.000
281.425; 8103.300;  161.350;    0.000
281.490; 7784.300;  162.350;    0.000
281.555; 7400.300;  137.350;    0.000
281.621; 7243.300;  163.350;    0.000
281.686; 6948.300;  155.350;    0.000
281.751; 6720.300;  158.350;    0.000
281.816; 6395.300;  139.350;    0.000
281.882; 6203.300;  150.350;    0.000
281.947; 6136.300;  165.350;    0.000
282.012; 5935.300;  171.350;    0.000
282.078; 5747.300;  177.350;    0.000
282.143; 5736.300;  149.350;    0.000
282.208; 5642.300;  181.350;    0.000
282.273; 5441.300;  166.350;    0.000
282.339; 5296.300;  165.350;    0.000
282.404; 5224.300;  166.350;    0.000
282.469; 5199.300;  150.350;    0.000
282.534; 5020.300;  176.350;    0.000
282.600; 5083.300;  117.350;    0.000
282.665; 4895.300;  134.350;    0.000
282.730; 4833.300;  155.350;    0.000
282.795; 4836.300;  193.350;    0.000
282.860; 4797.300;  160.350;    0.000
282.926; 4820.300;  174.350;    0.000
282.991; 4678.300;  161.350;    0.000
283.056; 4661.300;  157.350;    0.000
283.121; 4649.300;  178.350;    0.000
283.186; 4605.300;  152.350;    0.000
283.251; 4477.300;  167.350;    0.000
283.316; 4466.300;  186.350;    0.000
283.382; 4541.300;  148.350;    0.000
283.447; 4497.300;  191.350;    0.000
283.512; 4297.300;  132.350;    0.000
283.577; 4365.300;  179.350;    0.000
283.642; 4428.300;  185.350;    0.000
283.707; 4239.300;  136.350;    0.000
283.772; 4225.300;  119.350;    0.000
283.837; 4307.300;  136.350;    0.000
283.902; 4207.300;  135.350;    0.000
283.967; 4173.300;  146.350;    0.000
284.032; 4202.300;  140.350;    0.000
284.097; 4225.300;  199.350;    0.000
284.163; 4344.300;  144.350;    0.000
284.228; 4246.300;  183.350;    0.000
284.293; 4327.300;  141.350;    0.000
284.358; 4356.300;  146.350;    0.000
284.423; 4351.300;  127.350;    0.000
284.488; 4421.300;  186.350;    0.000
284.553; 4572.300;  155.350;    0.000
284.618; 4726.300;  118.350;    0.000
284.683; 4729.300;  145.350;    0.000
284.748; 5034.300;  139.350;    0.000
284.812; 5385.300;  147.350;    0.000
284.877; 5869.300;  123.350;    0.000
284.942; 6570.300;  153.350;    0.000
285.007; 7977.300;  168.350;    0.000
285.072;11300.300;  181.350;    0.000
285.137;20211.301;  147.350;    0.000
285.202;27065.301;  175.350;    0.000
285.267;21562.301;  182.350;    0.000
285.332;13349.300;  136.350;    0.000
285.397; 9469.300;  138.350;    0.000
285.462; 7816.300;  151.350;    0.000
285.527; 6619.300;  159.350;    0.000
285.591; 6132.300;  177.350;    0.000
285.656; 5657.300;  144.350;    0.000
285.721; 5355.300;  125.350;    0.000
285.786; 5129.300;  169.350;    0.000
285.851; 4972.300;  175.350;    0.000
285.916; 4875.300;  164.350;    0.000
285.981; 4641.300;  134.350;    0.000
286.045; 4536.300;  154.350;    0.000
286.110; 4437.300;  136.350;    0.000
286.175; 4327.300;  155.350;    0.000
286.240; 4226.300;  138.350;    0.000
286.305; 4213.300;  213.350;    0.000
286.369; 4205.300;  221.350;    0.000
286.434; 4165.300;  172.350;    0.000
286.499; 4200.300;  161.350;    0.000
286.564; 4052.300;  189.350;    0.000
286.628; 4037.300;  144.350;    0.000
286.693; 3999.300;  176.350;    0.000
286.758; 4031.300;  168.350;    0.000
286.823; 3925.300;  142.350;    0.000
286.887; 3971.300;  134.350;    0.000
286.952; 3915.300;  180.350;    0.000
287.017; 4020.300;  204.350;    0.000
287.082; 3884.300;  120.350;    0.000
287.146; 3837.300;  173.350;    0.000
287.211; 3956.300;  167.350;    0.000
287.276; 3780.300;  164.350;    0.000
287.340; 3829.300;  138.350;    0.000
287.405; 3805.300;  172.350;    0.000
287.470; 3781.300;  142.350;    0.000
287.534; 3831.300;  155.350;    0.000
287.599; 3727.300;  166.350;    0.000
287.663; 3751.300;  171.350;    0.000
287.728; 3853.300;  190.350;    0.000
287.793; 3855.300;  197.350;    0.000
287.857; 3826.300;  165.350;    0.000
287.922; 3728.300;  147.350;    0.000
287.987; 3716.300;  167.350;    0.000
288.051; 3769.300;  151.350;    0.000
288.116; 3822.300;  154.350;    0.000
288.180; 3910.300;  186.350;    0.000
288.245; 3853.300;  161.350;    0.000
288.309; 3721.300;  177.350;    0.000
288.374; 3861.300;  151.350;    0.000
288.439; 3780.300;  169.350;    0.000
288.503; 3738.300;  133.350;    0.000
288.568; 3851.300;  206.350;    0.000
288.632; 3661.300;  192.350;    0.000
288.697; 3633.300;  183.350;    0.000
288.761; 3617.300;  148.350;    0.000
288.826; 3604.300;  136.350;    0.000
288.890; 3604.300;  185.350;    0.000
288.955; 3495.300;  150.350;    0.000
289.019; 3491.300;  165.350;    0.000
289.084; 3651.300;  150.350;    0.000
289.148; 3615.300;  146.350;    0.000
289.212; 3689.300;  172.350;    0.000
289.277; 3604.300;  177.350;    0.000
289.341; 3584.300;  190.350;    0.000
289.406; 3586.300;  117.350;    0.000
289.470; 3546.300;  173.350;    0.000
289.535; 3559.300;  170.350;    0.000
289.599; 3583.300;  154.350;    0.000
289.663; 3577.300;  173.350;    0.000
289.728; 3518.300;  176.350;    0.000
289.792; 3542.300;  138.350;    0.000
289.857; 3588.300;  203.350;    0.000
289.921; 3518.300;  143.350;    0.000
289.985; 3539.300;  150.350;    0.000
290.050; 3588.300;  170.350;    0.000
290.114; 3598.300;  125.350;    0.000
290.178; 3451.300;  161.350;    0.000
290.243; 3448.300;  119.350;    0.000
290.307; 3636.300;  169.350;    0.000
290.371; 3607.300;  169.350;    0.000
290.436; 3606.300;  170.350;    0.000
290.500; 3586.300;  144.350;    0.000
290.564; 3717.300;  179.350;    0.000
290.629; 3507.300;  166.350;    0.000
290.693; 3538.300;  156.350;    0.000
290.757; 3590.300;  147.350;    0.000
290.821; 3622.300;  170.350;    0.000
290.886; 3675.300;  167.350;    0.000
290.950; 3574.300;  187.350;    0.000
291.014; 3716.300;  164.350;    0.000
291.078; 3498.300;  115.350;    0.000
291.143; 3628.300;  149.350;    0.000
291.207; 3672.300;  163.350;    0.000
291.271; 3796.300;  177.350;    0.000
291.335; 3789.300;  148.350;    0.000
291.399; 3888.300;  155.350;    0.000
291.464; 4105.300;  114.350;    0.000
291.528; 4209.300;  153.350;    0.000
291.592; 4105.300;  156.350;    0.000
291.656; 4037.300;  170.350;    0.000
291.720; 3907.300;  159.350;    0.000
291.784; 3893.300;  159.350;    0.000
291.849; 3883.300;  154.350;    0.000
291.913; 3923.300;  118.350;    0.000
291.977; 3871.300;  157.350;    0.000
292.041; 3960.300;  163.350;    0.000
292.105; 3941.300;  135.350;    0.000
292.169; 4018.300;  155.350;    0.000
292.233; 4016.300;  163.350;    0.000
292.297; 4124.300;  144.350;    0.000
292.361; 4073.300;  143.350;    0.000
292.425; 4191.300;  177.350;    0.000
292.490; 4432.300;  159.350;    0.000
292.554; 4683.300;  137.350;    0.000
292.618; 4949.300;  144.350;    0.000
292.682; 5411.300;  169.350;    0.000
292.746; 6328.300;  166.350;    0.000
292.810; 9165.300;  147.350;    0.000
292.874;11728.300;  160.350;    0.000
292.938;11437.300;  174.350;    0.000
293.002; 9580.300;  148.350;    0.000
293.066; 8561.300;  115.350;    0.000
293.130; 7727.300;  133.350;    0.000
293.194; 7077.300;  148.350;    0.000
293.258; 6939.300;  167.350;    0.000
293.322; 6821.300;  166.350;    0.000
293.386; 6931.300;  193.350;    0.000
293.450; 7602.300;  142.350;    0.000
293.514; 8671.300;  170.350;    0.000
293.577;12384.300;  153.350;    0.000
293.641;17501.301;  171.350;    0.000
293.705;18696.301;  168.350;    0.000
293.769;15782.300;  155.350;    0.000
293.833;13250.300;  161.350;    0.000
293.897;10973.300;  124.350;    0.000
293.961; 9847.300;  165.350;    0.000
294.025; 8471.300;  118.350;    0.000
294.089; 7862.300;  125.350;    0.000
294.152; 7178.300;  160.350;    0.000
294.216; 6589.300;  160.350;    0.000
294.280; 6378.300;  158.350;    0.000
294.344; 5884.300;  119.350;    0.000
294.408; 5568.300;  168.350;    0.000
294.472; 5348.300;  156.350;    0.000
294.536; 5163.300;  192.350;    0.000
294.599; 5064.300;  171.350;    0.000
294.663; 4851.300;  139.350;    0.000
294.727; 4635.300;  136.350;    0.000
294.791; 4587.300;  118.350;    0.000
294.855; 4492.300;  118.350;    0.000
294.918; 4447.300;  127.350;    0.000
294.982; 4446.300;  167.350;    0.000
295.046; 4386.300;  178.350;    0.000
295.110; 4190.300;  157.350;    0.000
295.173; 4159.300;  101.350;    0.000
295.237; 4034.300;  145.350;    0.000
295.301; 3888.300;  135.350;    0.000
295.364; 4040.300;  185.350;    0.000
295.428; 3952.300;  112.350;    0.000
295.492; 3890.300;  142.350;    0.000
295.556; 3860.300;  170.350;    0.000
295.619; 3811.300;  193.350;    0.000
295.683; 3829.300;  144.350;    0.000
295.747; 3659.300;  152.350;    0.000
295.810; 3764.300;  139.350;    0.000
295.874; 3631.300;  157.350;    0.000
295.938; 3690.300;  128.350;    0.000
296.001; 3677.300;  164.350;    0.000
296.065; 3534.300;  184.350;    0.000
296.128; 3589.300;  127.350;    0.000
296.192; 3642.300;  166.350;    0.000
296.256; 3642.300;  154.350;    0.000
296.319; 3593.300;  128.350;    0.000
296.383; 3532.300;  146.350;    0.000
296.447; 3471.300;  155.350;    0.000
296.510; 3488.300;  177.350;    0.000
296.574; 3444.300;  169.350;    0.000
296.637; 3501.300;  140.350;    0.000
296.701; 3439.300;  181.350;    0.000
296.764; 3410.300;  131.350;    0.000
296.828; 3447.300;  194.350;    0.000
296.891; 3407.300;  146.350;    0.000
296.955; 3417.300;  160.350;    0.000
297.018; 3338.300;  174.350;    0.000
297.082; 3378.300;  153.350;    0.000
297.145; 3274.300;  133.350;    0.000
297.209; 3250.300;  149.350;    0.000
297.272; 3323.300;  150.350;    0.000
297.336; 3356.300;  119.350;    0.000
297.399; 3332.300;  160.350;    0.000
297.463; 3272.300;  158.350;    0.000
297.526; 3314.300;  160.350;    0.000
297.590; 3282.300;  173.350;    0.000
297.653; 3273.300;  121.350;    0.000
297.717; 3241.300;  168.350;    0.000
297.780; 3243.300;  131.350;    0.000
297.843; 3272.300;  154.350;    0.000
297.907; 3240.300;  126.350;    0.000
297.970; 3097.300;  180.350;    0.000
298.034; 3251.300;  140.350;    0.000
298.097; 3218.300;  207.350;    0.000
298.160; 3203.300;  177.350;    0.000
298.224; 3171.300;  165.350;    0.000
298.287; 3249.300;  160.350;    0.000
298.350; 3214.300;  176.350;    0.000
298.414; 3176.300;  155.350;    0.000
298.477; 3216.300;  132.350;    0.000
298.540; 3186.300;  162.350;    0.000
298.604; 3129.300;  180.350;    0.000
298.667; 3196.300;  208.350;    0.000
298.730; 3135.300;  177.350;    0.000
298.794; 3079.300;  126.350;    0.000
298.857; 2994.300;  171.350;    0.000
298.920; 3035.300;  124.350;    0.000
298.984; 3131.300;  146.350;    0.000
299.047; 3124.300;  140.350;    0.000
299.110; 2934.300;  159.350;    0.000
299.173; 3092.300;  177.350;    0.000
299.237; 3020.300;  196.350;    0.000
299.300; 2948.300;  121.350;    0.000
299.363; 2959.300;  172.350;    0.000
299.426; 2962.300;  117.350;    0.000
299.489; 2895.300;  138.350;    0.000
299.553; 3031.300;  198.350;    0.000
299.616; 2989.300;  158.350;    0.000
299.679; 2886.300;  148.350;    0.000
299.742; 2836.300;  138.350;    0.000
299.805; 2982.300;  157.350;    0.000
299.868; 2928.300;  183.350;    0.000
299.932; 2865.300;  137.350;    0.000
299.995; 2920.300;  152.350;    0.000
300.058; 2853.300;  171.350;    0.000
300.121; 2900.300;  172.350;    0.000
300.184; 2867.300;  161.350;    0.000
300.247; 2907.300;  156.350;    0.000
300.310; 2841.300;  154.350;    0.000
300.374; 2909.300;  147.350;    0.000
300.437; 2851.300;  144.350;    0.000
300.500; 2868.300;  152.350;    0.000
300.563; 2962.300;  160.350;    0.000
300.626; 2865.300;  167.350;    0.000
300.689; 2863.300;  193.350;    0.000
300.752; 2862.300;  134.350;    0.000
300.815; 2831.300;  194.350;    0.000
300.878; 2918.300;  156.350;    0.000
300.941; 2817.300;  177.350;    0.000
301.004; 2862.300;  160.350;    0.000
301.067; 2840.300;  153.350;    0.000
301.130; 2798.300;  167.350;    0.000
301.193; 2858.300;  156.350;    0.000
301.256; 2827.300;  176.350;    0.000
301.319; 2848.300;  172.350;    0.000
301.382; 2779.300;  150.350;    0.000
301.445; 2836.300;  183.350;    0.000
301.508; 2756.300;  118.350;    0.000
301.571; 2782.300;  142.350;    0.000
301.634; 2795.300;  164.350;    0.000
301.697; 2804.300;  169.350;    0.000
301.760; 2815.300;  197.350;    0.000
301.823; 2813.300;  155.350;    0.000
301.885; 2824.300;  165.350;    0.000
301.948; 2810.300;  168.350;    0.000
302.011; 2775.300;  172.350;    0.000
302.074; 2826.300;  182.350;    0.000
302.137; 2885.300;  161.350;    0.000
302.200; 2747.300;  174.350;    0.000
302.263; 2796.300;  158.350;    0.000
302.326; 2846.300;  168.350;    0.000
302.388; 2760.300;  165.350;    0.000
302.451; 2695.300;  158.350;    0.000
302.514; 2734.300;  181.350;    0.000
302.577; 2769.300;  147.350;    0.000
302.640; 2658.300;  178.350;    0.000
302.703; 2787.300;  164.350;    0.000
302.765; 2736.300;  149.350;    0.000
302.828; 2734.300;  192.350;    0.000
302.891; 2793.300;  201.350;    0.000
302.954; 2796.300;  135.350;    0.000
303.016; 2790.300;  180.350;    0.000
303.079; 2717.300;  192.350;    0.000
303.142; 2732.300;  176.350;    0.000
303.205; 2655.300;  176.350;    0.000
303.267; 2821.300;  163.350;    0.000
303.330; 2848.300;  162.350;    0.000
303.393; 2723.300;  164.350;    0.000
303.456; 2719.300;  180.350;    0.000
303.518; 2738.300;  162.350;    0.000
303.581; 2729.300;  137.350;    0.000
303.644; 2663.300;  135.350;    0.000
303.706; 2722.300;  170.350;    0.000
303.769; 2726.300;  216.350;    0.000
303.832; 2642.300;  143.350;    0.000
303.894; 2805.300;  162.350;    0.000
303.957; 2716.300;  149.350;    0.000
304.020; 2748.300;  111.350;    0.000
304.082; 2804.300;  158.350;    0.000
304.145; 2764.300;  149.350;    0.000
304.207; 2705.300;  169.350;    0.000
304.270; 2699.300;  170.350;    0.000
304.333; 2713.300;  185.350;    0.000
304.395; 2869.300;  179.350;    0.000
304.458; 2733.300;  174.350;    0.000
304.520; 2777.300;  160.350;    0.000
304.583; 2716.300;  175.350;    0.000
304.646; 2681.300;  160.350;    0.000
304.708; 2737.300;  173.350;    0.000
304.771; 2777.300;  115.350;    0.000
304.833; 2719.300;  172.350;    0.000
304.896; 2795.300;  187.350;    0.000
304.958; 2755.300;  142.350;    0.000
305.021; 2653.300;  164.350;    0.000
305.083; 2777.300;  139.350;    0.000
305.146; 2830.300;  162.350;    0.000
305.208; 2808.300;  135.350;    0.000
305.271; 2806.300;  159.350;    0.000
305.333; 2707.300;  210.350;    0.000
305.396; 2763.300;  151.350;    0.000
305.458; 2748.300;  195.350;    0.000
305.520; 2765.300;  179.350;    0.000
305.583; 2760.300;  157.350;    0.000
305.645; 2726.300;  187.350;    0.000
305.708; 2744.300;  159.350;    0.000
305.770; 2801.300;  189.350;    0.000
305.833; 2803.300;  147.350;    0.000
305.895; 2785.300;  154.350;    0.000
305.957; 2752.300;  143.350;    0.000
306.020; 2749.300;  133.350;    0.000
306.082; 2829.300;  146.350;    0.000
306.144; 2816.300;  171.350;    0.000
306.207; 2827.300;  151.350;    0.000
306.269; 2755.300;  169.350;    0.000
306.331; 2843.300;  162.350;    0.000
306.394; 2767.300;  171.350;    0.000
306.456; 2767.300;  155.350;    0.000
306.518; 2672.300;  183.350;    0.000
306.581; 2732.300;  180.350;    0.000
306.643; 2766.300;  199.350;    0.000
306.705; 2856.300;  163.350;    0.000
306.768; 2834.300;  183.350;    0.000
306.830; 2879.300;  183.350;    0.000
306.892; 2843.300;  190.350;    0.000
306.954; 2850.300;  161.350;    0.000
307.017; 2979.300;  151.350;    0.000
307.079; 2832.300;  147.350;    0.000
307.141; 2892.300;  179.350;    0.000
307.203; 2832.300;  143.350;    0.000
307.266; 2812.300;  142.350;    0.000
307.328; 2860.300;  161.350;    0.000
307.390; 2887.300;  189.350;    0.000
307.452; 2901.300;  155.350;    0.000
307.514; 2857.300;  211.350;    0.000
307.577; 2859.300;  201.350;    0.000
307.639; 2963.300;  192.350;    0.000
307.701; 2978.300;  162.350;    0.000
307.763; 2957.300;  155.350;    0.000
307.825; 3025.300;  193.350;    0.000
307.887; 3010.300;  214.350;    0.000
307.949; 2970.300;  208.350;    0.000
308.012; 2956.300;  175.350;    0.000
308.074; 3053.300;  155.350;    0.000
308.136; 3027.300;  172.350;    0.000
308.198; 3020.300;  171.350;    0.000
308.260; 3054.300;  182.350;    0.000
308.322; 2957.300;  177.350;    0.000
308.384; 2957.300;  207.350;    0.000
308.446; 3122.300;  170.350;    0.000
308.508; 3063.300;  177.350;    0.000
308.570; 3070.300;  195.350;    0.000
308.632; 3141.300;  190.350;    0.000
308.694; 3061.300;  161.350;    0.000
308.756; 2990.300;  173.350;    0.000
308.818; 3128.300;  190.350;    0.000
308.880; 3136.300;  197.350;    0.000
308.942; 3209.300;  223.350;    0.000
309.004; 3275.300;  176.350;    0.000
309.066; 3338.300;  182.350;    0.000
309.128; 3263.300;  185.350;    0.000
309.190; 3407.300;  166.350;    0.000
309.252; 3533.300;  191.350;    0.000
309.314; 3546.300;  208.350;    0.000
309.376; 3560.300;  205.350;    0.000
309.438; 3478.300;  166.350;    0.000
309.500; 3412.300;  195.350;    0.000
309.562; 3537.300;  163.350;    0.000
309.624; 3566.300;  162.350;    0.000
309.686; 3711.300;  194.350;    0.000
309.747; 3684.300;  179.350;    0.000
309.809; 3577.300;  211.350;    0.000
309.871; 3403.300;  191.350;    0.000
309.933; 3510.300;  151.350;    0.000
309.995; 3342.300;  179.350;    0.000
310.057; 3227.300;  175.350;    0.000
310.119; 3289.300;  161.350;    0.000
310.180; 3280.300;  167.350;    0.000
310.242; 3252.300;  171.350;    0.000
310.304; 3210.300;  209.350;    0.000
310.366; 3242.300;  229.350;    0.000
310.428; 3215.300;  132.350;    0.000
310.489; 3099.300;  165.350;    0.000
310.551; 3153.300;  193.350;    0.000
310.613; 3242.300;  182.350;    0.000
310.675; 3216.300;  186.350;    0.000
310.737; 3210.300;  192.350;    0.000
310.798; 3230.300;  194.350;    0.000
310.860; 3247.300;  220.350;    0.000
310.922; 3020.300;  161.350;    0.000
310.983; 3057.300;  203.350;    0.000
311.045; 3030.300;  198.350;    0.000
311.107; 3088.300;  179.350;    0.000
311.169; 3002.300;  154.350;    0.000
311.230; 3089.300;  134.350;    0.000
311.292; 3083.300;  215.350;    0.000
311.354; 2962.300;  171.350;    0.000
311.415; 3133.300;  195.350;    0.000
311.477; 3102.300;  185.350;    0.000
311.539; 3071.300;  183.350;    0.000
311.600; 3138.300;  183.350;    0.000
311.662; 3058.300;  207.350;    0.000
311.724; 3043.300;  193.350;    0.000
311.785; 3098.300;  180.350;    0.000
311.847; 3044.300;  155.350;    0.000
311.908; 3046.300;  179.350;    0.000
311.970; 3052.300;  193.350;    0.000
312.032; 3110.300;  188.350;    0.000
312.093; 3082.300;  166.350;    0.000
312.155; 3013.300;  147.350;    0.000
312.216; 3142.300;  177.350;    0.000
312.278; 3071.300;  162.350;    0.000
312.339; 3078.300;  158.350;    0.000
312.401; 3028.300;  181.350;    0.000
312.462; 3005.300;  153.350;    0.000
312.524; 3082.300;  186.350;    0.000
312.585; 3026.300;  191.350;    0.000
312.647; 3042.300;  131.350;    0.000
312.708; 3125.300;  170.350;    0.000
312.770; 3141.300;  194.350;    0.000
312.831; 3140.300;  161.350;    0.000
312.893; 3144.300;  179.350;    0.000
312.954; 3070.300;  183.350;    0.000
313.016; 3153.300;  189.350;    0.000
313.077; 3141.300;  169.350;    0.000
313.139; 3161.300;  148.350;    0.000
313.200; 3055.300;  155.350;    0.000
313.261; 3112.300;  213.350;    0.000
313.323; 3051.300;  162.350;    0.000
313.384; 3035.300;  160.350;    0.000
313.446; 3105.300;  202.350;    0.000
313.507; 2992.300;  149.350;    0.000
313.568; 3125.300;  194.350;    0.000
313.630; 3060.300;  163.350;    0.000
313.691; 3118.300;  158.350;    0.000
313.752; 3051.300;  179.350;    0.000
313.814; 3035.300;  180.350;    0.000
313.875; 3081.300;  191.350;    0.000
313.936; 3107.300;  169.350;    0.000
313.998; 3050.300;  165.350;    0.000
314.059; 3118.300;  211.350;    0.000
314.120; 2958.300;  190.350;    0.000
314.182; 3135.300;  185.350;    0.000
314.243; 3200.300;  186.350;    0.000
314.304; 3078.300;  178.350;    0.000
314.365; 3096.300;  187.350;    0.000
314.427; 3080.300;  145.350;    0.000
314.488; 3038.300;  184.350;    0.000
314.549; 3083.300;  181.350;    0.000
314.610; 3088.300;  151.350;    0.000
314.672; 3143.300;  153.350;    0.000
314.733; 3129.300;  148.350;    0.000
314.794; 3008.300;  156.350;    0.000
314.855; 3110.300;  196.350;    0.000
314.917; 3055.300;  157.350;    0.000
314.978; 3076.300;  174.350;    0.000
315.039; 3019.300;  168.350;    0.000
315.100; 2991.300;  154.350;    0.000
315.161; 3066.300;  176.350;    0.000
315.222; 2994.300;  198.350;    0.000
315.283; 3065.300;  169.350;    0.000
315.345; 3040.300;  162.350;    0.000
315.406; 3026.300;  199.350;    0.000
315.467; 3012.300;  180.350;    0.000
315.528; 3100.300;  179.350;    0.000
315.589; 3047.300;  166.350;    0.000
315.650; 3033.300;  179.350;    0.000
315.711; 3022.300;  177.350;    0.000
315.772; 2869.300;  180.350;    0.000
315.833; 3153.300;  157.350;    0.000
315.894; 3006.300;  133.350;    0.000
315.955; 3057.300;  205.350;    0.000
316.016; 3072.300;  190.350;    0.000
316.078; 2979.300;  174.350;    0.000
316.139; 3033.300;  208.350;    0.000
316.200; 2976.300;  166.350;    0.000
316.261; 2903.300;  186.350;    0.000
316.322; 3089.300;  185.350;    0.000
316.383; 3012.300;  179.350;    0.000
316.444; 3045.300;  172.350;    0.000
316.504; 2971.300;  181.350;    0.000
316.565; 2976.300;  197.350;    0.000
316.626; 3003.300;  196.350;    0.000
316.687; 2999.300;  173.350;    0.000
316.748; 3053.300;  178.350;    0.000
316.809; 2964.300;  178.350;    0.000
316.870; 2961.300;  134.350;    0.000
316.931; 2972.300;  166.350;    0.000
316.992; 3040.300;  200.350;    0.000
317.053; 2999.300;  169.350;    0.000
317.114; 2999.300;  185.350;    0.000
317.175; 3097.300;  213.350;    0.000
317.235; 2981.300;  199.350;    0.000
317.296; 2941.300;  190.350;    0.000
317.357; 2884.300;  152.350;    0.000
317.418; 2988.300;  192.350;    0.000
317.479; 3005.300;  170.350;    0.000
317.540; 2945.300;  179.350;    0.000
317.601; 2925.300;  155.350;    0.000
317.661; 2833.300;  154.350;    0.000
317.722; 2973.300;  190.350;    0.000
317.783; 2911.300;  149.350;    0.000
317.844; 2979.300;  207.350;    0.000
317.904; 2969.300;  153.350;    0.000
317.965; 2871.300;  179.350;    0.000
318.026; 3021.300;  235.350;    0.000
318.087; 3008.300;  184.350;    0.000
318.148; 2958.300;  201.350;    0.000
318.208; 3027.300;  220.350;    0.000
318.269; 2920.300;  175.350;    0.000
318.330; 3037.300;  185.350;    0.000
318.390; 2811.300;  180.350;    0.000
318.451; 2834.300;  164.350;    0.000
318.512; 2924.300;  150.350;    0.000
318.572; 2975.300;  205.350;    0.000
318.633; 3035.300;  224.350;    0.000
318.694; 2932.300;  202.350;    0.000
318.754; 2904.300;  196.350;    0.000
318.815; 2945.300;  187.350;    0.000
318.876; 2996.300;  200.350;    0.000
318.936; 2996.300;  232.350;    0.000
318.997; 2913.300;  211.350;    0.000
319.058; 2937.300;  194.350;    0.000
319.118; 2959.300;  197.350;    0.000
319.179; 2923.300;  162.350;    0.000
319.239; 2969.300;  188.350;    0.000
319.300; 2893.300;  205.350;    0.000
319.361; 2959.300;  179.350;    0.000
319.421; 2952.300;  182.350;    0.000
319.482; 2888.300;  189.350;    0.000
319.542; 2903.300;  180.350;    0.000
319.603; 2913.300;  204.350;    0.000
319.663; 2834.300;  195.350;    0.000
319.724; 2937.300;  135.350;    0.000
319.784; 2931.300;  184.350;    0.000
319.845; 2968.300;  160.350;    0.000
319.905; 2977.300;  206.350;    0.000
319.966; 2888.300;  203.350;    0.000
320.026; 2925.300;  203.350;    0.000
320.087; 2758.300;  206.350;    0.000
320.147; 2871.300;  180.350;    0.000
320.208; 2909.300;  189.350;    0.000
320.268; 2901.300;  179.350;    0.000
320.329; 2833.300;  215.350;    0.000
320.389; 2888.300;  193.350;    0.000
320.449; 2874.300;  210.350;    0.000
320.510; 2939.300;  206.350;    0.000
320.570; 2853.300;  221.350;    0.000
320.631; 2867.300;  203.350;    0.000
320.691; 2893.300;  190.350;    0.000
320.751; 2772.300;  205.350;    0.000
320.812; 2932.300;  191.350;    0.000
320.872; 2929.300;  216.350;    0.000
320.932; 2928.300;  209.350;    0.000
320.993; 2943.300;  189.350;    0.000
321.053; 2895.300;  228.350;    0.000
321.113; 3003.300;  163.350;    0.000
321.174; 2831.300;  204.350;    0.000
321.234; 2973.300;  214.350;    0.000
321.294; 2934.300;  184.350;    0.000
321.355; 2928.300;  216.350;    0.000
321.415; 2886.300;  187.350;    0.000
321.475; 2938.300;  216.350;    0.000
321.535; 2825.300;  189.350;    0.000
321.596; 2798.300;  186.350;    0.000
321.656; 2847.300;  204.350;    0.000
321.716; 2840.300;  183.350;    0.000
321.776; 2854.300;  194.350;    0.000
321.837; 2799.300;  190.350;    0.000
321.897; 2940.300;  219.350;    0.000
321.957; 2872.300;  222.350;    0.000
322.017; 2775.300;  183.350;    0.000
322.077; 2936.300;  239.350;    0.000
322.138; 2854.300;  219.350;    0.000
322.198; 2837.300;  185.350;    0.000
322.258; 2953.300;  231.350;    0.000
322.318; 2826.300;  197.350;    0.000
322.378; 2863.300;  179.350;    0.000
322.438; 2778.300;  217.350;    0.000
322.499; 2809.300;  238.350;    0.000
322.559; 2835.300;  197.350;    0.000
322.619; 2828.300;  204.350;    0.000
322.679; 2818.300;  199.350;    0.000
322.739; 2790.300;  194.350;    0.000
322.799; 2849.300;  203.350;    0.000
322.859; 2960.300;  234.350;    0.000
322.919; 2781.300;  194.350;    0.000
322.979; 2912.300;  219.350;    0.000
323.039; 2800.300;  193.350;    0.000
323.099; 2869.300;  207.350;    0.000
323.159; 2849.300;  213.350;    0.000
323.219; 2809.300;  171.350;    0.000
323.279; 2811.300;  215.350;    0.000
323.339; 2901.300;  170.350;    0.000
323.399; 2877.300;  195.350;    0.000
323.459; 2879.300;  234.350;    0.000
323.519; 2839.300;  201.350;    0.000
323.579; 2804.300;  167.350;    0.000
323.639; 2897.300;  209.350;    0.000
323.699; 2811.300;  217.350;    0.000
323.759; 2858.300;  213.350;    0.000
323.819; 2882.300;  216.350;    0.000
323.879; 2853.300;  193.350;    0.000
323.939; 2755.300;  182.350;    0.000
323.999; 2758.300;  206.350;    0.000
324.059; 2904.300;  196.350;    0.000
324.119; 2864.300;  240.350;    0.000
324.178; 2731.300;  186.350;    0.000
324.238; 2854.300;  179.350;    0.000
324.298; 2796.300;  195.350;    0.000
324.358; 2753.300;  208.350;    0.000
324.418; 2809.300;  190.350;    0.000
324.478; 2820.300;  197.350;    0.000
324.538; 2776.300;  157.350;    0.000
324.597; 2887.300;  219.350;    0.000
324.657; 2789.300;  176.350;    0.000
324.717; 2829.300;  179.350;    0.000
324.777; 2681.300;  190.350;    0.000
324.837; 2751.300;  172.350;    0.000
324.896; 2844.300;  199.350;    0.000
324.956; 2823.300;  216.350;    0.000
325.016; 2817.300;  191.350;    0.000
325.076; 2939.300;  185.350;    0.000
325.135; 2778.300;  174.350;    0.000
325.195; 2791.300;  175.350;    0.000
325.255; 2824.300;  144.350;    0.000
325.315; 2885.300;  201.350;    0.000
325.374; 2816.300;  198.350;    0.000
325.434; 2790.300;  181.350;    0.000
325.494; 2796.300;  183.350;    0.000
325.553; 2835.300;  172.350;    0.000
325.613; 2765.300;  200.350;    0.000
325.673; 2795.300;  177.350;    0.000
325.732; 2882.300;  174.350;    0.000
325.792; 2849.300;  181.350;    0.000
325.852; 2848.300;  214.350;    0.000
325.911; 2819.300;  230.350;    0.000
325.971; 2856.300;  198.350;    0.000
326.031; 2884.300;  201.350;    0.000
326.090; 2779.300;  214.350;    0.000
326.150; 2819.300;  163.350;    0.000
326.209; 2976.300;  207.350;    0.000
326.269; 2843.300;  201.350;    0.000
326.328; 2803.300;  208.350;    0.000
326.388; 2842.300;  169.350;    0.000
326.448; 2772.300;  229.350;    0.000
326.507; 2795.300;  243.350;    0.000
326.567; 2758.300;  162.350;    0.000
326.626; 2842.300;  200.350;    0.000
326.686; 2686.300;  166.350;    0.000
326.745; 2739.300;  178.350;    0.000
326.805; 2784.300;  185.350;    0.000
326.864; 2810.300;  209.350;    0.000
326.924; 2758.300;  234.350;    0.000
326.983; 2778.300;  197.350;    0.000
327.043; 2720.300;  217.350;    0.000
327.102; 2805.300;  174.350;    0.000
327.161; 2778.300;  172.350;    0.000
327.221; 2804.300;  183.350;    0.000
327.280; 2740.300;  200.350;    0.000
327.340; 2717.300;  200.350;    0.000
327.399; 2789.300;  219.350;    0.000
327.459; 2750.300;  246.350;    0.000
327.518; 2673.300;  217.350;    0.000
327.577; 2689.300;  212.350;    0.000
327.637; 2677.300;  188.350;    0.000
327.696; 2707.300;  201.350;    0.000
327.755; 2766.300;  199.350;    0.000
327.815; 2757.300;  224.350;    0.000
327.874; 2777.300;  236.350;    0.000
327.933; 2799.300;  182.350;    0.000
327.993; 2772.300;  206.350;    0.000
328.052; 2812.300;  191.350;    0.000
328.111; 2743.300;  222.350;    0.000
328.171; 2685.300;  200.350;    0.000
328.230; 2744.300;  203.350;    0.000
328.289; 2651.300;  219.350;    0.000
328.349; 2755.300;  231.350;    0.000
328.408; 2662.300;  223.350;    0.000
328.467; 2797.300;  226.350;    0.000
328.526; 2821.300;  197.350;    0.000
328.586; 2772.300;  221.350;    0.000
328.645; 2714.300;  199.350;    0.000
328.704; 2700.300;  227.350;    0.000
328.763; 2731.300;  201.350;    0.000
328.822; 2725.300;  230.350;    0.000
328.882; 2709.300;  244.350;    0.000
328.941; 2702.300;  221.350;    0.000
329.000; 2615.300;  207.350;    0.000
329.059; 2730.300;  208.350;    0.000
329.118; 2709.300;  203.350;    0.000
329.177; 2723.300;  198.350;    0.000
329.237; 2780.300;  218.350;    0.000
329.296; 2748.300;  213.350;    0.000
329.355; 2728.300;  208.350;    0.000
329.414; 2801.300;  231.350;    0.000
329.473; 2716.300;  221.350;    0.000
329.532; 2765.300;  243.350;    0.000
329.591; 2833.300;  210.350;    0.000
329.650; 2775.300;  232.350;    0.000
329.709; 2783.300;  211.350;    0.000
329.768; 2759.300;  194.350;    0.000
329.827; 2895.300;  237.350;    0.000
329.886; 2935.300;  213.350;    0.000
329.945; 2958.300;  190.350;    0.000
330.004; 3048.300;  233.350;    0.000
330.063; 3106.300;  191.350;    0.000
330.122; 3278.300;  234.350;    0.000
330.181; 3604.300;  220.350;    0.000
330.240; 3660.300;  191.350;    0.000
330.299; 3307.300;  210.350;    0.000
330.358; 2994.300;  191.350;    0.000
330.417; 2870.300;  225.350;    0.000
330.476; 2749.300;  226.350;    0.000
330.535; 2767.300;  217.350;    0.000
330.594; 2776.300;  205.350;    0.000
330.653; 2678.300;  193.350;    0.000
330.712; 2648.300;  206.350;    0.000
330.771; 2717.300;  175.350;    0.000
330.830; 2632.300;  204.350;    0.000
330.889; 2625.300;  198.350;    0.000
330.948; 2606.300;  198.350;    0.000
331.006; 2571.300;  207.350;    0.000
331.065; 2643.300;  203.350;    0.000
331.124; 2629.300;  210.350;    0.000
331.183; 2585.300;  165.350;    0.000
331.242; 2672.300;  195.350;    0.000
331.301; 2670.300;  191.350;    0.000
331.359; 2604.300;  205.350;    0.000
331.418; 2709.300;  183.350;    0.000
331.477; 2653.300;  198.350;    0.000
331.536; 2695.300;  211.350;    0.000
331.595; 2652.300;  191.350;    0.000
331.653; 2667.300;  232.350;    0.000
331.712; 2611.300;  225.350;    0.000
331.771; 2631.300;  199.350;    0.000
331.830; 2540.300;  189.350;    0.000
331.888; 2559.300;  219.350;    0.000
331.947; 2662.300;  188.350;    0.000
332.006; 2626.300;  180.350;    0.000
332.065; 2628.300;  177.350;    0.000
332.123; 2575.300;  214.350;    0.000
332.182; 2556.300;  223.350;    0.000
332.241; 2602.300;  202.350;    0.000
332.299; 2610.300;  180.350;    0.000
332.358; 2643.300;  206.350;    0.000
332.417; 2702.300;  195.350;    0.000
332.475; 2615.300;  221.350;    0.000
332.534; 2706.300;  207.350;    0.000
332.592; 2722.300;  190.350;    0.000
332.651; 2620.300;  203.350;    0.000
332.710; 2736.300;  219.350;    0.000
332.768; 2730.300;  210.350;    0.000
332.827; 2738.300;  173.350;    0.000
332.885; 2764.300;  239.350;    0.000
332.944; 2683.300;  145.350;    0.000
333.003; 2773.300;  197.350;    0.000
333.061; 2726.300;  179.350;    0.000
333.120; 2774.300;  198.350;    0.000
333.178; 2817.300;  185.350;    0.000
333.237; 2920.300;  204.350;    0.000
333.295; 2931.300;  266.350;    0.000
333.354; 2814.300;  181.350;    0.000
333.412; 2772.300;  189.350;    0.000
333.471; 2899.300;  216.350;    0.000
333.529; 2819.300;  220.350;    0.000
333.588; 2928.300;  193.350;    0.000
333.646; 3058.300;  186.350;    0.000
333.705; 3089.300;  210.350;    0.000
333.763; 2984.300;  222.350;    0.000
333.822; 2924.300;  222.350;    0.000
333.880; 2849.300;  202.350;    0.000
333.938; 2850.300;  205.350;    0.000
333.997; 2879.300;  199.350;    0.000
334.055; 2965.300;  199.350;    0.000
334.114; 2883.300;  237.350;    0.000
334.172; 2805.300;  155.350;    0.000
334.230; 2788.300;  208.350;    0.000
334.289; 2778.300;  191.350;    0.000
334.347; 2811.300;  211.350;    0.000
334.405; 2792.300;  212.350;    0.000
334.464; 2717.300;  179.350;    0.000
334.522; 2755.300;  160.350;    0.000
334.580; 2772.300;  195.350;    0.000
334.639; 2862.300;  191.350;    0.000
334.697; 2765.300;  194.350;    0.000
334.755; 2769.300;  185.350;    0.000
334.814; 2880.300;  214.350;    0.000
334.872; 2757.300;  179.350;    0.000
334.930; 2696.300;  169.350;    0.000
334.988; 2727.300;  201.350;    0.000
335.047; 2781.300;  188.350;    0.000
335.105; 2759.300;  175.350;    0.000
335.163; 2829.300;  191.350;    0.000
335.221; 2751.300;  196.350;    0.000
335.280; 2738.300;  182.350;    0.000
335.338; 2713.300;  202.350;    0.000
335.396; 2808.300;  219.350;    0.000
335.454; 2743.300;  187.350;    0.000
335.512; 2740.300;  236.350;    0.000
335.570; 2784.300;  209.350;    0.000
335.629; 2899.300;  247.350;    0.000
335.687; 2889.300;  219.350;    0.000
335.745; 2782.300;  203.350;    0.000
335.803; 2781.300;  220.350;    0.000
335.861; 2849.300;  208.350;    0.000
335.919; 2834.300;  223.350;    0.000
335.977; 2879.300;  201.350;    0.000
336.035; 2760.300;  193.350;    0.000
336.094; 2775.300;  178.350;    0.000
336.152; 2677.300;  182.350;    0.000
336.210; 2792.300;  199.350;    0.000
336.268; 2762.300;  216.350;    0.000
336.326; 2845.300;  216.350;    0.000
336.384; 2810.300;  201.350;    0.000
336.442; 2839.300;  197.350;    0.000
336.500; 2719.300;  203.350;    0.000
336.558; 2696.300;  198.350;    0.000
336.616; 2821.300;  210.350;    0.000
336.674; 2746.300;  192.350;    0.000
336.732; 2744.300;  182.350;    0.000
336.790; 2776.300;  189.350;    0.000
336.848; 2769.300;  233.350;    0.000
336.906; 2697.300;  235.350;    0.000
336.964; 2684.300;  208.350;    0.000
337.022; 2667.300;  249.350;    0.000
337.080; 2739.300;  204.350;    0.000
337.138; 2705.300;  176.350;    0.000
337.195; 2689.300;  207.350;    0.000
337.253; 2759.300;  214.350;    0.000
337.311; 2796.300;  210.350;    0.000
337.369; 2656.300;  222.350;    0.000
337.427; 2691.300;  236.350;    0.000
337.485; 2633.300;  241.350;    0.000
337.543; 2628.300;  217.350;    0.000
337.601; 2669.300;  221.350;    0.000
337.658; 2671.300;  205.350;    0.000
337.716; 2704.300;  210.350;    0.000
337.774; 2711.300;  196.350;    0.000
337.832; 2743.300;  200.350;    0.000
337.890; 2555.300;  192.350;    0.000
337.947; 2676.300;  192.350;    0.000
338.005; 2657.300;  211.350;    0.000
338.063; 2508.300;  176.350;    0.000
338.121; 2638.300;  222.350;    0.000
338.178; 2608.300;  198.350;    0.000
338.236; 2629.300;  210.350;    0.000
338.294; 2639.300;  211.350;    0.000
338.352; 2567.300;  212.350;    0.000
338.409; 2656.300;  199.350;    0.000
338.467; 2591.300;  205.350;    0.000
338.525; 2561.300;  217.350;    0.000
338.583; 2460.300;  197.350;    0.000
338.640; 2608.300;  226.350;    0.000
338.698; 2577.300;  201.350;    0.000
338.756; 2608.300;  192.350;    0.000
338.813; 2621.300;  220.350;    0.000
338.871; 2671.300;  258.350;    0.000
338.928; 2751.300;  223.350;    0.000
338.986; 2625.300;  200.350;    0.000
339.044; 2651.300;  206.350;    0.000
339.101; 2609.300;  250.350;    0.000
339.159; 2634.300;  245.350;    0.000
339.216; 2598.300;  227.350;    0.000
339.274; 2727.300;  260.350;    0.000
339.332; 2718.300;  223.350;    0.000
339.389; 2587.300;  233.350;    0.000
339.447; 2636.300;  206.350;    0.000
339.504; 2592.300;  229.350;    0.000
339.562; 2476.300;  194.350;    0.000
339.619; 2458.300;  245.350;    0.000
339.677; 2632.300;  238.350;    0.000
339.734; 2505.300;  197.350;    0.000
339.792; 2607.300;  210.350;    0.000
339.849; 2453.300;  201.350;    0.000
339.907; 2546.300;  252.350;    0.000
339.964; 2613.300;  191.350;    0.000
340.022; 2505.300;  246.350;    0.000
340.079; 2648.300;  213.350;    0.000
340.137; 2523.300;  240.350;    0.000
340.194; 2534.300;  208.350;    0.000
340.252; 2457.300;  215.350;    0.000
340.309; 2565.300;  203.350;    0.000
340.366; 2487.300;  194.350;    0.000
340.424; 2658.300;  226.350;    0.000
340.481; 2560.300;  234.350;    0.000
340.538; 2483.300;  205.350;    0.000
340.596; 2541.300;  197.350;    0.000
340.653; 2560.300;  233.350;    0.000
340.711; 2654.300;  273.350;    0.000
340.768; 2531.300;  237.350;    0.000
340.825; 2634.300;  224.350;    0.000
340.883; 2563.300;  240.350;    0.000
340.940; 2589.300;  216.350;    0.000
340.997; 2508.300;  228.350;    0.000
341.054; 2568.300;  200.350;    0.000
341.112; 2584.300;  220.350;    0.000
341.169; 2558.300;  226.350;    0.000
341.226; 2719.300;  206.350;    0.000
341.284; 2541.300;  204.350;    0.000
341.341; 2683.300;  214.350;    0.000
341.398; 2579.300;  160.350;    0.000
341.455; 2666.300;  209.350;    0.000
341.512; 2672.300;  233.350;    0.000
341.570; 2599.300;  240.350;    0.000
341.627; 2520.300;  209.350;    0.000
341.684; 2546.300;  178.350;    0.000
341.741; 2584.300;  254.350;    0.000
341.798; 2561.300;  232.350;    0.000
341.856; 2566.300;  196.350;    0.000
341.913; 2617.300;  244.350;    0.000
341.970; 2564.300;  203.350;    0.000
342.027; 2539.300;  235.350;    0.000
342.084; 2491.300;  214.350;    0.000
342.141; 2524.300;  194.350;    0.000
342.198; 2635.300;  194.350;    0.000
342.255; 2531.300;  219.350;    0.000
342.313; 2478.300;  195.350;    0.000
342.370; 2504.300;  207.350;    0.000
342.427; 2519.300;  217.350;    0.000
342.484; 2622.300;  213.350;    0.000
342.541; 2488.300;  215.350;    0.000
342.598; 2532.300;  247.350;    0.000
342.655; 2493.300;  205.350;    0.000
342.712; 2590.300;  226.350;    0.000
342.769; 2582.300;  212.350;    0.000
342.826; 2537.300;  203.350;    0.000
342.883; 2607.300;  207.350;    0.000
342.940; 2567.300;  204.350;    0.000
342.997; 2674.300;  237.350;    0.000
343.054; 2560.300;  210.350;    0.000
343.111; 2597.300;  209.350;    0.000
343.168; 2732.300;  201.350;    0.000
343.225; 2688.300;  208.350;    0.000
343.282; 2656.300;  216.350;    0.000
343.339; 2759.300;  237.350;    0.000
343.395; 2673.300;  218.350;    0.000
343.452; 2765.300;  234.350;    0.000
343.509; 2645.300;  214.350;    0.000
343.566; 2763.300;  222.350;    0.000
343.623; 2770.300;  226.350;    0.000
343.680; 2769.300;  245.350;    0.000
343.737; 2813.300;  209.350;    0.000
343.794; 2889.300;  227.350;    0.000
343.850; 2806.300;  197.350;    0.000
343.907; 2862.300;  211.350;    0.000
343.964; 2883.300;  190.350;    0.000
344.021; 2915.300;  252.350;    0.000
344.078; 2889.300;  261.350;    0.000
344.134; 2840.300;  206.350;    0.000
344.191; 2808.300;  231.350;    0.000
344.248; 2858.300;  225.350;    0.000
344.305; 2862.300;  210.350;    0.000
344.361; 2747.300;  194.350;    0.000
344.418; 2891.300;  219.350;    0.000
344.475; 2817.300;  245.350;    0.000
344.532; 2860.300;  238.350;    0.000
344.588; 2822.300;  235.350;    0.000
344.645; 2824.300;  229.350;    0.000
344.702; 2704.300;  145.350;    0.000
344.758; 2767.300;  240.350;    0.000
344.815; 2815.300;  215.350;    0.000
344.872; 2702.300;  203.350;    0.000
344.928; 2829.300;  208.350;    0.000
344.985; 2803.300;  216.350;    0.000
345.042; 2802.300;  234.350;    0.000
345.098; 2870.300;  183.350;    0.000
345.155; 2822.300;  241.350;    0.000
345.212; 2703.300;  222.350;    0.000
345.268; 2712.300;  234.350;    0.000
345.325; 2606.300;  181.350;    0.000
345.381; 2750.300;  251.350;    0.000
345.438; 2678.300;  256.350;    0.000
345.495; 2794.300;  247.350;    0.000
345.551; 2763.300;  231.350;    0.000
345.608; 2698.300;  206.350;    0.000
345.664; 2768.300;  201.350;    0.000
345.721; 2678.300;  216.350;    0.000
345.777; 2742.300;  195.350;    0.000
345.834; 2568.300;  195.350;    0.000
345.890; 2708.300;  227.350;    0.000
345.947; 2697.300;  240.350;    0.000
346.003; 2792.300;  248.350;    0.000
346.060; 2642.300;  213.350;    0.000
346.116; 2755.300;  225.350;    0.000
346.173; 2843.300;  199.350;    0.000
346.229; 2813.300;  264.350;    0.000
346.285; 2761.300;  246.350;    0.000
346.342; 2718.300;  240.350;    0.000
346.398; 2760.300;  222.350;    0.000
346.455; 2792.300;  231.350;    0.000
346.511; 2811.300;  214.350;    0.000
346.567; 2761.300;  231.350;    0.000
346.624; 2808.300;  222.350;    0.000
346.680; 2755.300;  197.350;    0.000
346.737; 2849.300;  225.350;    0.000
346.793; 2772.300;  255.350;    0.000
346.849; 2929.300;  245.350;    0.000
346.906; 2743.300;  221.350;    0.000
346.962; 2980.300;  260.350;    0.000
347.018; 2869.300;  238.350;    0.000
347.074; 2797.300;  257.350;    0.000
347.131; 2827.300;  200.350;    0.000
347.187; 2758.300;  232.350;    0.000
347.243; 2785.300;  240.350;    0.000
347.300; 2759.300;  249.350;    0.000
347.356; 2747.300;  250.350;    0.000
347.412; 2806.300;  252.350;    0.000
347.468; 2798.300;  254.350;    0.000
347.524; 2799.300;  280.350;    0.000
347.581; 2836.300;  228.350;    0.000
347.637; 2868.300;  261.350;    0.000
347.693; 2856.300;  238.350;    0.000
347.749; 2848.300;  261.350;    0.000
347.805; 2816.300;  238.350;    0.000
347.862; 2797.300;  246.350;    0.000
347.918; 2757.300;  256.350;    0.000
347.974; 2885.300;  277.350;    0.000
348.030; 2849.300;  242.350;    0.000
348.086; 2815.300;  223.350;    0.000
348.142; 2795.300;  215.350;    0.000
348.198; 2785.300;  272.350;    0.000
348.254; 2801.300;  292.350;    0.000
348.311; 2763.300;  235.350;    0.000
348.367; 2794.300;  263.350;    0.000
348.423; 2810.300;  193.350;    0.000
348.479; 2741.300;  266.350;    0.000
348.535; 2865.300;  238.350;    0.000
348.591; 2820.300;  237.350;    0.000
348.647; 2814.300;  239.350;    0.000
348.703; 2876.300;  240.350;    0.000
348.759; 2765.300;  253.350;    0.000
348.815; 2855.300;  255.350;    0.000
348.871; 2823.300;  256.350;    0.000
348.927; 2762.300;  261.350;    0.000
348.983; 2829.300;  258.350;    0.000
349.039; 2877.300;  204.350;    0.000
349.095; 2820.300;  215.350;    0.000
349.151; 2776.300;  230.350;    0.000
349.207; 2864.300;  216.350;    0.000
349.263; 2781.300;  235.350;    0.000
349.319; 2783.300;  244.350;    0.000
349.374; 2783.300;  213.350;    0.000
349.430; 2997.300;  241.350;    0.000
349.486; 2863.300;  248.350;    0.000
349.542; 2977.300;  259.350;    0.000
349.598; 2950.300;  208.350;    0.000
349.654; 2914.300;  242.350;    0.000
349.710; 2867.300;  246.350;    0.000
349.766; 2946.300;  226.350;    0.000
349.821; 2835.300;  227.350;    0.000
349.877; 2946.300;  226.350;    0.000
349.933; 2940.300;  249.350;    0.000
349.989; 2920.300;  263.350;    0.000
350.045; 2884.300;  267.350;    0.000
350.100; 2878.300;  219.350;    0.000
350.156; 2898.300;  207.350;    0.000
350.212; 2943.300;  230.350;    0.000
350.268; 2847.300;  223.350;    0.000
350.323; 2855.300;  217.350;    0.000
350.379; 2812.300;  227.350;    0.000
350.435; 2836.300;  219.350;    0.000
350.491; 2780.300;  195.350;    0.000
350.546; 2878.300;  229.350;    0.000
350.602; 2806.300;  222.350;    0.000
350.658; 2957.300;  225.350;    0.000
350.713; 2841.300;  231.350;    0.000
350.769; 2779.300;  193.350;    0.000
350.825; 2830.300;  182.350;    0.000
350.880; 2904.300;  193.350;    0.000
350.936; 2943.300;  222.350;    0.000
350.992; 2877.300;  217.350;    0.000
351.047; 2828.300;  226.350;    0.000
351.103; 2848.300;  187.350;    0.000
351.158; 2859.300;  212.350;    0.000
351.214; 2886.300;  207.350;    0.000
351.270; 2799.300;  194.350;    0.000
351.325; 2891.300;  213.350;    0.000
351.381; 2875.300;  223.350;    0.000
351.436; 2886.300;  222.350;    0.000
351.492; 2936.300;  219.350;    0.000
351.547; 2924.300;  205.350;    0.000
351.603; 2906.300;  218.350;    0.000
351.658; 2870.300;  199.350;    0.000
351.714; 2802.300;  201.350;    0.000
351.769; 2891.300;  209.350;    0.000
351.825; 2883.300;  226.350;    0.000
351.880; 2852.300;  189.350;    0.000
351.936; 2918.300;  201.350;    0.000
351.991; 2880.300;  220.350;    0.000
352.047; 2934.300;  232.350;    0.000
352.102; 2840.300;  185.350;    0.000
352.158; 2917.300;  228.350;    0.000
352.213; 2854.300;  204.350;    0.000
352.268; 2861.300;  220.350;    0.000
352.324; 2966.300;  206.350;    0.000
352.379; 2867.300;  182.350;    0.000
352.434; 2851.300;  214.350;    0.000
352.490; 2846.300;  250.350;    0.000
352.545; 2857.300;  290.350;    0.000
352.601; 2920.300;  247.350;    0.000
352.656; 2824.300;  203.350;    0.000
352.711; 2938.300;  197.350;    0.000
352.767; 2846.300;  169.350;    0.000
352.822; 2893.300;  191.350;    0.000
352.877; 2875.300;  235.350;    0.000
352.932; 2915.300;  231.350;    0.000
352.988; 2800.300;  224.350;    0.000
353.043; 2928.300;  226.350;    0.000
353.098; 2927.300;  227.350;    0.000
353.153; 2924.300;  239.350;    0.000
353.209; 2882.300;  217.350;    0.000
353.264; 2907.300;  198.350;    0.000
353.319; 2911.300;  247.350;    0.000
353.374; 2788.300;  199.350;    0.000
353.430; 2913.300;  247.350;    0.000
353.485; 2828.300;  242.350;    0.000
353.540; 2930.300;  237.350;    0.000
353.595; 2948.300;  233.350;    0.000
353.650; 2859.300;  221.350;    0.000
353.705; 2881.300;  259.350;    0.000
353.761; 2867.300;  223.350;    0.000
353.816; 2954.300;  234.350;    0.000
353.871; 2811.300;  226.350;    0.000
353.926; 2862.300;  232.350;    0.000
353.981; 2895.300;  245.350;    0.000
354.036; 2888.300;  247.350;    0.000
354.091; 2964.300;  233.350;    0.000
354.146; 2864.300;  253.350;    0.000
354.201; 2924.300;  236.350;    0.000
354.256; 2874.300;  210.350;    0.000
354.311; 2969.300;  279.350;    0.000
354.367; 2877.300;  208.350;    0.000
354.422; 2955.300;  228.350;    0.000
354.477; 2929.300;  202.350;    0.000
354.532; 2994.300;  215.350;    0.000
354.587; 2939.300;  249.350;    0.000
354.642; 2827.300;  206.350;    0.000
354.697; 2950.300;  226.350;    0.000
354.751; 3015.300;  241.350;    0.000
354.806; 3004.300;  249.350;    0.000
354.861; 2894.300;  216.350;    0.000
354.916; 2970.300;  249.350;    0.000
354.971; 2890.300;  217.350;    0.000
355.026; 2956.300;  236.350;    0.000
355.081; 2903.300;  242.350;    0.000
355.136; 2920.300;  216.350;    0.000
355.191; 2888.300;  216.350;    0.000
355.246; 2890.300;  258.350;    0.000
355.301; 2927.300;  250.350;    0.000
355.355; 2898.300;  251.350;    0.000
355.410; 2953.300;  216.350;    0.000
355.465; 2867.300;  224.350;    0.000
355.520; 2996.300;  221.350;    0.000
355.575; 2896.300;  255.350;    0.000
355.630; 2980.300;  225.350;    0.000
355.684; 2953.300;  210.350;    0.000
355.739; 2966.300;  232.350;    0.000
355.794; 2913.300;  202.350;    0.000
355.849; 2895.300;  211.350;    0.000
355.904; 2873.300;  226.350;    0.000
355.958; 2901.300;  191.350;    0.000
356.013; 2982.300;  208.350;    0.000
356.068; 2917.300;  229.350;    0.000
356.123; 3004.300;  243.350;    0.000
356.177; 2867.300;  227.350;    0.000
356.232; 2999.300;  243.350;    0.000
356.287; 3072.300;  216.350;    0.000
356.341; 2899.300;  242.350;    0.000
356.396; 2957.300;  175.350;    0.000
356.451; 2888.300;  271.350;    0.000
356.505; 2934.300;  225.350;    0.000
356.560; 2995.300;  260.350;    0.000
356.615; 2990.300;  213.350;    0.000
356.669; 2913.300;  213.350;    0.000
356.724; 2999.300;  221.350;    0.000
356.778; 2908.300;  232.350;    0.000
356.833; 2950.300;  178.350;    0.000
356.888; 2992.300;  236.350;    0.000
356.942; 2955.300;  224.350;    0.000
356.997; 2960.300;  228.350;    0.000
357.051; 2871.300;  226.350;    0.000
357.106; 2998.300;  185.350;    0.000
357.160; 2933.300;  202.350;    0.000
357.215; 2828.300;  232.350;    0.000
357.269; 2929.300;  224.350;    0.000
357.324; 2888.300;  219.350;    0.000
357.378; 2860.300;  196.350;    0.000
357.433; 2979.300;  241.350;    0.000
357.487; 3017.300;  244.350;    0.000
357.542; 2953.300;  210.350;    0.000
357.596; 2931.300;  231.350;    0.000
357.651; 2941.300;  248.350;    0.000
357.705; 3052.300;  232.350;    0.000
357.760; 2939.300;  224.350;    0.000
357.814; 2943.300;  221.350;    0.000
357.868; 2974.300;  207.350;    0.000
357.923; 2893.300;  234.350;    0.000
357.977; 2887.300;  218.350;    0.000
358.032; 2890.300;  244.350;    0.000
358.086; 3042.300;  246.350;    0.000
358.140; 2930.300;  235.350;    0.000
358.195; 2991.300;  237.350;    0.000
358.249; 2934.300;  233.350;    0.000
358.303; 2988.300;  254.350;    0.000
358.358; 2912.300;  217.350;    0.000
358.412; 2998.300;  245.350;    0.000
358.466; 2946.300;  230.350;    0.000
358.521; 2952.300;  214.350;    0.000
358.575; 2945.300;  243.350;    0.000
358.629; 2923.300;  230.350;    0.000
358.683; 2952.300;  232.350;    0.000
358.738; 2916.300;  249.350;    0.000
358.792; 2953.300;  249.350;    0.000
358.846; 2937.300;  271.350;    0.000
358.900; 3004.300;  265.350;    0.000
358.954; 2993.300;  236.350;    0.000
359.009; 2915.300;  254.350;    0.000
359.063; 2923.300;  216.350;    0.000
359.117; 2995.300;  245.350;    0.000
359.171; 3045.300;  252.350;    0.000
359.225; 2977.300;  240.350;    0.000
359.280; 2978.300;  239.350;    0.000
359.334; 2904.300;  234.350;    0.000
359.388; 3024.300;  258.350;    0.000
359.442; 2877.300;  220.350;    0.000
359.496; 2847.300;  206.350;    0.000
359.550; 2938.300;  279.350;    0.000
359.604; 2941.300;  263.350;    0.000
359.658; 2895.300;  251.350;    0.000
359.712; 2953.300;  244.350;    0.000
359.766; 2894.300;  217.350;    0.000
359.820; 2936.300;  235.350;    0.000
359.875; 2877.300;  249.350;    0.000
359.929; 2976.300;  269.350;    0.000
359.983; 2963.300;  240.350;    0.000
360.037; 2884.300;  252.350;    0.000
360.091; 3005.300;  271.350;    0.000
360.145; 2881.300;  222.350;    0.000
360.199; 2875.300;  302.350;    0.000
360.253; 2930.300;  234.350;    0.000
360.306; 2919.300;  258.350;    0.000
360.360; 2871.300;  249.350;    0.000
360.414; 3063.300;  231.350;    0.000
360.468; 2880.300;  261.350;    0.000
360.522; 2952.300;  277.350;    0.000
360.576; 2924.300;  273.350;    0.000
360.630; 2922.300;  264.350;    0.000
360.684; 3038.300;  223.350;    0.000
360.738; 2987.300;  266.350;    0.000
360.792; 2949.300;  252.350;    0.000
360.846; 2909.300;  234.350;    0.000
360.899; 2894.300;  296.350;    0.000
360.953; 2986.300;  273.350;    0.000
361.007; 2926.300;  251.350;    0.000
361.061; 3029.300;  250.350;    0.000
361.115; 2987.300;  267.350;    0.000
361.168; 2958.300;  308.350;    0.000
361.222; 2900.300;  246.350;    0.000
361.276; 2960.300;  261.350;    0.000
361.330; 2879.300;  233.350;    0.000
361.384; 2926.300;  269.350;    0.000
361.437; 2950.300;  270.350;    0.000
361.491; 2967.300;  263.350;    0.000
361.545; 2965.300;  288.350;    0.000
361.599; 2908.300;  270.350;    0.000
361.652; 2906.300;  256.350;    0.000
361.706; 2894.300;  263.350;    0.000
361.760; 2974.300;  237.350;    0.000
361.813; 2947.300;  278.350;    0.000
361.867; 2911.300;  317.350;    0.000
361.921; 2966.300;  260.350;    0.000
361.974; 2974.300;  239.350;    0.000
362.028; 2986.300;  266.350;    0.000
362.082; 2916.300;  269.350;    0.000
362.135; 2962.300;  262.350;    0.000
362.189; 2950.300;  258.350;    0.000
362.242; 2954.300;  273.350;    0.000
362.296; 2920.300;  261.350;    0.000
362.350; 2909.300;  272.350;    0.000
362.403; 2916.300;  291.350;    0.000
362.457; 2922.300;  253.350;    0.000
362.510; 2908.300;  266.350;    0.000
362.564; 2923.300;  260.350;    0.000
362.617; 2875.300;  280.350;    0.000
362.671; 2949.300;  281.350;    0.000
362.724; 2942.300;  234.350;    0.000
362.778; 2871.300;  311.350;    0.000
362.831; 2972.300;  276.350;    0.000
362.885; 2866.300;  288.350;    0.000
362.938; 2751.300;  284.350;    0.000
362.992;  324.300;  245.350;    0.000
363.045;  268.300;  277.350;    0.000
363.099;  277.300;  246.350;    0.000
363.152;  288.300;  290.350;    0.000
363.205;  284.300;  256.350;    0.000
363.259;  271.300;  238.350;    0.000
363.312;  309.300;  290.350;    0.000
363.366;  285.300;  287.350;    0.000
363.419;  287.300;  279.350;    0.000
363.472;  307.300;  304.350;    0.000
363.526;  278.300;  305.350;    0.000
363.579;  259.300;  281.350;    0.000
363.632;  327.300;  279.350;    0.000
363.686;  276.300;  277.350;    0.000
363.739;  274.300;  268.350;    0.000
363.792;  292.300;  274.350;    0.000

