
Integration time [ms]:   0.300
Averaging Nr. [scans]: 1
Smoothing Nr. [pixels]: 0
Data measured with spectrometer [name]: NIR
Wave   ;Sample   ;Dark     ;Reference
[nm]   ;[counts] ;[counts] ;[counts] 

691.496;  -34.550;  155.525;    0.000
691.696;  -24.550;  186.525;    0.000
691.896;  -85.550;  113.525;    0.000
692.096;  -28.550;  169.525;    0.000
692.296; -103.550;  119.525;    0.000
692.496;  -15.550;  182.525;    0.000
692.695;  -36.550;  119.525;    0.000
692.895;   -2.550;  183.525;    0.000
693.095;  -94.550;  119.525;    0.000
693.295;  -47.550;  156.525;    0.000
693.495;  -17.550;  145.525;    0.000
693.695;  -62.550;  144.525;    0.000
693.894;  -39.550;  174.525;    0.000
694.094;  -65.550;  148.525;    0.000
694.294;  -59.550;  114.525;    0.000
694.494;  233.450;  137.525;    0.000
694.693; 2768.450;  112.525;    0.000
694.893; 3068.450;   85.525;    0.000
695.093; 3069.450;  152.525;    0.000
695.293; 3244.450;  159.525;    0.000
695.492; 3178.450;  131.525;    0.000
695.692; 3212.450;  134.525;    0.000
695.891; 3118.450;  161.525;    0.000
696.091; 3182.450;  180.525;    0.000
696.291; 3196.450;  120.525;    0.000
696.490; 3173.450;  146.525;    0.000
696.690; 3176.450;  145.525;    0.000
696.889; 3285.450;  171.525;    0.000
697.089; 3203.450;   98.525;    0.000
697.288; 3234.450;  172.525;    0.000
697.488; 3202.450;  137.525;    0.000
697.687; 3296.450;  171.525;    0.000
697.887; 3316.450;  142.525;    0.000
698.086; 3295.450;  159.525;    0.000
698.286; 3219.450;  122.525;    0.000
698.485; 3187.450;  121.525;    0.000
698.684; 3282.450;   94.525;    0.000
698.884; 3290.450;  131.525;    0.000
699.083; 3173.450;  112.525;    0.000
699.282; 3391.450;  119.525;    0.000
699.482; 3347.450;  117.525;    0.000
699.681; 3255.450;  115.525;    0.000
699.880; 3409.450;  166.525;    0.000
700.080; 3438.450;  194.525;    0.000
700.279; 3309.450;   98.525;    0.000
700.478; 3343.450;  159.525;    0.000
700.677; 3347.450;  134.525;    0.000
700.877; 3332.450;  171.525;    0.000
701.076; 3453.450;  141.525;    0.000
701.275; 3422.450;  119.525;    0.000
701.474; 3337.450;  132.525;    0.000
701.673; 3249.450;  141.525;    0.000
701.872; 3420.450;  158.525;    0.000
702.071; 3360.450;  129.525;    0.000
702.271; 3313.450;  122.525;    0.000
702.470; 3442.450;  158.525;    0.000
702.669; 3456.450;  145.525;    0.000
702.868; 3452.450;  135.525;    0.000
703.067; 3438.450;  169.525;    0.000
703.266; 3518.450;  125.525;    0.000
703.465; 3489.450;  153.525;    0.000
703.664; 3418.450;  113.525;    0.000
703.863; 3446.450;  170.525;    0.000
704.062; 3493.450;  115.525;    0.000
704.260; 3421.450;  133.525;    0.000
704.459; 3386.450;  123.525;    0.000
704.658; 3429.450;  105.525;    0.000
704.857; 3441.450;  125.525;    0.000
705.056; 3418.450;  108.525;    0.000
705.255; 3438.450;  117.525;    0.000
705.454; 3429.450;  126.525;    0.000
705.652; 3630.450;  137.525;    0.000
705.851; 3562.450;   95.525;    0.000
706.050; 3583.450;  120.525;    0.000
706.249; 3373.450;   81.525;    0.000
706.447; 3466.450;  105.525;    0.000
706.646; 3451.450;  107.525;    0.000
706.845; 3433.450;  104.525;    0.000
707.043; 3467.450;  136.525;    0.000
707.242; 3510.450;   89.525;    0.000
707.441; 3503.450;  147.525;    0.000
707.639; 3513.450;  156.525;    0.000
707.838; 3646.450;  114.525;    0.000
708.037; 3447.450;  100.525;    0.000
708.235; 3495.450;  103.525;    0.000
708.434; 3559.450;  102.525;    0.000
708.632; 3472.450;  100.525;    0.000
708.831; 3611.450;  121.525;    0.000
709.029; 3495.450;  102.525;    0.000
709.228; 3535.450;   88.525;    0.000
709.426; 3687.450;  135.525;    0.000
709.625; 3648.450;  128.525;    0.000
709.823; 3543.450;  123.525;    0.000
710.022; 3747.450;  137.525;    0.000
710.220; 3623.450;  134.525;    0.000
710.418; 3681.450;  122.525;    0.000
710.617; 3636.450;   64.525;    0.000
710.815; 3695.450;   94.525;    0.000
711.013; 3647.450;  127.525;    0.000
711.212; 3659.450;  105.525;    0.000
711.410; 3738.450;  117.525;    0.000
711.608; 3702.450;  114.525;    0.000
711.807; 3545.450;  119.525;    0.000
712.005; 3725.450;   92.525;    0.000
712.203; 3715.450;   95.525;    0.000
712.401; 3767.450;  107.525;    0.000
712.599; 3777.450;  127.525;    0.000
712.798; 3806.450;  120.525;    0.000
712.996; 3780.450;   76.525;    0.000
713.194; 3747.450;  118.525;    0.000
713.392; 3879.450;   60.525;    0.000
713.590; 3744.450;   92.525;    0.000
713.788; 3771.450;  110.525;    0.000
713.986; 3976.450;  130.525;    0.000
714.184; 3899.450;   71.525;    0.000
714.382; 3915.450;   86.525;    0.000
714.580; 4024.450;   74.525;    0.000
714.778; 4029.450;  133.525;    0.000
714.976; 4064.450;   81.525;    0.000
715.174; 4047.450;  100.525;    0.000
715.372; 4325.450;  141.525;    0.000
715.570; 4500.450;   73.525;    0.000
715.768; 4686.450;  119.525;    0.000
715.966; 4818.450;   81.525;    0.000
716.164; 4609.450;  130.525;    0.000
716.362; 4696.450;  125.525;    0.000
716.560; 4478.450;  109.525;    0.000
716.758; 4469.450;   96.525;    0.000
716.955; 4259.450;   83.525;    0.000
717.153; 4306.450;   87.525;    0.000
717.351; 4388.450;  123.525;    0.000
717.549; 4213.450;  121.525;    0.000
717.746; 4178.450;  128.525;    0.000
717.944; 4295.450;  132.525;    0.000
718.142; 4147.450;  120.525;    0.000
718.340; 4224.450;   94.525;    0.000
718.537; 4268.450;   95.525;    0.000
718.735; 4135.450;  152.525;    0.000
718.933; 4127.450;  124.525;    0.000
719.130; 4189.450;  114.525;    0.000
719.328; 4236.450;   63.525;    0.000
719.525; 4212.450;  146.525;    0.000
719.723; 4119.450;   96.525;    0.000
719.920; 4155.450;  120.525;    0.000
720.118; 4178.450;   59.525;    0.000
720.316; 4144.450;  116.525;    0.000
720.513; 4222.450;  127.525;    0.000
720.711; 4177.450;  110.525;    0.000
720.908; 4115.450;   92.525;    0.000
721.105; 4167.450;  138.525;    0.000
721.303; 4204.450;   90.525;    0.000
721.500; 4119.450;  126.525;    0.000
721.698; 4194.450;  103.525;    0.000
721.895; 4117.450;  206.525;    0.000
722.092; 4207.450;   63.525;    0.000
722.290; 4168.450;  123.525;    0.000
722.487; 4189.450;  137.525;    0.000
722.684; 4205.450;  126.525;    0.000
722.882; 4200.450;  119.525;    0.000
723.079; 4311.450;  132.525;    0.000
723.276; 4180.450;   98.525;    0.000
723.473; 4178.450;   97.525;    0.000
723.671; 4176.450;   43.525;    0.000
723.868; 4276.450;  142.525;    0.000
724.065; 4221.450;  102.525;    0.000
724.262; 4236.450;  119.525;    0.000
724.459; 4249.450;   73.525;    0.000
724.656; 4164.450;  128.525;    0.000
724.854; 4174.450;  135.525;    0.000
725.051; 4436.450;   81.525;    0.000
725.248; 4276.450;   88.525;    0.000
725.445; 4290.450;  129.525;    0.000
725.642; 4362.450;   76.525;    0.000
725.839; 4411.450;  134.525;    0.000
726.036; 4314.450;  101.525;    0.000
726.233; 4162.450;   68.525;    0.000
726.430; 4339.450;  121.525;    0.000
726.627; 4261.450;  136.525;    0.000
726.824; 4211.450;   87.525;    0.000
727.021; 4353.450;  141.525;    0.000
727.218; 4283.450;   92.525;    0.000
727.414; 4373.450;  121.525;    0.000
727.611; 4262.450;  100.525;    0.000
727.808; 4237.450;  130.525;    0.000
728.005; 4316.450;   83.525;    0.000
728.202; 4371.450;  120.525;    0.000
728.399; 4332.450;   75.525;    0.000
728.595; 4359.450;  148.525;    0.000
728.792; 4410.450;   79.525;    0.000
728.989; 4402.450;   86.525;    0.000
729.186; 4401.450;   80.525;    0.000
729.382; 4366.450;   72.525;    0.000
729.579; 4435.450;  112.525;    0.000
729.776; 4359.450;  106.525;    0.000
729.972; 4237.450;   77.525;    0.000
730.169; 4416.450;  118.525;    0.000
730.366; 4355.450;   92.525;    0.000
730.562; 4379.450;  104.525;    0.000
730.759; 4411.450;   95.525;    0.000
730.955; 4280.450;   85.525;    0.000
731.152; 4322.450;   79.525;    0.000
731.348; 4393.450;   72.525;    0.000
731.545; 4425.450;   56.525;    0.000
731.741; 4285.450;  106.525;    0.000
731.938; 4472.450;  113.525;    0.000
732.134; 4645.450;  106.525;    0.000
732.331; 4358.450;   82.525;    0.000
732.527; 4454.450;   80.525;    0.000
732.724; 4498.450;   97.525;    0.000
732.920; 4436.450;  127.525;    0.000
733.116; 4442.450;  115.525;    0.000
733.313; 4461.450;  153.525;    0.000
733.509; 4425.450;   76.525;    0.000
733.705; 4507.450;  159.525;    0.000
733.902; 4462.450;   82.525;    0.000
734.098; 4445.450;   70.525;    0.000
734.294; 4448.450;  105.525;    0.000
734.490; 4432.450;  110.525;    0.000
734.687; 4511.450;  102.525;    0.000
734.883; 4501.450;   77.525;    0.000
735.079; 4584.450;   93.525;    0.000
735.275; 4596.450;  109.525;    0.000
735.471; 4458.450;   99.525;    0.000
735.667; 4433.450;  107.525;    0.000
735.863; 4522.450;   89.525;    0.000
736.060; 4660.450;  105.525;    0.000
736.256; 4574.450;  113.525;    0.000
736.452; 4511.450;   90.525;    0.000
736.648; 4592.450;   88.525;    0.000
736.844; 4669.450;  129.525;    0.000
737.040; 4712.450;  139.525;    0.000
737.236; 4569.450;  129.525;    0.000
737.432; 4687.450;   67.525;    0.000
737.628; 4700.450;  104.525;    0.000
737.824; 4638.450;  111.525;    0.000
738.019; 4686.450;  116.525;    0.000
738.215; 4764.450;  135.525;    0.000
738.411; 4659.450;  118.525;    0.000
738.607; 4608.450;   58.525;    0.000
738.803; 4641.450;   32.525;    0.000
738.999; 4757.450;  120.525;    0.000
739.195; 4754.450;   76.525;    0.000
739.390; 4843.450;  119.525;    0.000
739.586; 4696.450;   83.525;    0.000
739.782; 4732.450;  134.525;    0.000
739.978; 4854.450;  122.525;    0.000
740.173; 4905.450;   96.525;    0.000
740.369; 4901.450;   86.525;    0.000
740.565; 4952.450;  122.525;    0.000
740.760; 4946.450;   99.525;    0.000
740.956; 5023.450;  137.525;    0.000
741.152; 4944.450;  108.525;    0.000
741.347; 5028.450;   65.525;    0.000
741.543; 4982.450;   73.525;    0.000
741.738; 5213.450;  142.525;    0.000
741.934; 5307.450;  131.525;    0.000
742.129; 5472.450;   66.525;    0.000
742.325; 6246.450;  143.525;    0.000
742.520; 6959.450;  119.525;    0.000
742.716; 6446.450;  109.525;    0.000
742.911; 6093.450;   62.525;    0.000
743.107; 6134.450;  119.525;    0.000
743.302; 5989.450;   78.525;    0.000
743.498; 6013.450;  130.525;    0.000
743.693; 6161.450;   75.525;    0.000
743.888; 6422.450;  135.525;    0.000
744.084; 7209.450;  106.525;    0.000
744.279; 8770.450;  101.525;    0.000
744.474; 8830.450;   91.525;    0.000
744.670; 8026.450;  144.525;    0.000
744.865; 7361.450;  128.525;    0.000
745.060; 7004.450;   63.525;    0.000
745.255; 6733.450;  155.525;    0.000
745.451; 6643.450;  110.525;    0.000
745.646; 6485.450;  150.525;    0.000
745.841; 6362.450;  128.525;    0.000
746.036; 6462.450;  110.525;    0.000
746.231; 6664.450;  126.525;    0.000
746.426; 6869.450;   83.525;    0.000
746.622; 8100.450;  157.525;    0.000
746.817;10527.450;  112.525;    0.000
747.012;11849.450;  115.525;    0.000
747.207;10444.450;  161.525;    0.000
747.402; 9034.450;   88.525;    0.000
747.597; 8592.450;  103.525;    0.000
747.792; 8099.450;  152.525;    0.000
747.987; 7844.450;   80.525;    0.000
748.182; 7596.450;   89.525;    0.000
748.377; 7311.450;  104.525;    0.000
748.572; 7088.450;  138.525;    0.000
748.767; 6759.450;  100.525;    0.000
748.961; 6496.450;  106.525;    0.000
749.156; 6316.450;  113.525;    0.000
749.351; 6185.450;  116.525;    0.000
749.546; 6192.450;  107.525;    0.000
749.741; 5997.450;  102.525;    0.000
749.936; 6066.450;  105.525;    0.000
750.130; 5780.450;  111.525;    0.000
750.325; 5798.450;   72.525;    0.000
750.520; 5898.450;   96.525;    0.000
750.715; 5692.450;  135.525;    0.000
750.909; 5741.450;  107.525;    0.000
751.104; 5616.450;  106.525;    0.000
751.299; 5783.450;  144.525;    0.000
751.493; 5603.450;  116.525;    0.000
751.688; 5730.450;   96.525;    0.000
751.882; 5526.450;   92.525;    0.000
752.077; 5444.450;  109.525;    0.000
752.272; 5577.450;   96.525;    0.000
752.466; 5431.450;  110.525;    0.000
752.661; 5387.450;  120.525;    0.000
752.855; 5295.450;   70.525;    0.000
753.050; 5356.450;  129.525;    0.000
753.244; 5360.450;  126.525;    0.000
753.439; 5259.450;  115.525;    0.000
753.633; 5317.450;  120.525;    0.000
753.828; 5247.450;  129.525;    0.000
754.022; 5194.450;  139.525;    0.000
754.216; 5272.450;  121.525;    0.000
754.411; 5351.450;  108.525;    0.000
754.605; 5184.450;   94.525;    0.000
754.799; 5239.450;  125.525;    0.000
754.994; 5311.450;  160.525;    0.000
755.188; 5192.450;  151.525;    0.000
755.382; 5153.450;  102.525;    0.000
755.576; 5208.450;  103.525;    0.000
755.771; 5129.450;   99.525;    0.000
755.965; 5205.450;  158.525;    0.000
756.159; 5098.450;   96.525;    0.000
756.353; 5276.450;  157.525;    0.000
756.547; 5068.450;  132.525;    0.000
756.742; 5174.450;  106.525;    0.000
756.936; 5084.450;  113.525;    0.000
757.130; 5165.450;  114.525;    0.000
757.324; 5104.450;  111.525;    0.000
757.518; 5168.450;  142.525;    0.000
757.712; 5239.450;  137.525;    0.000
757.906; 5062.450;   93.525;    0.000
758.100; 5104.450;  119.525;    0.000
758.294; 5110.450;  132.525;    0.000
758.488; 5182.450;  153.525;    0.000
758.682; 5071.450;  101.525;    0.000
758.876; 4993.450;  129.525;    0.000
759.070; 5084.450;  168.525;    0.000
759.264; 5039.450;   96.525;    0.000
759.458; 5123.450;  117.525;    0.000
759.651; 5105.450;  135.525;    0.000
759.845; 5080.450;  127.525;    0.000
760.039; 5198.450;  120.525;    0.000
760.233; 5095.450;  124.525;    0.000
760.427; 5069.450;  115.525;    0.000
760.620; 5086.450;  130.525;    0.000
760.814; 5050.450;  102.525;    0.000
761.008; 5195.450;  174.525;    0.000
761.202; 4955.450;  132.525;    0.000
761.395; 5118.450;  126.525;    0.000
761.589; 5165.450;  133.525;    0.000
761.783; 5095.450;  147.525;    0.000
761.976; 5085.450;  147.525;    0.000
762.170; 5161.450;  174.525;    0.000
762.363; 5199.450;   97.525;    0.000
762.557; 5186.450;  141.525;    0.000
762.750; 5219.450;  112.525;    0.000
762.944; 5148.450;  110.525;    0.000
763.138; 5200.450;  125.525;    0.000
763.331; 5125.450;  101.525;    0.000
763.524; 5123.450;  101.525;    0.000
763.718; 5249.450;  156.525;    0.000
763.911; 5194.450;  143.525;    0.000
764.105; 5224.450;  139.525;    0.000
764.298; 5142.450;   89.525;    0.000
764.492; 5157.450;  111.525;    0.000
764.685; 5134.450;  136.525;    0.000
764.878; 5147.450;  146.525;    0.000
765.072; 5222.450;  110.525;    0.000
765.265; 5337.450;  141.525;    0.000
765.458; 5190.450;   82.525;    0.000
765.651; 5311.450;  144.525;    0.000
765.845; 5245.450;   79.525;    0.000
766.038; 5459.450;  123.525;    0.000
766.231; 6216.450;  125.525;    0.000
766.424;10363.450;  131.525;    0.000
766.617;10923.450;   62.525;    0.000
766.811; 6036.450;  142.525;    0.000
767.004; 5605.450;  134.525;    0.000
767.197; 5440.450;  147.525;    0.000
767.390; 5417.450;  100.525;    0.000
767.583; 5517.450;  121.525;    0.000
767.776; 5360.450;   91.525;    0.000
767.969; 5414.450;  113.525;    0.000
768.162; 5412.450;  170.525;    0.000
768.355; 5240.450;  134.525;    0.000
768.548; 5368.450;  177.525;    0.000
768.741; 5432.450;   96.525;    0.000
768.934; 5533.450;  143.525;    0.000
769.127; 5694.450;  147.525;    0.000
769.320; 5544.450;   93.525;    0.000
769.513; 5756.450;  137.525;    0.000
769.706; 6822.450;   96.525;    0.000
769.898;10538.450;  118.525;    0.000
770.091; 7747.450;  138.525;    0.000
770.284; 5950.450;  133.525;    0.000
770.477; 5764.450;  137.525;    0.000
770.670; 5701.450;  124.525;    0.000
770.862; 5767.450;  125.525;    0.000
771.055; 5831.450;  135.525;    0.000
771.248; 5753.450;  109.525;    0.000
771.441; 5812.450;  141.525;    0.000
771.633; 5750.450;  142.525;    0.000
771.826; 5923.450;  123.525;    0.000
772.018; 6007.450;  136.525;    0.000
772.211; 5944.450;  145.525;    0.000
772.404; 6166.450;  127.525;    0.000
772.596; 6227.450;  193.525;    0.000
772.789; 6281.450;   64.525;    0.000
772.981; 6199.450;  142.525;    0.000
773.174; 6242.450;  105.525;    0.000
773.366; 6333.450;  166.525;    0.000
773.559; 6431.450;  125.525;    0.000
773.751; 6478.450;  126.525;    0.000
773.944; 6731.450;  147.525;    0.000
774.136; 6817.450;  155.525;    0.000
774.329; 7100.450;  127.525;    0.000
774.521; 7087.450;  133.525;    0.000
774.713; 7417.450;  139.525;    0.000
774.906; 7477.450;  170.525;    0.000
775.098; 7754.450;  144.525;    0.000
775.290; 8060.450;  162.525;    0.000
775.483; 8551.450;  137.525;    0.000
775.675; 9124.450;  148.525;    0.000
775.867; 9662.450;   81.525;    0.000
776.059;10509.450;  134.525;    0.000
776.251;11456.450;  137.525;    0.000
776.444;13017.450;  155.525;    0.000
776.636;15206.450;  148.525;    0.000
776.828;19259.449;  129.525;    0.000
777.020;27102.449;  133.525;    0.000
777.212;40850.449;  137.525;    0.000
777.404;45362.449;  124.525;    0.000
777.596;42111.449;  142.525;    0.000
777.788;30883.449;  155.525;    0.000
777.980;23407.449;  119.525;    0.000
778.172;18981.449;  129.525;    0.000
778.364;16181.450;  122.525;    0.000
778.556;14517.450;  129.525;    0.000
778.748;12827.450;  178.525;    0.000
778.940;11691.450;  128.525;    0.000
779.132;10782.450;  145.525;    0.000
779.324; 9898.450;   89.525;    0.000
779.516; 9406.450;  161.525;    0.000
779.708; 9101.450;  183.525;    0.000
779.900; 8521.450;  124.525;    0.000
780.091; 7993.450;  143.525;    0.000
780.283; 7809.450;  135.525;    0.000
780.475; 7579.450;  129.525;    0.000
780.667; 7344.450;  178.525;    0.000
780.859; 7076.450;  146.525;    0.000
781.050; 6792.450;  156.525;    0.000
781.242; 6620.450;  138.525;    0.000
781.434; 6655.450;  117.525;    0.000
781.625; 6434.450;  161.525;    0.000
781.817; 6334.450;  127.525;    0.000
782.008; 6386.450;  138.525;    0.000
782.200; 6242.450;  139.525;    0.000
782.392; 6077.450;  179.525;    0.000
782.583; 6045.450;  137.525;    0.000
782.775; 6113.450;  162.525;    0.000
782.966; 5929.450;  159.525;    0.000
783.158; 5793.450;  118.525;    0.000
783.349; 5756.450;  160.525;    0.000
783.541; 5714.450;  139.525;    0.000
783.732; 5638.450;  145.525;    0.000
783.924; 5660.450;  146.525;    0.000
784.115; 5672.450;  125.525;    0.000
784.306; 5616.450;  118.525;    0.000
784.498; 5511.450;  144.525;    0.000
784.689; 5565.450;  145.525;    0.000
784.880; 5426.450;  137.525;    0.000
785.072; 5470.450;  157.525;    0.000
785.263; 5440.450;  149.525;    0.000
785.454; 5487.450;  128.525;    0.000
785.645; 5352.450;  131.525;    0.000
785.837; 5321.450;  137.525;    0.000
786.028; 5485.450;  161.525;    0.000
786.219; 5366.450;  155.525;    0.000
786.410; 5399.450;  146.525;    0.000
786.601; 5404.450;  120.525;    0.000
786.792; 5376.450;  179.525;    0.000
786.984; 5288.450;  113.525;    0.000
787.175; 5259.450;  156.525;    0.000
787.366; 5315.450;  131.525;    0.000
787.557; 5266.450;  138.525;    0.000
787.748; 5200.450;  112.525;    0.000
787.939; 5356.450;  115.525;    0.000
788.130; 5523.450;  150.525;    0.000
788.321; 5445.450;  122.525;    0.000
788.512; 5537.450;  147.525;    0.000
788.703; 5408.450;  126.525;    0.000
788.894; 5418.450;   80.525;    0.000
789.084; 5501.450;  127.525;    0.000
789.275; 5466.450;  141.525;    0.000
789.466; 5518.450;  108.525;    0.000
789.657; 5486.450;  137.525;    0.000
789.848; 5513.450;  126.525;    0.000
790.039; 5486.450;  144.525;    0.000
790.229; 5509.450;  105.525;    0.000
790.420; 5533.450;   96.525;    0.000
790.611; 5513.450;  171.525;    0.000
790.801; 5442.450;   89.525;    0.000
790.992; 5529.450;  140.525;    0.000
791.183; 5400.450;  143.525;    0.000
791.373; 5472.450;  128.525;    0.000
791.564; 5404.450;   96.525;    0.000
791.755; 5425.450;  111.525;    0.000
791.945; 5556.450;  112.525;    0.000
792.136; 5456.450;  124.525;    0.000
792.326; 5390.450;   88.525;    0.000
792.517; 5478.450;  130.525;    0.000
792.707; 5466.450;  144.525;    0.000
792.898; 5540.450;  120.525;    0.000
793.088; 5668.450;  106.525;    0.000
793.279; 5551.450;  104.525;    0.000
793.469; 5641.450;  103.525;    0.000
793.660; 5763.450;  120.525;    0.000
793.850; 5888.450;  106.525;    0.000
794.040; 6072.450;  135.525;    0.000
794.231; 6391.450;   80.525;    0.000
794.421; 6752.450;  120.525;    0.000
794.611; 7635.450;  154.525;    0.000
794.802; 8724.450;  103.525;    0.000
794.992; 9308.450;  120.525;    0.000
795.182; 9559.450;  156.525;    0.000
795.372; 8934.450;  104.525;    0.000
795.563; 8029.450;  153.525;    0.000
795.753; 7222.450;  112.525;    0.000
795.943; 6822.450;  128.525;    0.000
796.133; 6607.450;  128.525;    0.000
796.323; 6291.450;  152.525;    0.000
796.513; 5996.450;  123.525;    0.000
796.703; 5877.450;  134.525;    0.000
796.893; 5865.450;  120.525;    0.000
797.083; 5677.450;  136.525;    0.000
797.273; 5481.450;  128.525;    0.000
797.463; 5614.450;  140.525;    0.000
797.653; 5350.450;   75.525;    0.000
797.843; 5312.450;  114.525;    0.000
798.033; 5140.450;   90.525;    0.000
798.223; 5218.450;  136.525;    0.000
798.413; 5347.450;  164.525;    0.000
798.603; 5067.450;  150.525;    0.000
798.793; 5044.450;  137.525;    0.000
798.983; 4924.450;  119.525;    0.000
799.172; 4911.450;  136.525;    0.000
799.362; 4939.450;  138.525;    0.000
799.552; 4877.450;  123.525;    0.000
799.742; 4866.450;  117.525;    0.000
799.932; 4886.450;  108.525;    0.000
800.121; 4835.450;  152.525;    0.000
800.311; 4817.450;  117.525;    0.000
800.501; 4738.450;  100.525;    0.000
800.690; 4777.450;  139.525;    0.000
800.880; 4805.450;  138.525;    0.000
801.070; 4589.450;  120.525;    0.000
801.259; 4670.450;  143.525;    0.000
801.449; 4723.450;  110.525;    0.000
801.638; 4732.450;  140.525;    0.000
801.828; 4600.450;  103.525;    0.000
802.017; 4734.450;   78.525;    0.000
802.207; 4653.450;  126.525;    0.000
802.396; 4675.450;  151.525;    0.000
802.586; 4660.450;  106.525;    0.000
802.775; 4568.450;  152.525;    0.000
802.965; 4661.450;  117.525;    0.000
803.154; 4644.450;  171.525;    0.000
803.343; 4547.450;  126.525;    0.000
803.533; 4636.450;  135.525;    0.000
803.722; 4566.450;  144.525;    0.000
803.911; 4550.450;  109.525;    0.000
804.101; 4542.450;  146.525;    0.000
804.290; 4473.450;  115.525;    0.000
804.479; 4604.450;  128.525;    0.000
804.668; 4575.450;  156.525;    0.000
804.857; 4377.450;  151.525;    0.000
805.047; 4559.450;  131.525;    0.000
805.236; 4524.450;  144.525;    0.000
805.425; 4592.450;  160.525;    0.000
805.614; 4517.450;  112.525;    0.000
805.803; 4522.450;  120.525;    0.000
805.992; 4517.450;  148.525;    0.000
806.181; 4598.450;  108.525;    0.000
806.370; 4526.450;  142.525;    0.000
806.559; 4628.450;  116.525;    0.000
806.748; 4601.450;  108.525;    0.000
806.937; 4582.450;  110.525;    0.000
807.126; 4489.450;  126.525;    0.000
807.315; 4535.450;  121.525;    0.000
807.504; 4508.450;  102.525;    0.000
807.693; 4598.450;  134.525;    0.000
807.882; 4485.450;  135.525;    0.000
808.071; 4602.450;  135.525;    0.000
808.260; 4525.450;   93.525;    0.000
808.448; 4608.450;  151.525;    0.000
808.637; 4693.450;  105.525;    0.000
808.826; 4666.450;  178.525;    0.000
809.015; 4659.450;  152.525;    0.000
809.203; 4560.450;  147.525;    0.000
809.392; 4616.450;  144.525;    0.000
809.581; 4690.450;  167.525;    0.000
809.770; 4677.450;  151.525;    0.000
809.958; 4813.450;  128.525;    0.000
810.147; 4678.450;  152.525;    0.000
810.335; 4796.450;  160.525;    0.000
810.524; 4983.450;  130.525;    0.000
810.713; 4950.450;  128.525;    0.000
810.901; 4864.450;  140.525;    0.000
811.090; 4919.450;  152.525;    0.000
811.278; 4978.450;  126.525;    0.000
811.467; 5121.450;  161.525;    0.000
811.655; 5337.450;  184.525;    0.000
811.844; 5100.450;  148.525;    0.000
812.032; 5241.450;  138.525;    0.000
812.220; 5177.450;  157.525;    0.000
812.409; 5172.450;  143.525;    0.000
812.597; 5298.450;  124.525;    0.000
812.785; 5284.450;  170.525;    0.000
812.974; 5296.450;  135.525;    0.000
813.162; 5344.450;  135.525;    0.000
813.350; 5374.450;  182.525;    0.000
813.539; 5549.450;  126.525;    0.000
813.727; 5510.450;  127.525;    0.000
813.915; 5458.450;  140.525;    0.000
814.103; 5642.450;  176.525;    0.000
814.291; 5719.450;  115.525;    0.000
814.479; 5622.450;  119.525;    0.000
814.668; 5621.450;  134.525;    0.000
814.856; 5875.450;  120.525;    0.000
815.044; 6031.450;  164.525;    0.000
815.232; 6063.450;  146.525;    0.000
815.420; 6155.450;  154.525;    0.000
815.608; 6278.450;  137.525;    0.000
815.796; 6417.450;  108.525;    0.000
815.984; 6533.450;  134.525;    0.000
816.172; 6759.450;  123.525;    0.000
816.360; 6943.450;  181.525;    0.000
816.548; 7195.450;  139.525;    0.000
816.736; 7424.450;  138.525;    0.000
816.924; 7890.450;  151.525;    0.000
817.111; 8355.450;  156.525;    0.000
817.299; 8917.450;  147.525;    0.000
817.487; 9773.450;  188.525;    0.000
817.675;10954.450;  129.525;    0.000
817.863;12985.450;  128.525;    0.000
818.050;18007.449;  110.525;    0.000
818.238;33952.449;  166.525;    0.000
818.426;46954.449;  136.525;    0.000
818.613;33059.449;  143.525;    0.000
818.801;26572.449;  150.525;    0.000
818.989;25271.449;  179.525;    0.000
819.176;27526.449;  123.525;    0.000
819.364;41013.449;  148.525;    0.000
819.552;57227.449;   86.525;    0.000
819.739;42742.449;  169.525;    0.000
819.927;30177.449;  130.525;    0.000
820.114;24469.449;  144.525;    0.000
820.302;21130.449;  166.525;    0.000
820.489;18933.449;  145.525;    0.000
820.677;17313.449;  101.525;    0.000
820.864;16308.450;  149.525;    0.000
821.052;16070.450;  130.525;    0.000
821.239;16079.450;  147.525;    0.000
821.426;16330.450;  121.525;    0.000
821.614;18784.449;  187.525;    0.000
821.801;19674.449;  105.525;    0.000
821.988;17167.449;  167.525;    0.000
822.176;16633.449;  130.525;    0.000
822.363;16569.449;  143.525;    0.000
822.550;15412.450;  108.525;    0.000
822.737;13651.450;  109.525;    0.000
822.924;12639.450;  156.525;    0.000
823.112;12062.450;  123.525;    0.000
823.299;11510.450;  128.525;    0.000
823.486;10690.450;  138.525;    0.000
823.673;10323.450;  125.525;    0.000
823.860;10007.450;  138.525;    0.000
824.047; 9983.450;  122.525;    0.000
824.234;10997.450;  134.525;    0.000
824.421;10967.450;   95.525;    0.000
824.608; 9823.450;  151.525;    0.000
824.795; 9067.450;  117.525;    0.000
824.982; 8509.450;  143.525;    0.000
825.169; 7932.450;   83.525;    0.000
825.356; 7465.450;  126.525;    0.000
825.543; 7297.450;   92.525;    0.000
825.730; 7025.450;  113.525;    0.000
825.917; 6846.450;  142.525;    0.000
826.104; 6650.450;  182.525;    0.000
826.290; 6370.450;  137.525;    0.000
826.477; 6156.450;  126.525;    0.000
826.664; 6136.450;  135.525;    0.000
826.851; 5893.450;  139.525;    0.000
827.038; 5757.450;  135.525;    0.000
827.224; 5637.450;  143.525;    0.000
827.411; 5730.450;  153.525;    0.000
827.598; 5378.450;  122.525;    0.000
827.784; 5426.450;  138.525;    0.000
827.971; 5190.450;  134.525;    0.000
828.157; 5166.450;  152.525;    0.000
828.344; 5133.450;  135.525;    0.000
828.531; 4907.450;  137.525;    0.000
828.717; 4859.450;  117.525;    0.000
828.904; 4849.450;  127.525;    0.000
829.090; 4901.450;  172.525;    0.000
829.277; 4800.450;  144.525;    0.000
829.463; 4673.450;  159.525;    0.000
829.650; 4803.450;  187.525;    0.000
829.836; 4666.450;  138.525;    0.000
830.022; 4596.450;  196.525;    0.000
830.209; 4604.450;  118.525;    0.000
830.395; 4384.450;  148.525;    0.000
830.581; 4481.450;  108.525;    0.000
830.768; 4401.450;  137.525;    0.000
830.954; 4304.450;  162.525;    0.000
831.140; 4278.450;  117.525;    0.000
831.327; 4290.450;  176.525;    0.000
831.513; 4296.450;  162.525;    0.000
831.699; 4212.450;  157.525;    0.000
831.885; 4152.450;  153.525;    0.000
832.071; 4187.450;  123.525;    0.000
832.257; 4119.450;  142.525;    0.000
832.444; 4076.450;  165.525;    0.000
832.630; 4042.450;  159.525;    0.000
832.816; 3966.450;  145.525;    0.000
833.002; 3995.450;  120.525;    0.000
833.188; 3945.450;  145.525;    0.000
833.374; 3936.450;  137.525;    0.000
833.560; 3923.450;  152.525;    0.000
833.746; 3841.450;  139.525;    0.000
833.932; 3853.450;  170.525;    0.000
834.118; 3878.450;  111.525;    0.000
834.303; 3760.450;  141.525;    0.000
834.489; 3861.450;  146.525;    0.000
834.675; 3722.450;  156.525;    0.000
834.861; 3826.450;   87.525;    0.000
835.047; 3803.450;  134.525;    0.000
835.233; 3688.450;   89.525;    0.000
835.418; 3768.450;  145.525;    0.000
835.604; 3659.450;  136.525;    0.000
835.790; 3793.450;  132.525;    0.000
835.976; 3773.450;  161.525;    0.000
836.161; 3568.450;  157.525;    0.000
836.347; 3588.450;  147.525;    0.000
836.533; 3607.450;  116.525;    0.000
836.718; 3686.450;  168.525;    0.000
836.904; 3598.450;  199.525;    0.000
837.089; 3616.450;  165.525;    0.000
837.275; 3552.450;  166.525;    0.000
837.460; 3613.450;  144.525;    0.000
837.646; 3591.450;  164.525;    0.000
837.831; 3703.450;  122.525;    0.000
838.017; 3638.450;  163.525;    0.000
838.202; 3522.450;  139.525;    0.000
838.388; 3570.450;  174.525;    0.000
838.573; 3727.450;  140.525;    0.000
838.759; 3667.450;  167.525;    0.000
838.944; 3457.450;  142.525;    0.000
839.129; 3517.450;  164.525;    0.000
839.315; 3549.450;  129.525;    0.000
839.500; 3625.450;  150.525;    0.000
839.685; 3459.450;  118.525;    0.000
839.870; 3598.450;  177.525;    0.000
840.056; 3594.450;  144.525;    0.000
840.241; 3600.450;  121.525;    0.000
840.426; 3590.450;  131.525;    0.000
840.611; 3549.450;  177.525;    0.000
840.796; 3641.450;  173.525;    0.000
840.981; 3569.450;  156.525;    0.000
841.166; 3692.450;  145.525;    0.000
841.352; 3653.450;  150.525;    0.000
841.537; 3632.450;  143.525;    0.000
841.722; 3812.450;  165.525;    0.000
841.907; 3840.450;  184.525;    0.000
842.092; 3804.450;  171.525;    0.000
842.277; 3834.450;  155.525;    0.000
842.461; 3906.450;  152.525;    0.000
842.646; 3978.450;  107.525;    0.000
842.831; 4010.450;  160.525;    0.000
843.016; 4256.450;  160.525;    0.000
843.201; 4305.450;  164.525;    0.000
843.386; 4549.450;  134.525;    0.000
843.571; 4647.450;  132.525;    0.000
843.755; 4873.450;  158.525;    0.000
843.940; 5308.450;  152.525;    0.000
844.125; 5872.450;  154.525;    0.000
844.310; 7060.450;  147.525;    0.000
844.494; 9459.450;  158.525;    0.000
844.679;12848.450;  173.525;    0.000
844.864;12682.450;  152.525;    0.000
845.048;10208.450;  139.525;    0.000
845.233; 8258.450;  200.525;    0.000
845.418; 7227.450;  139.525;    0.000
845.602; 6534.450;  147.525;    0.000
845.787; 5931.450;  148.525;    0.000
845.971; 5466.450;  170.525;    0.000
846.156; 5143.450;  136.525;    0.000
846.340; 4873.450;  146.525;    0.000
846.525; 4637.450;  188.525;    0.000
846.709; 4461.450;  128.525;    0.000
846.893; 4271.450;  151.525;    0.000
847.078; 4101.450;  164.525;    0.000
847.262; 4060.450;  155.525;    0.000
847.447; 3780.450;  114.525;    0.000
847.631; 3764.450;  148.525;    0.000
847.815; 3695.450;  114.525;    0.000
848.000; 3718.450;  134.525;    0.000
848.184; 3568.450;  154.525;    0.000
848.368; 3534.450;  145.525;    0.000
848.552; 3516.450;  122.525;    0.000
848.736; 3471.450;  139.525;    0.000
848.921; 3321.450;  143.525;    0.000
849.105; 3428.450;  145.525;    0.000
849.289; 3357.450;  173.525;    0.000
849.473; 3322.450;  147.525;    0.000
849.657; 3257.450;  144.525;    0.000
849.841; 3318.450;  168.525;    0.000
850.025; 3362.450;  205.525;    0.000
850.209; 3270.450;  171.525;    0.000
850.393; 3185.450;  130.525;    0.000
850.577; 3136.450;  146.525;    0.000
850.761; 3101.450;  188.525;    0.000
850.945; 3093.450;  137.525;    0.000
851.129; 3163.450;  192.525;    0.000
851.313; 3142.450;  199.525;    0.000
851.497; 3060.450;  165.525;    0.000
851.680; 3134.450;  196.525;    0.000
851.864; 3040.450;  169.525;    0.000
852.048; 3129.450;  156.525;    0.000
852.232; 3095.450;  150.525;    0.000
852.416; 3150.450;  219.525;    0.000
852.599; 3021.450;  168.525;    0.000
852.783; 3040.450;  165.525;    0.000
852.967; 2956.450;  166.525;    0.000
853.150; 3055.450;  191.525;    0.000
853.334; 3037.450;  158.525;    0.000
853.518; 2988.450;  168.525;    0.000
853.701; 2954.450;  125.525;    0.000
853.885; 2960.450;  165.525;    0.000
854.068; 3051.450;  142.525;    0.000
854.252; 3052.450;  167.525;    0.000
854.435; 2964.450;  146.525;    0.000
854.619; 3017.450;  163.525;    0.000
854.802; 2988.450;  167.525;    0.000
854.986; 2927.450;  163.525;    0.000
855.169; 2964.450;  146.525;    0.000
855.353; 3048.450;  183.525;    0.000
855.536; 3018.450;  140.525;    0.000
855.719; 2998.450;  168.525;    0.000
855.903; 3029.450;  170.525;    0.000
856.086; 3078.450;  145.525;    0.000
856.269; 3078.450;  126.525;    0.000
856.452; 3097.450;  142.525;    0.000
856.636; 3191.450;  140.525;    0.000
856.819; 3492.450;  127.525;    0.000
857.002; 3461.450;  165.525;    0.000
857.185; 3381.450;  111.525;    0.000
857.368; 3338.450;  143.525;    0.000
857.552; 3283.450;  174.525;    0.000
857.735; 3198.450;  194.525;    0.000
857.918; 3230.450;  171.525;    0.000
858.101; 3212.450;  142.525;    0.000
858.284; 3197.450;  118.525;    0.000
858.467; 3291.450;  163.525;    0.000
858.650; 3293.450;  149.525;    0.000
858.833; 3447.450;  120.525;    0.000
859.016; 3420.450;  169.525;    0.000
859.199; 3554.450;  121.525;    0.000
859.382; 3855.450;  184.525;    0.000
859.564; 4274.450;  139.525;    0.000
859.747; 4109.450;  126.525;    0.000
859.930; 3914.450;  109.525;    0.000
860.113; 3803.450;  137.525;    0.000
860.296; 3699.450;  182.525;    0.000
860.478; 3615.450;  136.525;    0.000
860.661; 3594.450;  157.525;    0.000
860.844; 3513.450;  129.525;    0.000
861.027; 3483.450;  163.525;    0.000
861.209; 3421.450;  151.525;    0.000
861.392; 3453.450;  124.525;    0.000
861.575; 3513.450;  163.525;    0.000
861.757; 3540.450;  205.525;    0.000
861.940; 3599.450;  180.525;    0.000
862.122; 3620.450;  148.525;    0.000
862.305; 3664.450;  128.525;    0.000
862.487; 3922.450;  172.525;    0.000
862.670; 4182.450;  123.525;    0.000
862.852; 4813.450;  126.525;    0.000
863.035; 5896.450;  174.525;    0.000
863.217; 5652.450;  160.525;    0.000
863.400; 5171.450;  164.525;    0.000
863.582; 4849.450;  118.525;    0.000
863.764; 4568.450;  143.525;    0.000
863.947; 4442.450;  137.525;    0.000
864.129; 4222.450;  166.525;    0.000
864.311; 4189.450;  128.525;    0.000
864.493; 4042.450;  153.525;    0.000
864.676; 4118.450;  156.525;    0.000
864.858; 4037.450;  159.525;    0.000
865.040; 4015.450;  163.525;    0.000
865.222; 4028.450;  138.525;    0.000
865.404; 4043.450;  157.525;    0.000
865.587; 4233.450;  184.525;    0.000
865.769; 4410.450;  178.525;    0.000
865.951; 4349.450;  104.525;    0.000
866.133; 4278.450;  147.525;    0.000
866.315; 4403.450;  141.525;    0.000
866.497; 4406.450;  132.525;    0.000
866.679; 4573.450;  139.525;    0.000
866.861; 4710.450;  118.525;    0.000
867.043; 4941.450;  154.525;    0.000
867.225; 5221.450;  147.525;    0.000
867.407; 5537.450;  158.525;    0.000
867.589; 6414.450;  172.525;    0.000
867.770; 7851.450;  159.525;    0.000
867.952;10746.450;  149.525;    0.000
868.134;14124.450;  156.525;    0.000
868.316;14102.450;  171.525;    0.000
868.498;13523.450;  200.525;    0.000
868.679;11539.450;  174.525;    0.000
868.861; 9735.450;  175.525;    0.000
869.043; 8222.450;  174.525;    0.000
869.224; 7157.450;  122.525;    0.000
869.406; 6573.450;  166.525;    0.000
869.588; 6253.450;  143.525;    0.000
869.769; 5881.450;  152.525;    0.000
869.951; 5657.450;  165.525;    0.000
870.132; 5816.450;  115.525;    0.000
870.314; 6326.450;  139.525;    0.000
870.495; 6576.450;  168.525;    0.000
870.677; 5928.450;  188.525;    0.000
870.858; 5786.450;  123.525;    0.000
871.040; 6064.450;  170.525;    0.000
871.221; 6651.450;  148.525;    0.000
871.403; 6448.450;  140.525;    0.000
871.584; 5820.450;  174.525;    0.000
871.765; 5941.450;  168.525;    0.000
871.947; 6420.450;  191.525;    0.000
872.128; 5813.450;  132.525;    0.000
872.309; 5038.450;  140.525;    0.000
872.491; 4622.450;  157.525;    0.000
872.672; 4416.450;  130.525;    0.000
872.853; 4338.450;  148.525;    0.000
873.034; 4206.450;  138.525;    0.000
873.215; 3961.450;  152.525;    0.000
873.396; 3769.450;  149.525;    0.000
873.578; 3716.450;  173.525;    0.000
873.759; 3531.450;  158.525;    0.000
873.940; 3539.450;  147.525;    0.000
874.121; 3270.450;  136.525;    0.000
874.302; 3308.450;  151.525;    0.000
874.483; 3218.450;  137.525;    0.000
874.664; 3251.450;  163.525;    0.000
874.845; 3187.450;  124.525;    0.000
875.026; 3091.450;  134.525;    0.000
875.207; 3148.450;  164.525;    0.000
875.388; 3081.450;  163.525;    0.000
875.568; 2991.450;  176.525;    0.000
875.749; 2929.450;  108.525;    0.000
875.930; 2975.450;  191.525;    0.000
876.111; 2934.450;  170.525;    0.000
876.292; 2828.450;  180.525;    0.000
876.472; 2853.450;  150.525;    0.000
876.653; 2702.450;  162.525;    0.000
876.834; 2847.450;  176.525;    0.000
877.015; 2743.450;  203.525;    0.000
877.195; 2698.450;  178.525;    0.000
877.376; 2780.450;  141.525;    0.000
877.556; 2817.450;  135.525;    0.000
877.737; 2745.450;  174.525;    0.000
877.918; 2673.450;  150.525;    0.000
878.098; 2625.450;  133.525;    0.000
878.279; 2636.450;  129.525;    0.000
878.459; 2650.450;  162.525;    0.000
878.640; 2674.450;  187.525;    0.000
878.820; 2708.450;  151.525;    0.000
879.000; 2646.450;  159.525;    0.000
879.181; 2648.450;  171.525;    0.000
879.361; 2609.450;  167.525;    0.000
879.542; 2579.450;  126.525;    0.000
879.722; 2570.450;  152.525;    0.000
879.902; 2625.450;  144.525;    0.000
880.083; 2662.450;  154.525;    0.000
880.263; 2722.450;  148.525;    0.000
880.443; 2853.450;  185.525;    0.000
880.623; 3243.450;  172.525;    0.000
880.803; 3780.450;  152.525;    0.000
880.984; 3261.450;  165.525;    0.000
881.164; 2947.450;  164.525;    0.000
881.344; 2880.450;  141.525;    0.000
881.524; 2913.450;  160.525;    0.000
881.704; 2880.450;  164.525;    0.000
881.884; 2914.450;  159.525;    0.000
882.064; 3035.450;  158.525;    0.000
882.244; 3126.450;  147.525;    0.000
882.424; 3044.450;  160.525;    0.000
882.604; 2844.450;  150.525;    0.000
882.784; 2819.450;  138.525;    0.000
882.964; 2631.450;  157.525;    0.000
883.144; 2673.450;  128.525;    0.000
883.324; 2702.450;  220.525;    0.000
883.504; 2498.450;  177.525;    0.000
883.683; 2525.450;  159.525;    0.000
883.863; 2547.450;  143.525;    0.000
884.043; 2494.450;  156.525;    0.000
884.223; 2535.450;  152.525;    0.000
884.402; 2567.450;  169.525;    0.000
884.582; 2494.450;  162.525;    0.000
884.762; 2501.450;  172.525;    0.000
884.941; 2459.450;  220.525;    0.000
885.121; 2499.450;  128.525;    0.000
885.301; 2383.450;  141.525;    0.000
885.480; 2503.450;  141.525;    0.000
885.660; 2448.450;  132.525;    0.000
885.839; 2493.450;  146.525;    0.000
886.019; 2465.450;  170.525;    0.000
886.198; 2433.450;  143.525;    0.000
886.378; 2281.450;  159.525;    0.000
886.557; 2316.450;  148.525;    0.000
886.737; 2378.450;  125.525;    0.000
886.916; 2376.450;  177.525;    0.000
887.095; 2298.450;  186.525;    0.000
887.275; 2290.450;  134.525;    0.000
887.454; 2358.450;  148.525;    0.000
887.633; 2331.450;  171.525;    0.000
887.813; 2310.450;  187.525;    0.000
887.992; 2359.450;  157.525;    0.000
888.171; 2241.450;  143.525;    0.000
888.350; 2359.450;  182.525;    0.000
888.530; 2327.450;  142.525;    0.000
888.709; 2281.450;  160.525;    0.000
888.888; 2339.450;  197.525;    0.000
889.067; 2338.450;  126.525;    0.000
889.246; 2361.450;  197.525;    0.000
889.425; 2327.450;  161.525;    0.000
889.604; 2296.450;  180.525;    0.000
889.783; 2433.450;  135.525;    0.000
889.962; 2261.450;  107.525;    0.000
890.141; 2322.450;  167.525;    0.000
890.320; 2311.450;  149.525;    0.000
890.499; 2378.450;  194.525;    0.000
890.678; 2268.450;  138.525;    0.000
890.857; 2210.450;  146.525;    0.000
891.036; 2337.450;  178.525;    0.000
891.214; 2243.450;  151.525;    0.000
891.393; 2309.450;  137.525;    0.000
891.572; 2314.450;  177.525;    0.000
891.751; 2331.450;  149.525;    0.000
891.930; 2326.450;  189.525;    0.000
892.108; 2181.450;  136.525;    0.000
892.287; 2270.450;  129.525;    0.000
892.466; 2279.450;  163.525;    0.000
892.644; 2323.450;  147.525;    0.000
892.823; 2311.450;  127.525;    0.000
893.001; 2326.450;  192.525;    0.000
893.180; 2267.450;  157.525;    0.000
893.359; 2307.450;  176.525;    0.000
893.537; 2313.450;  146.525;    0.000
893.716; 2307.450;  154.525;    0.000
893.894; 2277.450;  166.525;    0.000
894.073; 2281.450;  163.525;    0.000
894.251; 2225.450;  166.525;    0.000
894.429; 2316.450;  149.525;    0.000
894.608; 2345.450;  141.525;    0.000
894.786; 2242.450;  139.525;    0.000
894.964; 2228.450;  180.525;    0.000
895.143; 2284.450;  193.525;    0.000
895.321; 2320.450;  163.525;    0.000
895.499; 2252.450;  163.525;    0.000
895.677; 2331.450;  194.525;    0.000
895.856; 2364.450;  176.525;    0.000
896.034; 2352.450;  173.525;    0.000
896.212; 2282.450;  180.525;    0.000
896.390; 2318.450;  146.525;    0.000
896.568; 2309.450;  167.525;    0.000
896.746; 2362.450;  158.525;    0.000
896.924; 2346.450;  163.525;    0.000
897.102; 2319.450;  170.525;    0.000
897.280; 2363.450;  159.525;    0.000
897.458; 2280.450;  182.525;    0.000
897.636; 2315.450;  151.525;    0.000
897.814; 2321.450;  130.525;    0.000
897.992; 2443.450;  213.525;    0.000
898.170; 2329.450;  164.525;    0.000
898.348; 2366.450;  159.525;    0.000
898.526; 2287.450;  182.525;    0.000
898.704; 2404.450;  209.525;    0.000
898.882; 2371.450;  145.525;    0.000
899.059; 2370.450;  172.525;    0.000
899.237; 2277.450;  172.525;    0.000
899.415; 2331.450;  211.525;    0.000
899.593; 2380.450;  151.525;    0.000
899.770; 2411.450;  147.525;    0.000
899.948; 2431.450;  218.525;    0.000
900.125; 2370.450;  166.525;    0.000
900.303; 2449.450;  146.525;    0.000
900.481; 2398.450;  174.525;    0.000
900.658; 2463.450;  198.525;    0.000
900.836; 2407.450;  125.525;    0.000
901.013; 2481.450;  197.525;    0.000
901.191; 2526.450;  181.525;    0.000
901.368; 2525.450;  185.525;    0.000
901.546; 2583.450;  197.525;    0.000
901.723; 2581.450;  205.525;    0.000
901.901; 2676.450;  187.525;    0.000
902.078; 2589.450;  163.525;    0.000
902.255; 2624.450;  141.525;    0.000
902.433; 2683.450;  183.525;    0.000
902.610; 2778.450;  181.525;    0.000
902.787; 2710.450;  174.525;    0.000
902.964; 2850.450;  174.525;    0.000
903.142; 2882.450;  141.525;    0.000
903.319; 2899.450;  214.525;    0.000
903.496; 2921.450;  187.525;    0.000
903.673; 3037.450;  183.525;    0.000
903.850; 3079.450;  125.525;    0.000
904.027; 3069.450;  197.525;    0.000
904.204; 3237.450;  197.525;    0.000
904.381; 3538.450;  196.525;    0.000
904.558; 4018.450;  176.525;    0.000
904.735; 4453.450;  179.525;    0.000
904.912; 4360.450;  203.525;    0.000
905.089; 4610.450;  159.525;    0.000
905.266; 4053.450;  176.525;    0.000
905.443; 3781.450;  184.525;    0.000
905.620; 3496.450;  168.525;    0.000
905.797; 3446.450;  214.525;    0.000
905.974; 3241.450;  154.525;    0.000
906.151; 3266.450;  132.525;    0.000
906.327; 3264.450;  192.525;    0.000
906.504; 3300.450;  186.525;    0.000
906.681; 3105.450;  171.525;    0.000
906.858; 3186.450;  181.525;    0.000
907.034; 3075.450;  164.525;    0.000
907.211; 2954.450;  184.525;    0.000
907.388; 2948.450;  177.525;    0.000
907.564; 2912.450;  150.525;    0.000
907.741; 2827.450;  195.525;    0.000
907.917; 2727.450;  190.525;    0.000
908.094; 2847.450;  214.525;    0.000
908.271; 2730.450;  173.525;    0.000
908.447; 2720.450;  229.525;    0.000
908.623; 2515.450;  162.525;    0.000
908.800; 2609.450;  195.525;    0.000
908.976; 2711.450;  171.525;    0.000
909.153; 2663.450;  167.525;    0.000
909.329; 2638.450;  227.525;    0.000
909.505; 2565.450;  167.525;    0.000
909.682; 2524.450;  174.525;    0.000
909.858; 2567.450;  158.525;    0.000
910.034; 2489.450;  188.525;    0.000
910.211; 2557.450;  158.525;    0.000
910.387; 2542.450;  208.525;    0.000
910.563; 2544.450;  203.525;    0.000
910.739; 2469.450;  201.525;    0.000
910.915; 2440.450;  170.525;    0.000
911.091; 2500.450;  171.525;    0.000
911.268; 2421.450;  220.525;    0.000
911.444; 2468.450;  202.525;    0.000
911.620; 2486.450;  175.525;    0.000
911.796; 2512.450;  175.525;    0.000
911.972; 2504.450;  164.525;    0.000
912.148; 2454.450;  174.525;    0.000
912.324; 2508.450;  155.525;    0.000
912.500; 2447.450;  156.525;    0.000
912.676; 2388.450;  138.525;    0.000
912.851; 2508.450;  158.525;    0.000
913.027; 2495.450;  161.525;    0.000
913.203; 2396.450;  168.525;    0.000
913.379; 2445.450;  172.525;    0.000
913.555; 2488.450;  193.525;    0.000
913.730; 2458.450;  149.525;    0.000
913.906; 2491.450;  159.525;    0.000
914.082; 2582.450;  184.525;    0.000
914.258; 2370.450;  194.525;    0.000
914.433; 2522.450;  175.525;    0.000
914.609; 2459.450;  175.525;    0.000
914.784; 2501.450;  170.525;    0.000
914.960; 2483.450;  212.525;    0.000
915.136; 2435.450;  157.525;    0.000
915.311; 2467.450;  204.525;    0.000
915.487; 2393.450;  180.525;    0.000
915.662; 2534.450;  203.525;    0.000
915.838; 2439.450;  194.525;    0.000
916.013; 2519.450;  217.525;    0.000
916.189; 2547.450;  196.525;    0.000
916.364; 2444.450;  236.525;    0.000
916.539; 2409.450;  192.525;    0.000
916.715; 2507.450;  181.525;    0.000
916.890; 2399.450;  185.525;    0.000
917.065; 2483.450;  166.525;    0.000
917.240; 2450.450;  182.525;    0.000
917.416; 2524.450;  188.525;    0.000
917.591; 2533.450;  185.525;    0.000
917.766; 2593.450;  187.525;    0.000
917.941; 2485.450;  181.525;    0.000
918.116; 2435.450;  207.525;    0.000
918.292; 2462.450;  140.525;    0.000
918.467; 2538.450;  187.525;    0.000
918.642; 2456.450;  208.525;    0.000
918.817; 2538.450;  203.525;    0.000
918.992; 2491.450;  162.525;    0.000
919.167; 2469.450;  206.525;    0.000
919.342; 2477.450;  188.525;    0.000
919.517; 2530.450;  190.525;    0.000
919.692; 2563.450;  174.525;    0.000
919.867; 2625.450;  181.525;    0.000
920.041; 2594.450;  179.525;    0.000
920.216; 2668.450;  186.525;    0.000
920.391; 2749.450;  209.525;    0.000
920.566; 2779.450;  205.525;    0.000
920.741; 2800.450;  205.525;    0.000
920.915; 2925.450;  206.525;    0.000
921.090; 3122.450;  219.525;    0.000
921.265; 3692.450;  185.525;    0.000
921.439; 4125.450;  171.525;    0.000
921.614; 3800.450;  197.525;    0.000
921.789; 3390.450;  189.525;    0.000
921.963; 3333.450;  210.525;    0.000
922.138; 3056.450;  171.525;    0.000
922.312; 3072.450;  194.525;    0.000
922.487; 3044.450;  231.525;    0.000
922.661; 3279.450;  179.525;    0.000
922.836; 3730.450;  213.525;    0.000
923.010; 3614.450;  182.525;    0.000
923.185; 3400.450;  239.525;    0.000
923.359; 3206.450;  200.525;    0.000
923.534; 3217.450;  232.525;    0.000
923.708; 3347.450;  221.525;    0.000
923.882; 3523.450;  193.525;    0.000
924.057; 3328.450;  204.525;    0.000
924.231; 3239.450;  172.525;    0.000
924.405; 3126.450;  202.525;    0.000
924.579; 3083.450;  207.525;    0.000
924.753; 2991.450;  167.525;    0.000
924.928; 2994.450;  202.525;    0.000
925.102; 3003.450;  200.525;    0.000
925.276; 3047.450;  185.525;    0.000
925.450; 3017.450;  170.525;    0.000
925.624; 2981.450;  176.525;    0.000
925.798; 3103.450;  221.525;    0.000
925.972; 3243.450;  162.525;    0.000
926.146; 3489.450;  207.525;    0.000
926.320; 3702.450;  185.525;    0.000
926.494; 3980.450;  192.525;    0.000
926.668; 4333.450;  179.525;    0.000
926.842; 4281.450;  181.525;    0.000
927.016; 4356.450;  224.525;    0.000
927.190; 4339.450;  193.525;    0.000
927.363; 4200.450;  194.525;    0.000
927.537; 3984.450;  210.525;    0.000
927.711; 3902.450;  153.525;    0.000
927.885; 3750.450;  184.525;    0.000
928.058; 3679.450;  197.525;    0.000
928.232; 3634.450;  219.525;    0.000
928.406; 3508.450;  175.525;    0.000
928.579; 3555.450;  179.525;    0.000
928.753; 3391.450;  208.525;    0.000
928.927; 3299.450;  163.525;    0.000
929.100; 3279.450;  138.525;    0.000
929.274; 3152.450;  160.525;    0.000
929.447; 3109.450;  152.525;    0.000
929.621; 3211.450;  168.525;    0.000
929.794; 3069.450;  152.525;    0.000
929.968; 3127.450;  163.525;    0.000
930.141; 2962.450;  164.525;    0.000
930.315; 2928.450;  170.525;    0.000
930.488; 2923.450;  216.525;    0.000
930.661; 2848.450;  184.525;    0.000
930.835; 2875.450;  156.525;    0.000
931.008; 2817.450;  206.525;    0.000
931.181; 2806.450;  163.525;    0.000
931.354; 2787.450;  198.525;    0.000
931.528; 2674.450;  156.525;    0.000
931.701; 2733.450;  170.525;    0.000
931.874; 2640.450;  167.525;    0.000
932.047; 2667.450;  146.525;    0.000
932.220; 2629.450;  159.525;    0.000
932.393; 2575.450;  186.525;    0.000
932.566; 2546.450;  147.525;    0.000
932.739; 2620.450;  192.525;    0.000
932.912; 2555.450;  197.525;    0.000
933.085; 2592.450;  176.525;    0.000
933.258; 2577.450;  171.525;    0.000
933.431; 2471.450;  150.525;    0.000
933.604; 2558.450;  176.525;    0.000
933.777; 2465.450;  215.525;    0.000
933.950; 2582.450;  164.525;    0.000
934.123; 2534.450;  174.525;    0.000
934.296; 2543.450;  203.525;    0.000
934.468; 2493.450;  208.525;    0.000
934.641; 2416.450;  182.525;    0.000
934.814; 2389.450;  170.525;    0.000
934.987; 2449.450;  183.525;    0.000
935.159; 2447.450;  154.525;    0.000
935.332; 2496.450;  178.525;    0.000
935.505; 2508.450;  213.525;    0.000
935.677; 2428.450;  173.525;    0.000
935.850; 2434.450;  190.525;    0.000
936.022; 2519.450;  205.525;    0.000
936.195; 2516.450;  201.525;    0.000
936.367; 2514.450;  189.525;    0.000
936.540; 2478.450;  179.525;    0.000
936.712; 2503.450;  195.525;    0.000
936.885; 2537.450;  207.525;    0.000
937.057; 2518.450;  163.525;    0.000
937.229; 2531.450;  175.525;    0.000
937.402; 2521.450;  168.525;    0.000
937.574; 2563.450;  136.525;    0.000
937.746; 2642.450;  166.525;    0.000
937.919; 2743.450;  178.525;    0.000
938.091; 2933.450;  192.525;    0.000
938.263; 3084.450;  164.525;    0.000
938.435; 3297.450;  204.525;    0.000
938.608; 3577.450;  153.525;    0.000
938.780; 4187.450;  159.525;    0.000
938.952; 4316.450;  160.525;    0.000
939.124; 4394.450;  156.525;    0.000
939.296; 4986.450;  110.525;    0.000
939.468; 5136.450;  135.525;    0.000
939.640; 4553.450;  144.525;    0.000
939.812; 4160.450;  232.525;    0.000
939.984; 3715.450;  128.525;    0.000
940.156; 3559.450;  195.525;    0.000
940.328; 3342.450;  226.525;    0.000
940.500; 3192.450;  146.525;    0.000
940.672; 3048.450;  190.525;    0.000
940.843; 2959.450;  156.525;    0.000
941.015; 2947.450;  200.525;    0.000
941.187; 2863.450;  159.525;    0.000
941.359; 2862.450;  183.525;    0.000
941.531; 2846.450;  137.525;    0.000
941.702; 2725.450;  186.525;    0.000
941.874; 2669.450;  164.525;    0.000
942.046; 2589.450;  202.525;    0.000
942.217; 2597.450;  146.525;    0.000
942.389; 2595.450;  165.525;    0.000
942.560; 2620.450;  191.525;    0.000
942.732; 2518.450;  240.525;    0.000
942.904; 2408.450;  173.525;    0.000
943.075; 2414.450;  157.525;    0.000
943.247; 2451.450;  155.525;    0.000
943.418; 2484.450;  164.525;    0.000
943.589; 2317.450;  150.525;    0.000
943.761; 2496.450;  143.525;    0.000
943.932; 2465.450;  151.525;    0.000
944.104; 2357.450;  194.525;    0.000
944.275; 2312.450;  154.525;    0.000
944.446; 2336.450;  169.525;    0.000
944.617; 2270.450;  138.525;    0.000
944.789; 2200.450;  158.525;    0.000
944.960; 2320.450;  197.525;    0.000
945.131; 2262.450;  139.525;    0.000
945.302; 2258.450;  169.525;    0.000
945.473; 2197.450;  149.525;    0.000
945.645; 2312.450;  171.525;    0.000
945.816; 2384.450;  167.525;    0.000
945.987; 2383.450;  156.525;    0.000
946.158; 2465.450;  185.525;    0.000
946.329; 2490.450;  201.525;    0.000
946.500; 2340.450;  182.525;    0.000
946.671; 2344.450;  156.525;    0.000
946.842; 2305.450;  190.525;    0.000
947.013; 2226.450;  159.525;    0.000
947.183; 2203.450;  209.525;    0.000
947.354; 2160.450;  171.525;    0.000
947.525; 2204.450;  180.525;    0.000
947.696; 2134.450;  163.525;    0.000
947.867; 2163.450;  168.525;    0.000
948.037; 2131.450;  153.525;    0.000
948.208; 2198.450;  178.525;    0.000
948.379; 2272.450;  192.525;    0.000
948.550; 2247.450;  180.525;    0.000
948.720; 2163.450;  196.525;    0.000
948.891; 2079.450;  173.525;    0.000
949.061; 2133.450;  207.525;    0.000
949.232; 2166.450;  176.525;    0.000
949.403; 2113.450;  152.525;    0.000
949.573; 2165.450;  186.525;    0.000
949.744; 2121.450;  181.525;    0.000
949.914; 2194.450;  174.525;    0.000
950.085; 2161.450;  146.525;    0.000
950.255; 2168.450;  162.525;    0.000
950.425; 2182.450;  189.525;    0.000
950.596; 2160.450;  175.525;    0.000
950.766; 2237.450;  209.525;    0.000
950.936; 2212.450;  201.525;    0.000
951.107; 2134.450;  141.525;    0.000
951.277; 2161.450;  211.525;    0.000
951.447; 2074.450;  218.525;    0.000
951.617; 2100.450;  191.525;    0.000
951.788; 2080.450;  193.525;    0.000
951.958; 2135.450;  217.525;    0.000
952.128; 2092.450;  192.525;    0.000
952.298; 2091.450;  237.525;    0.000
952.468; 2182.450;  194.525;    0.000
952.638; 2048.450;  201.525;    0.000
952.808; 2105.450;  203.525;    0.000
952.978; 2110.450;  216.525;    0.000
953.148; 2057.450;  209.525;    0.000
953.318; 2075.450;  213.525;    0.000
953.488; 2012.450;  161.525;    0.000
953.658; 2004.450;  222.525;    0.000
953.828; 2099.450;  196.525;    0.000
953.998; 2018.450;  227.525;    0.000
954.167; 2011.450;  163.525;    0.000
954.337; 1970.450;  201.525;    0.000
954.507; 2250.450;  227.525;    0.000
954.677; 2037.450;  204.525;    0.000
954.846; 2017.450;  210.525;    0.000
955.016; 2043.450;  198.525;    0.000
955.186; 2005.450;  203.525;    0.000
955.355; 2037.450;  198.525;    0.000
955.525; 1922.450;  198.525;    0.000
955.695; 2058.450;  187.525;    0.000
955.864; 2035.450;  243.525;    0.000
956.034; 1936.450;  192.525;    0.000
956.203; 1986.450;  259.525;    0.000
956.373; 1875.450;  185.525;    0.000
956.542; 1981.450;  230.525;    0.000
956.711; 1927.450;  218.525;    0.000
956.881; 1930.450;  232.525;    0.000
957.050; 1969.450;  246.525;    0.000
957.220; 2033.450;  229.525;    0.000
957.389; 1950.450;  211.525;    0.000
957.558; 1931.450;  173.525;    0.000
957.727; 1897.450;  226.525;    0.000
957.897; 1932.450;  209.525;    0.000
958.066; 1902.450;  217.525;    0.000
958.235; 1983.450;  160.525;    0.000
958.404; 1917.450;  199.525;    0.000
958.573; 1992.450;  223.525;    0.000
958.743; 1874.450;  189.525;    0.000
958.912; 1999.450;  199.525;    0.000
959.081; 1907.450;  216.525;    0.000
959.250; 1890.450;  192.525;    0.000
959.419; 1920.450;  216.525;    0.000
959.588; 1909.450;  209.525;    0.000
959.757; 1897.450;  194.525;    0.000
959.926; 1851.450;  200.525;    0.000
960.094; 1911.450;  174.525;    0.000
960.263; 1902.450;  218.525;    0.000
960.432; 1854.450;  173.525;    0.000
960.601; 1858.450;  177.525;    0.000
960.770; 1803.450;  188.525;    0.000
960.939; 1873.450;  167.525;    0.000
961.107; 1883.450;  195.525;    0.000
961.276; 1913.450;  183.525;    0.000
961.445; 1831.450;  195.525;    0.000
961.613; 1837.450;  198.525;    0.000
961.782; 1782.450;  224.525;    0.000
961.951; 1825.450;  178.525;    0.000
962.119; 1846.450;  214.525;    0.000
962.288; 1873.450;  174.525;    0.000
962.456; 1782.450;  197.525;    0.000
962.625; 1913.450;  212.525;    0.000
962.793; 1872.450;  183.525;    0.000
962.962; 1879.450;  189.525;    0.000
963.130; 1856.450;  151.525;    0.000
963.298; 1885.450;  197.525;    0.000
963.467; 1860.450;  202.525;    0.000
963.635; 1820.450;  172.525;    0.000
963.803; 1961.450;  203.525;    0.000
963.972; 1884.450;  204.525;    0.000
964.140; 1850.450;  193.525;    0.000
964.308; 1834.450;  159.525;    0.000
964.477; 1890.450;  142.525;    0.000
964.645; 1892.450;  202.525;    0.000
964.813; 1854.450;  158.525;    0.000
964.981; 2029.450;  179.525;    0.000
965.149; 1997.450;  176.525;    0.000
965.317; 1925.450;  229.525;    0.000
965.485; 1856.450;  179.525;    0.000
965.653; 1817.450;  205.525;    0.000
965.821; 1860.450;  196.525;    0.000
965.989; 1800.450;  202.525;    0.000
966.157; 1860.450;  199.525;    0.000
966.325; 1784.450;  178.525;    0.000
966.493; 1870.450;  177.525;    0.000
966.661; 1850.450;  172.525;    0.000
966.829; 1862.450;  167.525;    0.000
966.996; 1722.450;  202.525;    0.000
967.164; 1880.450;  175.525;    0.000
967.332; 1863.450;  207.525;    0.000
967.500; 1843.450;  170.525;    0.000
967.667; 1947.450;  222.525;    0.000
967.835; 1825.450;  245.525;    0.000
968.003; 1764.450;  180.525;    0.000
968.170; 1789.450;  222.525;    0.000
968.338; 1829.450;  183.525;    0.000
968.505; 1867.450;  197.525;    0.000
968.673; 1876.450;  209.525;    0.000
968.841; 1818.450;  162.525;    0.000
969.008; 1888.450;  187.525;    0.000
969.175; 1818.450;  204.525;    0.000
969.343; 1807.450;  157.525;    0.000
969.510; 1922.450;  189.525;    0.000
969.678; 1779.450;  153.525;    0.000
969.845; 1858.450;  190.525;    0.000
970.012; 1891.450;  162.525;    0.000
970.180; 1913.450;  223.525;    0.000
970.347; 1937.450;  195.525;    0.000
970.514; 1821.450;  185.525;    0.000
970.681; 1843.450;  187.525;    0.000
970.849; 1797.450;  183.525;    0.000
971.016; 1870.450;  168.525;    0.000
971.183; 1906.450;  160.525;    0.000
971.350; 1800.450;  193.525;    0.000
971.517; 1909.450;  202.525;    0.000
971.684; 1904.450;  242.525;    0.000
971.851; 1885.450;  192.525;    0.000
972.018; 1795.450;  194.525;    0.000
972.185; 1944.450;  193.525;    0.000
972.352; 1846.450;  187.525;    0.000
972.519; 1908.450;  233.525;    0.000
972.686; 1896.450;  186.525;    0.000
972.853; 1829.450;  165.525;    0.000
973.020; 1898.450;  183.525;    0.000
973.186; 1821.450;  186.525;    0.000
973.353; 1902.450;  177.525;    0.000
973.520; 1882.450;  203.525;    0.000
973.687; 1890.450;  211.525;    0.000
973.853; 1969.450;  194.525;    0.000
974.020; 1864.450;  201.525;    0.000
974.187; 1773.450;  187.525;    0.000
974.353; 1877.450;  188.525;    0.000
974.520; 1823.450;  136.525;    0.000
974.687; 1904.450;  169.525;    0.000
974.853; 1902.450;  207.525;    0.000
975.020; 1870.450;  190.525;    0.000
975.186; 1752.450;  182.525;    0.000
975.353; 1865.450;  202.525;    0.000
975.519; 1850.450;  189.525;    0.000
975.685; 1829.450;  176.525;    0.000
975.852; 1871.450;  175.525;    0.000
976.018; 1828.450;  155.525;    0.000
976.184; 1792.450;  179.525;    0.000
976.351; 1799.450;  191.525;    0.000
976.517; 1820.450;  246.525;    0.000
976.683; 1833.450;  222.525;    0.000
976.849; 1882.450;  216.525;    0.000
977.016; 1760.450;  212.525;    0.000
977.182; 1835.450;  192.525;    0.000
977.348; 1788.450;  145.525;    0.000
977.514; 1832.450;  195.525;    0.000
977.680; 1745.450;  210.525;    0.000
977.846; 1788.450;  172.525;    0.000
978.012; 1783.450;  190.525;    0.000
978.178; 1780.450;  201.525;    0.000
978.344; 1794.450;  190.525;    0.000
978.510; 1756.450;  199.525;    0.000
978.676; 1766.450;  174.525;    0.000
978.842; 1839.450;  195.525;    0.000
979.008; 1708.450;  205.525;    0.000
979.174; 1743.450;  187.525;    0.000
979.340; 1842.450;  194.525;    0.000
979.505; 1817.450;  221.525;    0.000
979.671; 1769.450;  178.525;    0.000
979.837; 1782.450;  215.525;    0.000
980.003; 1779.450;  176.525;    0.000
980.168; 1815.450;  185.525;    0.000
980.334; 1822.450;  165.525;    0.000
980.499; 1882.450;  231.525;    0.000
980.665; 1795.450;  238.525;    0.000
980.831; 1813.450;  194.525;    0.000
980.996; 1873.450;  169.525;    0.000
981.162; 1839.450;  199.525;    0.000
981.327; 1733.450;  158.525;    0.000
981.493; 1819.450;  193.525;    0.000
981.658; 1740.450;  181.525;    0.000
981.823; 1870.450;  199.525;    0.000
981.989; 1825.450;  186.525;    0.000
982.154; 1836.450;  225.525;    0.000
982.319; 1853.450;  191.525;    0.000
982.485; 1846.450;  205.525;    0.000
982.650; 1979.450;  234.525;    0.000
982.815; 1798.450;  193.525;    0.000
982.980; 1870.450;  177.525;    0.000
983.146; 1890.450;  212.525;    0.000
983.311; 1769.450;  177.525;    0.000
983.476; 1831.450;  185.525;    0.000
983.641; 1809.450;  149.525;    0.000
983.806; 1821.450;  175.525;    0.000
983.971; 1851.450;  234.525;    0.000
984.136; 1738.450;  191.525;    0.000
984.301; 1803.450;  215.525;    0.000
984.466; 1748.450;  207.525;    0.000
984.631; 1804.450;  206.525;    0.000
984.796; 1803.450;  229.525;    0.000
984.961; 1815.450;  220.525;    0.000
985.126; 1809.450;  204.525;    0.000
985.291; 1748.450;  210.525;    0.000
985.455; 1776.450;  193.525;    0.000
985.620; 1765.450;  207.525;    0.000
985.785; 1731.450;  188.525;    0.000
985.950; 1900.450;  168.525;    0.000
986.114; 1936.450;  239.525;    0.000
986.279; 1848.450;  223.525;    0.000
986.444; 1936.450;  154.525;    0.000
986.608; 1907.450;  232.525;    0.000
986.773; 1914.450;  214.525;    0.000
986.937; 1904.450;  220.525;    0.000
987.102; 1914.450;  224.525;    0.000
987.266; 1868.450;  157.525;    0.000
987.431; 1839.450;  246.525;    0.000
987.595; 1779.450;  203.525;    0.000
987.760; 1860.450;  202.525;    0.000
987.924; 1889.450;  208.525;    0.000
988.088; 1852.450;  169.525;    0.000
988.253; 1801.450;  237.525;    0.000
988.417; 1879.450;  202.525;    0.000
988.581; 1852.450;  215.525;    0.000
988.746; 1758.450;  210.525;    0.000
988.910; 1768.450;  191.525;    0.000
989.074; 1732.450;  197.525;    0.000
989.238; 1847.450;  191.525;    0.000
989.402; 1816.450;  222.525;    0.000
989.566; 1795.450;  221.525;    0.000
989.731; 1762.450;  216.525;    0.000
989.895; 1796.450;  183.525;    0.000
990.059; 1795.450;  150.525;    0.000
990.223; 1800.450;  183.525;    0.000
990.387; 1729.450;  241.525;    0.000
990.551; 1851.450;  198.525;    0.000
990.714; 1826.450;  176.525;    0.000
990.878; 1829.450;  203.525;    0.000
991.042; 1796.450;  146.525;    0.000
991.206; 1858.450;  199.525;    0.000
991.370; 1819.450;  223.525;    0.000
991.534; 1709.450;  158.525;    0.000
991.697; 1808.450;  182.525;    0.000
991.861; 1754.450;  195.525;    0.000
992.025; 1821.450;  206.525;    0.000
992.188; 1739.450;  174.525;    0.000
992.352; 1836.450;  183.525;    0.000
992.516; 1808.450;  181.525;    0.000
992.679; 1771.450;  162.525;    0.000
992.843; 1846.450;  173.525;    0.000
993.006; 1855.450;  189.525;    0.000
993.170; 1896.450;  200.525;    0.000
993.333; 1802.450;  167.525;    0.000
993.497; 1807.450;  217.525;    0.000
993.660; 1807.450;  179.525;    0.000
993.824; 1733.450;  195.525;    0.000
993.987; 1850.450;  186.525;    0.000
994.150; 1747.450;  164.525;    0.000
994.314; 1865.450;  215.525;    0.000
994.477; 1787.450;  186.525;    0.000
994.640; 1832.450;  192.525;    0.000
994.803; 1835.450;  215.525;    0.000
994.967; 1785.450;  208.525;    0.000
995.130; 1854.450;  196.525;    0.000
995.293; 1845.450;  221.525;    0.000
995.456; 1822.450;  164.525;    0.000
995.619; 1779.450;  224.525;    0.000
995.782; 1728.450;  184.525;    0.000
995.945; 1793.450;  220.525;    0.000
996.108; 1818.450;  187.525;    0.000
996.271; 1743.450;  192.525;    0.000
996.434; 1805.450;  162.525;    0.000
996.597; 1752.450;  148.525;    0.000
996.760; 1820.450;  186.525;    0.000
996.923; 1767.450;  154.525;    0.000
997.086; 1827.450;  156.525;    0.000
997.248; 1772.450;  215.525;    0.000
997.411; 1844.450;  160.525;    0.000
997.574; 1714.450;  159.525;    0.000
997.737; 1767.450;  179.525;    0.000
997.899; 1811.450;  184.525;    0.000
998.062; 1742.450;  180.525;    0.000
998.225; 1760.450;  168.525;    0.000
998.387; 1781.450;  192.525;    0.000
998.550; 1725.450;  178.525;    0.000
998.712; 1685.450;  192.525;    0.000
998.875; 1809.450;  230.525;    0.000
999.037; 1772.450;  200.525;    0.000
999.200; 1838.450;  196.525;    0.000
999.362; 1810.450;  173.525;    0.000
999.525; 1796.450;  196.525;    0.000
999.687; 1706.450;  159.525;    0.000
999.849; 1780.450;  180.525;    0.000
1000.012; 1759.450;  210.525;    0.000
1000.174; 1845.450;  175.525;    0.000
1000.336; 1796.450;  174.525;    0.000
1000.499; 1765.450;  180.525;    0.000
1000.661; 1880.450;  204.525;    0.000
1000.823; 1859.450;  181.525;    0.000
1000.985; 1860.450;  178.525;    0.000
1001.147; 1862.450;  215.525;    0.000
1001.309; 1836.450;  212.525;    0.000
1001.471; 1812.450;  192.525;    0.000
1001.633; 1911.450;  207.525;    0.000
1001.796; 1804.450;  211.525;    0.000
1001.958; 1829.450;  200.525;    0.000
1002.119; 1988.450;  210.525;    0.000
1002.281; 2102.450;  204.525;    0.000
1002.443; 2167.450;  230.525;    0.000
1002.605; 2226.450;  178.525;    0.000
1002.767; 2264.450;  228.525;    0.000
1002.929; 2368.450;  199.525;    0.000
1003.091; 2495.450;  220.525;    0.000
1003.252; 2575.450;  219.525;    0.000
1003.414; 2673.450;  213.525;    0.000
1003.576; 2820.450;  202.525;    0.000
1003.738; 2956.450;  184.525;    0.000
1003.899; 3035.450;  218.525;    0.000
1004.061; 3221.450;  210.525;    0.000
1004.222; 3390.450;  179.525;    0.000
1004.384; 3512.450;  183.525;    0.000
1004.546; 3498.450;  206.525;    0.000
1004.707; 3645.450;  191.525;    0.000
1004.869; 3508.450;  197.525;    0.000
1005.030; 3627.450;  186.525;    0.000
1005.191; 3382.450;  188.525;    0.000
1005.353; 3371.450;  215.525;    0.000
1005.514; 3154.450;  184.525;    0.000
1005.675; 3148.450;  209.525;    0.000
1005.837; 2889.450;  239.525;    0.000
1005.998; 2793.450;  218.525;    0.000
1006.159; 2829.450;  212.525;    0.000
1006.321; 2729.450;  220.525;    0.000
1006.482; 3032.450;  201.525;    0.000
1006.643; 3082.450;  222.525;    0.000
1006.804; 3168.450;  191.525;    0.000
1006.965; 3306.450;  214.525;    0.000
1007.126; 3324.450;  214.525;    0.000
1007.287; 3336.450;  243.525;    0.000
1007.448; 3225.450;  251.525;    0.000
1007.609; 3210.450;  244.525;    0.000
1007.770; 3161.450;  211.525;    0.000
1007.931; 3016.450;  225.525;    0.000
1008.092; 3116.450;  188.525;    0.000
1008.253; 3240.450;  224.525;    0.000
1008.414; 3395.450;  198.525;    0.000
1008.575; 3338.450;  244.525;    0.000
1008.736; 3300.450;  219.525;    0.000
1008.896; 3288.450;  206.525;    0.000
1009.057; 3282.450;  258.525;    0.000
1009.218; 3265.450;  209.525;    0.000
1009.379; 3153.450;  204.525;    0.000
1009.539; 3312.450;  242.525;    0.000
1009.700; 3442.450;  205.525;    0.000
1009.860; 3491.450;  211.525;    0.000
1010.021; 3326.450;  219.525;    0.000
1010.182; 3360.450;  206.525;    0.000
1010.342; 3330.450;  219.525;    0.000
1010.503; 3441.450;  231.525;    0.000
1010.663; 3517.450;  260.525;    0.000
1010.823; 3511.450;  200.525;    0.000
1010.984; 3700.450;  189.525;    0.000
1011.144; 3765.450;  234.525;    0.000
1011.305; 3694.450;  212.525;    0.000
1011.465; 3846.450;  202.525;    0.000
1011.625; 4057.450;  236.525;    0.000
1011.785; 4026.450;  203.525;    0.000
1011.946; 4036.450;  195.525;    0.000
1012.106; 3933.450;  176.525;    0.000
1012.266; 3923.450;  211.525;    0.000
1012.426; 3812.450;  244.525;    0.000
1012.586; 3991.450;  202.525;    0.000
1012.746; 3890.450;  234.525;    0.000
1012.906; 3906.450;  246.525;    0.000
1013.066; 3909.450;  232.525;    0.000
1013.226; 3912.450;  248.525;    0.000
1013.386; 3801.450;  231.525;    0.000
1013.546; 3865.450;  233.525;    0.000
1013.706; 3677.450;  211.525;    0.000
1013.866; 3758.450;  240.525;    0.000
1014.026; 3932.450;  188.525;    0.000
1014.186; 3774.450;  186.525;    0.000
1014.346; 3770.450;  203.525;    0.000
1014.505; 3970.450;  238.525;    0.000
1014.665; 4075.450;  206.525;    0.000
1014.825; 3794.450;  200.525;    0.000
1014.985; 3749.450;  215.525;    0.000
1015.144; 4031.450;  250.525;    0.000
1015.304; 4379.450;  195.525;    0.000
1015.464; 4153.450;  237.525;    0.000
1015.623; 4167.450;  232.525;    0.000
1015.783; 4350.450;  220.525;    0.000
1015.942; 4907.450;  219.525;    0.000
1016.102; 4889.450;  202.525;    0.000
1016.261; 4654.450;  225.525;    0.000
1016.420; 5149.450;  246.525;    0.000
1016.580; 5717.450;  226.525;    0.000
1016.739; 5629.450;  214.525;    0.000
1016.899; 5440.450;  205.525;    0.000
1017.058; 5571.450;  217.525;    0.000
1017.217; 5958.450;  199.525;    0.000
1017.376; 5680.450;  219.525;    0.000
1017.536; 5086.450;  209.525;    0.000
1017.695; 5056.450;  213.525;    0.000
1017.854; 5171.450;  187.525;    0.000
1018.013; 5081.450;  222.525;    0.000
1018.172; 4782.450;  204.525;    0.000
1018.331; 4791.450;  195.525;    0.000
1018.490; 5120.450;  213.525;    0.000
1018.649; 5443.450;  216.525;    0.000
1018.808; 5842.450;  227.525;    0.000
1018.967; 5587.450;  206.525;    0.000
1019.126; 5603.450;  206.525;    0.000
1019.285; 5702.450;  219.525;    0.000
1019.444; 5737.450;  218.525;    0.000
1019.603; 5433.450;  206.525;    0.000
1019.762; 5319.450;  189.525;    0.000
1019.921; 5321.450;  217.525;    0.000
1020.079; 5611.450;  200.525;    0.000
1020.238; 5988.450;  219.525;    0.000
1020.397; 5930.450;  227.525;    0.000
1020.555; 5389.450;  207.525;    0.000
1020.714; 5496.450;  253.525;    0.000
1020.873; 5815.450;  230.525;    0.000
1021.031; 6110.450;  232.525;    0.000
1021.190; 5813.450;  226.525;    0.000
1021.348; 5344.450;  224.525;    0.000
1021.507; 5956.450;  215.525;    0.000
1021.665; 6273.450;  233.525;    0.000
1021.824; 6123.450;  196.525;    0.000
1021.982; 5610.450;  215.525;    0.000
1022.141; 5518.450;  200.525;    0.000
1022.299; 6090.450;  200.525;    0.000
1022.457; 6592.450;  179.525;    0.000
1022.616; 6091.450;  226.525;    0.000
1022.774; 5651.450;  216.525;    0.000
1022.932; 5637.450;  212.525;    0.000
1023.090; 6461.450;  220.525;    0.000
1023.249; 6642.450;  194.525;    0.000
1023.407; 6135.450;  227.525;    0.000
1023.565; 5769.450;  190.525;    0.000
1023.723; 5972.450;  190.525;    0.000
1023.881; 6600.450;  214.525;    0.000
1024.039; 6629.450;  179.525;    0.000
1024.197; 6371.450;  274.525;    0.000
1024.355; 5974.450;  269.525;    0.000
1024.513; 6056.450;  259.525;    0.000
1024.671; 6594.450;  211.525;    0.000
1024.829; 6488.450;  230.525;    0.000
1024.987; 6529.450;  239.525;    0.000
1025.145; 6071.450;  231.525;    0.000
1025.302; 6184.450;  212.525;    0.000
1025.460; 6621.450;  224.525;    0.000
1025.618; 6856.450;  217.525;    0.000
1025.776; 6430.450;  232.525;    0.000
1025.933; 5909.450;  212.525;    0.000
1026.091; 6306.450;  214.525;    0.000
1026.249; 6902.450;  224.525;    0.000
1026.406; 7262.450;  219.525;    0.000
1026.564; 6773.450;  262.525;    0.000
1026.721; 6422.450;  206.525;    0.000
1026.879; 6293.450;  227.525;    0.000
1027.036; 7031.450;  234.525;    0.000
1027.194; 7261.450;  256.525;    0.000
1027.351; 7216.450;  229.525;    0.000
1027.509; 6455.450;  253.525;    0.000
1027.666; 6220.450;  248.525;    0.000
1027.823; 6945.450;  215.525;    0.000
1027.981; 7470.450;  248.525;    0.000
1028.138; 7766.450;  257.525;    0.000
1028.295; 6861.450;  215.525;    0.000
1028.452; 6274.450;  236.525;    0.000
1028.609; 6482.450;  240.525;    0.000
1028.767; 7235.450;  258.525;    0.000
1028.924; 7751.450;  211.525;    0.000
1029.081; 7412.450;  226.525;    0.000
1029.238; 7041.450;  228.525;    0.000
1029.395; 6415.450;  264.525;    0.000
1029.552; 6785.450;  227.525;    0.000
1029.709; 7651.450;  232.525;    0.000
1029.866; 7840.450;  223.525;    0.000
1030.023; 7472.450;  220.525;    0.000
1030.180; 6775.450;  222.525;    0.000
1030.337; 6608.450;  224.525;    0.000
1030.494; 6997.450;  228.525;    0.000
1030.650; 7608.450;  242.525;    0.000
1030.807; 8282.450;  214.525;    0.000
1030.964; 7495.450;  207.525;    0.000
1031.121; 7006.450;  236.525;    0.000
1031.277; 6538.450;  206.525;    0.000
1031.434; 6910.450;  249.525;    0.000
1031.591; 7649.450;  253.525;    0.000
1031.747; 8227.450;  240.525;    0.000
1031.904; 8143.450;  212.525;    0.000
1032.060; 7443.450;  185.525;    0.000
1032.217; 6873.450;  201.525;    0.000
1032.373; 7778.450;  207.525;    0.000
1032.530; 7817.450;  226.525;    0.000
1032.686; 9097.450;  226.525;    0.000
1032.843; 9059.450;  203.525;    0.000
1032.999; 8754.450;  233.525;    0.000
1033.155; 8633.450;  232.525;    0.000
1033.312; 8384.450;  239.525;    0.000
1033.468; 9682.450;  207.525;    0.000
1033.624;10359.450;  238.525;    0.000
1033.780;11211.450;  255.525;    0.000
1033.937;11378.450;  188.525;    0.000
1034.093;10592.450;  244.525;    0.000
1034.249;10849.450;  182.525;    0.000
1034.405;10429.450;  251.525;    0.000
1034.561;11381.450;  250.525;    0.000
1034.717;12019.450;  208.525;    0.000
1034.873;12138.450;  210.525;    0.000
1035.029;12236.450;  245.525;    0.000
1035.185;11754.450;  230.525;    0.000
1035.341;11382.450;  209.525;    0.000
1035.497;12089.450;  244.525;    0.000
1035.653;12057.450;  229.525;    0.000
1035.809;13006.450;  275.525;    0.000
1035.964;14285.450;  203.525;    0.000
1036.120;13271.450;  215.525;    0.000
1036.276;13542.450;  228.525;    0.000
1036.432;13820.450;  183.525;    0.000
1036.587;12783.450;  214.525;    0.000
1036.743;13416.450;  240.525;    0.000
1036.899;14003.450;  202.525;    0.000
1037.054;14133.450;  182.525;    0.000
1037.210;15916.450;  228.525;    0.000
1037.365;16195.450;  239.525;    0.000
1037.521;15392.450;  230.525;    0.000
1037.676;15449.450;  217.525;    0.000
1037.832;14368.450;  235.525;    0.000
1037.987;14554.450;  210.525;    0.000
1038.143;14909.450;  206.525;    0.000
1038.298;15988.450;  177.525;    0.000
1038.453;16262.450;  215.525;    0.000
1038.609;17438.449;  210.525;    0.000
1038.764;18207.449;  227.525;    0.000
1038.919;17034.449;  197.525;    0.000
1039.074;17100.449;  183.525;    0.000
1039.229;15659.450;  218.525;    0.000
1039.385;15527.450;  251.525;    0.000
1039.540;15741.450;  222.525;    0.000
1039.695;16671.449;  215.525;    0.000
1039.850;18542.449;  204.525;    0.000
1040.005;19387.449;  241.525;    0.000
1040.160;21081.449;  180.525;    0.000
1040.315;20196.449;  197.525;    0.000
1040.470;19177.449;  180.525;    0.000
1040.625;18991.449;  196.525;    0.000
1040.780;18403.449;  245.525;    0.000
1040.935;17642.449;  204.525;    0.000
1041.089;18554.449;  213.525;    0.000
1041.244;21528.449;  200.525;    0.000
1041.399;21661.449;  212.525;    0.000
1041.554;23071.449;  239.525;    0.000
1041.708;26259.449;  238.525;    0.000
1041.863;24595.449;  213.525;    0.000
1042.018;24460.449;  236.525;    0.000
1042.172;24480.449;  238.525;    0.000
1042.327;22919.449;  254.525;    0.000
1042.481;23521.449;  197.525;    0.000
1042.636;23855.449;  205.525;    0.000
1042.791;23050.449;  218.525;    0.000
1042.945;26390.449;  261.525;    0.000
1043.099;30611.449;  201.525;    0.000
1043.254;29490.449;  191.525;    0.000
1043.408;30117.449;  279.525;    0.000
1043.563;32281.449;  203.525;    0.000
1043.717;31765.449;  229.525;    0.000
1043.871;30209.449;  213.525;    0.000
1044.025;28781.449;  240.525;    0.000
1044.180;28840.449;  220.525;    0.000
1044.334;27864.449;  268.525;    0.000
1044.488;29762.449;  261.525;    0.000
1044.642;30008.449;  205.525;    0.000
1044.796;33312.449;  240.525;    0.000
1044.950;37318.449;  258.525;    0.000
1045.104;39748.449;  218.525;    0.000
1045.258;40593.449;  213.525;    0.000
1045.412;39308.449;  223.525;    0.000
1045.566;40112.449;  240.525;    0.000
1045.720;36651.449;  235.525;    0.000
1045.874;35446.449;  221.525;    0.000
1046.028;33012.449;  247.525;    0.000
1046.182;33534.449;  200.525;    0.000
1046.336;33776.449;  220.525;    0.000
1046.489;35215.449;  228.525;    0.000
1046.643;35347.449;  249.525;    0.000
1046.797;38564.449;  230.525;    0.000
1046.951;40221.449;  234.525;    0.000
1047.104;40772.449;  262.525;    0.000
1047.258;44131.449;  210.525;    0.000
1047.411;46511.449;  235.525;    0.000
1047.565;45450.449;  237.525;    0.000
1047.719;43386.449;  237.525;    0.000
1047.872;43104.449;  225.525;    0.000
1048.026;42231.449;  237.525;    0.000
1048.179;41087.449;  220.525;    0.000
1048.332;40643.449;  219.525;    0.000
1048.486;40575.449;  195.525;    0.000
1048.639;41430.449;  213.525;    0.000
1048.792;39901.449;  245.525;    0.000
1048.946;43987.449;  234.525;    0.000
1049.099;48177.449;  226.525;    0.000
1049.252;48761.449;  282.525;    0.000
1049.406;44739.449;  255.525;    0.000
1049.559;46862.449;  223.525;    0.000
1049.712;51889.449;  253.525;    0.000
1049.865;55724.449;  271.525;    0.000
1050.018;55062.449;  241.525;    0.000
1050.171;49027.449;  202.525;    0.000
1050.324;46789.449;  250.525;    0.000
1050.477;48812.449;  251.525;    0.000
1050.630;50980.449;  216.525;    0.000
1050.783;54325.449;  205.525;    0.000
1050.936;50825.449;  219.525;    0.000
1051.089;49962.449;  247.525;    0.000
1051.242;51688.449;  238.525;    0.000
1051.394;55318.449;  252.525;    0.000
1051.547;59118.449;  245.525;    0.000
1051.700;54240.449;  206.525;    0.000
1051.853;53527.449;  270.525;    0.000
1052.005;54554.449;  245.525;    0.000
1052.158;59233.449;  290.525;    0.000
1052.311;64551.449;  237.525;    0.000
1052.463;63788.449;  271.525;    0.000
1052.616;58275.449;  255.525;    0.000
1052.768;51943.449;  257.525;    0.000
1052.921;49288.449;  289.525;    0.000
1053.073;54183.449;  287.525;    0.000
1053.226;60184.449;  268.525;    0.000
1053.378;65107.449;  294.525;    0.000
1053.531;65107.449;  255.525;    0.000
1053.683;65107.449;  293.525;    0.000
1053.835;59041.449;  274.525;    0.000
1053.988;46776.449;  282.525;    0.000
1054.140; 8279.450;  291.525;    0.000
1054.292; 1966.450;  292.525;    0.000
1054.444; 1565.450;  299.525;    0.000
1054.596; 1298.450;  319.525;    0.000
1054.749; 1248.450;  295.525;    0.000
1054.901; 1175.450;  266.525;    0.000
1055.053; 1067.450;  300.525;    0.000
1055.205;  982.450;  290.525;    0.000
1055.357;  987.450;  304.525;    0.000
1055.509;  910.450;  292.525;    0.000
1055.661;  895.450;  339.525;    0.000
1055.813;  833.450;  306.525;    0.000
1055.965;  841.450;  293.525;    0.000
1056.116;  803.450;  300.525;    0.000
1056.268;  811.450;  306.525;    0.000
1056.420;  891.450;  288.525;    0.000

