
Integration time [ms]:   0.300
Averaging Nr. [scans]: 1
Smoothing Nr. [pixels]: 0
Data measured with spectrometer [name]: UV1
Wave   ;Sample   ;Dark     ;Reference
[nm]   ;[counts] ;[counts] ;[counts] 

236.381;  205.250;  160.350;    0.000
236.451;  180.250;  198.350;    0.000
236.520;  156.250;  179.350;    0.000
236.590;  178.250;  205.350;    0.000
236.660;  174.250;  199.350;    0.000
236.730;  180.250;  178.350;    0.000
236.799;  191.250;  201.350;    0.000
236.869;  165.250;  197.350;    0.000
236.939;  178.250;  180.350;    0.000
237.009;  192.250;  165.350;    0.000
237.078;  159.250;  191.350;    0.000
237.148;  195.250;  146.350;    0.000
237.218;  180.250;  142.350;    0.000
237.287;  178.250;  190.350;    0.000
237.357;  197.250;  182.350;    0.000
237.427;  193.250;  139.350;    0.000
237.496; 1167.250;  221.350;    0.000
237.566; 1161.250;  183.350;    0.000
237.636; 1152.250;  157.350;    0.000
237.705; 1148.250;  189.350;    0.000
237.775; 1196.250;  169.350;    0.000
237.845; 1221.250;  156.350;    0.000
237.914; 1154.250;  185.350;    0.000
237.984; 1195.250;  194.350;    0.000
238.054; 1215.250;  138.350;    0.000
238.123; 1149.250;  166.350;    0.000
238.193; 1160.250;  174.350;    0.000
238.263; 1154.250;  158.350;    0.000
238.332; 1167.250;  167.350;    0.000
238.402; 1185.250;  173.350;    0.000
238.471; 1152.250;  153.350;    0.000
238.541; 1197.250;  167.350;    0.000
238.611; 1196.250;  165.350;    0.000
238.680; 1203.250;  157.350;    0.000
238.750; 1146.250;  152.350;    0.000
238.819; 1083.250;  190.350;    0.000
238.889; 1124.250;  151.350;    0.000
238.958; 1139.250;  166.350;    0.000
239.028; 1195.250;  180.350;    0.000
239.097; 1186.250;  170.350;    0.000
239.167; 1207.250;  177.350;    0.000
239.237; 1157.250;  195.350;    0.000
239.306; 1171.250;  145.350;    0.000
239.376; 1119.250;  158.350;    0.000
239.445; 1176.250;  187.350;    0.000
239.515; 1169.250;  160.350;    0.000
239.584; 1120.250;  173.350;    0.000
239.654; 1121.250;  184.350;    0.000
239.723; 1165.250;  195.350;    0.000
239.793; 1135.250;  183.350;    0.000
239.862; 1136.250;  190.350;    0.000
239.932; 1151.250;  168.350;    0.000
240.001; 1096.250;  164.350;    0.000
240.070; 1088.250;  183.350;    0.000
240.140; 1103.250;  175.350;    0.000
240.209; 1081.250;  135.350;    0.000
240.279; 1113.250;  176.350;    0.000
240.348; 1125.250;  184.350;    0.000
240.418; 1125.250;  157.350;    0.000
240.487; 1075.250;  189.350;    0.000
240.556; 1146.250;  157.350;    0.000
240.626; 1092.250;  174.350;    0.000
240.695; 1130.250;  180.350;    0.000
240.765; 1084.250;  152.350;    0.000
240.834; 1035.250;  136.350;    0.000
240.903; 1094.250;  196.350;    0.000
240.973; 1079.250;  183.350;    0.000
241.042; 1140.250;  150.350;    0.000
241.112; 1121.250;  168.350;    0.000
241.181; 1179.250;  152.350;    0.000
241.250; 1078.250;  132.350;    0.000
241.320; 1149.250;  209.350;    0.000
241.389; 1099.250;  169.350;    0.000
241.458; 1132.250;  204.350;    0.000
241.528; 1153.250;  176.350;    0.000
241.597; 1070.250;  170.350;    0.000
241.666; 1098.250;  168.350;    0.000
241.736; 1131.250;  172.350;    0.000
241.805; 1099.250;  160.350;    0.000
241.874; 1156.250;  176.350;    0.000
241.943; 1130.250;  165.350;    0.000
242.013; 1192.250;  206.350;    0.000
242.082; 1105.250;  162.350;    0.000
242.151; 1031.250;  180.350;    0.000
242.221; 1111.250;  154.350;    0.000
242.290; 1132.250;  122.350;    0.000
242.359; 1065.250;  121.350;    0.000
242.428; 1162.250;  187.350;    0.000
242.498; 1125.250;  140.350;    0.000
242.567; 1117.250;  173.350;    0.000
242.636; 1125.250;  155.350;    0.000
242.705; 1038.250;  108.350;    0.000
242.774; 1136.250;  145.350;    0.000
242.844; 1126.250;  162.350;    0.000
242.913; 1150.250;  178.350;    0.000
242.982; 1112.250;  163.350;    0.000
243.051; 1126.250;  138.350;    0.000
243.120; 1083.250;  172.350;    0.000
243.190; 1100.250;  155.350;    0.000
243.259; 1156.250;  159.350;    0.000
243.328; 1099.250;  173.350;    0.000
243.397; 1052.250;  175.350;    0.000
243.466; 1119.250;  170.350;    0.000
243.535; 1069.250;  161.350;    0.000
243.605; 1071.250;  149.350;    0.000
243.674; 1087.250;  162.350;    0.000
243.743; 1121.250;  175.350;    0.000
243.812; 1063.250;  159.350;    0.000
243.881; 1064.250;  158.350;    0.000
243.950; 1063.250;  154.350;    0.000
244.019; 1039.250;  185.350;    0.000
244.088; 1150.250;  175.350;    0.000
244.158; 1121.250;  167.350;    0.000
244.227; 1085.250;  159.350;    0.000
244.296; 1071.250;  143.350;    0.000
244.365; 1129.250;  182.350;    0.000
244.434; 1082.250;  117.350;    0.000
244.503; 1094.250;  109.350;    0.000
244.572; 1026.250;  147.350;    0.000
244.641; 1023.250;  129.350;    0.000
244.710; 1074.250;  159.350;    0.000
244.779; 1068.250;  166.350;    0.000
244.848; 1058.250;  122.350;    0.000
244.917; 1010.250;  167.350;    0.000
244.986;  997.250;  158.350;    0.000
245.055; 1092.250;  175.350;    0.000
245.124; 1017.250;  153.350;    0.000
245.193; 1038.250;  155.350;    0.000
245.262;  998.250;  137.350;    0.000
245.331; 1026.250;  145.350;    0.000
245.400;  993.250;  107.350;    0.000
245.469;  980.250;  162.350;    0.000
245.538;  966.250;  165.350;    0.000
245.607; 1004.250;  178.350;    0.000
245.676;  976.250;  166.350;    0.000
245.745;  972.250;  169.350;    0.000
245.814;  939.250;  155.350;    0.000
245.883;  958.250;  186.350;    0.000
245.952;  981.250;  165.350;    0.000
246.021;  935.250;  169.350;    0.000
246.090;  981.250;  170.350;    0.000
246.159;  923.250;  155.350;    0.000
246.227;  962.250;  161.350;    0.000
246.296;  920.250;  142.350;    0.000
246.365;  963.250;  160.350;    0.000
246.434;  986.250;  199.350;    0.000
246.503;  863.250;  155.350;    0.000
246.572;  920.250;  206.350;    0.000
246.641;  933.250;  177.350;    0.000
246.710;  937.250;  178.350;    0.000
246.779;  968.250;  193.350;    0.000
246.847;  945.250;  147.350;    0.000
246.916;  929.250;  131.350;    0.000
246.985;  932.250;  168.350;    0.000
247.054;  914.250;  143.350;    0.000
247.123;  955.250;  130.350;    0.000
247.192;  906.250;  175.350;    0.000
247.260;  864.250;  171.350;    0.000
247.329;  949.250;  162.350;    0.000
247.398;  908.250;  163.350;    0.000
247.467;  887.250;  155.350;    0.000
247.536;  922.250;  149.350;    0.000
247.604;  925.250;  191.350;    0.000
247.673;  956.250;  193.350;    0.000
247.742;  871.250;  159.350;    0.000
247.811;  911.250;  167.350;    0.000
247.879;  914.250;  176.350;    0.000
247.948;  874.250;  157.350;    0.000
248.017;  917.250;  150.350;    0.000
248.086;  917.250;  153.350;    0.000
248.154;  889.250;  157.350;    0.000
248.223;  932.250;  198.350;    0.000
248.292;  966.250;  188.350;    0.000
248.361;  862.250;  157.350;    0.000
248.429;  918.250;  138.350;    0.000
248.498;  878.250;  166.350;    0.000
248.567;  905.250;  179.350;    0.000
248.635;  916.250;  210.350;    0.000
248.704;  936.250;  168.350;    0.000
248.773;  888.250;  147.350;    0.000
248.841;  868.250;  155.350;    0.000
248.910;  936.250;  183.350;    0.000
248.979;  913.250;  171.350;    0.000
249.047;  889.250;  152.350;    0.000
249.116;  899.250;  155.350;    0.000
249.185;  901.250;  217.350;    0.000
249.253;  839.250;  149.350;    0.000
249.322;  876.250;  167.350;    0.000
249.390;  892.250;  182.350;    0.000
249.459;  903.250;  173.350;    0.000
249.528;  884.250;  162.350;    0.000
249.596;  869.250;  162.350;    0.000
249.665;  901.250;  163.350;    0.000
249.733;  967.250;  147.350;    0.000
249.802;  837.250;  170.350;    0.000
249.871;  861.250;  179.350;    0.000
249.939;  920.250;  179.350;    0.000
250.008;  834.250;  201.350;    0.000
250.076;  901.250;  189.350;    0.000
250.145;  848.250;  171.350;    0.000
250.213;  828.250;  161.350;    0.000
250.282;  823.250;  171.350;    0.000
250.350;  846.250;  138.350;    0.000
250.419;  850.250;  172.350;    0.000
250.487;  859.250;  207.350;    0.000
250.556;  891.250;  160.350;    0.000
250.624;  833.250;  187.350;    0.000
250.693;  798.250;  141.350;    0.000
250.761;  868.250;  182.350;    0.000
250.830;  941.250;  203.350;    0.000
250.898;  847.250;  160.350;    0.000
250.967;  818.250;  143.350;    0.000
251.035;  878.250;  142.350;    0.000
251.104;  835.250;  159.350;    0.000
251.172;  836.250;  189.350;    0.000
251.241;  849.250;  134.350;    0.000
251.309;  846.250;  179.350;    0.000
251.378;  890.250;  203.350;    0.000
251.446;  821.250;  151.350;    0.000
251.514;  853.250;  176.350;    0.000
251.583;  838.250;  173.350;    0.000
251.651;  762.250;  163.350;    0.000
251.720;  880.250;  151.350;    0.000
251.788;  828.250;  205.350;    0.000
251.856;  812.250;  126.350;    0.000
251.925;  800.250;  118.350;    0.000
251.993;  882.250;  139.350;    0.000
252.062;  767.250;  161.350;    0.000
252.130;  805.250;  180.350;    0.000
252.198;  903.250;  141.350;    0.000
252.267;  777.250;  145.350;    0.000
252.335;  782.250;  159.350;    0.000
252.403;  815.250;  158.350;    0.000
252.472;  820.250;  142.350;    0.000
252.540;  813.250;  162.350;    0.000
252.608;  814.250;  180.350;    0.000
252.677;  808.250;  137.350;    0.000
252.745;  825.250;  183.350;    0.000
252.813;  775.250;  151.350;    0.000
252.881;  712.250;  109.350;    0.000
252.950;  738.250;  174.350;    0.000
253.018;  745.250;  136.350;    0.000
253.086;  690.250;  149.350;    0.000
253.155;  661.250;  127.350;    0.000
253.223;  667.250;  156.350;    0.000
253.291;  704.250;  163.350;    0.000
253.359;  648.250;  174.350;    0.000
253.428;  650.250;  174.350;    0.000
253.496;  616.250;  161.350;    0.000
253.564;  593.250;  128.350;    0.000
253.632;  623.250;  153.350;    0.000
253.700;  659.250;  185.350;    0.000
253.769;  576.250;  163.350;    0.000
253.837;  605.250;  176.350;    0.000
253.905;  594.250;  164.350;    0.000
253.973;  655.250;  156.350;    0.000
254.041;  677.250;  154.350;    0.000
254.110;  595.250;  165.350;    0.000
254.178;  614.250;  148.350;    0.000
254.246;  610.250;  138.350;    0.000
254.314;  619.250;  164.350;    0.000
254.382;  630.250;  167.350;    0.000
254.450;  625.250;  134.350;    0.000
254.518;  616.250;  192.350;    0.000
254.587;  604.250;  139.350;    0.000
254.655;  601.250;  162.350;    0.000
254.723;  604.250;  131.350;    0.000
254.791;  612.250;  181.350;    0.000
254.859;  655.250;  146.350;    0.000
254.927;  643.250;  189.350;    0.000
254.995;  638.250;  141.350;    0.000
255.063;  623.250;  181.350;    0.000
255.131;  583.250;  156.350;    0.000
255.199;  617.250;  175.350;    0.000
255.267;  623.250;  120.350;    0.000
255.336;  660.250;  186.350;    0.000
255.404;  603.250;  134.350;    0.000
255.472;  565.250;  172.350;    0.000
255.540;  610.250;  157.350;    0.000
255.608;  623.250;  186.350;    0.000
255.676;  611.250;  155.350;    0.000
255.744;  657.250;  143.350;    0.000
255.812;  630.250;  134.350;    0.000
255.880;  638.250;  188.350;    0.000
255.948;  649.250;  163.350;    0.000
256.016;  649.250;  175.350;    0.000
256.084;  700.250;  191.350;    0.000
256.152;  662.250;  187.350;    0.000
256.220;  646.250;  152.350;    0.000
256.288;  690.250;  141.350;    0.000
256.356;  652.250;  139.350;    0.000
256.424;  669.250;  121.350;    0.000
256.491;  664.250;  139.350;    0.000
256.559;  686.250;  144.350;    0.000
256.627;  718.250;  158.350;    0.000
256.695;  629.250;  121.350;    0.000
256.763;  670.250;  150.350;    0.000
256.831;  713.250;  181.350;    0.000
256.899;  700.250;  146.350;    0.000
256.967;  692.250;   71.350;    0.000
257.035;  728.250;  164.350;    0.000
257.103;  766.250;  191.350;    0.000
257.171;  660.250;  140.350;    0.000
257.238;  769.250;  165.350;    0.000
257.306;  759.250;  127.350;    0.000
257.374;  783.250;  120.350;    0.000
257.442;  766.250;  139.350;    0.000
257.510;  773.250;  158.350;    0.000
257.578;  792.250;  164.350;    0.000
257.646;  805.250;  151.350;    0.000
257.713;  789.250;  136.350;    0.000
257.781;  812.250;  137.350;    0.000
257.849;  824.250;  151.350;    0.000
257.917;  833.250;  154.350;    0.000
257.985;  860.250;  113.350;    0.000
258.052;  796.250;  140.350;    0.000
258.120;  829.250;  176.350;    0.000
258.188;  843.250;  157.350;    0.000
258.256;  886.250;  153.350;    0.000
258.324;  865.250;  184.350;    0.000
258.391;  839.250;  144.350;    0.000
258.459;  856.250;  162.350;    0.000
258.527;  919.250;  154.350;    0.000
258.595;  896.250;  122.350;    0.000
258.662;  870.250;  164.350;    0.000
258.730;  955.250;  114.350;    0.000
258.798;  975.250;  131.350;    0.000
258.865; 1009.250;  171.350;    0.000
258.933;  905.250;  145.350;    0.000
259.001;  976.250;  150.350;    0.000
259.069;  965.250;  123.350;    0.000
259.136;  961.250;  139.350;    0.000
259.204;  998.250;  165.350;    0.000
259.272; 1010.250;  114.350;    0.000
259.339; 1023.250;  179.350;    0.000
259.407; 1046.250;  153.350;    0.000
259.475; 1022.250;  143.350;    0.000
259.542; 1058.250;  136.350;    0.000
259.610; 1090.250;  133.350;    0.000
259.677; 1109.250;  159.350;    0.000
259.745; 1156.250;  130.350;    0.000
259.813; 1110.250;  175.350;    0.000
259.880; 1122.250;  158.350;    0.000
259.948; 1136.250;  124.350;    0.000
260.016; 1140.250;  105.350;    0.000
260.083; 1181.250;  169.350;    0.000
260.151; 1188.250;  133.350;    0.000
260.218; 1190.250;  143.350;    0.000
260.286; 1201.250;  134.350;    0.000
260.353; 1213.250;  160.350;    0.000
260.421; 1200.250;  128.350;    0.000
260.489; 1281.250;  150.350;    0.000
260.556; 1234.250;  179.350;    0.000
260.624; 1266.250;  113.350;    0.000
260.691; 1272.250;  128.350;    0.000
260.759; 1293.250;  146.350;    0.000
260.826; 1244.250;  111.350;    0.000
260.894; 1246.250;  115.350;    0.000
260.961; 1314.250;  138.350;    0.000
261.029; 1359.250;  152.350;    0.000
261.096; 1318.250;  175.350;    0.000
261.164; 1301.250;  131.350;    0.000
261.231; 1348.250;  141.350;    0.000
261.299; 1406.250;  125.350;    0.000
261.366; 1337.250;  142.350;    0.000
261.434; 1414.250;  133.350;    0.000
261.501; 1368.250;  137.350;    0.000
261.568; 1449.250;  184.350;    0.000
261.636; 1474.250;  138.350;    0.000
261.703; 1548.250;  161.350;    0.000
261.771; 1442.250;  160.350;    0.000
261.838; 1491.250;  178.350;    0.000
261.906; 1428.250;  128.350;    0.000
261.973; 1534.250;  139.350;    0.000
262.040; 1545.250;  148.350;    0.000
262.108; 1548.250;  130.350;    0.000
262.175; 1499.250;  117.350;    0.000
262.243; 1533.250;  174.350;    0.000
262.310; 1508.250;  145.350;    0.000
262.377; 1516.250;  108.350;    0.000
262.445; 1613.250;  147.350;    0.000
262.512; 1661.250;  124.350;    0.000
262.579; 1630.250;  127.350;    0.000
262.647; 1625.250;  166.350;    0.000
262.714; 1713.250;  150.350;    0.000
262.781; 1666.250;  121.350;    0.000
262.849; 1642.250;  126.350;    0.000
262.916; 1692.250;  119.350;    0.000
262.983; 1736.250;  155.350;    0.000
263.051; 1682.250;  137.350;    0.000
263.118; 1706.250;  160.350;    0.000
263.185; 1698.250;  151.350;    0.000
263.252; 1733.250;  167.350;    0.000
263.320; 1767.250;  123.350;    0.000
263.387; 1654.250;  134.350;    0.000
263.454; 1778.250;  144.350;    0.000
263.522; 1756.250;  153.350;    0.000
263.589; 1794.250;  161.350;    0.000
263.656; 1755.250;  117.350;    0.000
263.723; 1806.250;  101.350;    0.000
263.790; 1850.250;  128.350;    0.000
263.858; 1909.250;  142.350;    0.000
263.925; 1922.250;  182.350;    0.000
263.992; 1883.250;  146.350;    0.000
264.059; 1924.250;  132.350;    0.000
264.126; 1914.250;  154.350;    0.000
264.194; 1922.250;  153.350;    0.000
264.261; 1922.250;  157.350;    0.000
264.328; 1841.250;  171.350;    0.000
264.395; 1923.250;  166.350;    0.000
264.462; 2012.250;  165.350;    0.000
264.529; 2018.250;  124.350;    0.000
264.597; 2056.250;  120.350;    0.000
264.664; 1992.250;  159.350;    0.000
264.731; 2057.250;  145.350;    0.000
264.798; 1999.250;  100.350;    0.000
264.865; 2038.250;  166.350;    0.000
264.932; 1997.250;  132.350;    0.000
264.999; 2077.250;  137.350;    0.000
265.066; 2114.250;  124.350;    0.000
265.133; 2119.250;  162.350;    0.000
265.201; 2064.250;  163.350;    0.000
265.268; 2014.250;  174.350;    0.000
265.335; 2088.250;  132.350;    0.000
265.402; 2170.250;  116.350;    0.000
265.469; 2175.250;  121.350;    0.000
265.536; 2115.250;  157.350;    0.000
265.603; 2274.250;  151.350;    0.000
265.670; 2107.250;  164.350;    0.000
265.737; 2188.250;  142.350;    0.000
265.804; 2109.250;  146.350;    0.000
265.871; 2195.250;  168.350;    0.000
265.938; 2152.250;  131.350;    0.000
266.005; 2181.250;  208.350;    0.000
266.072; 2221.250;  125.350;    0.000
266.139; 2226.250;  161.350;    0.000
266.206; 2253.250;  134.350;    0.000
266.273; 2245.250;  155.350;    0.000
266.340; 2220.250;  122.350;    0.000
266.407; 2250.250;  134.350;    0.000
266.474; 2260.250;  126.350;    0.000
266.541; 2238.250;  153.350;    0.000
266.608; 2300.250;  129.350;    0.000
266.675; 2339.250;  185.350;    0.000
266.742; 2330.250;  153.350;    0.000
266.808; 2357.250;  169.350;    0.000
266.875; 2332.250;  156.350;    0.000
266.942; 2343.250;  172.350;    0.000
267.009; 2301.250;  150.350;    0.000
267.076; 2414.250;  184.350;    0.000
267.143; 2406.250;  170.350;    0.000
267.210; 2377.250;  132.350;    0.000
267.277; 2421.250;  146.350;    0.000
267.344; 2342.250;  159.350;    0.000
267.410; 2314.250;  174.350;    0.000
267.477; 2330.250;  169.350;    0.000
267.544; 2376.250;  130.350;    0.000
267.611; 2432.250;  169.350;    0.000
267.678; 2366.250;  197.350;    0.000
267.745; 2418.250;  185.350;    0.000
267.811; 2416.250;  160.350;    0.000
267.878; 2501.250;  143.350;    0.000
267.945; 2355.250;  126.350;    0.000
268.012; 2420.250;  172.350;    0.000
268.079; 2488.250;  156.350;    0.000
268.145; 2429.250;  128.350;    0.000
268.212; 2426.250;  107.350;    0.000
268.279; 2435.250;  135.350;    0.000
268.346; 2465.250;  166.350;    0.000
268.412; 2435.250;  150.350;    0.000
268.479; 2434.250;  176.350;    0.000
268.546; 2480.250;  119.350;    0.000
268.613; 2407.250;  201.350;    0.000
268.679; 2398.250;  141.350;    0.000
268.746; 2453.250;  177.350;    0.000
268.813; 2430.250;  134.350;    0.000
268.879; 2385.250;  141.350;    0.000
268.946; 2501.250;  172.350;    0.000
269.013; 2400.250;  150.350;    0.000
269.079; 2424.250;  124.350;    0.000
269.146; 2466.250;  135.350;    0.000
269.213; 2364.250;  200.350;    0.000
269.280; 2362.250;  142.350;    0.000
269.346; 2409.250;  153.350;    0.000
269.413; 2347.250;  140.350;    0.000
269.479; 2478.250;  171.350;    0.000
269.546; 2455.250;  156.350;    0.000
269.613; 2424.250;  145.350;    0.000
269.679; 2372.250;  168.350;    0.000
269.746; 2349.250;  136.350;    0.000
269.813; 2442.250;  153.350;    0.000
269.879; 2339.250;  162.350;    0.000
269.946; 2427.250;  156.350;    0.000
270.012; 2463.250;  178.350;    0.000
270.079; 2398.250;  132.350;    0.000
270.145; 2494.250;  146.350;    0.000
270.212; 2355.250;  145.350;    0.000
270.279; 2383.250;  184.350;    0.000
270.345; 2385.250;  143.350;    0.000
270.412; 2382.250;  158.350;    0.000
270.478; 2412.250;  143.350;    0.000
270.545; 2431.250;  150.350;    0.000
270.611; 2481.250;  156.350;    0.000
270.678; 2422.250;  121.350;    0.000
270.744; 2400.250;  161.350;    0.000
270.811; 2413.250;  173.350;    0.000
270.877; 2349.250;  115.350;    0.000
270.944; 2366.250;  114.350;    0.000
271.010; 2308.250;  122.350;    0.000
271.077; 2301.250;  142.350;    0.000
271.143; 2444.250;  152.350;    0.000
271.210; 2320.250;  135.350;    0.000
271.276; 2364.250;  107.350;    0.000
271.342; 2405.250;  173.350;    0.000
271.409; 2412.250;  171.350;    0.000
271.475; 2363.250;  136.350;    0.000
271.542; 2295.250;  121.350;    0.000
271.608; 2399.250;  133.350;    0.000
271.675; 2334.250;  136.350;    0.000
271.741; 2415.250;  151.350;    0.000
271.807; 2333.250;  130.350;    0.000
271.874; 2299.250;  168.350;    0.000
271.940; 2349.250;  156.350;    0.000
272.007; 2364.250;  122.350;    0.000
272.073; 2357.250;  121.350;    0.000
272.139; 2308.250;  137.350;    0.000
272.206; 2361.250;  152.350;    0.000
272.272; 2406.250;  162.350;    0.000
272.338; 2401.250;  197.350;    0.000
272.405; 2336.250;  144.350;    0.000
272.471; 2395.250;  160.350;    0.000
272.537; 2314.250;  142.350;    0.000
272.604; 2308.250;  141.350;    0.000
272.670; 2394.250;  182.350;    0.000
272.736; 2379.250;  126.350;    0.000
272.802; 2395.250;  146.350;    0.000
272.869; 2370.250;  163.350;    0.000
272.935; 2441.250;  132.350;    0.000
273.001; 2468.250;  119.350;    0.000
273.068; 2361.250;  137.350;    0.000
273.134; 2451.250;  155.350;    0.000
273.200; 2426.250;  165.350;    0.000
273.266; 2460.250;  156.350;    0.000
273.333; 2411.250;  143.350;    0.000
273.399; 2428.250;  128.350;    0.000
273.465; 2499.250;  167.350;    0.000
273.531; 2424.250;  122.350;    0.000
273.597; 2455.250;  182.350;    0.000
273.664; 2483.250;  177.350;    0.000
273.730; 2501.250;  124.350;    0.000
273.796; 2559.250;  143.350;    0.000
273.862; 2527.250;  155.350;    0.000
273.928; 2519.250;  137.350;    0.000
273.995; 2513.250;  188.350;    0.000
274.061; 2514.250;  154.350;    0.000
274.127; 2495.250;  161.350;    0.000
274.193; 2571.250;   95.350;    0.000
274.259; 2589.250;  128.350;    0.000
274.325; 2538.250;  146.350;    0.000
274.391; 2604.250;  113.350;    0.000
274.457; 2577.250;  150.350;    0.000
274.524; 2573.250;  165.350;    0.000
274.590; 2592.250;  140.350;    0.000
274.656; 2532.250;  165.350;    0.000
274.722; 2707.250;  118.350;    0.000
274.788; 2638.250;  143.350;    0.000
274.854; 2652.250;  150.350;    0.000
274.920; 2709.250;   88.350;    0.000
274.986; 2737.250;  178.350;    0.000
275.052; 2653.250;  145.350;    0.000
275.118; 2626.250;  105.350;    0.000
275.184; 2755.250;  129.350;    0.000
275.250; 2714.250;  138.350;    0.000
275.316; 2774.250;  173.350;    0.000
275.382; 2764.250;  106.350;    0.000
275.448; 2876.250;  160.350;    0.000
275.514; 2871.250;  162.350;    0.000
275.580; 2910.250;  135.350;    0.000
275.646; 2824.250;  120.350;    0.000
275.712; 2889.250;  157.350;    0.000
275.778; 2939.250;  128.350;    0.000
275.844; 2937.250;  117.350;    0.000
275.910; 2894.250;  121.350;    0.000
275.976; 3053.250;  172.350;    0.000
276.042; 3034.250;  114.350;    0.000
276.108; 3019.250;  200.350;    0.000
276.174; 3140.250;  132.350;    0.000
276.240; 3236.250;  128.350;    0.000
276.306; 3262.250;  124.350;    0.000
276.372; 3240.250;  133.350;    0.000
276.437; 3285.250;  146.350;    0.000
276.503; 3399.250;  136.350;    0.000
276.569; 3509.250;  162.350;    0.000
276.635; 3392.250;  128.350;    0.000
276.701; 3469.250;  148.350;    0.000
276.767; 3578.250;  155.350;    0.000
276.833; 3613.250;  128.350;    0.000
276.899; 3720.250;  145.350;    0.000
276.964; 3803.250;  124.350;    0.000
277.030; 3952.250;  130.350;    0.000
277.096; 4046.250;  139.350;    0.000
277.162; 4096.250;  164.350;    0.000
277.228; 4367.250;  108.350;    0.000
277.293; 4367.250;  138.350;    0.000
277.359; 4525.250;  123.350;    0.000
277.425; 4876.250;  183.350;    0.000
277.491; 5001.250;  144.350;    0.000
277.557; 6147.250;  130.350;    0.000
277.622; 8183.250;  151.350;    0.000
277.688; 8212.250;  169.350;    0.000
277.754; 8407.250;  199.350;    0.000
277.820; 9202.250;  170.350;    0.000
277.885;11179.250;  173.350;    0.000
277.951;13935.250;  187.350;    0.000
278.017;11695.250;  152.350;    0.000
278.083;10099.250;  137.350;    0.000
278.148; 9880.250;  147.350;    0.000
278.214; 9977.250;  162.350;    0.000
278.280;10675.250;  171.350;    0.000
278.345; 9379.250;  174.350;    0.000
278.411; 8527.250;  152.350;    0.000
278.477; 9191.250;  173.350;    0.000
278.542; 9816.250;  161.350;    0.000
278.608;10485.250;  155.350;    0.000
278.674;11753.250;  169.350;    0.000
278.739;12971.250;  142.350;    0.000
278.805;15087.250;  164.350;    0.000
278.871;18061.250;  160.350;    0.000
278.936;23432.250;  121.350;    0.000
279.002;36372.250;  166.350;    0.000
279.067;47785.250;  199.350;    0.000
279.133;44719.250;  150.350;    0.000
279.199;39738.250;  154.350;    0.000
279.264;40155.250;  154.350;    0.000
279.330;47253.250;  159.350;    0.000
279.395;61166.250;  143.350;    0.000
279.461;65298.250;  173.350;    0.000
279.527;65298.250;  163.350;    0.000
279.592;65298.250;  167.350;    0.000
279.658;65298.250;  189.350;    0.000
279.723;65298.250;  153.350;    0.000
279.789;65298.250;  174.350;    0.000
279.854;62368.250;  129.350;    0.000
279.920;51038.250;  165.350;    0.000
279.985;45889.250;  152.350;    0.000
280.051;46680.250;  164.350;    0.000
280.116;55616.250;  187.350;    0.000
280.182;65298.250;  160.350;    0.000
280.247;65298.250;  124.350;    0.000
280.313;65298.250;  154.350;    0.000
280.378;49821.250;  152.350;    0.000
280.444;36165.250;  165.350;    0.000
280.509;28242.250;  164.350;    0.000
280.574;23365.250;  160.350;    0.000
280.640;20020.250;  167.350;    0.000
280.705;17668.250;  190.350;    0.000
280.771;15868.250;  154.350;    0.000
280.836;14770.250;  158.350;    0.000
280.902;13450.250;  124.350;    0.000
280.967;12569.250;  179.350;    0.000
281.032;11901.250;  187.350;    0.000
281.098;11137.250;  155.350;    0.000
281.163;10714.250;  133.350;    0.000
281.229;10206.250;  170.350;    0.000
281.294; 9438.250;  175.350;    0.000
281.359; 9266.250;  163.350;    0.000
281.425; 8886.250;  161.350;    0.000
281.490; 8450.250;  162.350;    0.000
281.555; 8080.250;  137.350;    0.000
281.621; 7938.250;  163.350;    0.000
281.686; 7514.250;  155.350;    0.000
281.751; 7220.250;  158.350;    0.000
281.816; 7170.250;  139.350;    0.000
281.882; 6955.250;  150.350;    0.000
281.947; 6558.250;  165.350;    0.000
282.012; 6494.250;  171.350;    0.000
282.078; 6271.250;  177.350;    0.000
282.143; 6168.250;  149.350;    0.000
282.208; 6039.250;  181.350;    0.000
282.273; 5880.250;  166.350;    0.000
282.339; 5808.250;  165.350;    0.000
282.404; 5795.250;  166.350;    0.000
282.469; 5593.250;  150.350;    0.000
282.534; 5625.250;  176.350;    0.000
282.600; 5405.250;  117.350;    0.000
282.665; 5377.250;  134.350;    0.000
282.730; 5357.250;  155.350;    0.000
282.795; 5266.250;  193.350;    0.000
282.860; 5114.250;  160.350;    0.000
282.926; 5166.250;  174.350;    0.000
282.991; 5200.250;  161.350;    0.000
283.056; 4854.250;  157.350;    0.000
283.121; 4954.250;  178.350;    0.000
283.186; 4974.250;  152.350;    0.000
283.251; 4774.250;  167.350;    0.000
283.316; 4871.250;  186.350;    0.000
283.382; 4840.250;  148.350;    0.000
283.447; 4850.250;  191.350;    0.000
283.512; 4702.250;  132.350;    0.000
283.577; 4684.250;  179.350;    0.000
283.642; 4659.250;  185.350;    0.000
283.707; 4565.250;  136.350;    0.000
283.772; 4562.250;  119.350;    0.000
283.837; 4598.250;  136.350;    0.000
283.902; 4567.250;  135.350;    0.000
283.967; 4659.250;  146.350;    0.000
284.032; 4596.250;  140.350;    0.000
284.097; 4702.250;  199.350;    0.000
284.163; 4638.250;  144.350;    0.000
284.228; 4549.250;  183.350;    0.000
284.293; 4521.250;  141.350;    0.000
284.358; 4673.250;  146.350;    0.000
284.423; 4720.250;  127.350;    0.000
284.488; 4890.250;  186.350;    0.000
284.553; 4994.250;  155.350;    0.000
284.618; 5032.250;  118.350;    0.000
284.683; 5206.250;  145.350;    0.000
284.748; 5451.250;  139.350;    0.000
284.812; 6016.250;  147.350;    0.000
284.877; 6346.250;  123.350;    0.000
284.942; 7339.250;  153.350;    0.000
285.007; 9138.250;  168.350;    0.000
285.072;13215.250;  181.350;    0.000
285.137;22953.250;  147.350;    0.000
285.202;29960.250;  175.350;    0.000
285.267;24147.250;  182.350;    0.000
285.332;15068.250;  136.350;    0.000
285.397;10623.250;  138.350;    0.000
285.462; 8800.250;  151.350;    0.000
285.527; 7399.250;  159.350;    0.000
285.591; 6735.250;  177.350;    0.000
285.656; 6171.250;  144.350;    0.000
285.721; 5725.250;  125.350;    0.000
285.786; 5517.250;  169.350;    0.000
285.851; 5255.250;  175.350;    0.000
285.916; 5025.250;  164.350;    0.000
285.981; 4957.250;  134.350;    0.000
286.045; 4966.250;  154.350;    0.000
286.110; 4878.250;  136.350;    0.000
286.175; 4539.250;  155.350;    0.000
286.240; 4686.250;  138.350;    0.000
286.305; 4622.250;  213.350;    0.000
286.369; 4526.250;  221.350;    0.000
286.434; 4404.250;  172.350;    0.000
286.499; 4431.250;  161.350;    0.000
286.564; 4380.250;  189.350;    0.000
286.628; 4272.250;  144.350;    0.000
286.693; 4202.250;  176.350;    0.000
286.758; 4227.250;  168.350;    0.000
286.823; 4293.250;  142.350;    0.000
286.887; 4161.250;  134.350;    0.000
286.952; 4237.250;  180.350;    0.000
287.017; 4162.250;  204.350;    0.000
287.082; 4121.250;  120.350;    0.000
287.146; 4048.250;  173.350;    0.000
287.211; 4152.250;  167.350;    0.000
287.276; 4154.250;  164.350;    0.000
287.340; 4018.250;  138.350;    0.000
287.405; 4074.250;  172.350;    0.000
287.470; 4067.250;  142.350;    0.000
287.534; 4113.250;  155.350;    0.000
287.599; 4016.250;  166.350;    0.000
287.663; 3958.250;  171.350;    0.000
287.728; 3978.250;  190.350;    0.000
287.793; 4067.250;  197.350;    0.000
287.857; 3932.250;  165.350;    0.000
287.922; 4023.250;  147.350;    0.000
287.987; 4048.250;  167.350;    0.000
288.051; 3946.250;  151.350;    0.000
288.116; 3939.250;  154.350;    0.000
288.180; 3909.250;  186.350;    0.000
288.245; 4011.250;  161.350;    0.000
288.309; 4077.250;  177.350;    0.000
288.374; 4036.250;  151.350;    0.000
288.439; 3889.250;  169.350;    0.000
288.503; 3858.250;  133.350;    0.000
288.568; 3931.250;  206.350;    0.000
288.632; 4080.250;  192.350;    0.000
288.697; 3905.250;  183.350;    0.000
288.761; 3804.250;  148.350;    0.000
288.826; 3924.250;  136.350;    0.000
288.890; 3891.250;  185.350;    0.000
288.955; 3945.250;  150.350;    0.000
289.019; 3980.250;  165.350;    0.000
289.084; 3851.250;  150.350;    0.000
289.148; 3833.250;  146.350;    0.000
289.212; 3857.250;  172.350;    0.000
289.277; 3752.250;  177.350;    0.000
289.341; 3795.250;  190.350;    0.000
289.406; 3801.250;  117.350;    0.000
289.470; 3872.250;  173.350;    0.000
289.535; 3774.250;  170.350;    0.000
289.599; 3823.250;  154.350;    0.000
289.663; 3767.250;  173.350;    0.000
289.728; 3760.250;  176.350;    0.000
289.792; 3755.250;  138.350;    0.000
289.857; 3852.250;  203.350;    0.000
289.921; 3797.250;  143.350;    0.000
289.985; 3797.250;  150.350;    0.000
290.050; 3719.250;  170.350;    0.000
290.114; 3745.250;  125.350;    0.000
290.178; 3877.250;  161.350;    0.000
290.243; 3846.250;  119.350;    0.000
290.307; 3800.250;  169.350;    0.000
290.371; 3751.250;  169.350;    0.000
290.436; 3794.250;  170.350;    0.000
290.500; 3710.250;  144.350;    0.000
290.564; 3914.250;  179.350;    0.000
290.629; 3875.250;  166.350;    0.000
290.693; 3833.250;  156.350;    0.000
290.757; 3988.250;  147.350;    0.000
290.821; 3818.250;  170.350;    0.000
290.886; 3758.250;  167.350;    0.000
290.950; 3811.250;  187.350;    0.000
291.014; 3756.250;  164.350;    0.000
291.078; 3853.250;  115.350;    0.000
291.143; 3844.250;  149.350;    0.000
291.207; 3902.250;  163.350;    0.000
291.271; 4033.250;  177.350;    0.000
291.335; 3927.250;  148.350;    0.000
291.399; 4180.250;  155.350;    0.000
291.464; 4365.250;  114.350;    0.000
291.528; 4586.250;  153.350;    0.000
291.592; 4462.250;  156.350;    0.000
291.656; 4323.250;  170.350;    0.000
291.720; 4163.250;  159.350;    0.000
291.784; 4124.250;  159.350;    0.000
291.849; 4074.250;  154.350;    0.000
291.913; 4056.250;  118.350;    0.000
291.977; 4163.250;  157.350;    0.000
292.041; 4143.250;  163.350;    0.000
292.105; 4165.250;  135.350;    0.000
292.169; 4212.250;  155.350;    0.000
292.233; 4275.250;  163.350;    0.000
292.297; 4361.250;  144.350;    0.000
292.361; 4453.250;  143.350;    0.000
292.425; 4472.250;  177.350;    0.000
292.490; 4749.250;  159.350;    0.000
292.554; 4809.250;  137.350;    0.000
292.618; 5296.250;  144.350;    0.000
292.682; 5706.250;  169.350;    0.000
292.746; 6841.250;  166.350;    0.000
292.810; 9884.250;  147.350;    0.000
292.874;12522.250;  160.350;    0.000
292.938;12247.250;  174.350;    0.000
293.002;10448.250;  148.350;    0.000
293.066; 9236.250;  115.350;    0.000
293.130; 8359.250;  133.350;    0.000
293.194; 7632.250;  148.350;    0.000
293.258; 7559.250;  167.350;    0.000
293.322; 7497.250;  166.350;    0.000
293.386; 7693.250;  193.350;    0.000
293.450; 8159.250;  142.350;    0.000
293.514; 9627.250;  170.350;    0.000
293.577;13469.250;  153.350;    0.000
293.641;19078.250;  171.350;    0.000
293.705;20098.250;  168.350;    0.000
293.769;16879.250;  155.350;    0.000
293.833;14165.250;  161.350;    0.000
293.897;11834.250;  124.350;    0.000
293.961;10522.250;  165.350;    0.000
294.025; 9154.250;  118.350;    0.000
294.089; 8449.250;  125.350;    0.000
294.152; 7702.250;  160.350;    0.000
294.216; 7110.250;  160.350;    0.000
294.280; 6658.250;  158.350;    0.000
294.344; 6412.250;  119.350;    0.000
294.408; 6098.250;  168.350;    0.000
294.472; 5732.250;  156.350;    0.000
294.536; 5590.250;  192.350;    0.000
294.599; 5422.250;  171.350;    0.000
294.663; 5301.250;  139.350;    0.000
294.727; 5044.250;  136.350;    0.000
294.791; 4967.250;  118.350;    0.000
294.855; 4774.250;  118.350;    0.000
294.918; 4744.250;  127.350;    0.000
294.982; 4698.250;  167.350;    0.000
295.046; 4567.250;  178.350;    0.000
295.110; 4543.250;  157.350;    0.000
295.173; 4384.250;  101.350;    0.000
295.237; 4417.250;  145.350;    0.000
295.301; 4314.250;  135.350;    0.000
295.364; 4387.250;  185.350;    0.000
295.428; 4053.250;  112.350;    0.000
295.492; 4201.250;  142.350;    0.000
295.556; 4182.250;  170.350;    0.000
295.619; 4142.250;  193.350;    0.000
295.683; 4109.250;  144.350;    0.000
295.747; 4008.250;  152.350;    0.000
295.810; 4058.250;  139.350;    0.000
295.874; 3976.250;  157.350;    0.000
295.938; 3984.250;  128.350;    0.000
296.001; 3978.250;  164.350;    0.000
296.065; 3811.250;  184.350;    0.000
296.128; 3904.250;  127.350;    0.000
296.192; 3907.250;  166.350;    0.000
296.256; 3713.250;  154.350;    0.000
296.319; 3814.250;  128.350;    0.000
296.383; 3719.250;  146.350;    0.000
296.447; 3727.250;  155.350;    0.000
296.510; 3717.250;  177.350;    0.000
296.574; 3612.250;  169.350;    0.000
296.637; 3684.250;  140.350;    0.000
296.701; 3691.250;  181.350;    0.000
296.764; 3617.250;  131.350;    0.000
296.828; 3734.250;  194.350;    0.000
296.891; 3569.250;  146.350;    0.000
296.955; 3667.250;  160.350;    0.000
297.018; 3521.250;  174.350;    0.000
297.082; 3466.250;  153.350;    0.000
297.145; 3564.250;  133.350;    0.000
297.209; 3498.250;  149.350;    0.000
297.272; 3499.250;  150.350;    0.000
297.336; 3470.250;  119.350;    0.000
297.399; 3482.250;  160.350;    0.000
297.463; 3509.250;  158.350;    0.000
297.526; 3546.250;  160.350;    0.000
297.590; 3443.250;  173.350;    0.000
297.653; 3416.250;  121.350;    0.000
297.717; 3504.250;  168.350;    0.000
297.780; 3458.250;  131.350;    0.000
297.843; 3484.250;  154.350;    0.000
297.907; 3465.250;  126.350;    0.000
297.970; 3453.250;  180.350;    0.000
298.034; 3457.250;  140.350;    0.000
298.097; 3404.250;  207.350;    0.000
298.160; 3407.250;  177.350;    0.000
298.224; 3396.250;  165.350;    0.000
298.287; 3280.250;  160.350;    0.000
298.350; 3364.250;  176.350;    0.000
298.414; 3465.250;  155.350;    0.000
298.477; 3353.250;  132.350;    0.000
298.540; 3489.250;  162.350;    0.000
298.604; 3297.250;  180.350;    0.000
298.667; 3319.250;  208.350;    0.000
298.730; 3320.250;  177.350;    0.000
298.794; 3270.250;  126.350;    0.000
298.857; 3240.250;  171.350;    0.000
298.920; 3282.250;  124.350;    0.000
298.984; 3351.250;  146.350;    0.000
299.047; 3159.250;  140.350;    0.000
299.110; 3264.250;  159.350;    0.000
299.173; 3195.250;  177.350;    0.000
299.237; 3106.250;  196.350;    0.000
299.300; 3215.250;  121.350;    0.000
299.363; 3229.250;  172.350;    0.000
299.426; 3175.250;  117.350;    0.000
299.489; 3111.250;  138.350;    0.000
299.553; 3176.250;  198.350;    0.000
299.616; 3195.250;  158.350;    0.000
299.679; 3174.250;  148.350;    0.000
299.742; 3021.250;  138.350;    0.000
299.805; 3115.250;  157.350;    0.000
299.868; 3179.250;  183.350;    0.000
299.932; 3067.250;  137.350;    0.000
299.995; 3038.250;  152.350;    0.000
300.058; 3088.250;  171.350;    0.000
300.121; 3083.250;  172.350;    0.000
300.184; 3053.250;  161.350;    0.000
300.247; 2949.250;  156.350;    0.000
300.310; 2948.250;  154.350;    0.000
300.374; 3087.250;  147.350;    0.000
300.437; 3065.250;  144.350;    0.000
300.500; 3068.250;  152.350;    0.000
300.563; 3054.250;  160.350;    0.000
300.626; 3115.250;  167.350;    0.000
300.689; 2973.250;  193.350;    0.000
300.752; 2944.250;  134.350;    0.000
300.815; 3075.250;  194.350;    0.000
300.878; 2978.250;  156.350;    0.000
300.941; 3099.250;  177.350;    0.000
301.004; 2974.250;  160.350;    0.000
301.067; 3031.250;  153.350;    0.000
301.130; 2931.250;  167.350;    0.000
301.193; 3022.250;  156.350;    0.000
301.256; 3035.250;  176.350;    0.000
301.319; 3052.250;  172.350;    0.000
301.382; 3091.250;  150.350;    0.000
301.445; 3113.250;  183.350;    0.000
301.508; 2926.250;  118.350;    0.000
301.571; 2997.250;  142.350;    0.000
301.634; 2967.250;  164.350;    0.000
301.697; 2957.250;  169.350;    0.000
301.760; 3036.250;  197.350;    0.000
301.823; 2898.250;  155.350;    0.000
301.885; 3038.250;  165.350;    0.000
301.948; 2931.250;  168.350;    0.000
302.011; 3012.250;  172.350;    0.000
302.074; 3019.250;  182.350;    0.000
302.137; 2936.250;  161.350;    0.000
302.200; 3042.250;  174.350;    0.000
302.263; 2873.250;  158.350;    0.000
302.326; 2957.250;  168.350;    0.000
302.388; 2923.250;  165.350;    0.000
302.451; 3003.250;  158.350;    0.000
302.514; 2982.250;  181.350;    0.000
302.577; 2974.250;  147.350;    0.000
302.640; 2934.250;  178.350;    0.000
302.703; 2861.250;  164.350;    0.000
302.765; 2975.250;  149.350;    0.000
302.828; 2980.250;  192.350;    0.000
302.891; 2760.250;  201.350;    0.000
302.954; 2836.250;  135.350;    0.000
303.016; 2868.250;  180.350;    0.000
303.079; 2945.250;  192.350;    0.000
303.142; 2919.250;  176.350;    0.000
303.205; 2931.250;  176.350;    0.000
303.267; 2829.250;  163.350;    0.000
303.330; 2849.250;  162.350;    0.000
303.393; 2908.250;  164.350;    0.000
303.456; 2823.250;  180.350;    0.000
303.518; 2997.250;  162.350;    0.000
303.581; 2888.250;  137.350;    0.000
303.644; 2876.250;  135.350;    0.000
303.706; 2831.250;  170.350;    0.000
303.769; 2875.250;  216.350;    0.000
303.832; 2780.250;  143.350;    0.000
303.894; 2949.250;  162.350;    0.000
303.957; 2819.250;  149.350;    0.000
304.020; 2979.250;  111.350;    0.000
304.082; 2841.250;  158.350;    0.000
304.145; 2927.250;  149.350;    0.000
304.207; 2960.250;  169.350;    0.000
304.270; 2911.250;  170.350;    0.000
304.333; 2849.250;  185.350;    0.000
304.395; 2894.250;  179.350;    0.000
304.458; 2911.250;  174.350;    0.000
304.520; 2889.250;  160.350;    0.000
304.583; 2861.250;  175.350;    0.000
304.646; 2938.250;  160.350;    0.000
304.708; 2860.250;  173.350;    0.000
304.771; 2861.250;  115.350;    0.000
304.833; 2868.250;  172.350;    0.000
304.896; 2930.250;  187.350;    0.000
304.958; 2842.250;  142.350;    0.000
305.021; 2905.250;  164.350;    0.000
305.083; 2916.250;  139.350;    0.000
305.146; 2861.250;  162.350;    0.000
305.208; 2918.250;  135.350;    0.000
305.271; 2876.250;  159.350;    0.000
305.333; 3014.250;  210.350;    0.000
305.396; 2945.250;  151.350;    0.000
305.458; 2954.250;  195.350;    0.000
305.520; 2914.250;  179.350;    0.000
305.583; 2997.250;  157.350;    0.000
305.645; 2924.250;  187.350;    0.000
305.708; 2916.250;  159.350;    0.000
305.770; 3004.250;  189.350;    0.000
305.833; 2790.250;  147.350;    0.000
305.895; 2866.250;  154.350;    0.000
305.957; 2973.250;  143.350;    0.000
306.020; 2967.250;  133.350;    0.000
306.082; 2887.250;  146.350;    0.000
306.144; 2866.250;  171.350;    0.000
306.207; 2984.250;  151.350;    0.000
306.269; 2896.250;  169.350;    0.000
306.331; 2893.250;  162.350;    0.000
306.394; 2867.250;  171.350;    0.000
306.456; 2972.250;  155.350;    0.000
306.518; 2937.250;  183.350;    0.000
306.581; 2873.250;  180.350;    0.000
306.643; 2854.250;  199.350;    0.000
306.705; 2949.250;  163.350;    0.000
306.768; 2825.250;  183.350;    0.000
306.830; 2920.250;  183.350;    0.000
306.892; 2946.250;  190.350;    0.000
306.954; 2978.250;  161.350;    0.000
307.017; 2936.250;  151.350;    0.000
307.079; 3028.250;  147.350;    0.000
307.141; 3007.250;  179.350;    0.000
307.203; 3012.250;  143.350;    0.000
307.266; 3032.250;  142.350;    0.000
307.328; 3103.250;  161.350;    0.000
307.390; 3035.250;  189.350;    0.000
307.452; 3119.250;  155.350;    0.000
307.514; 3069.250;  211.350;    0.000
307.577; 3041.250;  201.350;    0.000
307.639; 3105.250;  192.350;    0.000
307.701; 3085.250;  162.350;    0.000
307.763; 3173.250;  155.350;    0.000
307.825; 3102.250;  193.350;    0.000
307.887; 3122.250;  214.350;    0.000
307.949; 3032.250;  208.350;    0.000
308.012; 3148.250;  175.350;    0.000
308.074; 3046.250;  155.350;    0.000
308.136; 3122.250;  172.350;    0.000
308.198; 3148.250;  171.350;    0.000
308.260; 3205.250;  182.350;    0.000
308.322; 3037.250;  177.350;    0.000
308.384; 3214.250;  207.350;    0.000
308.446; 3176.250;  170.350;    0.000
308.508; 3231.250;  177.350;    0.000
308.570; 3202.250;  195.350;    0.000
308.632; 3202.250;  190.350;    0.000
308.694; 3338.250;  161.350;    0.000
308.756; 3289.250;  173.350;    0.000
308.818; 3349.250;  190.350;    0.000
308.880; 3252.250;  197.350;    0.000
308.942; 3392.250;  223.350;    0.000
309.004; 3412.250;  176.350;    0.000
309.066; 3486.250;  182.350;    0.000
309.128; 3510.250;  185.350;    0.000
309.190; 3629.250;  166.350;    0.000
309.252; 3757.250;  191.350;    0.000
309.314; 3811.250;  208.350;    0.000
309.376; 3740.250;  205.350;    0.000
309.438; 3846.250;  166.350;    0.000
309.500; 3728.250;  195.350;    0.000
309.562; 3722.250;  163.350;    0.000
309.624; 3837.250;  162.350;    0.000
309.686; 4037.250;  194.350;    0.000
309.747; 3936.250;  179.350;    0.000
309.809; 3887.250;  211.350;    0.000
309.871; 3596.250;  191.350;    0.000
309.933; 3578.250;  151.350;    0.000
309.995; 3564.250;  179.350;    0.000
310.057; 3503.250;  175.350;    0.000
310.119; 3461.250;  161.350;    0.000
310.180; 3365.250;  167.350;    0.000
310.242; 3316.250;  171.350;    0.000
310.304; 3471.250;  209.350;    0.000
310.366; 3407.250;  229.350;    0.000
310.428; 3356.250;  132.350;    0.000
310.489; 3392.250;  165.350;    0.000
310.551; 3323.250;  193.350;    0.000
310.613; 3297.250;  182.350;    0.000
310.675; 3439.250;  186.350;    0.000
310.737; 3263.250;  192.350;    0.000
310.798; 3413.250;  194.350;    0.000
310.860; 3297.250;  220.350;    0.000
310.922; 3328.250;  161.350;    0.000
310.983; 3269.250;  203.350;    0.000
311.045; 3235.250;  198.350;    0.000
311.107; 3256.250;  179.350;    0.000
311.169; 3228.250;  154.350;    0.000
311.230; 3303.250;  134.350;    0.000
311.292; 3152.250;  215.350;    0.000
311.354; 3253.250;  171.350;    0.000
311.415; 3261.250;  195.350;    0.000
311.477; 3261.250;  185.350;    0.000
311.539; 3331.250;  183.350;    0.000
311.600; 3165.250;  183.350;    0.000
311.662; 3260.250;  207.350;    0.000
311.724; 3276.250;  193.350;    0.000
311.785; 3198.250;  180.350;    0.000
311.847; 3221.250;  155.350;    0.000
311.908; 3258.250;  179.350;    0.000
311.970; 3171.250;  193.350;    0.000
312.032; 3205.250;  188.350;    0.000
312.093; 3210.250;  166.350;    0.000
312.155; 3166.250;  147.350;    0.000
312.216; 3180.250;  177.350;    0.000
312.278; 3345.250;  162.350;    0.000
312.339; 3306.250;  158.350;    0.000
312.401; 3280.250;  181.350;    0.000
312.462; 3214.250;  153.350;    0.000
312.524; 3235.250;  186.350;    0.000
312.585; 3186.250;  191.350;    0.000
312.647; 3178.250;  131.350;    0.000
312.708; 3187.250;  170.350;    0.000
312.770; 3324.250;  194.350;    0.000
312.831; 3271.250;  161.350;    0.000
312.893; 3324.250;  179.350;    0.000
312.954; 3366.250;  183.350;    0.000
313.016; 3263.250;  189.350;    0.000
313.077; 3233.250;  169.350;    0.000
313.139; 3353.250;  148.350;    0.000
313.200; 3299.250;  155.350;    0.000
313.261; 3296.250;  213.350;    0.000
313.323; 3211.250;  162.350;    0.000
313.384; 3214.250;  160.350;    0.000
313.446; 3286.250;  202.350;    0.000
313.507; 3299.250;  149.350;    0.000
313.568; 3191.250;  194.350;    0.000
313.630; 3225.250;  163.350;    0.000
313.691; 3346.250;  158.350;    0.000
313.752; 3222.250;  179.350;    0.000
313.814; 3245.250;  180.350;    0.000
313.875; 3255.250;  191.350;    0.000
313.936; 3212.250;  169.350;    0.000
313.998; 3286.250;  165.350;    0.000
314.059; 3314.250;  211.350;    0.000
314.120; 3192.250;  190.350;    0.000
314.182; 3219.250;  185.350;    0.000
314.243; 3177.250;  186.350;    0.000
314.304; 3164.250;  178.350;    0.000
314.365; 3226.250;  187.350;    0.000
314.427; 3179.250;  145.350;    0.000
314.488; 3169.250;  184.350;    0.000
314.549; 3254.250;  181.350;    0.000
314.610; 3255.250;  151.350;    0.000
314.672; 3176.250;  153.350;    0.000
314.733; 3179.250;  148.350;    0.000
314.794; 3204.250;  156.350;    0.000
314.855; 3326.250;  196.350;    0.000
314.917; 3263.250;  157.350;    0.000
314.978; 3265.250;  174.350;    0.000
315.039; 3107.250;  168.350;    0.000
315.100; 3267.250;  154.350;    0.000
315.161; 3218.250;  176.350;    0.000
315.222; 3219.250;  198.350;    0.000
315.283; 3188.250;  169.350;    0.000
315.345; 3177.250;  162.350;    0.000
315.406; 3191.250;  199.350;    0.000
315.467; 3218.250;  180.350;    0.000
315.528; 3175.250;  179.350;    0.000
315.589; 3161.250;  166.350;    0.000
315.650; 3166.250;  179.350;    0.000
315.711; 3171.250;  177.350;    0.000
315.772; 3100.250;  180.350;    0.000
315.833; 3227.250;  157.350;    0.000
315.894; 3218.250;  133.350;    0.000
315.955; 3226.250;  205.350;    0.000
316.016; 3223.250;  190.350;    0.000
316.078; 3211.250;  174.350;    0.000
316.139; 3189.250;  208.350;    0.000
316.200; 3092.250;  166.350;    0.000
316.261; 3198.250;  186.350;    0.000
316.322; 3135.250;  185.350;    0.000
316.383; 3187.250;  179.350;    0.000
316.444; 3162.250;  172.350;    0.000
316.504; 3181.250;  181.350;    0.000
316.565; 3114.250;  197.350;    0.000
316.626; 3169.250;  196.350;    0.000
316.687; 3161.250;  173.350;    0.000
316.748; 3146.250;  178.350;    0.000
316.809; 3120.250;  178.350;    0.000
316.870; 3168.250;  134.350;    0.000
316.931; 3264.250;  166.350;    0.000
316.992; 3098.250;  200.350;    0.000
317.053; 3150.250;  169.350;    0.000
317.114; 3079.250;  185.350;    0.000
317.175; 3067.250;  213.350;    0.000
317.235; 3047.250;  199.350;    0.000
317.296; 3080.250;  190.350;    0.000
317.357; 3122.250;  152.350;    0.000
317.418; 3167.250;  192.350;    0.000
317.479; 3137.250;  170.350;    0.000
317.540; 3053.250;  179.350;    0.000
317.601; 3071.250;  155.350;    0.000
317.661; 3112.250;  154.350;    0.000
317.722; 3101.250;  190.350;    0.000
317.783; 3102.250;  149.350;    0.000
317.844; 3080.250;  207.350;    0.000
317.904; 3115.250;  153.350;    0.000
317.965; 3085.250;  179.350;    0.000
318.026; 3106.250;  235.350;    0.000
318.087; 3110.250;  184.350;    0.000
318.148; 3079.250;  201.350;    0.000
318.208; 3155.250;  220.350;    0.000
318.269; 3080.250;  175.350;    0.000
318.330; 3204.250;  185.350;    0.000
318.390; 3020.250;  180.350;    0.000
318.451; 3169.250;  164.350;    0.000
318.512; 3087.250;  150.350;    0.000
318.572; 3075.250;  205.350;    0.000
318.633; 3149.250;  224.350;    0.000
318.694; 3035.250;  202.350;    0.000
318.754; 3110.250;  196.350;    0.000
318.815; 3071.250;  187.350;    0.000
318.876; 3093.250;  200.350;    0.000
318.936; 3090.250;  232.350;    0.000
318.997; 2999.250;  211.350;    0.000
319.058; 3046.250;  194.350;    0.000
319.118; 3163.250;  197.350;    0.000
319.179; 3118.250;  162.350;    0.000
319.239; 3096.250;  188.350;    0.000
319.300; 3041.250;  205.350;    0.000
319.361; 3056.250;  179.350;    0.000
319.421; 3063.250;  182.350;    0.000
319.482; 3080.250;  189.350;    0.000
319.542; 3007.250;  180.350;    0.000
319.603; 3188.250;  204.350;    0.000
319.663; 3081.250;  195.350;    0.000
319.724; 2981.250;  135.350;    0.000
319.784; 3027.250;  184.350;    0.000
319.845; 3085.250;  160.350;    0.000
319.905; 3037.250;  206.350;    0.000
319.966; 3026.250;  203.350;    0.000
320.026; 2994.250;  203.350;    0.000
320.087; 3107.250;  206.350;    0.000
320.147; 2980.250;  180.350;    0.000
320.208; 3036.250;  189.350;    0.000
320.268; 3026.250;  179.350;    0.000
320.329; 3038.250;  215.350;    0.000
320.389; 3121.250;  193.350;    0.000
320.449; 3119.250;  210.350;    0.000
320.510; 3111.250;  206.350;    0.000
320.570; 3056.250;  221.350;    0.000
320.631; 3072.250;  203.350;    0.000
320.691; 3020.250;  190.350;    0.000
320.751; 2921.250;  205.350;    0.000
320.812; 3007.250;  191.350;    0.000
320.872; 3133.250;  216.350;    0.000
320.932; 3097.250;  209.350;    0.000
320.993; 3107.250;  189.350;    0.000
321.053; 3172.250;  228.350;    0.000
321.113; 3017.250;  163.350;    0.000
321.174; 3026.250;  204.350;    0.000
321.234; 3050.250;  214.350;    0.000
321.294; 2983.250;  184.350;    0.000
321.355; 3077.250;  216.350;    0.000
321.415; 2956.250;  187.350;    0.000
321.475; 3044.250;  216.350;    0.000
321.535; 3076.250;  189.350;    0.000
321.596; 2991.250;  186.350;    0.000
321.656; 2988.250;  204.350;    0.000
321.716; 3035.250;  183.350;    0.000
321.776; 3067.250;  194.350;    0.000
321.837; 3171.250;  190.350;    0.000
321.897; 2943.250;  219.350;    0.000
321.957; 3005.250;  222.350;    0.000
322.017; 3025.250;  183.350;    0.000
322.077; 3019.250;  239.350;    0.000
322.138; 2993.250;  219.350;    0.000
322.198; 2995.250;  185.350;    0.000
322.258; 3026.250;  231.350;    0.000
322.318; 2982.250;  197.350;    0.000
322.378; 3011.250;  179.350;    0.000
322.438; 3038.250;  217.350;    0.000
322.499; 2971.250;  238.350;    0.000
322.559; 2940.250;  197.350;    0.000
322.619; 2972.250;  204.350;    0.000
322.679; 2961.250;  199.350;    0.000
322.739; 2940.250;  194.350;    0.000
322.799; 2945.250;  203.350;    0.000
322.859; 3055.250;  234.350;    0.000
322.919; 3013.250;  194.350;    0.000
322.979; 2962.250;  219.350;    0.000
323.039; 2993.250;  193.350;    0.000
323.099; 2910.250;  207.350;    0.000
323.159; 2941.250;  213.350;    0.000
323.219; 3002.250;  171.350;    0.000
323.279; 2932.250;  215.350;    0.000
323.339; 2984.250;  170.350;    0.000
323.399; 2974.250;  195.350;    0.000
323.459; 3014.250;  234.350;    0.000
323.519; 3064.250;  201.350;    0.000
323.579; 2939.250;  167.350;    0.000
323.639; 3049.250;  209.350;    0.000
323.699; 2970.250;  217.350;    0.000
323.759; 3026.250;  213.350;    0.000
323.819; 2991.250;  216.350;    0.000
323.879; 2989.250;  193.350;    0.000
323.939; 2988.250;  182.350;    0.000
323.999; 3100.250;  206.350;    0.000
324.059; 2998.250;  196.350;    0.000
324.119; 3019.250;  240.350;    0.000
324.178; 2928.250;  186.350;    0.000
324.238; 2995.250;  179.350;    0.000
324.298; 3021.250;  195.350;    0.000
324.358; 3004.250;  208.350;    0.000
324.418; 2969.250;  190.350;    0.000
324.478; 2917.250;  197.350;    0.000
324.538; 2985.250;  157.350;    0.000
324.597; 2976.250;  219.350;    0.000
324.657; 2899.250;  176.350;    0.000
324.717; 2958.250;  179.350;    0.000
324.777; 2896.250;  190.350;    0.000
324.837; 2922.250;  172.350;    0.000
324.896; 2947.250;  199.350;    0.000
324.956; 2981.250;  216.350;    0.000
325.016; 3028.250;  191.350;    0.000
325.076; 3027.250;  185.350;    0.000
325.135; 2948.250;  174.350;    0.000
325.195; 2953.250;  175.350;    0.000
325.255; 2932.250;  144.350;    0.000
325.315; 2921.250;  201.350;    0.000
325.374; 2973.250;  198.350;    0.000
325.434; 3045.250;  181.350;    0.000
325.494; 2950.250;  183.350;    0.000
325.553; 2963.250;  172.350;    0.000
325.613; 2976.250;  200.350;    0.000
325.673; 2966.250;  177.350;    0.000
325.732; 3000.250;  174.350;    0.000
325.792; 2938.250;  181.350;    0.000
325.852; 2955.250;  214.350;    0.000
325.911; 3023.250;  230.350;    0.000
325.971; 2968.250;  198.350;    0.000
326.031; 2953.250;  201.350;    0.000
326.090; 2970.250;  214.350;    0.000
326.150; 2883.250;  163.350;    0.000
326.209; 2999.250;  207.350;    0.000
326.269; 3023.250;  201.350;    0.000
326.328; 2976.250;  208.350;    0.000
326.388; 2954.250;  169.350;    0.000
326.448; 3051.250;  229.350;    0.000
326.507; 2879.250;  243.350;    0.000
326.567; 2961.250;  162.350;    0.000
326.626; 2919.250;  200.350;    0.000
326.686; 2874.250;  166.350;    0.000
326.745; 2843.250;  178.350;    0.000
326.805; 2921.250;  185.350;    0.000
326.864; 2844.250;  209.350;    0.000
326.924; 3023.250;  234.350;    0.000
326.983; 2802.250;  197.350;    0.000
327.043; 2949.250;  217.350;    0.000
327.102; 2908.250;  174.350;    0.000
327.161; 2879.250;  172.350;    0.000
327.221; 2937.250;  183.350;    0.000
327.280; 2864.250;  200.350;    0.000
327.340; 2816.250;  200.350;    0.000
327.399; 2907.250;  219.350;    0.000
327.459; 2865.250;  246.350;    0.000
327.518; 2916.250;  217.350;    0.000
327.577; 2779.250;  212.350;    0.000
327.637; 2901.250;  188.350;    0.000
327.696; 2795.250;  201.350;    0.000
327.755; 2886.250;  199.350;    0.000
327.815; 2901.250;  224.350;    0.000
327.874; 3001.250;  236.350;    0.000
327.933; 2866.250;  182.350;    0.000
327.993; 2831.250;  206.350;    0.000
328.052; 2828.250;  191.350;    0.000
328.111; 2868.250;  222.350;    0.000
328.171; 2944.250;  200.350;    0.000
328.230; 2874.250;  203.350;    0.000
328.289; 2861.250;  219.350;    0.000
328.349; 2843.250;  231.350;    0.000
328.408; 2753.250;  223.350;    0.000
328.467; 2819.250;  226.350;    0.000
328.526; 2974.250;  197.350;    0.000
328.586; 2810.250;  221.350;    0.000
328.645; 2909.250;  199.350;    0.000
328.704; 2796.250;  227.350;    0.000
328.763; 2867.250;  201.350;    0.000
328.822; 2914.250;  230.350;    0.000
328.882; 2790.250;  244.350;    0.000
328.941; 2838.250;  221.350;    0.000
329.000; 2829.250;  207.350;    0.000
329.059; 2847.250;  208.350;    0.000
329.118; 2750.250;  203.350;    0.000
329.177; 2816.250;  198.350;    0.000
329.237; 2874.250;  218.350;    0.000
329.296; 2844.250;  213.350;    0.000
329.355; 2875.250;  208.350;    0.000
329.414; 2824.250;  231.350;    0.000
329.473; 2761.250;  221.350;    0.000
329.532; 2904.250;  243.350;    0.000
329.591; 2923.250;  210.350;    0.000
329.650; 2881.250;  232.350;    0.000
329.709; 2937.250;  211.350;    0.000
329.768; 2908.250;  194.350;    0.000
329.827; 2991.250;  237.350;    0.000
329.886; 2953.250;  213.350;    0.000
329.945; 3092.250;  190.350;    0.000
330.004; 3128.250;  233.350;    0.000
330.063; 3143.250;  191.350;    0.000
330.122; 3449.250;  234.350;    0.000
330.181; 3812.250;  220.350;    0.000
330.240; 3935.250;  191.350;    0.000
330.299; 3457.250;  210.350;    0.000
330.358; 3171.250;  191.350;    0.000
330.417; 2962.250;  225.350;    0.000
330.476; 2883.250;  226.350;    0.000
330.535; 2871.250;  217.350;    0.000
330.594; 2792.250;  205.350;    0.000
330.653; 2833.250;  193.350;    0.000
330.712; 2808.250;  206.350;    0.000
330.771; 2779.250;  175.350;    0.000
330.830; 2737.250;  204.350;    0.000
330.889; 2833.250;  198.350;    0.000
330.948; 2822.250;  198.350;    0.000
331.006; 2851.250;  207.350;    0.000
331.065; 2721.250;  203.350;    0.000
331.124; 2816.250;  210.350;    0.000
331.183; 2694.250;  165.350;    0.000
331.242; 2766.250;  195.350;    0.000
331.301; 2677.250;  191.350;    0.000
331.359; 2692.250;  205.350;    0.000
331.418; 2755.250;  183.350;    0.000
331.477; 2734.250;  198.350;    0.000
331.536; 2794.250;  211.350;    0.000
331.595; 2706.250;  191.350;    0.000
331.653; 2721.250;  232.350;    0.000
331.712; 2775.250;  225.350;    0.000
331.771; 2676.250;  199.350;    0.000
331.830; 2690.250;  189.350;    0.000
331.888; 2788.250;  219.350;    0.000
331.947; 2660.250;  188.350;    0.000
332.006; 2721.250;  180.350;    0.000
332.065; 2689.250;  177.350;    0.000
332.123; 2766.250;  214.350;    0.000
332.182; 2747.250;  223.350;    0.000
332.241; 2751.250;  202.350;    0.000
332.299; 2772.250;  180.350;    0.000
332.358; 2866.250;  206.350;    0.000
332.417; 2720.250;  195.350;    0.000
332.475; 2799.250;  221.350;    0.000
332.534; 2885.250;  207.350;    0.000
332.592; 2783.250;  190.350;    0.000
332.651; 2816.250;  203.350;    0.000
332.710; 2751.250;  219.350;    0.000
332.768; 2781.250;  210.350;    0.000
332.827; 2772.250;  173.350;    0.000
332.885; 2823.250;  239.350;    0.000
332.944; 2857.250;  145.350;    0.000
333.003; 2895.250;  197.350;    0.000
333.061; 2864.250;  179.350;    0.000
333.120; 2853.250;  198.350;    0.000
333.178; 3109.250;  185.350;    0.000
333.237; 3082.250;  204.350;    0.000
333.295; 3049.250;  266.350;    0.000
333.354; 3007.250;  181.350;    0.000
333.412; 2980.250;  189.350;    0.000
333.471; 3052.250;  216.350;    0.000
333.529; 2988.250;  220.350;    0.000
333.588; 3068.250;  193.350;    0.000
333.646; 3267.250;  186.350;    0.000
333.705; 3205.250;  210.350;    0.000
333.763; 3133.250;  222.350;    0.000
333.822; 3005.250;  222.350;    0.000
333.880; 3045.250;  202.350;    0.000
333.938; 2993.250;  205.350;    0.000
333.997; 2932.250;  199.350;    0.000
334.055; 3044.250;  199.350;    0.000
334.114; 2978.250;  237.350;    0.000
334.172; 2970.250;  155.350;    0.000
334.230; 2894.250;  208.350;    0.000
334.289; 2937.250;  191.350;    0.000
334.347; 2837.250;  211.350;    0.000
334.405; 3010.250;  212.350;    0.000
334.464; 2916.250;  179.350;    0.000
334.522; 2808.250;  160.350;    0.000
334.580; 3034.250;  195.350;    0.000
334.639; 2968.250;  191.350;    0.000
334.697; 2816.250;  194.350;    0.000
334.755; 2971.250;  185.350;    0.000
334.814; 2841.250;  214.350;    0.000
334.872; 2850.250;  179.350;    0.000
334.930; 2857.250;  169.350;    0.000
334.988; 2883.250;  201.350;    0.000
335.047; 2847.250;  188.350;    0.000
335.105; 2956.250;  175.350;    0.000
335.163; 2878.250;  191.350;    0.000
335.221; 2934.250;  196.350;    0.000
335.280; 3007.250;  182.350;    0.000
335.338; 2935.250;  202.350;    0.000
335.396; 2893.250;  219.350;    0.000
335.454; 2844.250;  187.350;    0.000
335.512; 2968.250;  236.350;    0.000
335.570; 2905.250;  209.350;    0.000
335.629; 2889.250;  247.350;    0.000
335.687; 2906.250;  219.350;    0.000
335.745; 2887.250;  203.350;    0.000
335.803; 2891.250;  220.350;    0.000
335.861; 2878.250;  208.350;    0.000
335.919; 2942.250;  223.350;    0.000
335.977; 2954.250;  201.350;    0.000
336.035; 2907.250;  193.350;    0.000
336.094; 2939.250;  178.350;    0.000
336.152; 2876.250;  182.350;    0.000
336.210; 2872.250;  199.350;    0.000
336.268; 3004.250;  216.350;    0.000
336.326; 2939.250;  216.350;    0.000
336.384; 2899.250;  201.350;    0.000
336.442; 2923.250;  197.350;    0.000
336.500; 2923.250;  203.350;    0.000
336.558; 2889.250;  198.350;    0.000
336.616; 2915.250;  210.350;    0.000
336.674; 2821.250;  192.350;    0.000
336.732; 2925.250;  182.350;    0.000
336.790; 2797.250;  189.350;    0.000
336.848; 2878.250;  233.350;    0.000
336.906; 2907.250;  235.350;    0.000
336.964; 2884.250;  208.350;    0.000
337.022; 2980.250;  249.350;    0.000
337.080; 3004.250;  204.350;    0.000
337.138; 2914.250;  176.350;    0.000
337.195; 2827.250;  207.350;    0.000
337.253; 2807.250;  214.350;    0.000
337.311; 2755.250;  210.350;    0.000
337.369; 2819.250;  222.350;    0.000
337.427; 2820.250;  236.350;    0.000
337.485; 2805.250;  241.350;    0.000
337.543; 2793.250;  217.350;    0.000
337.601; 2745.250;  221.350;    0.000
337.658; 2861.250;  205.350;    0.000
337.716; 2713.250;  210.350;    0.000
337.774; 2866.250;  196.350;    0.000
337.832; 2788.250;  200.350;    0.000
337.890; 2686.250;  192.350;    0.000
337.947; 2716.250;  192.350;    0.000
338.005; 2754.250;  211.350;    0.000
338.063; 2680.250;  176.350;    0.000
338.121; 2757.250;  222.350;    0.000
338.178; 2716.250;  198.350;    0.000
338.236; 2763.250;  210.350;    0.000
338.294; 2808.250;  211.350;    0.000
338.352; 2665.250;  212.350;    0.000
338.409; 2684.250;  199.350;    0.000
338.467; 2769.250;  205.350;    0.000
338.525; 2705.250;  217.350;    0.000
338.583; 2759.250;  197.350;    0.000
338.640; 2746.250;  226.350;    0.000
338.698; 2741.250;  201.350;    0.000
338.756; 2732.250;  192.350;    0.000
338.813; 2776.250;  220.350;    0.000
338.871; 2723.250;  258.350;    0.000
338.928; 2746.250;  223.350;    0.000
338.986; 2810.250;  200.350;    0.000
339.044; 2793.250;  206.350;    0.000
339.101; 2703.250;  250.350;    0.000
339.159; 2681.250;  245.350;    0.000
339.216; 2792.250;  227.350;    0.000
339.274; 2672.250;  260.350;    0.000
339.332; 2704.250;  223.350;    0.000
339.389; 2771.250;  233.350;    0.000
339.447; 2660.250;  206.350;    0.000
339.504; 2701.250;  229.350;    0.000
339.562; 2719.250;  194.350;    0.000
339.619; 2747.250;  245.350;    0.000
339.677; 2681.250;  238.350;    0.000
339.734; 2671.250;  197.350;    0.000
339.792; 2790.250;  210.350;    0.000
339.849; 2781.250;  201.350;    0.000
339.907; 2693.250;  252.350;    0.000
339.964; 2674.250;  191.350;    0.000
340.022; 2649.250;  246.350;    0.000
340.079; 2792.250;  213.350;    0.000
340.137; 2672.250;  240.350;    0.000
340.194; 2740.250;  208.350;    0.000
340.252; 2696.250;  215.350;    0.000
340.309; 2616.250;  203.350;    0.000
340.366; 2575.250;  194.350;    0.000
340.424; 2689.250;  226.350;    0.000
340.481; 2611.250;  234.350;    0.000
340.538; 2625.250;  205.350;    0.000
340.596; 2647.250;  197.350;    0.000
340.653; 2693.250;  233.350;    0.000
340.711; 2810.250;  273.350;    0.000
340.768; 2699.250;  237.350;    0.000
340.825; 2738.250;  224.350;    0.000
340.883; 2733.250;  240.350;    0.000
340.940; 2726.250;  216.350;    0.000
340.997; 2674.250;  228.350;    0.000
341.054; 2687.250;  200.350;    0.000
341.112; 2690.250;  220.350;    0.000
341.169; 2704.250;  226.350;    0.000
341.226; 2734.250;  206.350;    0.000
341.284; 2766.250;  204.350;    0.000
341.341; 2703.250;  214.350;    0.000
341.398; 2652.250;  160.350;    0.000
341.455; 2747.250;  209.350;    0.000
341.512; 2790.250;  233.350;    0.000
341.570; 2658.250;  240.350;    0.000
341.627; 2693.250;  209.350;    0.000
341.684; 2591.250;  178.350;    0.000
341.741; 2801.250;  254.350;    0.000
341.798; 2692.250;  232.350;    0.000
341.856; 2764.250;  196.350;    0.000
341.913; 2756.250;  244.350;    0.000
341.970; 2677.250;  203.350;    0.000
342.027; 2734.250;  235.350;    0.000
342.084; 2725.250;  214.350;    0.000
342.141; 2613.250;  194.350;    0.000
342.198; 2779.250;  194.350;    0.000
342.255; 2706.250;  219.350;    0.000
342.313; 2688.250;  195.350;    0.000
342.370; 2674.250;  207.350;    0.000
342.427; 2760.250;  217.350;    0.000
342.484; 2647.250;  213.350;    0.000
342.541; 2678.250;  215.350;    0.000
342.598; 2753.250;  247.350;    0.000
342.655; 2688.250;  205.350;    0.000
342.712; 2619.250;  226.350;    0.000
342.769; 2731.250;  212.350;    0.000
342.826; 2772.250;  203.350;    0.000
342.883; 2692.250;  207.350;    0.000
342.940; 2687.250;  204.350;    0.000
342.997; 2737.250;  237.350;    0.000
343.054; 2591.250;  210.350;    0.000
343.111; 2757.250;  209.350;    0.000
343.168; 2763.250;  201.350;    0.000
343.225; 2711.250;  208.350;    0.000
343.282; 2820.250;  216.350;    0.000
343.339; 2807.250;  237.350;    0.000
343.395; 2818.250;  218.350;    0.000
343.452; 2775.250;  234.350;    0.000
343.509; 2853.250;  214.350;    0.000
343.566; 2903.250;  222.350;    0.000
343.623; 2867.250;  226.350;    0.000
343.680; 2920.250;  245.350;    0.000
343.737; 2913.250;  209.350;    0.000
343.794; 3030.250;  227.350;    0.000
343.850; 2959.250;  197.350;    0.000
343.907; 2977.250;  211.350;    0.000
343.964; 2935.250;  190.350;    0.000
344.021; 3008.250;  252.350;    0.000
344.078; 3034.250;  261.350;    0.000
344.134; 3013.250;  206.350;    0.000
344.191; 2898.250;  231.350;    0.000
344.248; 3011.250;  225.350;    0.000
344.305; 2901.250;  210.350;    0.000
344.361; 2984.250;  194.350;    0.000
344.418; 2936.250;  219.350;    0.000
344.475; 2926.250;  245.350;    0.000
344.532; 2939.250;  238.350;    0.000
344.588; 2982.250;  235.350;    0.000
344.645; 2895.250;  229.350;    0.000
344.702; 2925.250;  145.350;    0.000
344.758; 2944.250;  240.350;    0.000
344.815; 2871.250;  215.350;    0.000
344.872; 2870.250;  203.350;    0.000
344.928; 2827.250;  208.350;    0.000
344.985; 2940.250;  216.350;    0.000
345.042; 2915.250;  234.350;    0.000
345.098; 2897.250;  183.350;    0.000
345.155; 2850.250;  241.350;    0.000
345.212; 2951.250;  222.350;    0.000
345.268; 2941.250;  234.350;    0.000
345.325; 2881.250;  181.350;    0.000
345.381; 2916.250;  251.350;    0.000
345.438; 2888.250;  256.350;    0.000
345.495; 2855.250;  247.350;    0.000
345.551; 2946.250;  231.350;    0.000
345.608; 2776.250;  206.350;    0.000
345.664; 2909.250;  201.350;    0.000
345.721; 2777.250;  216.350;    0.000
345.777; 2829.250;  195.350;    0.000
345.834; 2828.250;  195.350;    0.000
345.890; 2739.250;  227.350;    0.000
345.947; 2912.250;  240.350;    0.000
346.003; 2788.250;  248.350;    0.000
346.060; 2766.250;  213.350;    0.000
346.116; 2941.250;  225.350;    0.000
346.173; 2845.250;  199.350;    0.000
346.229; 2825.250;  264.350;    0.000
346.285; 2903.250;  246.350;    0.000
346.342; 2892.250;  240.350;    0.000
346.398; 2916.250;  222.350;    0.000
346.455; 2938.250;  231.350;    0.000
346.511; 2890.250;  214.350;    0.000
346.567; 2941.250;  231.350;    0.000
346.624; 2877.250;  222.350;    0.000
346.680; 2807.250;  197.350;    0.000
346.737; 2984.250;  225.350;    0.000
346.793; 2936.250;  255.350;    0.000
346.849; 2914.250;  245.350;    0.000
346.906; 2948.250;  221.350;    0.000
346.962; 2925.250;  260.350;    0.000
347.018; 2991.250;  238.350;    0.000
347.074; 2971.250;  257.350;    0.000
347.131; 2860.250;  200.350;    0.000
347.187; 2987.250;  232.350;    0.000
347.243; 2954.250;  240.350;    0.000
347.300; 3007.250;  249.350;    0.000
347.356; 2923.250;  250.350;    0.000
347.412; 2955.250;  252.350;    0.000
347.468; 2969.250;  254.350;    0.000
347.524; 2956.250;  280.350;    0.000
347.581; 2911.250;  228.350;    0.000
347.637; 2991.250;  261.350;    0.000
347.693; 2935.250;  238.350;    0.000
347.749; 2948.250;  261.350;    0.000
347.805; 3031.250;  238.350;    0.000
347.862; 2909.250;  246.350;    0.000
347.918; 2943.250;  256.350;    0.000
347.974; 2991.250;  277.350;    0.000
348.030; 2987.250;  242.350;    0.000
348.086; 2931.250;  223.350;    0.000
348.142; 2898.250;  215.350;    0.000
348.198; 2887.250;  272.350;    0.000
348.254; 2991.250;  292.350;    0.000
348.311; 2941.250;  235.350;    0.000
348.367; 2943.250;  263.350;    0.000
348.423; 2918.250;  193.350;    0.000
348.479; 2907.250;  266.350;    0.000
348.535; 3013.250;  238.350;    0.000
348.591; 2922.250;  237.350;    0.000
348.647; 2955.250;  239.350;    0.000
348.703; 2876.250;  240.350;    0.000
348.759; 2877.250;  253.350;    0.000
348.815; 2978.250;  255.350;    0.000
348.871; 3044.250;  256.350;    0.000
348.927; 2945.250;  261.350;    0.000
348.983; 2969.250;  258.350;    0.000
349.039; 2894.250;  204.350;    0.000
349.095; 2944.250;  215.350;    0.000
349.151; 2973.250;  230.350;    0.000
349.207; 2990.250;  216.350;    0.000
349.263; 2972.250;  235.350;    0.000
349.319; 2906.250;  244.350;    0.000
349.374; 3011.250;  213.350;    0.000
349.430; 2958.250;  241.350;    0.000
349.486; 2942.250;  248.350;    0.000
349.542; 3081.250;  259.350;    0.000
349.598; 3042.250;  208.350;    0.000
349.654; 3087.250;  242.350;    0.000
349.710; 2996.250;  246.350;    0.000
349.766; 3024.250;  226.350;    0.000
349.821; 3054.250;  227.350;    0.000
349.877; 2994.250;  226.350;    0.000
349.933; 2963.250;  249.350;    0.000
349.989; 2989.250;  263.350;    0.000
350.045; 3095.250;  267.350;    0.000
350.100; 2950.250;  219.350;    0.000
350.156; 2978.250;  207.350;    0.000
350.212; 2945.250;  230.350;    0.000
350.268; 3000.250;  223.350;    0.000
350.323; 2935.250;  217.350;    0.000
350.379; 2914.250;  227.350;    0.000
350.435; 2946.250;  219.350;    0.000
350.491; 2982.250;  195.350;    0.000
350.546; 2945.250;  229.350;    0.000
350.602; 3007.250;  222.350;    0.000
350.658; 2984.250;  225.350;    0.000
350.713; 2950.250;  231.350;    0.000
350.769; 3008.250;  193.350;    0.000
350.825; 2870.250;  182.350;    0.000
350.880; 2923.250;  193.350;    0.000
350.936; 2967.250;  222.350;    0.000
350.992; 2992.250;  217.350;    0.000
351.047; 3043.250;  226.350;    0.000
351.103; 2964.250;  187.350;    0.000
351.158; 2949.250;  212.350;    0.000
351.214; 3021.250;  207.350;    0.000
351.270; 2979.250;  194.350;    0.000
351.325; 3019.250;  213.350;    0.000
351.381; 2973.250;  223.350;    0.000
351.436; 3004.250;  222.350;    0.000
351.492; 3100.250;  219.350;    0.000
351.547; 2999.250;  205.350;    0.000
351.603; 3037.250;  218.350;    0.000
351.658; 3076.250;  199.350;    0.000
351.714; 2983.250;  201.350;    0.000
351.769; 2997.250;  209.350;    0.000
351.825; 3055.250;  226.350;    0.000
351.880; 3056.250;  189.350;    0.000
351.936; 3037.250;  201.350;    0.000
351.991; 3117.250;  220.350;    0.000
352.047; 3084.250;  232.350;    0.000
352.102; 3039.250;  185.350;    0.000
352.158; 2889.250;  228.350;    0.000
352.213; 3024.250;  204.350;    0.000
352.268; 2926.250;  220.350;    0.000
352.324; 2953.250;  206.350;    0.000
352.379; 3083.250;  182.350;    0.000
352.434; 3024.250;  214.350;    0.000
352.490; 3121.250;  250.350;    0.000
352.545; 3068.250;  290.350;    0.000
352.601; 3078.250;  247.350;    0.000
352.656; 3021.250;  203.350;    0.000
352.711; 3049.250;  197.350;    0.000
352.767; 3012.250;  169.350;    0.000
352.822; 3015.250;  191.350;    0.000
352.877; 3086.250;  235.350;    0.000
352.932; 3078.250;  231.350;    0.000
352.988; 3090.250;  224.350;    0.000
353.043; 3033.250;  226.350;    0.000
353.098; 3121.250;  227.350;    0.000
353.153; 3034.250;  239.350;    0.000
353.209; 3028.250;  217.350;    0.000
353.264; 2962.250;  198.350;    0.000
353.319; 2932.250;  247.350;    0.000
353.374; 2990.250;  199.350;    0.000
353.430; 2954.250;  247.350;    0.000
353.485; 3111.250;  242.350;    0.000
353.540; 3074.250;  237.350;    0.000
353.595; 3005.250;  233.350;    0.000
353.650; 3052.250;  221.350;    0.000
353.705; 3090.250;  259.350;    0.000
353.761; 3013.250;  223.350;    0.000
353.816; 3024.250;  234.350;    0.000
353.871; 3094.250;  226.350;    0.000
353.926; 3003.250;  232.350;    0.000
353.981; 3000.250;  245.350;    0.000
354.036; 2976.250;  247.350;    0.000
354.091; 3109.250;  233.350;    0.000
354.146; 3004.250;  253.350;    0.000
354.201; 3131.250;  236.350;    0.000
354.256; 3085.250;  210.350;    0.000
354.311; 3065.250;  279.350;    0.000
354.367; 3130.250;  208.350;    0.000
354.422; 3055.250;  228.350;    0.000
354.477; 3029.250;  202.350;    0.000
354.532; 3072.250;  215.350;    0.000
354.587; 3128.250;  249.350;    0.000
354.642; 3086.250;  206.350;    0.000
354.697; 3121.250;  226.350;    0.000
354.751; 3062.250;  241.350;    0.000
354.806; 3061.250;  249.350;    0.000
354.861; 3101.250;  216.350;    0.000
354.916; 3098.250;  249.350;    0.000
354.971; 3126.250;  217.350;    0.000
355.026; 3106.250;  236.350;    0.000
355.081; 3030.250;  242.350;    0.000
355.136; 3068.250;  216.350;    0.000
355.191; 3014.250;  216.350;    0.000
355.246; 3184.250;  258.350;    0.000
355.301; 3168.250;  250.350;    0.000
355.355; 3086.250;  251.350;    0.000
355.410; 3137.250;  216.350;    0.000
355.465; 3150.250;  224.350;    0.000
355.520; 3143.250;  221.350;    0.000
355.575; 3075.250;  255.350;    0.000
355.630; 3040.250;  225.350;    0.000
355.684; 3034.250;  210.350;    0.000
355.739; 3088.250;  232.350;    0.000
355.794; 3081.250;  202.350;    0.000
355.849; 3149.250;  211.350;    0.000
355.904; 3023.250;  226.350;    0.000
355.958; 2968.250;  191.350;    0.000
356.013; 3061.250;  208.350;    0.000
356.068; 3094.250;  229.350;    0.000
356.123; 3090.250;  243.350;    0.000
356.177; 3113.250;  227.350;    0.000
356.232; 3105.250;  243.350;    0.000
356.287; 3166.250;  216.350;    0.000
356.341; 3140.250;  242.350;    0.000
356.396; 3054.250;  175.350;    0.000
356.451; 3140.250;  271.350;    0.000
356.505; 3070.250;  225.350;    0.000
356.560; 3118.250;  260.350;    0.000
356.615; 3079.250;  213.350;    0.000
356.669; 3088.250;  213.350;    0.000
356.724; 3167.250;  221.350;    0.000
356.778; 3072.250;  232.350;    0.000
356.833; 3108.250;  178.350;    0.000
356.888; 3159.250;  236.350;    0.000
356.942; 3117.250;  224.350;    0.000
356.997; 3179.250;  228.350;    0.000
357.051; 3013.250;  226.350;    0.000
357.106; 3157.250;  185.350;    0.000
357.160; 3131.250;  202.350;    0.000
357.215; 3006.250;  232.350;    0.000
357.269; 3227.250;  224.350;    0.000
357.324; 3088.250;  219.350;    0.000
357.378; 3070.250;  196.350;    0.000
357.433; 3065.250;  241.350;    0.000
357.487; 3102.250;  244.350;    0.000
357.542; 3095.250;  210.350;    0.000
357.596; 3181.250;  231.350;    0.000
357.651; 3124.250;  248.350;    0.000
357.705; 3108.250;  232.350;    0.000
357.760; 3078.250;  224.350;    0.000
357.814; 3037.250;  221.350;    0.000
357.868; 3124.250;  207.350;    0.000
357.923; 3107.250;  234.350;    0.000
357.977; 3077.250;  218.350;    0.000
358.032; 3050.250;  244.350;    0.000
358.086; 3122.250;  246.350;    0.000
358.140; 3043.250;  235.350;    0.000
358.195; 3105.250;  237.350;    0.000
358.249; 3180.250;  233.350;    0.000
358.303; 3186.250;  254.350;    0.000
358.358; 3138.250;  217.350;    0.000
358.412; 3101.250;  245.350;    0.000
358.466; 3108.250;  230.350;    0.000
358.521; 3081.250;  214.350;    0.000
358.575; 3146.250;  243.350;    0.000
358.629; 3092.250;  230.350;    0.000
358.683; 3148.250;  232.350;    0.000
358.738; 3067.250;  249.350;    0.000
358.792; 2926.250;  249.350;    0.000
358.846; 3088.250;  271.350;    0.000
358.900; 3017.250;  265.350;    0.000
358.954; 3061.250;  236.350;    0.000
359.009; 3139.250;  254.350;    0.000
359.063; 3010.250;  216.350;    0.000
359.117; 3187.250;  245.350;    0.000
359.171; 3102.250;  252.350;    0.000
359.225; 3036.250;  240.350;    0.000
359.280; 3159.250;  239.350;    0.000
359.334; 3128.250;  234.350;    0.000
359.388; 3169.250;  258.350;    0.000
359.442; 3068.250;  220.350;    0.000
359.496; 3135.250;  206.350;    0.000
359.550; 3073.250;  279.350;    0.000
359.604; 3139.250;  263.350;    0.000
359.658; 3152.250;  251.350;    0.000
359.712; 3089.250;  244.350;    0.000
359.766; 3049.250;  217.350;    0.000
359.820; 3014.250;  235.350;    0.000
359.875; 2999.250;  249.350;    0.000
359.929; 3123.250;  269.350;    0.000
359.983; 3004.250;  240.350;    0.000
360.037; 3034.250;  252.350;    0.000
360.091; 3096.250;  271.350;    0.000
360.145; 3105.250;  222.350;    0.000
360.199; 3129.250;  302.350;    0.000
360.253; 3081.250;  234.350;    0.000
360.306; 3088.250;  258.350;    0.000
360.360; 3043.250;  249.350;    0.000
360.414; 2944.250;  231.350;    0.000
360.468; 3106.250;  261.350;    0.000
360.522; 3072.250;  277.350;    0.000
360.576; 3147.250;  273.350;    0.000
360.630; 3169.250;  264.350;    0.000
360.684; 3017.250;  223.350;    0.000
360.738; 3126.250;  266.350;    0.000
360.792; 3057.250;  252.350;    0.000
360.846; 3049.250;  234.350;    0.000
360.899; 3126.250;  296.350;    0.000
360.953; 3112.250;  273.350;    0.000
361.007; 3044.250;  251.350;    0.000
361.061; 3060.250;  250.350;    0.000
361.115; 3036.250;  267.350;    0.000
361.168; 3104.250;  308.350;    0.000
361.222; 2991.250;  246.350;    0.000
361.276; 3045.250;  261.350;    0.000
361.330; 3075.250;  233.350;    0.000
361.384; 3161.250;  269.350;    0.000
361.437; 3055.250;  270.350;    0.000
361.491; 3003.250;  263.350;    0.000
361.545; 3052.250;  288.350;    0.000
361.599; 3131.250;  270.350;    0.000
361.652; 2976.250;  256.350;    0.000
361.706; 3057.250;  263.350;    0.000
361.760; 3077.250;  237.350;    0.000
361.813; 3129.250;  278.350;    0.000
361.867; 3075.250;  317.350;    0.000
361.921; 3027.250;  260.350;    0.000
361.974; 3046.250;  239.350;    0.000
362.028; 3050.250;  266.350;    0.000
362.082; 3054.250;  269.350;    0.000
362.135; 2991.250;  262.350;    0.000
362.189; 3007.250;  258.350;    0.000
362.242; 3164.250;  273.350;    0.000
362.296; 3046.250;  261.350;    0.000
362.350; 3098.250;  272.350;    0.000
362.403; 2965.250;  291.350;    0.000
362.457; 3087.250;  253.350;    0.000
362.510; 3093.250;  266.350;    0.000
362.564; 3096.250;  260.350;    0.000
362.617; 3148.250;  280.350;    0.000
362.671; 2970.250;  281.350;    0.000
362.724; 2991.250;  234.350;    0.000
362.778; 3026.250;  311.350;    0.000
362.831; 3109.250;  276.350;    0.000
362.885; 3127.250;  288.350;    0.000
362.938; 2952.250;  284.350;    0.000
362.992;  347.250;  245.350;    0.000
363.045;  268.250;  277.350;    0.000
363.099;  284.250;  246.350;    0.000
363.152;  281.250;  290.350;    0.000
363.205;  291.250;  256.350;    0.000
363.259;  247.250;  238.350;    0.000
363.312;  287.250;  290.350;    0.000
363.366;  259.250;  287.350;    0.000
363.419;  300.250;  279.350;    0.000
363.472;  307.250;  304.350;    0.000
363.526;  311.250;  305.350;    0.000
363.579;  267.250;  281.350;    0.000
363.632;  291.250;  279.350;    0.000
363.686;  289.250;  277.350;    0.000
363.739;  327.250;  268.350;    0.000
363.792;  293.250;  274.350;    0.000

