
Integration time [ms]:   1.000
Averaging Nr. [scans]: 1
Smoothing Nr. [pixels]: 0
Data measured with spectrometer [name]: UV1
Wave   ;Sample   ;Dark     ;Reference
[nm]   ;[counts] ;[counts] ;[counts] 

236.381;  148.350;  175.825;    0.000
236.451;  188.350;  220.825;    0.000
236.520;  186.350;  178.825;    0.000
236.590;  201.350;  182.825;    0.000
236.660;  153.350;  180.825;    0.000
236.730;  185.350;  201.825;    0.000
236.799;  179.350;  168.825;    0.000
236.869;  168.350;  205.825;    0.000
236.939;  158.350;  175.825;    0.000
237.009;  180.350;  186.825;    0.000
237.078;  172.350;  200.825;    0.000
237.148;  163.350;  156.825;    0.000
237.218;  177.350;  190.825;    0.000
237.287;  184.350;  167.825;    0.000
237.357;  195.350;  213.825;    0.000
237.427;  159.350;  164.825;    0.000
237.496; 1249.350;  210.825;    0.000
237.566; 1188.350;  193.825;    0.000
237.636; 1163.350;  179.825;    0.000
237.705; 1239.350;  218.825;    0.000
237.775; 1191.350;  160.825;    0.000
237.845; 1192.350;  207.825;    0.000
237.914; 1239.350;  180.825;    0.000
237.984; 1237.350;  207.825;    0.000
238.054; 1231.350;  149.825;    0.000
238.123; 1251.350;  190.825;    0.000
238.193; 1307.350;  167.825;    0.000
238.263; 1193.350;  172.825;    0.000
238.332; 1176.350;  173.825;    0.000
238.402; 1207.350;  214.825;    0.000
238.471; 1149.350;  181.825;    0.000
238.541; 1205.350;  177.825;    0.000
238.611; 1150.350;  138.825;    0.000
238.680; 1111.350;  168.825;    0.000
238.750; 1183.350;  171.825;    0.000
238.819; 1206.350;  156.825;    0.000
238.889; 1138.350;  194.825;    0.000
238.958; 1140.350;  185.825;    0.000
239.028; 1247.350;  170.825;    0.000
239.097; 1173.350;  159.825;    0.000
239.167; 1178.350;  208.825;    0.000
239.237; 1224.350;  167.825;    0.000
239.306; 1073.350;  154.825;    0.000
239.376; 1257.350;  183.825;    0.000
239.445; 1190.350;  221.825;    0.000
239.515; 1220.350;  208.825;    0.000
239.584; 1217.350;  177.825;    0.000
239.654; 1162.350;  133.825;    0.000
239.723; 1224.350;  167.825;    0.000
239.793; 1156.350;  190.825;    0.000
239.862; 1229.350;  192.825;    0.000
239.932; 1146.350;  174.825;    0.000
240.001; 1106.350;  166.825;    0.000
240.070; 1215.350;  179.825;    0.000
240.140; 1167.350;  191.825;    0.000
240.209; 1156.350;  134.825;    0.000
240.279; 1128.350;  185.825;    0.000
240.348; 1178.350;  193.825;    0.000
240.418; 1135.350;  149.825;    0.000
240.487; 1125.350;  197.825;    0.000
240.556; 1183.350;  193.825;    0.000
240.626; 1145.350;  178.825;    0.000
240.695; 1168.350;  194.825;    0.000
240.765; 1137.350;  178.825;    0.000
240.834; 1138.350;  190.825;    0.000
240.903; 1141.350;  212.825;    0.000
240.973; 1092.350;  153.825;    0.000
241.042; 1203.350;  177.825;    0.000
241.112; 1174.350;  193.825;    0.000
241.181; 1146.350;  171.825;    0.000
241.250; 1174.350;  152.825;    0.000
241.320; 1235.350;  176.825;    0.000
241.389; 1121.350;  186.825;    0.000
241.458; 1212.350;  182.825;    0.000
241.528; 1152.350;  175.825;    0.000
241.597; 1204.350;  180.825;    0.000
241.666; 1143.350;  162.825;    0.000
241.736; 1140.350;  187.825;    0.000
241.805; 1185.350;  173.825;    0.000
241.874; 1135.350;  177.825;    0.000
241.943; 1133.350;  208.825;    0.000
242.013; 1159.350;  183.825;    0.000
242.082; 1091.350;  171.825;    0.000
242.151; 1124.350;  208.825;    0.000
242.221; 1155.350;  160.825;    0.000
242.290; 1136.350;  200.825;    0.000
242.359; 1085.350;  167.825;    0.000
242.428; 1163.350;  213.825;    0.000
242.498; 1135.350;  156.825;    0.000
242.567; 1203.350;  200.825;    0.000
242.636; 1161.350;  178.825;    0.000
242.705; 1156.350;  185.825;    0.000
242.774; 1131.350;  190.825;    0.000
242.844; 1171.350;  194.825;    0.000
242.913; 1113.350;  162.825;    0.000
242.982; 1140.350;  189.825;    0.000
243.051; 1141.350;  176.825;    0.000
243.120; 1139.350;  213.825;    0.000
243.190; 1117.350;  155.825;    0.000
243.259; 1118.350;  183.825;    0.000
243.328; 1075.350;  170.825;    0.000
243.397; 1106.350;  224.825;    0.000
243.466; 1091.350;  172.825;    0.000
243.535; 1088.350;  145.825;    0.000
243.605; 1126.350;  157.825;    0.000
243.674; 1135.350;  199.825;    0.000
243.743; 1134.350;  196.825;    0.000
243.812; 1121.350;  152.825;    0.000
243.881; 1083.350;  188.825;    0.000
243.950; 1102.350;  154.825;    0.000
244.019; 1057.350;  195.825;    0.000
244.088; 1164.350;  164.825;    0.000
244.158; 1096.350;  220.825;    0.000
244.227; 1089.350;  150.825;    0.000
244.296; 1090.350;  153.825;    0.000
244.365; 1032.350;  195.825;    0.000
244.434; 1095.350;  136.825;    0.000
244.503; 1121.350;  172.825;    0.000
244.572; 1132.350;  129.825;    0.000
244.641; 1112.350;  132.825;    0.000
244.710; 1091.350;  185.825;    0.000
244.779; 1089.350;  164.825;    0.000
244.848; 1038.350;  132.825;    0.000
244.917; 1069.350;  196.825;    0.000
244.986; 1083.350;  148.825;    0.000
245.055; 1113.350;  192.825;    0.000
245.124; 1094.350;  170.825;    0.000
245.193; 1062.350;  172.825;    0.000
245.262; 1048.350;  146.825;    0.000
245.331; 1085.350;  178.825;    0.000
245.400; 1002.350;  108.825;    0.000
245.469;  966.350;  173.825;    0.000
245.538;  974.350;  180.825;    0.000
245.607; 1009.350;  171.825;    0.000
245.676;  996.350;  149.825;    0.000
245.745;  994.350;  194.825;    0.000
245.814;  956.350;  186.825;    0.000
245.883; 1018.350;  192.825;    0.000
245.952; 1004.350;  169.825;    0.000
246.021;  985.350;  190.825;    0.000
246.090;  966.350;  181.825;    0.000
246.159;  961.350;  179.825;    0.000
246.227;  896.350;  182.825;    0.000
246.296;  939.350;  182.825;    0.000
246.365;  956.350;  171.825;    0.000
246.434; 1036.350;  218.825;    0.000
246.503;  988.350;  147.825;    0.000
246.572; 1001.350;  227.825;    0.000
246.641;  901.350;  193.825;    0.000
246.710;  967.350;  207.825;    0.000
246.779;  975.350;  181.825;    0.000
246.847;  921.350;  179.825;    0.000
246.916;  974.350;  155.825;    0.000
246.985;  960.350;  168.825;    0.000
247.054;  937.350;  137.825;    0.000
247.123;  949.350;  128.825;    0.000
247.192;  900.350;  163.825;    0.000
247.260;  902.350;  173.825;    0.000
247.329;  903.350;  174.825;    0.000
247.398;  920.350;  238.825;    0.000
247.467;  960.350;  168.825;    0.000
247.536;  963.350;  203.825;    0.000
247.604;  954.350;  194.825;    0.000
247.673;  863.350;  145.825;    0.000
247.742;  911.350;  167.825;    0.000
247.811;  915.350;  180.825;    0.000
247.879;  959.350;  187.825;    0.000
247.948;  934.350;  187.825;    0.000
248.017;  909.350;  170.825;    0.000
248.086;  975.350;  223.825;    0.000
248.154;  907.350;  160.825;    0.000
248.223;  917.350;  163.825;    0.000
248.292;  876.350;  201.825;    0.000
248.361;  914.350;  205.825;    0.000
248.429;  935.350;  191.825;    0.000
248.498;  905.350;  194.825;    0.000
248.567;  882.350;  217.825;    0.000
248.635;  921.350;  224.825;    0.000
248.704;  918.350;  204.825;    0.000
248.773;  853.350;  175.825;    0.000
248.841;  928.350;  157.825;    0.000
248.910;  902.350;  206.825;    0.000
248.979;  860.350;  170.825;    0.000
249.047;  886.350;  178.825;    0.000
249.116;  932.350;  183.825;    0.000
249.185;  933.350;  202.825;    0.000
249.253;  866.350;  159.825;    0.000
249.322;  891.350;  177.825;    0.000
249.390;  906.350;  157.825;    0.000
249.459;  863.350;  211.825;    0.000
249.528;  892.350;  181.825;    0.000
249.596;  882.350;  179.825;    0.000
249.665;  891.350;  176.825;    0.000
249.733;  894.350;  186.825;    0.000
249.802;  945.350;  185.825;    0.000
249.871;  883.350;  166.825;    0.000
249.939;  880.350;  163.825;    0.000
250.008;  911.350;  212.825;    0.000
250.076;  914.350;  227.825;    0.000
250.145;  836.350;  172.825;    0.000
250.213;  789.350;  173.825;    0.000
250.282;  829.350;  189.825;    0.000
250.350;  839.350;  166.825;    0.000
250.419;  894.350;  161.825;    0.000
250.487;  855.350;  178.825;    0.000
250.556;  848.350;  208.825;    0.000
250.624;  888.350;  190.825;    0.000
250.693;  791.350;  163.825;    0.000
250.761;  858.350;  194.825;    0.000
250.830;  889.350;  225.825;    0.000
250.898;  841.350;  140.825;    0.000
250.967;  839.350;  167.825;    0.000
251.035;  869.350;  155.825;    0.000
251.104;  862.350;  189.825;    0.000
251.172;  846.350;  136.825;    0.000
251.241;  840.350;  148.825;    0.000
251.309;  873.350;  201.825;    0.000
251.378;  830.350;  169.825;    0.000
251.446;  844.350;  178.825;    0.000
251.514;  836.350;  206.825;    0.000
251.583;  851.350;  178.825;    0.000
251.651;  846.350;  168.825;    0.000
251.720;  836.350;  190.825;    0.000
251.788;  849.350;  209.825;    0.000
251.856;  837.350;  173.825;    0.000
251.925;  885.350;  171.825;    0.000
251.993;  848.350;  188.825;    0.000
252.062;  833.350;  169.825;    0.000
252.130;  840.350;  196.825;    0.000
252.198;  842.350;  210.825;    0.000
252.267;  784.350;  181.825;    0.000
252.335;  791.350;  164.825;    0.000
252.403;  784.350;  152.825;    0.000
252.472;  815.350;  166.825;    0.000
252.540;  802.350;  189.825;    0.000
252.608;  837.350;  198.825;    0.000
252.677;  807.350;  156.825;    0.000
252.745;  839.350;  184.825;    0.000
252.813;  813.350;  163.825;    0.000
252.881;  722.350;  130.825;    0.000
252.950;  770.350;  189.825;    0.000
253.018;  751.350;  164.825;    0.000
253.086;  711.350;  172.825;    0.000
253.155;  684.350;  205.825;    0.000
253.223;  646.350;  175.825;    0.000
253.291;  664.350;  176.825;    0.000
253.359;  721.350;  182.825;    0.000
253.428;  707.350;  222.825;    0.000
253.496;  667.350;  166.825;    0.000
253.564;  630.350;  135.825;    0.000
253.632;  631.350;  184.825;    0.000
253.700;  708.350;  173.825;    0.000
253.769;  655.350;  163.825;    0.000
253.837;  689.350;  179.825;    0.000
253.905;  676.350;  157.825;    0.000
253.973;  641.350;  164.825;    0.000
254.041;  631.350;  170.825;    0.000
254.110;  635.350;  169.825;    0.000
254.178;  578.350;  165.825;    0.000
254.246;  615.350;  126.825;    0.000
254.314;  678.350;  166.825;    0.000
254.382;  639.350;  169.825;    0.000
254.450;  575.350;  170.825;    0.000
254.518;  652.350;  196.825;    0.000
254.587;  635.350;  161.825;    0.000
254.655;  680.350;  187.825;    0.000
254.723;  643.350;  144.825;    0.000
254.791;  661.350;  175.825;    0.000
254.859;  691.350;  168.825;    0.000
254.927;  671.350;  198.825;    0.000
254.995;  593.350;  165.825;    0.000
255.063;  685.350;  150.825;    0.000
255.131;  634.350;  181.825;    0.000
255.199;  669.350;  160.825;    0.000
255.267;  591.350;  131.825;    0.000
255.336;  648.350;  188.825;    0.000
255.404;  646.350;  163.825;    0.000
255.472;  720.350;  192.825;    0.000
255.540;  668.350;  158.825;    0.000
255.608;  709.350;  147.825;    0.000
255.676;  669.350;  166.825;    0.000
255.744;  718.350;  159.825;    0.000
255.812;  655.350;  164.825;    0.000
255.880;  699.350;  195.825;    0.000
255.948;  694.350;  167.825;    0.000
256.016;  664.350;  185.825;    0.000
256.084;  702.350;  191.825;    0.000
256.152;  689.350;  214.825;    0.000
256.220;  705.350;  195.825;    0.000
256.288;  796.350;  185.825;    0.000
256.356;  721.350;  168.825;    0.000
256.424;  674.350;  161.825;    0.000
256.491;  778.350;  161.825;    0.000
256.559;  716.350;  157.825;    0.000
256.627;  711.350;  164.825;    0.000
256.695;  722.350;  146.825;    0.000
256.763;  716.350;  194.825;    0.000
256.831;  764.350;  182.825;    0.000
256.899;  777.350;  192.825;    0.000
256.967;  769.350;  172.825;    0.000
257.035;  802.350;  169.825;    0.000
257.103;  821.350;  223.825;    0.000
257.171;  771.350;  141.825;    0.000
257.238;  784.350;  146.825;    0.000
257.306;  840.350;  180.825;    0.000
257.374;  804.350;  138.825;    0.000
257.442;  846.350;  135.825;    0.000
257.510;  873.350;  130.825;    0.000
257.578;  831.350;  123.825;    0.000
257.646;  873.350;  162.825;    0.000
257.713;  891.350;  149.825;    0.000
257.781;  852.350;  125.825;    0.000
257.849;  890.350;  149.825;    0.000
257.917;  889.350;  177.825;    0.000
257.985;  908.350;  143.825;    0.000
258.052;  947.350;  154.825;    0.000
258.120;  899.350;  162.825;    0.000
258.188;  938.350;  172.825;    0.000
258.256;  938.350;  160.825;    0.000
258.324;  925.350;  209.825;    0.000
258.391;  973.350;  153.825;    0.000
258.459; 1055.350;  133.825;    0.000
258.527; 1064.350;  160.825;    0.000
258.595;  994.350;  128.825;    0.000
258.662;  996.350;  114.825;    0.000
258.730;  996.350;  192.825;    0.000
258.798; 1055.350;  144.825;    0.000
258.865; 1089.350;  140.825;    0.000
258.933; 1088.350;  150.825;    0.000
259.001; 1027.350;  149.825;    0.000
259.069; 1057.350;  110.825;    0.000
259.136; 1109.350;  150.825;    0.000
259.204; 1108.350;  156.825;    0.000
259.272; 1181.350;  185.825;    0.000
259.339; 1165.350;  148.825;    0.000
259.407; 1164.350;  163.825;    0.000
259.475; 1146.350;  129.825;    0.000
259.542; 1123.350;  144.825;    0.000
259.610; 1144.350;  164.825;    0.000
259.677; 1204.350;  188.825;    0.000
259.745; 1343.350;  113.825;    0.000
259.813; 1476.350;  188.825;    0.000
259.880; 1693.350;  174.825;    0.000
259.948; 1471.350;  166.825;    0.000
260.016; 1367.350;  150.825;    0.000
260.083; 1309.350;  178.825;    0.000
260.151; 1305.350;  120.825;    0.000
260.218; 1306.350;  175.825;    0.000
260.286; 1299.350;  155.825;    0.000
260.353; 1339.350;  165.825;    0.000
260.421; 1354.350;  169.825;    0.000
260.489; 1358.350;  194.825;    0.000
260.556; 1522.350;  161.825;    0.000
260.624; 1515.350;  179.825;    0.000
260.691; 1565.350;  174.825;    0.000
260.759; 1454.350;  164.825;    0.000
260.826; 1414.350;  125.825;    0.000
260.894; 1466.350;  164.825;    0.000
260.961; 1497.350;  147.825;    0.000
261.029; 1552.350;  167.825;    0.000
261.096; 1626.350;  136.825;    0.000
261.164; 1728.350;  146.825;    0.000
261.231; 1630.350;  190.825;    0.000
261.299; 1622.350;  171.825;    0.000
261.366; 1559.350;  165.825;    0.000
261.434; 1530.350;  160.825;    0.000
261.501; 1509.350;  149.825;    0.000
261.568; 1574.350;  155.825;    0.000
261.636; 1528.350;  137.825;    0.000
261.703; 1699.350;  186.825;    0.000
261.771; 1652.350;  162.825;    0.000
261.838; 1644.350;  190.825;    0.000
261.906; 1646.350;  133.825;    0.000
261.973; 1615.350;  202.825;    0.000
262.040; 1671.350;  179.825;    0.000
262.108; 1711.350;  161.825;    0.000
262.175; 1721.350;  155.825;    0.000
262.243; 1790.350;  158.825;    0.000
262.310; 1783.350;  129.825;    0.000
262.377; 1757.350;  157.825;    0.000
262.445; 1793.350;  132.825;    0.000
262.512; 1892.350;  161.825;    0.000
262.579; 1858.350;  151.825;    0.000
262.647; 1775.350;  174.825;    0.000
262.714; 1860.350;  174.825;    0.000
262.781; 1930.350;  164.825;    0.000
262.849; 1865.350;  168.825;    0.000
262.916; 1882.350;  153.825;    0.000
262.983; 2041.350;  201.825;    0.000
263.051; 2067.350;  117.825;    0.000
263.118; 2188.350;  150.825;    0.000
263.185; 2012.350;  172.825;    0.000
263.252; 1904.350;  154.825;    0.000
263.320; 1938.350;  152.825;    0.000
263.387; 1991.350;  136.825;    0.000
263.454; 1949.350;  167.825;    0.000
263.522; 1957.350;  122.825;    0.000
263.589; 2043.350;  147.825;    0.000
263.656; 1952.350;  130.825;    0.000
263.723; 1971.350;  182.825;    0.000
263.790; 2034.350;  163.825;    0.000
263.858; 2050.350;  161.825;    0.000
263.925; 2045.350;  153.825;    0.000
263.992; 2013.350;  139.825;    0.000
264.059; 2129.350;  141.825;    0.000
264.126; 2060.350;  153.825;    0.000
264.194; 2134.350;  144.825;    0.000
264.261; 2154.350;  188.825;    0.000
264.328; 2096.350;  161.825;    0.000
264.395; 2092.350;  184.825;    0.000
264.462; 2145.350;  162.825;    0.000
264.529; 2172.350;  178.825;    0.000
264.597; 2092.350;  160.825;    0.000
264.664; 2175.350;  158.825;    0.000
264.731; 2225.350;  176.825;    0.000
264.798; 2136.350;  137.825;    0.000
264.865; 2145.350;  175.825;    0.000
264.932; 2143.350;  162.825;    0.000
264.999; 2169.350;  153.825;    0.000
265.066; 2250.350;  168.825;    0.000
265.133; 2203.350;  142.825;    0.000
265.201; 2264.350;  163.825;    0.000
265.268; 2259.350;  143.825;    0.000
265.335; 2276.350;  156.825;    0.000
265.402; 2248.350;  136.825;    0.000
265.469; 2261.350;  127.825;    0.000
265.536; 2317.350;  159.825;    0.000
265.603; 2391.350;  191.825;    0.000
265.670; 2321.350;  136.825;    0.000
265.737; 2437.350;  186.825;    0.000
265.804; 2414.350;  147.825;    0.000
265.871; 2436.350;  147.825;    0.000
265.938; 2413.350;  153.825;    0.000
266.005; 2466.350;  172.825;    0.000
266.072; 2422.350;  151.825;    0.000
266.139; 2456.350;  175.825;    0.000
266.206; 2475.350;  165.825;    0.000
266.273; 2598.350;  162.825;    0.000
266.340; 2432.350;  150.825;    0.000
266.407; 2544.350;  169.825;    0.000
266.474; 2527.350;  151.825;    0.000
266.541; 2577.350;  164.825;    0.000
266.608; 2606.350;  111.825;    0.000
266.675; 2515.350;  173.825;    0.000
266.742; 2507.350;  148.825;    0.000
266.808; 2533.350;  185.825;    0.000
266.875; 2538.350;  188.825;    0.000
266.942; 2460.350;  131.825;    0.000
267.009; 2507.350;  184.825;    0.000
267.076; 2517.350;  200.825;    0.000
267.143; 2662.350;  216.825;    0.000
267.210; 2566.350;  138.825;    0.000
267.277; 2583.350;  143.825;    0.000
267.344; 2555.350;  172.825;    0.000
267.410; 2510.350;  172.825;    0.000
267.477; 2594.350;  160.825;    0.000
267.544; 2672.350;  175.825;    0.000
267.611; 2759.350;  189.825;    0.000
267.678; 2827.350;  162.825;    0.000
267.745; 2722.350;  206.825;    0.000
267.811; 2694.350;  146.825;    0.000
267.878; 2641.350;  147.825;    0.000
267.945; 2563.350;  170.825;    0.000
268.012; 2603.350;  153.825;    0.000
268.079; 2756.350;  185.825;    0.000
268.145; 2614.350;  197.825;    0.000
268.212; 2528.350;  167.825;    0.000
268.279; 2657.350;  145.825;    0.000
268.346; 2683.350;  182.825;    0.000
268.412; 2613.350;  144.825;    0.000
268.479; 2708.350;  186.825;    0.000
268.546; 2573.350;  147.825;    0.000
268.613; 2660.350;  188.825;    0.000
268.679; 2627.350;  173.825;    0.000
268.746; 2604.350;  204.825;    0.000
268.813; 2607.350;  199.825;    0.000
268.879; 2674.350;  157.825;    0.000
268.946; 2623.350;  192.825;    0.000
269.013; 2653.350;  136.825;    0.000
269.079; 2599.350;  166.825;    0.000
269.146; 2479.350;  129.825;    0.000
269.213; 2604.350;  178.825;    0.000
269.280; 2647.350;  148.825;    0.000
269.346; 2648.350;  194.825;    0.000
269.413; 2571.350;  135.825;    0.000
269.479; 2695.350;  180.825;    0.000
269.546; 2599.350;  169.825;    0.000
269.613; 2539.350;  160.825;    0.000
269.679; 2569.350;  161.825;    0.000
269.746; 2667.350;  143.825;    0.000
269.813; 2583.350;  172.825;    0.000
269.879; 2575.350;  152.825;    0.000
269.946; 2623.350;  156.825;    0.000
270.012; 2576.350;  190.825;    0.000
270.079; 2583.350;  143.825;    0.000
270.145; 2565.350;  148.825;    0.000
270.212; 2635.350;  176.825;    0.000
270.279; 2605.350;  168.825;    0.000
270.345; 2619.350;  143.825;    0.000
270.412; 2653.350;  155.825;    0.000
270.478; 2552.350;  176.825;    0.000
270.545; 2547.350;  112.825;    0.000
270.611; 2566.350;  186.825;    0.000
270.678; 2551.350;  141.825;    0.000
270.744; 2678.350;  145.825;    0.000
270.811; 2537.350;  120.825;    0.000
270.877; 2585.350;  118.825;    0.000
270.944; 2678.350;  135.825;    0.000
271.010; 2685.350;  128.825;    0.000
271.077; 2522.350;  176.825;    0.000
271.143; 2580.350;  162.825;    0.000
271.210; 2534.350;  133.825;    0.000
271.276; 2546.350;  107.825;    0.000
271.342; 2620.350;  202.825;    0.000
271.409; 2622.350;  160.825;    0.000
271.475; 2621.350;  165.825;    0.000
271.542; 2574.350;  152.825;    0.000
271.608; 2612.350;  163.825;    0.000
271.675; 2537.350;  149.825;    0.000
271.741; 2548.350;  164.825;    0.000
271.807; 2480.350;  128.825;    0.000
271.874; 2604.350;  148.825;    0.000
271.940; 2551.350;  179.825;    0.000
272.007; 2542.350;  148.825;    0.000
272.073; 2561.350;  146.825;    0.000
272.139; 2533.350;  166.825;    0.000
272.206; 2547.350;  198.825;    0.000
272.272; 2641.350;  201.825;    0.000
272.338; 2592.350;  208.825;    0.000
272.405; 2562.350;  181.825;    0.000
272.471; 2554.350;  167.825;    0.000
272.537; 2505.350;  189.825;    0.000
272.604; 2460.350;  162.825;    0.000
272.670; 2617.350;  194.825;    0.000
272.736; 2598.350;  176.825;    0.000
272.802; 2602.350;  163.825;    0.000
272.869; 2510.350;  170.825;    0.000
272.935; 2565.350;  145.825;    0.000
273.001; 2552.350;  149.825;    0.000
273.068; 2588.350;  172.825;    0.000
273.134; 2526.350;  155.825;    0.000
273.200; 2568.350;  183.825;    0.000
273.266; 2502.350;  160.825;    0.000
273.333; 2559.350;  190.825;    0.000
273.399; 2545.350;  132.825;    0.000
273.465; 2632.350;  179.825;    0.000
273.531; 2591.350;  161.825;    0.000
273.597; 2584.350;  194.825;    0.000
273.664; 2675.350;  193.825;    0.000
273.730; 2682.350;  180.825;    0.000
273.796; 2655.350;  145.825;    0.000
273.862; 2879.350;  176.825;    0.000
273.928; 2949.350;  169.825;    0.000
273.995; 2955.350;  202.825;    0.000
274.061; 2700.350;  176.825;    0.000
274.127; 2697.350;  178.825;    0.000
274.193; 2653.350;  106.825;    0.000
274.259; 2800.350;  186.825;    0.000
274.325; 2829.350;  163.825;    0.000
274.391; 2821.350;  162.825;    0.000
274.457; 2736.350;  145.825;    0.000
274.524; 2824.350;  189.825;    0.000
274.590; 3045.350;  161.825;    0.000
274.656; 3214.350;  157.825;    0.000
274.722; 2928.350;  143.825;    0.000
274.788; 2895.350;  166.825;    0.000
274.854; 3303.350;  200.825;    0.000
274.920; 3284.350;  132.825;    0.000
274.986; 3002.350;  184.825;    0.000
275.052; 2915.350;  169.825;    0.000
275.118; 2913.350;  153.825;    0.000
275.184; 2899.350;  182.825;    0.000
275.250; 2977.350;  124.825;    0.000
275.316; 3002.350;  154.825;    0.000
275.382; 2973.350;  150.825;    0.000
275.448; 3098.350;  180.825;    0.000
275.514; 3509.350;  143.825;    0.000
275.580; 3310.350;  120.825;    0.000
275.646; 3072.350;  127.825;    0.000
275.712; 3046.350;  109.825;    0.000
275.778; 3102.350;  126.825;    0.000
275.844; 3186.350;  155.825;    0.000
275.910; 3062.350;  164.825;    0.000
275.976; 3175.350;  161.825;    0.000
276.042; 3194.350;  152.825;    0.000
276.108; 3204.350;  159.825;    0.000
276.174; 3310.350;  149.825;    0.000
276.240; 3240.350;  112.825;    0.000
276.306; 3339.350;  142.825;    0.000
276.372; 3298.350;  136.825;    0.000
276.437; 3439.350;  141.825;    0.000
276.503; 3522.350;  150.825;    0.000
276.569; 3727.350;  178.825;    0.000
276.635; 3695.350;  117.825;    0.000
276.701; 3720.350;  174.825;    0.000
276.767; 3709.350;  136.825;    0.000
276.833; 3772.350;  119.825;    0.000
276.899; 3857.350;  171.825;    0.000
276.964; 3837.350;  146.825;    0.000
277.030; 3933.350;  157.825;    0.000
277.096; 3900.350;  124.825;    0.000
277.162; 4153.350;  185.825;    0.000
277.228; 4218.350;  125.825;    0.000
277.293; 4476.350;  159.825;    0.000
277.359; 4450.350;  186.825;    0.000
277.425; 4699.350;  176.825;    0.000
277.491; 4834.350;  140.825;    0.000
277.557; 5860.350;  172.825;    0.000
277.622; 7691.350;  187.825;    0.000
277.688; 7392.350;  203.825;    0.000
277.754; 7697.350;  170.825;    0.000
277.820; 8390.350;  142.825;    0.000
277.885; 9961.350;  182.825;    0.000
277.951;12487.350;  171.825;    0.000
278.017;10619.350;  173.825;    0.000
278.083; 9258.350;  151.825;    0.000
278.148; 8928.350;  159.825;    0.000
278.214; 9328.350;  173.825;    0.000
278.280; 9757.350;  137.825;    0.000
278.345; 9003.350;  190.825;    0.000
278.411; 8322.350;  149.825;    0.000
278.477; 8483.350;  157.825;    0.000
278.542; 9431.350;  136.825;    0.000
278.608;10258.350;  144.825;    0.000
278.674;11221.350;  215.825;    0.000
278.739;12410.350;  148.825;    0.000
278.805;14285.350;  152.825;    0.000
278.871;17375.350;  170.825;    0.000
278.936;22444.350;  180.825;    0.000
279.002;35036.352;  177.825;    0.000
279.067;46834.352;  172.825;    0.000
279.133;44140.352;  160.825;    0.000
279.199;38479.352;  165.825;    0.000
279.264;38939.352;  130.825;    0.000
279.330;45915.352;  154.825;    0.000
279.395;60548.352;  170.825;    0.000
279.461;65306.352;  136.825;    0.000
279.527;65306.352;  174.825;    0.000
279.592;65306.352;  179.825;    0.000
279.658;65306.352;  187.825;    0.000
279.723;65306.352;  201.825;    0.000
279.789;65306.352;  194.825;    0.000
279.854;62880.352;  171.825;    0.000
279.920;50672.352;  183.825;    0.000
279.985;45210.352;  173.825;    0.000
280.051;45422.352;  194.825;    0.000
280.116;54972.352;  197.825;    0.000
280.182;65306.352;  171.825;    0.000
280.247;65306.352;  131.825;    0.000
280.313;65306.352;  166.825;    0.000
280.378;48752.352;  159.825;    0.000
280.444;34735.352;  190.825;    0.000
280.509;27183.350;  189.825;    0.000
280.574;22550.350;  171.825;    0.000
280.640;19261.350;  167.825;    0.000
280.705;17027.350;  129.825;    0.000
280.771;15577.350;  193.825;    0.000
280.836;14125.350;  172.825;    0.000
280.902;12906.350;  189.825;    0.000
280.967;12032.350;  143.825;    0.000
281.032;11683.350;  182.825;    0.000
281.098;10808.350;  172.825;    0.000
281.163;10230.350;  184.825;    0.000
281.229; 9814.350;  210.825;    0.000
281.294; 9355.350;  223.825;    0.000
281.359; 8927.350;  197.825;    0.000
281.425; 8665.350;  192.825;    0.000
281.490; 8252.350;  162.825;    0.000
281.555; 8002.350;  193.825;    0.000
281.621; 7667.350;  141.825;    0.000
281.686; 7221.350;  166.825;    0.000
281.751; 7054.350;  204.825;    0.000
281.816; 6921.350;  159.825;    0.000
281.882; 6692.350;  146.825;    0.000
281.947; 6465.350;  176.825;    0.000
282.012; 6400.350;  139.825;    0.000
282.078; 6204.350;  186.825;    0.000
282.143; 6118.350;  151.825;    0.000
282.208; 6117.350;  213.825;    0.000
282.273; 6098.350;  160.825;    0.000
282.339; 5835.350;  175.825;    0.000
282.404; 5711.350;  157.825;    0.000
282.469; 5508.350;  185.825;    0.000
282.534; 5496.350;  166.825;    0.000
282.600; 5400.350;  168.825;    0.000
282.665; 5295.350;  167.825;    0.000
282.730; 5269.350;  148.825;    0.000
282.795; 5211.350;  186.825;    0.000
282.860; 5013.350;  161.825;    0.000
282.926; 5117.350;  178.825;    0.000
282.991; 5015.350;  139.825;    0.000
283.056; 5052.350;  158.825;    0.000
283.121; 4923.350;  191.825;    0.000
283.186; 5018.350;  182.825;    0.000
283.251; 4840.350;  181.825;    0.000
283.316; 4847.350;  187.825;    0.000
283.382; 4797.350;  175.825;    0.000
283.447; 4819.350;  183.825;    0.000
283.512; 4994.350;  175.825;    0.000
283.577; 4781.350;  180.825;    0.000
283.642; 4771.350;  193.825;    0.000
283.707; 4492.350;  145.825;    0.000
283.772; 4559.350;  143.825;    0.000
283.837; 4508.350;  143.825;    0.000
283.902; 4524.350;  150.825;    0.000
283.967; 4609.350;  166.825;    0.000
284.032; 4553.350;  126.825;    0.000
284.097; 4569.350;  201.825;    0.000
284.163; 4543.350;  133.825;    0.000
284.228; 4549.350;  193.825;    0.000
284.293; 4644.350;  157.825;    0.000
284.358; 4646.350;  185.825;    0.000
284.423; 4534.350;  142.825;    0.000
284.488; 4567.350;  192.825;    0.000
284.553; 4664.350;  146.825;    0.000
284.618; 4751.350;  154.825;    0.000
284.683; 4778.350;  172.825;    0.000
284.748; 4970.350;  195.825;    0.000
284.812; 5245.350;  190.825;    0.000
284.877; 5569.350;  169.825;    0.000
284.942; 6367.350;  195.825;    0.000
285.007; 7770.350;  204.825;    0.000
285.072;11018.350;  189.825;    0.000
285.137;21768.350;  149.825;    0.000
285.202;28844.350;  164.825;    0.000
285.267;21909.350;  161.825;    0.000
285.332;12334.350;  140.825;    0.000
285.397; 8884.350;  142.825;    0.000
285.462; 7479.350;  146.825;    0.000
285.527; 6431.350;  132.825;    0.000
285.591; 5936.350;  160.825;    0.000
285.656; 5558.350;  136.825;    0.000
285.721; 5243.350;  135.825;    0.000
285.786; 5151.350;  171.825;    0.000
285.851; 4857.350;  168.825;    0.000
285.916; 4737.350;  178.825;    0.000
285.981; 4532.350;  152.825;    0.000
286.045; 4539.350;  167.825;    0.000
286.110; 4579.350;  187.825;    0.000
286.175; 4404.350;  162.825;    0.000
286.240; 4428.350;  163.825;    0.000
286.305; 4309.350;  190.825;    0.000
286.369; 4439.350;  143.825;    0.000
286.434; 4349.350;  185.825;    0.000
286.499; 4345.350;  195.825;    0.000
286.564; 4193.350;  173.825;    0.000
286.628; 4296.350;  159.825;    0.000
286.693; 4257.350;  175.825;    0.000
286.758; 4228.350;  170.825;    0.000
286.823; 4038.350;  129.825;    0.000
286.887; 4056.350;  172.825;    0.000
286.952; 4195.350;  163.825;    0.000
287.017; 4114.350;  217.825;    0.000
287.082; 3991.350;  165.825;    0.000
287.146; 4018.350;  176.825;    0.000
287.211; 3961.350;  192.825;    0.000
287.276; 3993.350;  147.825;    0.000
287.340; 4068.350;  162.825;    0.000
287.405; 4025.350;  196.825;    0.000
287.470; 3920.350;  148.825;    0.000
287.534; 4120.350;  166.825;    0.000
287.599; 4198.350;  193.825;    0.000
287.663; 4037.350;  191.825;    0.000
287.728; 3980.350;  146.825;    0.000
287.793; 3969.350;  234.825;    0.000
287.857; 4039.350;  177.825;    0.000
287.922; 4014.350;  166.825;    0.000
287.987; 3988.350;  169.825;    0.000
288.051; 4103.350;  169.825;    0.000
288.116; 4302.350;  187.825;    0.000
288.180; 4299.350;  200.825;    0.000
288.245; 4032.350;  201.825;    0.000
288.309; 3971.350;  176.825;    0.000
288.374; 4093.350;  162.825;    0.000
288.439; 3954.350;  195.825;    0.000
288.503; 3877.350;  162.825;    0.000
288.568; 3847.350;  228.825;    0.000
288.632; 3913.350;  194.825;    0.000
288.697; 4008.350;  173.825;    0.000
288.761; 3972.350;  153.825;    0.000
288.826; 3990.350;  151.825;    0.000
288.890; 3975.350;  208.825;    0.000
288.955; 4014.350;  159.825;    0.000
289.019; 3909.350;  198.825;    0.000
289.084; 3955.350;  152.825;    0.000
289.148; 3866.350;  171.825;    0.000
289.212; 3909.350;  184.825;    0.000
289.277; 3952.350;  165.825;    0.000
289.341; 3936.350;  207.825;    0.000
289.406; 3891.350;  156.825;    0.000
289.470; 3866.350;  191.825;    0.000
289.535; 4054.350;  222.825;    0.000
289.599; 3933.350;  214.825;    0.000
289.663; 3985.350;  183.825;    0.000
289.728; 3879.350;  192.825;    0.000
289.792; 4044.350;  197.825;    0.000
289.857; 4060.350;  221.825;    0.000
289.921; 3952.350;  177.825;    0.000
289.985; 3800.350;  177.825;    0.000
290.050; 3869.350;  178.825;    0.000
290.114; 3871.350;  112.825;    0.000
290.178; 3833.350;  170.825;    0.000
290.243; 3849.350;  162.825;    0.000
290.307; 3893.350;  178.825;    0.000
290.371; 3832.350;  141.825;    0.000
290.436; 3905.350;  178.825;    0.000
290.500; 3986.350;  135.825;    0.000
290.564; 3990.350;  199.825;    0.000
290.629; 3946.350;  165.825;    0.000
290.693; 3981.350;  154.825;    0.000
290.757; 3888.350;  159.825;    0.000
290.821; 4040.350;  179.825;    0.000
290.886; 3864.350;  141.825;    0.000
290.950; 3888.350;  166.825;    0.000
291.014; 4052.350;  169.825;    0.000
291.078; 3957.350;  191.825;    0.000
291.143; 4083.350;  169.825;    0.000
291.207; 4091.350;  164.825;    0.000
291.271; 4039.350;  193.825;    0.000
291.335; 4033.350;  150.825;    0.000
291.399; 4162.350;  175.825;    0.000
291.464; 4391.350;  128.825;    0.000
291.528; 4517.350;  162.825;    0.000
291.592; 4471.350;  152.825;    0.000
291.656; 4334.350;  175.825;    0.000
291.720; 4228.350;  173.825;    0.000
291.784; 4159.350;  192.825;    0.000
291.849; 4214.350;  159.825;    0.000
291.913; 4189.350;  174.825;    0.000
291.977; 4056.350;  177.825;    0.000
292.041; 4349.350;  188.825;    0.000
292.105; 4273.350;  174.825;    0.000
292.169; 4432.350;  143.825;    0.000
292.233; 4428.350;  149.825;    0.000
292.297; 4543.350;  176.825;    0.000
292.361; 4642.350;  178.825;    0.000
292.425; 4618.350;  153.825;    0.000
292.490; 4867.350;  185.825;    0.000
292.554; 5021.350;  144.825;    0.000
292.618; 5397.350;  166.825;    0.000
292.682; 5752.350;  181.825;    0.000
292.746; 6804.350;  152.825;    0.000
292.810; 9707.350;  208.825;    0.000
292.874;12286.350;  142.825;    0.000
292.938;12146.350;  195.825;    0.000
293.002;10291.350;  156.825;    0.000
293.066; 9023.350;  108.825;    0.000
293.130; 8299.350;  136.825;    0.000
293.194; 7722.350;  135.825;    0.000
293.258; 7506.350;  187.825;    0.000
293.322; 7163.350;  148.825;    0.000
293.386; 7317.350;  186.825;    0.000
293.450; 8029.350;  196.825;    0.000
293.514; 9446.350;  175.825;    0.000
293.577;13062.350;  137.825;    0.000
293.641;18579.350;  142.825;    0.000
293.705;19568.350;  201.825;    0.000
293.769;16684.350;  150.825;    0.000
293.833;13536.350;  147.825;    0.000
293.897;11782.350;  170.825;    0.000
293.961;10273.350;  121.825;    0.000
294.025; 9209.350;  172.825;    0.000
294.089; 8253.350;  167.825;    0.000
294.152; 7627.350;  167.825;    0.000
294.216; 7156.350;  165.825;    0.000
294.280; 6732.350;  168.825;    0.000
294.344; 6304.350;  160.825;    0.000
294.408; 6130.350;  187.825;    0.000
294.472; 5787.350;  141.825;    0.000
294.536; 5507.350;  184.825;    0.000
294.599; 5563.350;  176.825;    0.000
294.663; 5311.350;  120.825;    0.000
294.727; 5154.350;  159.825;    0.000
294.791; 5037.350;  190.825;    0.000
294.855; 5005.350;  148.825;    0.000
294.918; 4715.350;  160.825;    0.000
294.982; 4769.350;  156.825;    0.000
295.046; 4660.350;  177.825;    0.000
295.110; 4648.350;  149.825;    0.000
295.173; 4500.350;  156.825;    0.000
295.237; 4465.350;  174.825;    0.000
295.301; 4404.350;  152.825;    0.000
295.364; 4395.350;  204.825;    0.000
295.428; 4383.350;  196.825;    0.000
295.492; 4277.350;  178.825;    0.000
295.556; 4300.350;  161.825;    0.000
295.619; 4263.350;  178.825;    0.000
295.683; 4175.350;  152.825;    0.000
295.747; 4033.350;  148.825;    0.000
295.810; 4072.350;  177.825;    0.000
295.874; 4281.350;  146.825;    0.000
295.938; 4009.350;  115.825;    0.000
296.001; 4043.350;  172.825;    0.000
296.065; 4010.350;  146.825;    0.000
296.128; 3979.350;  164.825;    0.000
296.192; 3972.350;  137.825;    0.000
296.256; 3896.350;  143.825;    0.000
296.319; 3863.350;  156.825;    0.000
296.383; 3978.350;  165.825;    0.000
296.447; 3931.350;  170.825;    0.000
296.510; 3937.350;  174.825;    0.000
296.574; 3975.350;  127.825;    0.000
296.637; 3775.350;  132.825;    0.000
296.701; 3910.350;  206.825;    0.000
296.764; 3825.350;  179.825;    0.000
296.828; 3888.350;  213.825;    0.000
296.891; 3743.350;  149.825;    0.000
296.955; 3777.350;  170.825;    0.000
297.018; 3790.350;  185.825;    0.000
297.082; 3732.350;  205.825;    0.000
297.145; 3767.350;  154.825;    0.000
297.209; 3765.350;  200.825;    0.000
297.272; 3668.350;  157.825;    0.000
297.336; 3674.350;  164.825;    0.000
297.399; 3741.350;  166.825;    0.000
297.463; 3633.350;  195.825;    0.000
297.526; 3640.350;  176.825;    0.000
297.590; 3665.350;  198.825;    0.000
297.653; 3584.350;  146.825;    0.000
297.717; 3626.350;  175.825;    0.000
297.780; 3628.350;  139.825;    0.000
297.843; 3661.350;  174.825;    0.000
297.907; 3740.350;  149.825;    0.000
297.970; 3699.350;  161.825;    0.000
298.034; 3682.350;  185.825;    0.000
298.097; 3681.350;  167.825;    0.000
298.160; 3696.350;  195.825;    0.000
298.224; 3625.350;  178.825;    0.000
298.287; 3695.350;  164.825;    0.000
298.350; 3522.350;  194.825;    0.000
298.414; 3680.350;  191.825;    0.000
298.477; 3549.350;  155.825;    0.000
298.540; 3600.350;  139.825;    0.000
298.604; 3517.350;  198.825;    0.000
298.667; 3514.350;  183.825;    0.000
298.730; 3487.350;  185.825;    0.000
298.794; 3586.350;  153.825;    0.000
298.857; 3447.350;  169.825;    0.000
298.920; 3456.350;  159.825;    0.000
298.984; 3490.350;  179.825;    0.000
299.047; 3407.350;  174.825;    0.000
299.110; 3424.350;  144.825;    0.000
299.173; 3555.350;  190.825;    0.000
299.237; 3415.350;  163.825;    0.000
299.300; 3424.350;  153.825;    0.000
299.363; 3413.350;  145.825;    0.000
299.426; 3257.350;  160.825;    0.000
299.489; 3335.350;  173.825;    0.000
299.553; 3313.350;  209.825;    0.000
299.616; 3461.350;  172.825;    0.000
299.679; 3344.350;  204.825;    0.000
299.742; 3284.350;  162.825;    0.000
299.805; 3263.350;  198.825;    0.000
299.868; 3416.350;  176.825;    0.000
299.932; 3328.350;  166.825;    0.000
299.995; 3275.350;  162.825;    0.000
300.058; 3349.350;  175.825;    0.000
300.121; 3221.350;  197.825;    0.000
300.184; 3309.350;  188.825;    0.000
300.247; 3327.350;  181.825;    0.000
300.310; 3305.350;  161.825;    0.000
300.374; 3202.350;  201.825;    0.000
300.437; 3370.350;  156.825;    0.000
300.500; 3258.350;  180.825;    0.000
300.563; 3319.350;  174.825;    0.000
300.626; 3274.350;  206.825;    0.000
300.689; 3282.350;  218.825;    0.000
300.752; 3216.350;  192.825;    0.000
300.815; 3304.350;  172.825;    0.000
300.878; 3189.350;  207.825;    0.000
300.941; 3218.350;  163.825;    0.000
301.004; 3234.350;  171.825;    0.000
301.067; 3317.350;  198.825;    0.000
301.130; 3311.350;  156.825;    0.000
301.193; 3256.350;  173.825;    0.000
301.256; 3210.350;  167.825;    0.000
301.319; 3162.350;  211.825;    0.000
301.382; 3214.350;  167.825;    0.000
301.445; 3295.350;  224.825;    0.000
301.508; 3215.350;  168.825;    0.000
301.571; 3208.350;  161.825;    0.000
301.634; 3304.350;  177.825;    0.000
301.697; 3278.350;  203.825;    0.000
301.760; 3133.350;  190.825;    0.000
301.823; 3159.350;  182.825;    0.000
301.885; 3217.350;  202.825;    0.000
301.948; 3227.350;  200.825;    0.000
302.011; 3218.350;  157.825;    0.000
302.074; 3246.350;  205.825;    0.000
302.137; 3245.350;  149.825;    0.000
302.200; 3220.350;  201.825;    0.000
302.263; 3201.350;  178.825;    0.000
302.326; 3168.350;  184.825;    0.000
302.388; 3160.350;  176.825;    0.000
302.451; 3170.350;  146.825;    0.000
302.514; 3103.350;  192.825;    0.000
302.577; 3152.350;  181.825;    0.000
302.640; 3161.350;  186.825;    0.000
302.703; 3131.350;  164.825;    0.000
302.765; 3144.350;  197.825;    0.000
302.828; 3167.350;  208.825;    0.000
302.891; 3155.350;  168.825;    0.000
302.954; 3128.350;  177.825;    0.000
303.016; 3029.350;  190.825;    0.000
303.079; 3075.350;  216.825;    0.000
303.142; 3135.350;  228.825;    0.000
303.205; 3161.350;  192.825;    0.000
303.267; 3041.350;  182.825;    0.000
303.330; 3152.350;  201.825;    0.000
303.393; 3095.350;  196.825;    0.000
303.456; 3081.350;  184.825;    0.000
303.518; 3148.350;  194.825;    0.000
303.581; 3112.350;  195.825;    0.000
303.644; 3169.350;  184.825;    0.000
303.706; 3115.350;  150.825;    0.000
303.769; 3214.350;  182.825;    0.000
303.832; 3065.350;  143.825;    0.000
303.894; 3185.350;  207.825;    0.000
303.957; 3078.350;  178.825;    0.000
304.020; 3113.350;  203.825;    0.000
304.082; 3194.350;  175.825;    0.000
304.145; 3198.350;  171.825;    0.000
304.207; 3116.350;  157.825;    0.000
304.270; 3146.350;  195.825;    0.000
304.333; 3138.350;  195.825;    0.000
304.395; 3036.350;  197.825;    0.000
304.458; 3018.350;  231.825;    0.000
304.520; 3101.350;  218.825;    0.000
304.583; 3074.350;  177.825;    0.000
304.646; 3028.350;  177.825;    0.000
304.708; 3089.350;  178.825;    0.000
304.771; 3028.350;  143.825;    0.000
304.833; 3098.350;  241.825;    0.000
304.896; 3114.350;  200.825;    0.000
304.958; 3129.350;  176.825;    0.000
305.021; 3046.350;  159.825;    0.000
305.083; 3125.350;  159.825;    0.000
305.146; 3104.350;  190.825;    0.000
305.208; 3074.350;  152.825;    0.000
305.271; 2968.350;  162.825;    0.000
305.333; 3218.350;  219.825;    0.000
305.396; 2974.350;  163.825;    0.000
305.458; 3073.350;  215.825;    0.000
305.520; 3078.350;  174.825;    0.000
305.583; 2947.350;  161.825;    0.000
305.645; 3102.350;  203.825;    0.000
305.708; 3138.350;  163.825;    0.000
305.770; 3142.350;  215.825;    0.000
305.833; 3026.350;  207.825;    0.000
305.895; 3113.350;  166.825;    0.000
305.957; 3064.350;  175.825;    0.000
306.020; 3052.350;  169.825;    0.000
306.082; 2970.350;  203.825;    0.000
306.144; 3080.350;  181.825;    0.000
306.207; 3220.350;  199.825;    0.000
306.269; 3029.350;  177.825;    0.000
306.331; 3115.350;  160.825;    0.000
306.394; 3142.350;  193.825;    0.000
306.456; 3069.350;  136.825;    0.000
306.518; 3027.350;  189.825;    0.000
306.581; 3110.350;  156.825;    0.000
306.643; 3087.350;  190.825;    0.000
306.705; 3064.350;  190.825;    0.000
306.768; 3042.350;  172.825;    0.000
306.830; 3135.350;  214.825;    0.000
306.892; 3062.350;  198.825;    0.000
306.954; 3107.350;  177.825;    0.000
307.017; 3185.350;  183.825;    0.000
307.079; 3214.350;  170.825;    0.000
307.141; 3027.350;  173.825;    0.000
307.203; 3130.350;  171.825;    0.000
307.266; 3137.350;  166.825;    0.000
307.328; 3256.350;  207.825;    0.000
307.390; 3160.350;  201.825;    0.000
307.452; 3161.350;  182.825;    0.000
307.514; 3262.350;  213.825;    0.000
307.577; 3154.350;  213.825;    0.000
307.639; 3181.350;  197.825;    0.000
307.701; 3165.350;  174.825;    0.000
307.763; 3132.350;  181.825;    0.000
307.825; 3226.350;  186.825;    0.000
307.887; 3214.350;  198.825;    0.000
307.949; 3222.350;  158.825;    0.000
308.012; 3200.350;  209.825;    0.000
308.074; 3301.350;  176.825;    0.000
308.136; 3274.350;  227.825;    0.000
308.198; 3234.350;  187.825;    0.000
308.260; 3260.350;  211.825;    0.000
308.322; 3267.350;  206.825;    0.000
308.384; 3204.350;  186.825;    0.000
308.446; 3234.350;  175.825;    0.000
308.508; 3322.350;  211.825;    0.000
308.570; 3277.350;  191.825;    0.000
308.632; 3321.350;  195.825;    0.000
308.694; 3417.350;  173.825;    0.000
308.756; 3292.350;  185.825;    0.000
308.818; 3478.350;  195.825;    0.000
308.880; 3416.350;  189.825;    0.000
308.942; 3300.350;  231.825;    0.000
309.004; 3342.350;  188.825;    0.000
309.066; 3493.350;  196.825;    0.000
309.128; 3464.350;  155.825;    0.000
309.190; 3537.350;  176.825;    0.000
309.252; 3777.350;  191.825;    0.000
309.314; 3744.350;  236.825;    0.000
309.376; 3744.350;  212.825;    0.000
309.438; 3621.350;  201.825;    0.000
309.500; 3630.350;  206.825;    0.000
309.562; 3752.350;  213.825;    0.000
309.624; 3795.350;  196.825;    0.000
309.686; 3895.350;  198.825;    0.000
309.747; 3892.350;  186.825;    0.000
309.809; 3844.350;  215.825;    0.000
309.871; 3627.350;  242.825;    0.000
309.933; 3575.350;  162.825;    0.000
309.995; 3601.350;  163.825;    0.000
310.057; 3497.350;  145.825;    0.000
310.119; 3579.350;  205.825;    0.000
310.180; 3549.350;  195.825;    0.000
310.242; 3507.350;  167.825;    0.000
310.304; 3470.350;  213.825;    0.000
310.366; 3610.350;  224.825;    0.000
310.428; 3547.350;  170.825;    0.000
310.489; 3482.350;  195.825;    0.000
310.551; 3485.350;  207.825;    0.000
310.613; 3430.350;  168.825;    0.000
310.675; 3498.350;  188.825;    0.000
310.737; 3507.350;  211.825;    0.000
310.798; 3510.350;  221.825;    0.000
310.860; 3468.350;  201.825;    0.000
310.922; 3466.350;  206.825;    0.000
310.983; 3404.350;  222.825;    0.000
311.045; 3431.350;  235.825;    0.000
311.107; 3486.350;  184.825;    0.000
311.169; 3361.350;  148.825;    0.000
311.230; 3410.350;  211.825;    0.000
311.292; 3405.350;  235.825;    0.000
311.354; 3383.350;  183.825;    0.000
311.415; 3360.350;  196.825;    0.000
311.477; 3310.350;  200.825;    0.000
311.539; 3414.350;  171.825;    0.000
311.600; 3432.350;  169.825;    0.000
311.662; 3559.350;  231.825;    0.000
311.724; 3421.350;  204.825;    0.000
311.785; 3502.350;  214.825;    0.000
311.847; 3530.350;  193.825;    0.000
311.908; 3497.350;  180.825;    0.000
311.970; 3467.350;  233.825;    0.000
312.032; 3478.350;  192.825;    0.000
312.093; 3540.350;  195.825;    0.000
312.155; 3418.350;  194.825;    0.000
312.216; 3436.350;  238.825;    0.000
312.278; 3423.350;  146.825;    0.000
312.339; 3476.350;  184.825;    0.000
312.401; 3465.350;  201.825;    0.000
312.462; 3438.350;  173.825;    0.000
312.524; 3451.350;  205.825;    0.000
312.585; 3383.350;  199.825;    0.000
312.647; 3325.350;  168.825;    0.000
312.708; 3432.350;  180.825;    0.000
312.770; 3560.350;  180.825;    0.000
312.831; 3493.350;  176.825;    0.000
312.893; 3503.350;  211.825;    0.000
312.954; 3446.350;  178.825;    0.000
313.016; 3431.350;  204.825;    0.000
313.077; 3457.350;  216.825;    0.000
313.139; 3588.350;  172.825;    0.000
313.200; 3667.350;  197.825;    0.000
313.261; 3606.350;  227.825;    0.000
313.323; 3531.350;  204.825;    0.000
313.384; 3558.350;  182.825;    0.000
313.446; 3411.350;  204.825;    0.000
313.507; 3491.350;  164.825;    0.000
313.568; 3556.350;  197.825;    0.000
313.630; 3493.350;  190.825;    0.000
313.691; 3464.350;  185.825;    0.000
313.752; 3427.350;  192.825;    0.000
313.814; 3415.350;  176.825;    0.000
313.875; 3389.350;  210.825;    0.000
313.936; 3504.350;  165.825;    0.000
313.998; 3437.350;  162.825;    0.000
314.059; 3405.350;  178.825;    0.000
314.120; 3501.350;  176.825;    0.000
314.182; 3470.350;  167.825;    0.000
314.243; 3437.350;  204.825;    0.000
314.304; 3484.350;  197.825;    0.000
314.365; 3576.350;  183.825;    0.000
314.427; 3468.350;  176.825;    0.000
314.488; 3508.350;  149.825;    0.000
314.549; 3482.350;  218.825;    0.000
314.610; 3489.350;  160.825;    0.000
314.672; 3449.350;  187.825;    0.000
314.733; 3463.350;  184.825;    0.000
314.794; 3411.350;  164.825;    0.000
314.855; 3554.350;  191.825;    0.000
314.917; 3488.350;  172.825;    0.000
314.978; 3572.350;  185.825;    0.000
315.039; 3509.350;  194.825;    0.000
315.100; 3453.350;  190.825;    0.000
315.161; 3444.350;  185.825;    0.000
315.222; 3495.350;  204.825;    0.000
315.283; 3429.350;  166.825;    0.000
315.345; 3464.350;  133.825;    0.000
315.406; 3586.350;  191.825;    0.000
315.467; 3483.350;  166.825;    0.000
315.528; 3397.350;  194.825;    0.000
315.589; 3426.350;  193.825;    0.000
315.650; 3503.350;  190.825;    0.000
315.711; 3452.350;  219.825;    0.000
315.772; 3459.350;  159.825;    0.000
315.833; 3582.350;  191.825;    0.000
315.894; 3524.350;  202.825;    0.000
315.955; 3575.350;  167.825;    0.000
316.016; 3519.350;  177.825;    0.000
316.078; 3431.350;  185.825;    0.000
316.139; 3548.350;  219.825;    0.000
316.200; 3497.350;  163.825;    0.000
316.261; 3593.350;  183.825;    0.000
316.322; 3393.350;  230.825;    0.000
316.383; 3441.350;  198.825;    0.000
316.444; 3459.350;  209.825;    0.000
316.504; 3430.350;  179.825;    0.000
316.565; 3452.350;  185.825;    0.000
316.626; 3318.350;  155.825;    0.000
316.687; 3394.350;  211.825;    0.000
316.748; 3515.350;  192.825;    0.000
316.809; 3416.350;  183.825;    0.000
316.870; 3359.350;  196.825;    0.000
316.931; 3470.350;  173.825;    0.000
316.992; 3470.350;  179.825;    0.000
317.053; 3371.350;  186.825;    0.000
317.114; 3419.350;  189.825;    0.000
317.175; 3487.350;  226.825;    0.000
317.235; 3442.350;  206.825;    0.000
317.296; 3354.350;  191.825;    0.000
317.357; 3363.350;  173.825;    0.000
317.418; 3345.350;  212.825;    0.000
317.479; 3377.350;  247.825;    0.000
317.540; 3452.350;  205.825;    0.000
317.601; 3432.350;  205.825;    0.000
317.661; 3435.350;  150.825;    0.000
317.722; 3450.350;  198.825;    0.000
317.783; 3388.350;  153.825;    0.000
317.844; 3461.350;  202.825;    0.000
317.904; 3559.350;  180.825;    0.000
317.965; 3531.350;  205.825;    0.000
318.026; 3638.350;  223.825;    0.000
318.087; 3493.350;  218.825;    0.000
318.148; 3496.350;  207.825;    0.000
318.208; 3443.350;  212.825;    0.000
318.269; 3423.350;  174.825;    0.000
318.330; 3484.350;  191.825;    0.000
318.390; 3370.350;  197.825;    0.000
318.451; 3375.350;  167.825;    0.000
318.512; 3423.350;  174.825;    0.000
318.572; 3383.350;  199.825;    0.000
318.633; 3419.350;  233.825;    0.000
318.694; 3466.350;  232.825;    0.000
318.754; 3337.350;  181.825;    0.000
318.815; 3337.350;  199.825;    0.000
318.876; 3409.350;  207.825;    0.000
318.936; 3395.350;  202.825;    0.000
318.997; 3320.350;  182.825;    0.000
319.058; 3408.350;  180.825;    0.000
319.118; 3434.350;  199.825;    0.000
319.179; 3332.350;  199.825;    0.000
319.239; 3383.350;  229.825;    0.000
319.300; 3305.350;  223.825;    0.000
319.361; 3329.350;  210.825;    0.000
319.421; 3348.350;  205.825;    0.000
319.482; 3241.350;  205.825;    0.000
319.542; 3391.350;  176.825;    0.000
319.603; 3396.350;  191.825;    0.000
319.663; 3350.350;  183.825;    0.000
319.724; 3379.350;  174.825;    0.000
319.784; 3410.350;  198.825;    0.000
319.845; 3353.350;  218.825;    0.000
319.905; 3455.350;  217.825;    0.000
319.966; 3254.350;  197.825;    0.000
320.026; 3307.350;  209.825;    0.000
320.087; 3348.350;  225.825;    0.000
320.147; 3260.350;  201.825;    0.000
320.208; 3377.350;  176.825;    0.000
320.268; 3292.350;  168.825;    0.000
320.329; 3351.350;  238.825;    0.000
320.389; 3375.350;  220.825;    0.000
320.449; 3339.350;  230.825;    0.000
320.510; 3314.350;  234.825;    0.000
320.570; 3317.350;  210.825;    0.000
320.631; 3317.350;  207.825;    0.000
320.691; 3351.350;  222.825;    0.000
320.751; 3249.350;  195.825;    0.000
320.812; 3274.350;  193.825;    0.000
320.872; 3444.350;  237.825;    0.000
320.932; 3366.350;  213.825;    0.000
320.993; 3349.350;  185.825;    0.000
321.053; 3366.350;  245.825;    0.000
321.113; 3316.350;  206.825;    0.000
321.174; 3309.350;  202.825;    0.000
321.234; 3378.350;  244.825;    0.000
321.294; 3330.350;  228.825;    0.000
321.355; 3392.350;  208.825;    0.000
321.415; 3425.350;  223.825;    0.000
321.475; 3232.350;  203.825;    0.000
321.535; 3276.350;  230.825;    0.000
321.596; 3338.350;  186.825;    0.000
321.656; 3281.350;  216.825;    0.000
321.716; 3304.350;  207.825;    0.000
321.776; 3213.350;  181.825;    0.000
321.837; 3371.350;  207.825;    0.000
321.897; 3304.350;  225.825;    0.000
321.957; 3180.350;  222.825;    0.000
322.017; 3347.350;  215.825;    0.000
322.077; 3374.350;  250.825;    0.000
322.138; 3277.350;  189.825;    0.000
322.198; 3313.350;  200.825;    0.000
322.258; 3225.350;  217.825;    0.000
322.318; 3141.350;  183.825;    0.000
322.378; 3320.350;  231.825;    0.000
322.438; 3268.350;  228.825;    0.000
322.499; 3282.350;  248.825;    0.000
322.559; 3310.350;  198.825;    0.000
322.619; 3136.350;  221.825;    0.000
322.679; 3235.350;  217.825;    0.000
322.739; 3177.350;  204.825;    0.000
322.799; 3364.350;  236.825;    0.000
322.859; 3166.350;  213.825;    0.000
322.919; 3317.350;  210.825;    0.000
322.979; 3343.350;  244.825;    0.000
323.039; 3274.350;  218.825;    0.000
323.099; 3237.350;  232.825;    0.000
323.159; 3380.350;  216.825;    0.000
323.219; 3238.350;  169.825;    0.000
323.279; 3227.350;  236.825;    0.000
323.339; 3218.350;  243.825;    0.000
323.399; 3352.350;  208.825;    0.000
323.459; 3351.350;  220.825;    0.000
323.519; 3360.350;  228.825;    0.000
323.579; 3217.350;  164.825;    0.000
323.639; 3314.350;  209.825;    0.000
323.699; 3263.350;  188.825;    0.000
323.759; 3243.350;  206.825;    0.000
323.819; 3317.350;  204.825;    0.000
323.879; 3352.350;  222.825;    0.000
323.939; 3262.350;  206.825;    0.000
323.999; 3259.350;  202.825;    0.000
324.059; 3185.350;  245.825;    0.000
324.119; 3298.350;  214.825;    0.000
324.178; 3143.350;  183.825;    0.000
324.238; 3178.350;  193.825;    0.000
324.298; 3265.350;  207.825;    0.000
324.358; 3250.350;  196.825;    0.000
324.418; 3258.350;  193.825;    0.000
324.478; 3233.350;  191.825;    0.000
324.538; 3314.350;  224.825;    0.000
324.597; 3216.350;  187.825;    0.000
324.657; 3284.350;  208.825;    0.000
324.717; 3188.350;  198.825;    0.000
324.777; 3214.350;  159.825;    0.000
324.837; 3168.350;  180.825;    0.000
324.896; 3187.350;  215.825;    0.000
324.956; 3151.350;  210.825;    0.000
325.016; 3309.350;  187.825;    0.000
325.076; 3360.350;  197.825;    0.000
325.135; 3305.350;  226.825;    0.000
325.195; 3293.350;  201.825;    0.000
325.255; 3263.350;  167.825;    0.000
325.315; 3320.350;  217.825;    0.000
325.374; 3307.350;  196.825;    0.000
325.434; 3250.350;  167.825;    0.000
325.494; 3258.350;  214.825;    0.000
325.553; 3273.350;  203.825;    0.000
325.613; 3361.350;  206.825;    0.000
325.673; 3175.350;  148.825;    0.000
325.732; 3278.350;  207.825;    0.000
325.792; 3214.350;  151.825;    0.000
325.852; 3230.350;  195.825;    0.000
325.911; 3316.350;  201.825;    0.000
325.971; 3303.350;  224.825;    0.000
326.031; 3240.350;  201.825;    0.000
326.090; 3240.350;  203.825;    0.000
326.150; 3290.350;  183.825;    0.000
326.209; 3289.350;  226.825;    0.000
326.269; 3223.350;  194.825;    0.000
326.328; 3351.350;  200.825;    0.000
326.388; 3353.350;  177.825;    0.000
326.448; 3284.350;  239.825;    0.000
326.507; 3218.350;  197.825;    0.000
326.567; 3169.350;  161.825;    0.000
326.626; 3235.350;  220.825;    0.000
326.686; 3116.350;  178.825;    0.000
326.745; 3127.350;  167.825;    0.000
326.805; 3212.350;  176.825;    0.000
326.864; 3172.350;  204.825;    0.000
326.924; 3189.350;  218.825;    0.000
326.983; 3123.350;  201.825;    0.000
327.043; 3133.350;  219.825;    0.000
327.102; 3161.350;  202.825;    0.000
327.161; 3167.350;  228.825;    0.000
327.221; 3168.350;  217.825;    0.000
327.280; 3163.350;  188.825;    0.000
327.340; 3088.350;  209.825;    0.000
327.399; 3094.350;  189.825;    0.000
327.459; 3047.350;  216.825;    0.000
327.518; 3127.350;  200.825;    0.000
327.577; 3061.350;  194.825;    0.000
327.637; 3123.350;  180.825;    0.000
327.696; 3042.350;  208.825;    0.000
327.755; 3113.350;  218.825;    0.000
327.815; 3155.350;  234.825;    0.000
327.874; 3094.350;  259.825;    0.000
327.933; 3113.350;  192.825;    0.000
327.993; 3060.350;  208.825;    0.000
328.052; 3040.350;  221.825;    0.000
328.111; 3121.350;  203.825;    0.000
328.171; 3118.350;  221.825;    0.000
328.230; 3060.350;  222.825;    0.000
328.289; 3077.350;  254.825;    0.000
328.349; 2963.350;  232.825;    0.000
328.408; 3074.350;  223.825;    0.000
328.467; 3086.350;  198.825;    0.000
328.526; 3027.350;  217.825;    0.000
328.586; 3088.350;  185.825;    0.000
328.645; 3069.350;  210.825;    0.000
328.704; 3020.350;  211.825;    0.000
328.763; 3014.350;  231.825;    0.000
328.822; 2933.350;  254.825;    0.000
328.882; 3045.350;  216.825;    0.000
328.941; 3086.350;  239.825;    0.000
329.000; 3127.350;  251.825;    0.000
329.059; 3098.350;  227.825;    0.000
329.118; 3086.350;  233.825;    0.000
329.177; 3026.350;  188.825;    0.000
329.237; 2970.350;  257.825;    0.000
329.296; 3077.350;  265.825;    0.000
329.355; 3080.350;  245.825;    0.000
329.414; 3086.350;  236.825;    0.000
329.473; 3048.350;  242.825;    0.000
329.532; 3142.350;  228.825;    0.000
329.591; 3146.350;  206.825;    0.000
329.650; 3087.350;  250.825;    0.000
329.709; 3044.350;  278.825;    0.000
329.768; 3025.350;  219.825;    0.000
329.827; 2962.350;  254.825;    0.000
329.886; 2996.350;  221.825;    0.000
329.945; 3037.350;  239.825;    0.000
330.004; 3065.350;  245.825;    0.000
330.063; 3004.350;  201.825;    0.000
330.122; 3022.350;  227.825;    0.000
330.181; 3167.350;  196.825;    0.000
330.240; 3182.350;  203.825;    0.000
330.299; 3084.350;  214.825;    0.000
330.358; 2961.350;  196.825;    0.000
330.417; 3042.350;  201.825;    0.000
330.476; 3031.350;  248.825;    0.000
330.535; 3058.350;  253.825;    0.000
330.594; 2981.350;  231.825;    0.000
330.653; 2992.350;  210.825;    0.000
330.712; 3050.350;  242.825;    0.000
330.771; 2915.350;  240.825;    0.000
330.830; 2964.350;  230.825;    0.000
330.889; 2858.350;  217.825;    0.000
330.948; 2925.350;  211.825;    0.000
331.006; 3000.350;  217.825;    0.000
331.065; 2929.350;  170.825;    0.000
331.124; 3047.350;  211.825;    0.000
331.183; 2930.350;  192.825;    0.000
331.242; 2930.350;  227.825;    0.000
331.301; 3005.350;  240.825;    0.000
331.359; 3010.350;  223.825;    0.000
331.418; 2965.350;  215.825;    0.000
331.477; 2988.350;  230.825;    0.000
331.536; 2944.350;  221.825;    0.000
331.595; 3028.350;  198.825;    0.000
331.653; 2956.350;  207.825;    0.000
331.712; 2958.350;  217.825;    0.000
331.771; 2837.350;  221.825;    0.000
331.830; 3001.350;  222.825;    0.000
331.888; 2957.350;  213.825;    0.000
331.947; 3053.350;  233.825;    0.000
332.006; 2970.350;  212.825;    0.000
332.065; 2984.350;  200.825;    0.000
332.123; 2962.350;  223.825;    0.000
332.182; 2982.350;  180.825;    0.000
332.241; 3044.350;  192.825;    0.000
332.299; 3050.350;  172.825;    0.000
332.358; 3049.350;  216.825;    0.000
332.417; 3028.350;  211.825;    0.000
332.475; 3080.350;  222.825;    0.000
332.534; 3073.350;  238.825;    0.000
332.592; 2972.350;  216.825;    0.000
332.651; 2990.350;  196.825;    0.000
332.710; 3045.350;  215.825;    0.000
332.768; 3027.350;  193.825;    0.000
332.827; 3072.350;  201.825;    0.000
332.885; 3139.350;  226.825;    0.000
332.944; 3214.350;  174.825;    0.000
333.003; 3188.350;  187.825;    0.000
333.061; 3087.350;  208.825;    0.000
333.120; 3227.350;  202.825;    0.000
333.178; 3233.350;  227.825;    0.000
333.237; 3310.350;  215.825;    0.000
333.295; 3257.350;  245.825;    0.000
333.354; 3223.350;  194.825;    0.000
333.412; 3181.350;  165.825;    0.000
333.471; 3250.350;  219.825;    0.000
333.529; 3274.350;  255.825;    0.000
333.588; 3342.350;  264.825;    0.000
333.646; 3413.350;  231.825;    0.000
333.705; 3422.350;  232.825;    0.000
333.763; 3380.350;  233.825;    0.000
333.822; 3318.350;  221.825;    0.000
333.880; 3162.350;  180.825;    0.000
333.938; 3208.350;  229.825;    0.000
333.997; 3222.350;  194.825;    0.000
334.055; 3253.350;  230.825;    0.000
334.114; 3236.350;  230.825;    0.000
334.172; 3252.350;  170.825;    0.000
334.230; 3219.350;  192.825;    0.000
334.289; 3202.350;  225.825;    0.000
334.347; 3222.350;  233.825;    0.000
334.405; 3195.350;  207.825;    0.000
334.464; 3179.350;  175.825;    0.000
334.522; 3091.350;  180.825;    0.000
334.580; 3100.350;  172.825;    0.000
334.639; 3128.350;  230.825;    0.000
334.697; 3213.350;  217.825;    0.000
334.755; 3137.350;  217.825;    0.000
334.814; 3159.350;  210.825;    0.000
334.872; 3261.350;  170.825;    0.000
334.930; 3165.350;  167.825;    0.000
334.988; 3134.350;  244.825;    0.000
335.047; 3128.350;  202.825;    0.000
335.105; 3109.350;  181.825;    0.000
335.163; 3138.350;  195.825;    0.000
335.221; 3182.350;  203.825;    0.000
335.280; 3258.350;  216.825;    0.000
335.338; 3149.350;  197.825;    0.000
335.396; 3166.350;  232.825;    0.000
335.454; 3148.350;  211.825;    0.000
335.512; 3152.350;  221.825;    0.000
335.570; 3092.350;  216.825;    0.000
335.629; 3136.350;  244.825;    0.000
335.687; 3090.350;  244.825;    0.000
335.745; 3187.350;  189.825;    0.000
335.803; 3131.350;  198.825;    0.000
335.861; 3109.350;  236.825;    0.000
335.919; 3129.350;  234.825;    0.000
335.977; 3128.350;  214.825;    0.000
336.035; 3147.350;  242.825;    0.000
336.094; 3209.350;  219.825;    0.000
336.152; 3130.350;  196.825;    0.000
336.210; 3202.350;  221.825;    0.000
336.268; 3155.350;  257.825;    0.000
336.326; 3095.350;  211.825;    0.000
336.384; 3086.350;  217.825;    0.000
336.442; 2986.350;  176.825;    0.000
336.500; 3108.350;  242.825;    0.000
336.558; 3049.350;  238.825;    0.000
336.616; 3181.350;  261.825;    0.000
336.674; 3054.350;  200.825;    0.000
336.732; 3116.350;  208.825;    0.000
336.790; 3163.350;  183.825;    0.000
336.848; 3168.350;  199.825;    0.000
336.906; 3178.350;  240.825;    0.000
336.964; 3044.350;  234.825;    0.000
337.022; 2997.350;  282.825;    0.000
337.080; 2977.350;  265.825;    0.000
337.138; 3021.350;  255.825;    0.000
337.195; 3108.350;  200.825;    0.000
337.253; 2989.350;  199.825;    0.000
337.311; 3040.350;  233.825;    0.000
337.369; 2970.350;  250.825;    0.000
337.427; 2932.350;  201.825;    0.000
337.485; 3091.350;  228.825;    0.000
337.543; 2920.350;  221.825;    0.000
337.601; 2971.350;  232.825;    0.000
337.658; 2974.350;  215.825;    0.000
337.716; 2983.350;  198.825;    0.000
337.774; 2973.350;  262.825;    0.000
337.832; 2977.350;  220.825;    0.000
337.890; 2941.350;  194.825;    0.000
337.947; 2988.350;  205.825;    0.000
338.005; 2983.350;  229.825;    0.000
338.063; 2940.350;  237.825;    0.000
338.121; 3016.350;  220.825;    0.000
338.178; 2876.350;  227.825;    0.000
338.236; 2917.350;  238.825;    0.000
338.294; 3003.350;  242.825;    0.000
338.352; 3029.350;  230.825;    0.000
338.409; 2971.350;  222.825;    0.000
338.467; 2955.350;  233.825;    0.000
338.525; 2930.350;  253.825;    0.000
338.583; 2895.350;  221.825;    0.000
338.640; 2852.350;  225.825;    0.000
338.698; 2843.350;  229.825;    0.000
338.756; 2881.350;  238.825;    0.000
338.813; 2992.350;  260.825;    0.000
338.871; 2965.350;  246.825;    0.000
338.928; 2955.350;  240.825;    0.000
338.986; 2937.350;  228.825;    0.000
339.044; 3008.350;  265.825;    0.000
339.101; 2833.350;  224.825;    0.000
339.159; 2928.350;  235.825;    0.000
339.216; 2907.350;  244.825;    0.000
339.274; 2920.350;  266.825;    0.000
339.332; 2891.350;  248.825;    0.000
339.389; 3030.350;  246.825;    0.000
339.447; 2897.350;  237.825;    0.000
339.504; 2803.350;  244.825;    0.000
339.562; 2817.350;  249.825;    0.000
339.619; 2839.350;  266.825;    0.000
339.677; 2844.350;  263.825;    0.000
339.734; 2838.350;  216.825;    0.000
339.792; 2921.350;  276.825;    0.000
339.849; 2862.350;  240.825;    0.000
339.907; 2909.350;  275.825;    0.000
339.964; 2835.350;  243.825;    0.000
340.022; 2988.350;  224.825;    0.000
340.079; 2862.350;  230.825;    0.000
340.137; 2884.350;  232.825;    0.000
340.194; 2912.350;  261.825;    0.000
340.252; 2955.350;  219.825;    0.000
340.309; 2935.350;  212.825;    0.000
340.366; 2896.350;  231.825;    0.000
340.424; 2843.350;  244.825;    0.000
340.481; 2977.350;  238.825;    0.000
340.538; 2847.350;  217.825;    0.000
340.596; 2861.350;  224.825;    0.000
340.653; 2847.350;  225.825;    0.000
340.711; 2951.350;  276.825;    0.000
340.768; 2978.350;  239.825;    0.000
340.825; 2881.350;  216.825;    0.000
340.883; 2948.350;  264.825;    0.000
340.940; 2845.350;  256.825;    0.000
340.997; 2957.350;  230.825;    0.000
341.054; 2852.350;  229.825;    0.000
341.112; 2968.350;  220.825;    0.000
341.169; 2973.350;  276.825;    0.000
341.226; 2924.350;  224.825;    0.000
341.284; 2916.350;  235.825;    0.000
341.341; 2941.350;  226.825;    0.000
341.398; 2869.350;  200.825;    0.000
341.455; 3002.350;  242.825;    0.000
341.512; 2927.350;  226.825;    0.000
341.570; 2841.350;  299.825;    0.000
341.627; 2918.350;  221.825;    0.000
341.684; 2878.350;  204.825;    0.000
341.741; 2960.350;  285.825;    0.000
341.798; 2961.350;  237.825;    0.000
341.856; 2860.350;  223.825;    0.000
341.913; 2948.350;  232.825;    0.000
341.970; 2814.350;  250.825;    0.000
342.027; 2893.350;  272.825;    0.000
342.084; 2956.350;  242.825;    0.000
342.141; 2853.350;  207.825;    0.000
342.198; 2945.350;  252.825;    0.000
342.255; 2922.350;  189.825;    0.000
342.313; 2926.350;  222.825;    0.000
342.370; 2875.350;  203.825;    0.000
342.427; 2974.350;  261.825;    0.000
342.484; 2946.350;  230.825;    0.000
342.541; 2790.350;  224.825;    0.000
342.598; 2938.350;  245.825;    0.000
342.655; 2915.350;  235.825;    0.000
342.712; 2928.350;  238.825;    0.000
342.769; 2880.350;  235.825;    0.000
342.826; 2986.350;  232.825;    0.000
342.883; 2862.350;  212.825;    0.000
342.940; 2871.350;  189.825;    0.000
342.997; 2967.350;  241.825;    0.000
343.054; 2977.350;  235.825;    0.000
343.111; 2984.350;  216.825;    0.000
343.168; 2982.350;  202.825;    0.000
343.225; 3117.350;  228.825;    0.000
343.282; 2979.350;  208.825;    0.000
343.339; 3034.350;  241.825;    0.000
343.395; 3157.350;  206.825;    0.000
343.452; 3058.350;  227.825;    0.000
343.509; 3080.350;  212.825;    0.000
343.566; 3117.350;  266.825;    0.000
343.623; 3136.350;  240.825;    0.000
343.680; 3234.350;  215.825;    0.000
343.737; 3238.350;  231.825;    0.000
343.794; 3307.350;  256.825;    0.000
343.850; 3330.350;  235.825;    0.000
343.907; 3311.350;  246.825;    0.000
343.964; 3276.350;  241.825;    0.000
344.021; 3376.350;  237.825;    0.000
344.078; 3247.350;  248.825;    0.000
344.134; 3256.350;  225.825;    0.000
344.191; 3313.350;  209.825;    0.000
344.248; 3247.350;  234.825;    0.000
344.305; 3357.350;  224.825;    0.000
344.361; 3145.350;  194.825;    0.000
344.418; 3243.350;  240.825;    0.000
344.475; 3134.350;  252.825;    0.000
344.532; 3249.350;  251.825;    0.000
344.588; 3166.350;  240.825;    0.000
344.645; 3114.350;  253.825;    0.000
344.702; 3163.350;  216.825;    0.000
344.758; 3188.350;  258.825;    0.000
344.815; 3082.350;  239.825;    0.000
344.872; 3020.350;  216.825;    0.000
344.928; 3124.350;  236.825;    0.000
344.985; 3177.350;  238.825;    0.000
345.042; 3125.350;  211.825;    0.000
345.098; 3122.350;  223.825;    0.000
345.155; 3083.350;  266.825;    0.000
345.212; 3117.350;  266.825;    0.000
345.268; 3188.350;  245.825;    0.000
345.325; 3134.350;  225.825;    0.000
345.381; 3106.350;  223.825;    0.000
345.438; 3171.350;  259.825;    0.000
345.495; 3162.350;  233.825;    0.000
345.551; 3163.350;  254.825;    0.000
345.608; 3034.350;  212.825;    0.000
345.664; 3150.350;  225.825;    0.000
345.721; 3137.350;  223.825;    0.000
345.777; 3098.350;  226.825;    0.000
345.834; 2971.350;  215.825;    0.000
345.890; 3034.350;  230.825;    0.000
345.947; 3040.350;  232.825;    0.000
346.003; 3092.350;  241.825;    0.000
346.060; 3014.350;  241.825;    0.000
346.116; 3181.350;  231.825;    0.000
346.173; 3130.350;  229.825;    0.000
346.229; 3113.350;  262.825;    0.000
346.285; 3119.350;  232.825;    0.000
346.342; 3136.350;  228.825;    0.000
346.398; 3084.350;  203.825;    0.000
346.455; 3110.350;  214.825;    0.000
346.511; 3128.350;  245.825;    0.000
346.567; 3179.350;  192.825;    0.000
346.624; 3097.350;  206.825;    0.000
346.680; 3153.350;  209.825;    0.000
346.737; 3142.350;  239.825;    0.000
346.793; 3179.350;  234.825;    0.000
346.849; 3139.350;  252.825;    0.000
346.906; 3122.350;  247.825;    0.000
346.962; 3136.350;  274.825;    0.000
347.018; 3138.350;  225.825;    0.000
347.074; 3271.350;  261.825;    0.000
347.131; 3105.350;  230.825;    0.000
347.187; 3052.350;  269.825;    0.000
347.243; 3097.350;  261.825;    0.000
347.300; 3126.350;  236.825;    0.000
347.356; 3167.350;  284.825;    0.000
347.412; 3196.350;  243.825;    0.000
347.468; 3145.350;  276.825;    0.000
347.524; 3192.350;  232.825;    0.000
347.581; 3168.350;  242.825;    0.000
347.637; 3171.350;  270.825;    0.000
347.693; 3211.350;  269.825;    0.000
347.749; 3126.350;  278.825;    0.000
347.805; 3041.350;  224.825;    0.000
347.862; 3149.350;  207.825;    0.000
347.918; 3171.350;  259.825;    0.000
347.974; 3183.350;  244.825;    0.000
348.030; 3076.350;  219.825;    0.000
348.086; 3164.350;  250.825;    0.000
348.142; 3158.350;  251.825;    0.000
348.198; 3249.350;  267.825;    0.000
348.254; 3255.350;  230.825;    0.000
348.311; 3231.350;  261.825;    0.000
348.367; 3223.350;  259.825;    0.000
348.423; 3120.350;  251.825;    0.000
348.479; 3260.350;  251.825;    0.000
348.535; 3137.350;  269.825;    0.000
348.591; 3193.350;  238.825;    0.000
348.647; 3227.350;  273.825;    0.000
348.703; 3205.350;  291.825;    0.000
348.759; 3209.350;  231.825;    0.000
348.815; 3198.350;  286.825;    0.000
348.871; 3212.350;  265.825;    0.000
348.927; 3113.350;  234.825;    0.000
348.983; 3284.350;  267.825;    0.000
349.039; 3264.350;  233.825;    0.000
349.095; 3204.350;  225.825;    0.000
349.151; 3103.350;  242.825;    0.000
349.207; 3252.350;  223.825;    0.000
349.263; 3219.350;  219.825;    0.000
349.319; 3229.350;  226.825;    0.000
349.374; 3251.350;  232.825;    0.000
349.430; 3235.350;  235.825;    0.000
349.486; 3305.350;  227.825;    0.000
349.542; 3287.350;  253.825;    0.000
349.598; 3232.350;  227.825;    0.000
349.654; 3269.350;  270.825;    0.000
349.710; 3229.350;  233.825;    0.000
349.766; 3200.350;  245.825;    0.000
349.821; 3111.350;  242.825;    0.000
349.877; 3201.350;  229.825;    0.000
349.933; 3214.350;  229.825;    0.000
349.989; 3274.350;  230.825;    0.000
350.045; 3219.350;  236.825;    0.000
350.100; 3219.350;  237.825;    0.000
350.156; 3274.350;  230.825;    0.000
350.212; 3220.350;  254.825;    0.000
350.268; 3250.350;  239.825;    0.000
350.323; 3307.350;  204.825;    0.000
350.379; 3261.350;  246.825;    0.000
350.435; 3202.350;  249.825;    0.000
350.491; 3033.350;  217.825;    0.000
350.546; 3300.350;  231.825;    0.000
350.602; 3169.350;  240.825;    0.000
350.658; 3274.350;  235.825;    0.000
350.713; 3146.350;  234.825;    0.000
350.769; 3218.350;  218.825;    0.000
350.825; 3305.350;  227.825;    0.000
350.880; 3250.350;  226.825;    0.000
350.936; 3328.350;  247.825;    0.000
350.992; 3190.350;  213.825;    0.000
351.047; 3224.350;  207.825;    0.000
351.103; 3302.350;  271.825;    0.000
351.158; 3228.350;  251.825;    0.000
351.214; 3235.350;  199.825;    0.000
351.270; 3196.350;  214.825;    0.000
351.325; 3159.350;  235.825;    0.000
351.381; 3294.350;  223.825;    0.000
351.436; 3221.350;  237.825;    0.000
351.492; 3271.350;  221.825;    0.000
351.547; 3379.350;  237.825;    0.000
351.603; 3299.350;  239.825;    0.000
351.658; 3342.350;  209.825;    0.000
351.714; 3248.350;  226.825;    0.000
351.769; 3179.350;  238.825;    0.000
351.825; 3377.350;  226.825;    0.000
351.880; 3245.350;  217.825;    0.000
351.936; 3300.350;  246.825;    0.000
351.991; 3301.350;  233.825;    0.000
352.047; 3233.350;  215.825;    0.000
352.102; 3242.350;  243.825;    0.000
352.158; 3240.350;  234.825;    0.000
352.213; 3205.350;  201.825;    0.000
352.268; 3196.350;  234.825;    0.000
352.324; 3152.350;  211.825;    0.000
352.379; 3216.350;  221.825;    0.000
352.434; 3221.350;  259.825;    0.000
352.490; 3224.350;  250.825;    0.000
352.545; 3185.350;  251.825;    0.000
352.601; 3287.350;  283.825;    0.000
352.656; 3343.350;  236.825;    0.000
352.711; 3266.350;  237.825;    0.000
352.767; 3287.350;  201.825;    0.000
352.822; 3312.350;  209.825;    0.000
352.877; 3247.350;  239.825;    0.000
352.932; 3373.350;  228.825;    0.000
352.988; 3278.350;  202.825;    0.000
353.043; 3305.350;  268.825;    0.000
353.098; 3223.350;  208.825;    0.000
353.153; 3193.350;  219.825;    0.000
353.209; 3210.350;  252.825;    0.000
353.264; 3230.350;  225.825;    0.000
353.319; 3256.350;  234.825;    0.000
353.374; 3163.350;  236.825;    0.000
353.430; 3210.350;  245.825;    0.000
353.485; 3288.350;  238.825;    0.000
353.540; 3322.350;  238.825;    0.000
353.595; 3355.350;  215.825;    0.000
353.650; 3259.350;  238.825;    0.000
353.705; 3314.350;  274.825;    0.000
353.761; 3227.350;  229.825;    0.000
353.816; 3244.350;  275.825;    0.000
353.871; 3293.350;  245.825;    0.000
353.926; 3265.350;  253.825;    0.000
353.981; 3286.350;  269.825;    0.000
354.036; 3405.350;  246.825;    0.000
354.091; 3303.350;  257.825;    0.000
354.146; 3356.350;  278.825;    0.000
354.201; 3252.350;  276.825;    0.000
354.256; 3312.350;  224.825;    0.000
354.311; 3364.350;  287.825;    0.000
354.367; 3373.350;  210.825;    0.000
354.422; 3205.350;  231.825;    0.000
354.477; 3287.350;  226.825;    0.000
354.532; 3303.350;  262.825;    0.000
354.587; 3363.350;  275.825;    0.000
354.642; 3314.350;  247.825;    0.000
354.697; 3222.350;  251.825;    0.000
354.751; 3319.350;  249.825;    0.000
354.806; 3307.350;  217.825;    0.000
354.861; 3369.350;  247.825;    0.000
354.916; 3378.350;  259.825;    0.000
354.971; 3334.350;  241.825;    0.000
355.026; 3305.350;  250.825;    0.000
355.081; 3353.350;  244.825;    0.000
355.136; 3276.350;  203.825;    0.000
355.191; 3420.350;  241.825;    0.000
355.246; 3406.350;  248.825;    0.000
355.301; 3400.350;  259.825;    0.000
355.355; 3372.350;  236.825;    0.000
355.410; 3435.350;  221.825;    0.000
355.465; 3337.350;  206.825;    0.000
355.520; 3366.350;  258.825;    0.000
355.575; 3347.350;  273.825;    0.000
355.630; 3303.350;  252.825;    0.000
355.684; 3365.350;  246.825;    0.000
355.739; 3320.350;  251.825;    0.000
355.794; 3324.350;  247.825;    0.000
355.849; 3251.350;  246.825;    0.000
355.904; 3391.350;  262.825;    0.000
355.958; 3302.350;  249.825;    0.000
356.013; 3299.350;  213.825;    0.000
356.068; 3297.350;  255.825;    0.000
356.123; 3427.350;  205.825;    0.000
356.177; 3419.350;  239.825;    0.000
356.232; 3414.350;  258.825;    0.000
356.287; 3317.350;  248.825;    0.000
356.341; 3256.350;  221.825;    0.000
356.396; 3359.350;  220.825;    0.000
356.451; 3465.350;  231.825;    0.000
356.505; 3410.350;  231.825;    0.000
356.560; 3386.350;  254.825;    0.000
356.615; 3411.350;  234.825;    0.000
356.669; 3439.350;  250.825;    0.000
356.724; 3500.350;  261.825;    0.000
356.778; 3342.350;  207.825;    0.000
356.833; 3376.350;  205.825;    0.000
356.888; 3357.350;  235.825;    0.000
356.942; 3481.350;  205.825;    0.000
356.997; 3393.350;  276.825;    0.000
357.051; 3384.350;  243.825;    0.000
357.106; 3409.350;  242.825;    0.000
357.160; 3348.350;  241.825;    0.000
357.215; 3290.350;  212.825;    0.000
357.269; 3404.350;  238.825;    0.000
357.324; 3355.350;  223.825;    0.000
357.378; 3374.350;  221.825;    0.000
357.433; 3313.350;  262.825;    0.000
357.487; 3384.350;  246.825;    0.000
357.542; 3401.350;  221.825;    0.000
357.596; 3463.350;  225.825;    0.000
357.651; 3366.350;  244.825;    0.000
357.705; 3248.350;  269.825;    0.000
357.760; 3403.350;  209.825;    0.000
357.814; 3528.350;  250.825;    0.000
357.868; 3587.350;  266.825;    0.000
357.923; 3380.350;  248.825;    0.000
357.977; 3311.350;  262.825;    0.000
358.032; 3377.350;  228.825;    0.000
358.086; 3471.350;  257.825;    0.000
358.140; 3401.350;  217.825;    0.000
358.195; 3335.350;  246.825;    0.000
358.249; 3319.350;  255.825;    0.000
358.303; 3326.350;  252.825;    0.000
358.358; 3443.350;  278.825;    0.000
358.412; 3432.350;  276.825;    0.000
358.466; 3347.350;  275.825;    0.000
358.521; 3385.350;  229.825;    0.000
358.575; 3382.350;  270.825;    0.000
358.629; 3475.350;  239.825;    0.000
358.683; 3389.350;  254.825;    0.000
358.738; 3309.350;  239.825;    0.000
358.792; 3308.350;  272.825;    0.000
358.846; 3408.350;  289.825;    0.000
358.900; 3395.350;  299.825;    0.000
358.954; 3298.350;  247.825;    0.000
359.009; 3256.350;  245.825;    0.000
359.063; 3213.350;  272.825;    0.000
359.117; 3369.350;  242.825;    0.000
359.171; 3349.350;  279.825;    0.000
359.225; 3332.350;  221.825;    0.000
359.280; 3361.350;  238.825;    0.000
359.334; 3452.350;  264.825;    0.000
359.388; 3420.350;  273.825;    0.000
359.442; 3418.350;  233.825;    0.000
359.496; 3353.350;  226.825;    0.000
359.550; 3390.350;  271.825;    0.000
359.604; 3313.350;  296.825;    0.000
359.658; 3291.350;  252.825;    0.000
359.712; 3344.350;  256.825;    0.000
359.766; 3280.350;  257.825;    0.000
359.820; 3254.350;  239.825;    0.000
359.875; 3326.350;  252.825;    0.000
359.929; 3361.350;  258.825;    0.000
359.983; 3313.350;  232.825;    0.000
360.037; 3259.350;  268.825;    0.000
360.091; 3328.350;  303.825;    0.000
360.145; 3340.350;  232.825;    0.000
360.199; 3262.350;  255.825;    0.000
360.253; 3356.350;  252.825;    0.000
360.306; 3277.350;  278.825;    0.000
360.360; 3307.350;  249.825;    0.000
360.414; 3303.350;  274.825;    0.000
360.468; 3394.350;  247.825;    0.000
360.522; 3411.350;  268.825;    0.000
360.576; 3494.350;  263.825;    0.000
360.630; 3393.350;  296.825;    0.000
360.684; 3359.350;  253.825;    0.000
360.738; 3312.350;  301.825;    0.000
360.792; 3405.350;  282.825;    0.000
360.846; 3428.350;  277.825;    0.000
360.899; 3444.350;  292.825;    0.000
360.953; 3343.350;  266.825;    0.000
361.007; 3439.350;  240.825;    0.000
361.061; 3324.350;  247.825;    0.000
361.115; 3343.350;  276.825;    0.000
361.168; 3341.350;  288.825;    0.000
361.222; 3327.350;  271.825;    0.000
361.276; 3291.350;  270.825;    0.000
361.330; 3295.350;  295.825;    0.000
361.384; 3251.350;  276.825;    0.000
361.437; 3306.350;  280.825;    0.000
361.491; 3271.350;  261.825;    0.000
361.545; 3271.350;  273.825;    0.000
361.599; 3337.350;  269.825;    0.000
361.652; 3365.350;  258.825;    0.000
361.706; 3354.350;  270.825;    0.000
361.760; 3379.350;  294.825;    0.000
361.813; 3345.350;  244.825;    0.000
361.867; 3354.350;  294.825;    0.000
361.921; 3336.350;  285.825;    0.000
361.974; 3262.350;  269.825;    0.000
362.028; 3261.350;  275.825;    0.000
362.082; 3398.350;  270.825;    0.000
362.135; 3360.350;  259.825;    0.000
362.189; 3229.350;  302.825;    0.000
362.242; 3426.350;  296.825;    0.000
362.296; 3282.350;  285.825;    0.000
362.350; 3264.350;  303.825;    0.000
362.403; 3317.350;  271.825;    0.000
362.457; 3294.350;  285.825;    0.000
362.510; 3372.350;  288.825;    0.000
362.564; 3214.350;  268.825;    0.000
362.617; 3291.350;  285.825;    0.000
362.671; 3294.350;  277.825;    0.000
362.724; 3190.350;  242.825;    0.000
362.778; 3269.350;  274.825;    0.000
362.831; 3224.350;  280.825;    0.000
362.885; 3219.350;  284.825;    0.000
362.938; 3172.350;  276.825;    0.000
362.992;  350.350;  289.825;    0.000
363.045;  274.350;  247.825;    0.000
363.099;  277.350;  260.825;    0.000
363.152;  281.350;  258.825;    0.000
363.205;  249.350;  286.825;    0.000
363.259;  264.350;  236.825;    0.000
363.312;  272.350;  297.825;    0.000
363.366;  274.350;  266.825;    0.000
363.419;  302.350;  309.825;    0.000
363.472;  296.350;  293.825;    0.000
363.526;  287.350;  270.825;    0.000
363.579;  285.350;  276.825;    0.000
363.632;  282.350;  279.825;    0.000
363.686;  254.350;  292.825;    0.000
363.739;  285.350;  248.825;    0.000
363.792;  283.350;  287.825;    0.000

