
Integration time [ms]:   1.000
Averaging Nr. [scans]: 1
Smoothing Nr. [pixels]: 0
Data measured with spectrometer [name]: UV1
Wave   ;Sample   ;Dark     ;Reference
[nm]   ;[counts] ;[counts] ;[counts] 

236.381;  187.425;  175.825;    0.000
236.451;  192.425;  220.825;    0.000
236.520;  183.425;  178.825;    0.000
236.590;  230.425;  182.825;    0.000
236.660;  175.425;  180.825;    0.000
236.730;  216.425;  201.825;    0.000
236.799;  192.425;  168.825;    0.000
236.869;  124.425;  205.825;    0.000
236.939;  209.425;  175.825;    0.000
237.009;  200.425;  186.825;    0.000
237.078;  180.425;  200.825;    0.000
237.148;  180.425;  156.825;    0.000
237.218;  188.425;  190.825;    0.000
237.287;  191.425;  167.825;    0.000
237.357;  206.425;  213.825;    0.000
237.427;  176.425;  164.825;    0.000
237.496; 1052.425;  210.825;    0.000
237.566;  956.425;  193.825;    0.000
237.636;  980.425;  179.825;    0.000
237.705; 1009.425;  218.825;    0.000
237.775; 1022.425;  160.825;    0.000
237.845;  962.425;  207.825;    0.000
237.914;  978.425;  180.825;    0.000
237.984; 1048.425;  207.825;    0.000
238.054;  961.425;  149.825;    0.000
238.123; 1045.425;  190.825;    0.000
238.193; 1015.425;  167.825;    0.000
238.263;  975.425;  172.825;    0.000
238.332; 1030.425;  173.825;    0.000
238.402;  995.425;  214.825;    0.000
238.471;  973.425;  181.825;    0.000
238.541;  940.425;  177.825;    0.000
238.611;  908.425;  138.825;    0.000
238.680; 1013.425;  168.825;    0.000
238.750;  988.425;  171.825;    0.000
238.819; 1007.425;  156.825;    0.000
238.889;  994.425;  194.825;    0.000
238.958;  984.425;  185.825;    0.000
239.028;  991.425;  170.825;    0.000
239.097;  970.425;  159.825;    0.000
239.167; 1024.425;  208.825;    0.000
239.237;  961.425;  167.825;    0.000
239.306;  966.425;  154.825;    0.000
239.376; 1002.425;  183.825;    0.000
239.445;  999.425;  221.825;    0.000
239.515; 1026.425;  208.825;    0.000
239.584;  995.425;  177.825;    0.000
239.654;  955.425;  133.825;    0.000
239.723;  971.425;  167.825;    0.000
239.793;  962.425;  190.825;    0.000
239.862; 1039.425;  192.825;    0.000
239.932;  976.425;  174.825;    0.000
240.001;  950.425;  166.825;    0.000
240.070; 1030.425;  179.825;    0.000
240.140; 1023.425;  191.825;    0.000
240.209;  928.425;  134.825;    0.000
240.279;  936.425;  185.825;    0.000
240.348;  959.425;  193.825;    0.000
240.418; 1003.425;  149.825;    0.000
240.487;  960.425;  197.825;    0.000
240.556;  964.425;  193.825;    0.000
240.626; 1020.425;  178.825;    0.000
240.695;  968.425;  194.825;    0.000
240.765;  974.425;  178.825;    0.000
240.834;  908.425;  190.825;    0.000
240.903;  970.425;  212.825;    0.000
240.973;  934.425;  153.825;    0.000
241.042; 1008.425;  177.825;    0.000
241.112;  953.425;  193.825;    0.000
241.181;  988.425;  171.825;    0.000
241.250;  949.425;  152.825;    0.000
241.320;  989.425;  176.825;    0.000
241.389;  928.425;  186.825;    0.000
241.458;  983.425;  182.825;    0.000
241.528;  940.425;  175.825;    0.000
241.597;  929.425;  180.825;    0.000
241.666;  967.425;  162.825;    0.000
241.736;  994.425;  187.825;    0.000
241.805;  930.425;  173.825;    0.000
241.874;  908.425;  177.825;    0.000
241.943;  967.425;  208.825;    0.000
242.013;  964.425;  183.825;    0.000
242.082;  951.425;  171.825;    0.000
242.151;  963.425;  208.825;    0.000
242.221;  952.425;  160.825;    0.000
242.290;  934.425;  200.825;    0.000
242.359;  888.425;  167.825;    0.000
242.428;  998.425;  213.825;    0.000
242.498;  924.425;  156.825;    0.000
242.567;  904.425;  200.825;    0.000
242.636;  919.425;  178.825;    0.000
242.705;  922.425;  185.825;    0.000
242.774;  993.425;  190.825;    0.000
242.844;  936.425;  194.825;    0.000
242.913;  928.425;  162.825;    0.000
242.982;  930.425;  189.825;    0.000
243.051;  897.425;  176.825;    0.000
243.120;  989.425;  213.825;    0.000
243.190;  888.425;  155.825;    0.000
243.259;  942.425;  183.825;    0.000
243.328;  939.425;  170.825;    0.000
243.397;  927.425;  224.825;    0.000
243.466;  909.425;  172.825;    0.000
243.535;  890.425;  145.825;    0.000
243.605;  931.425;  157.825;    0.000
243.674;  964.425;  199.825;    0.000
243.743;  928.425;  196.825;    0.000
243.812;  909.425;  152.825;    0.000
243.881;  907.425;  188.825;    0.000
243.950;  970.425;  154.825;    0.000
244.019;  950.425;  195.825;    0.000
244.088;  956.425;  164.825;    0.000
244.158;  985.425;  220.825;    0.000
244.227;  910.425;  150.825;    0.000
244.296;  885.425;  153.825;    0.000
244.365;  895.425;  195.825;    0.000
244.434;  878.425;  136.825;    0.000
244.503;  883.425;  172.825;    0.000
244.572;  889.425;  129.825;    0.000
244.641;  905.425;  132.825;    0.000
244.710;  910.425;  185.825;    0.000
244.779;  931.425;  164.825;    0.000
244.848;  886.425;  132.825;    0.000
244.917;  819.425;  196.825;    0.000
244.986;  899.425;  148.825;    0.000
245.055;  881.425;  192.825;    0.000
245.124;  884.425;  170.825;    0.000
245.193;  913.425;  172.825;    0.000
245.262;  850.425;  146.825;    0.000
245.331;  942.425;  178.825;    0.000
245.400;  827.425;  108.825;    0.000
245.469;  898.425;  173.825;    0.000
245.538;  843.425;  180.825;    0.000
245.607;  863.425;  171.825;    0.000
245.676;  851.425;  149.825;    0.000
245.745;  824.425;  194.825;    0.000
245.814;  825.425;  186.825;    0.000
245.883;  846.425;  192.825;    0.000
245.952;  812.425;  169.825;    0.000
246.021;  822.425;  190.825;    0.000
246.090;  802.425;  181.825;    0.000
246.159;  799.425;  179.825;    0.000
246.227;  809.425;  182.825;    0.000
246.296;  846.425;  182.825;    0.000
246.365;  815.425;  171.825;    0.000
246.434;  829.425;  218.825;    0.000
246.503;  788.425;  147.825;    0.000
246.572;  811.425;  227.825;    0.000
246.641;  823.425;  193.825;    0.000
246.710;  806.425;  207.825;    0.000
246.779;  799.425;  181.825;    0.000
246.847;  778.425;  179.825;    0.000
246.916;  770.425;  155.825;    0.000
246.985;  772.425;  168.825;    0.000
247.054;  797.425;  137.825;    0.000
247.123;  756.425;  128.825;    0.000
247.192;  781.425;  163.825;    0.000
247.260;  799.425;  173.825;    0.000
247.329;  786.425;  174.825;    0.000
247.398;  789.425;  238.825;    0.000
247.467;  760.425;  168.825;    0.000
247.536;  791.425;  203.825;    0.000
247.604;  792.425;  194.825;    0.000
247.673;  775.425;  145.825;    0.000
247.742;  791.425;  167.825;    0.000
247.811;  796.425;  180.825;    0.000
247.879;  796.425;  187.825;    0.000
247.948;  764.425;  187.825;    0.000
248.017;  798.425;  170.825;    0.000
248.086;  868.425;  223.825;    0.000
248.154;  770.425;  160.825;    0.000
248.223;  786.425;  163.825;    0.000
248.292;  816.425;  201.825;    0.000
248.361;  789.425;  205.825;    0.000
248.429;  776.425;  191.825;    0.000
248.498;  743.425;  194.825;    0.000
248.567;  787.425;  217.825;    0.000
248.635;  770.425;  224.825;    0.000
248.704;  765.425;  204.825;    0.000
248.773;  758.425;  175.825;    0.000
248.841;  754.425;  157.825;    0.000
248.910;  744.425;  206.825;    0.000
248.979;  755.425;  170.825;    0.000
249.047;  717.425;  178.825;    0.000
249.116;  761.425;  183.825;    0.000
249.185;  767.425;  202.825;    0.000
249.253;  780.425;  159.825;    0.000
249.322;  688.425;  177.825;    0.000
249.390;  703.425;  157.825;    0.000
249.459;  795.425;  211.825;    0.000
249.528;  786.425;  181.825;    0.000
249.596;  724.425;  179.825;    0.000
249.665;  734.425;  176.825;    0.000
249.733;  780.425;  186.825;    0.000
249.802;  780.425;  185.825;    0.000
249.871;  739.425;  166.825;    0.000
249.939;  710.425;  163.825;    0.000
250.008;  771.425;  212.825;    0.000
250.076;  802.425;  227.825;    0.000
250.145;  806.425;  172.825;    0.000
250.213;  698.425;  173.825;    0.000
250.282;  733.425;  189.825;    0.000
250.350;  684.425;  166.825;    0.000
250.419;  721.425;  161.825;    0.000
250.487;  793.425;  178.825;    0.000
250.556;  723.425;  208.825;    0.000
250.624;  721.425;  190.825;    0.000
250.693;  744.425;  163.825;    0.000
250.761;  745.425;  194.825;    0.000
250.830;  789.425;  225.825;    0.000
250.898;  760.425;  140.825;    0.000
250.967;  755.425;  167.825;    0.000
251.035;  662.425;  155.825;    0.000
251.104;  703.425;  189.825;    0.000
251.172;  701.425;  136.825;    0.000
251.241;  710.425;  148.825;    0.000
251.309;  696.425;  201.825;    0.000
251.378;  741.425;  169.825;    0.000
251.446;  666.425;  178.825;    0.000
251.514;  743.425;  206.825;    0.000
251.583;  721.425;  178.825;    0.000
251.651;  704.425;  168.825;    0.000
251.720;  721.425;  190.825;    0.000
251.788;  719.425;  209.825;    0.000
251.856;  658.425;  173.825;    0.000
251.925;  643.425;  171.825;    0.000
251.993;  724.425;  188.825;    0.000
252.062;  727.425;  169.825;    0.000
252.130;  732.425;  196.825;    0.000
252.198;  681.425;  210.825;    0.000
252.267;  714.425;  181.825;    0.000
252.335;  696.425;  164.825;    0.000
252.403;  692.425;  152.825;    0.000
252.472;  642.425;  166.825;    0.000
252.540;  667.425;  189.825;    0.000
252.608;  667.425;  198.825;    0.000
252.677;  682.425;  156.825;    0.000
252.745;  684.425;  184.825;    0.000
252.813;  603.425;  163.825;    0.000
252.881;  620.425;  130.825;    0.000
252.950;  628.425;  189.825;    0.000
253.018;  627.425;  164.825;    0.000
253.086;  664.425;  172.825;    0.000
253.155;  646.425;  205.825;    0.000
253.223;  598.425;  175.825;    0.000
253.291;  586.425;  176.825;    0.000
253.359;  610.425;  182.825;    0.000
253.428;  658.425;  222.825;    0.000
253.496;  551.425;  166.825;    0.000
253.564;  561.425;  135.825;    0.000
253.632;  575.425;  184.825;    0.000
253.700;  621.425;  173.825;    0.000
253.769;  557.425;  163.825;    0.000
253.837;  548.425;  179.825;    0.000
253.905;  589.425;  157.825;    0.000
253.973;  596.425;  164.825;    0.000
254.041;  547.425;  170.825;    0.000
254.110;  579.425;  169.825;    0.000
254.178;  600.425;  165.825;    0.000
254.246;  571.425;  126.825;    0.000
254.314;  512.425;  166.825;    0.000
254.382;  558.425;  169.825;    0.000
254.450;  576.425;  170.825;    0.000
254.518;  564.425;  196.825;    0.000
254.587;  516.425;  161.825;    0.000
254.655;  570.425;  187.825;    0.000
254.723;  549.425;  144.825;    0.000
254.791;  566.425;  175.825;    0.000
254.859;  548.425;  168.825;    0.000
254.927;  560.425;  198.825;    0.000
254.995;  541.425;  165.825;    0.000
255.063;  611.425;  150.825;    0.000
255.131;  585.425;  181.825;    0.000
255.199;  598.425;  160.825;    0.000
255.267;  580.425;  131.825;    0.000
255.336;  599.425;  188.825;    0.000
255.404;  548.425;  163.825;    0.000
255.472;  577.425;  192.825;    0.000
255.540;  571.425;  158.825;    0.000
255.608;  562.425;  147.825;    0.000
255.676;  568.425;  166.825;    0.000
255.744;  616.425;  159.825;    0.000
255.812;  595.425;  164.825;    0.000
255.880;  626.425;  195.825;    0.000
255.948;  615.425;  167.825;    0.000
256.016;  632.425;  185.825;    0.000
256.084;  638.425;  191.825;    0.000
256.152;  626.425;  214.825;    0.000
256.220;  605.425;  195.825;    0.000
256.288;  634.425;  185.825;    0.000
256.356;  582.425;  168.825;    0.000
256.424;  613.425;  161.825;    0.000
256.491;  631.425;  161.825;    0.000
256.559;  591.425;  157.825;    0.000
256.627;  645.425;  164.825;    0.000
256.695;  591.425;  146.825;    0.000
256.763;  671.425;  194.825;    0.000
256.831;  698.425;  182.825;    0.000
256.899;  682.425;  192.825;    0.000
256.967;  661.425;  172.825;    0.000
257.035;  700.425;  169.825;    0.000
257.103;  714.425;  223.825;    0.000
257.171;  677.425;  141.825;    0.000
257.238;  631.425;  146.825;    0.000
257.306;  685.425;  180.825;    0.000
257.374;  730.425;  138.825;    0.000
257.442;  715.425;  135.825;    0.000
257.510;  751.425;  130.825;    0.000
257.578;  712.425;  123.825;    0.000
257.646;  749.425;  162.825;    0.000
257.713;  661.425;  149.825;    0.000
257.781;  712.425;  125.825;    0.000
257.849;  748.425;  149.825;    0.000
257.917;  768.425;  177.825;    0.000
257.985;  769.425;  143.825;    0.000
258.052;  765.425;  154.825;    0.000
258.120;  756.425;  162.825;    0.000
258.188;  816.425;  172.825;    0.000
258.256;  784.425;  160.825;    0.000
258.324;  831.425;  209.825;    0.000
258.391;  813.425;  153.825;    0.000
258.459;  834.425;  133.825;    0.000
258.527;  838.425;  160.825;    0.000
258.595;  832.425;  128.825;    0.000
258.662;  844.425;  114.825;    0.000
258.730;  887.425;  192.825;    0.000
258.798;  879.425;  144.825;    0.000
258.865;  895.425;  140.825;    0.000
258.933;  924.425;  150.825;    0.000
259.001;  922.425;  149.825;    0.000
259.069;  890.425;  110.825;    0.000
259.136;  930.425;  150.825;    0.000
259.204;  938.425;  156.825;    0.000
259.272;  952.425;  185.825;    0.000
259.339;  945.425;  148.825;    0.000
259.407;  941.425;  163.825;    0.000
259.475; 1017.425;  129.825;    0.000
259.542; 1017.425;  144.825;    0.000
259.610;  944.425;  164.825;    0.000
259.677; 1001.425;  188.825;    0.000
259.745; 1041.425;  113.825;    0.000
259.813; 1047.425;  188.825;    0.000
259.880; 1073.425;  174.825;    0.000
259.948; 1062.425;  166.825;    0.000
260.016; 1077.425;  150.825;    0.000
260.083; 1085.425;  178.825;    0.000
260.151; 1074.425;  120.825;    0.000
260.218; 1081.425;  175.825;    0.000
260.286; 1095.425;  155.825;    0.000
260.353; 1163.425;  165.825;    0.000
260.421; 1119.425;  169.825;    0.000
260.489; 1177.425;  194.825;    0.000
260.556; 1141.425;  161.825;    0.000
260.624; 1174.425;  179.825;    0.000
260.691; 1148.425;  174.825;    0.000
260.759; 1254.425;  164.825;    0.000
260.826; 1087.425;  125.825;    0.000
260.894; 1163.425;  164.825;    0.000
260.961; 1261.425;  147.825;    0.000
261.029; 1232.425;  167.825;    0.000
261.096; 1225.425;  136.825;    0.000
261.164; 1284.425;  146.825;    0.000
261.231; 1336.425;  190.825;    0.000
261.299; 1339.425;  171.825;    0.000
261.366; 1308.425;  165.825;    0.000
261.434; 1255.425;  160.825;    0.000
261.501; 1250.425;  149.825;    0.000
261.568; 1364.425;  155.825;    0.000
261.636; 1396.425;  137.825;    0.000
261.703; 1388.425;  186.825;    0.000
261.771; 1390.425;  162.825;    0.000
261.838; 1329.425;  190.825;    0.000
261.906; 1394.425;  133.825;    0.000
261.973; 1426.425;  202.825;    0.000
262.040; 1462.425;  179.825;    0.000
262.108; 1465.425;  161.825;    0.000
262.175; 1397.425;  155.825;    0.000
262.243; 1455.425;  158.825;    0.000
262.310; 1445.425;  129.825;    0.000
262.377; 1487.425;  157.825;    0.000
262.445; 1611.425;  132.825;    0.000
262.512; 1427.425;  161.825;    0.000
262.579; 1510.425;  151.825;    0.000
262.647; 1525.425;  174.825;    0.000
262.714; 1536.425;  174.825;    0.000
262.781; 1566.425;  164.825;    0.000
262.849; 1536.425;  168.825;    0.000
262.916; 1483.425;  153.825;    0.000
262.983; 1593.425;  201.825;    0.000
263.051; 1616.425;  117.825;    0.000
263.118; 1643.425;  150.825;    0.000
263.185; 1582.425;  172.825;    0.000
263.252; 1630.425;  154.825;    0.000
263.320; 1749.425;  152.825;    0.000
263.387; 1654.425;  136.825;    0.000
263.454; 1684.425;  167.825;    0.000
263.522; 1659.425;  122.825;    0.000
263.589; 1631.425;  147.825;    0.000
263.656; 1711.425;  130.825;    0.000
263.723; 1745.425;  182.825;    0.000
263.790; 1724.425;  163.825;    0.000
263.858; 1758.425;  161.825;    0.000
263.925; 1752.425;  153.825;    0.000
263.992; 1750.425;  139.825;    0.000
264.059; 1745.425;  141.825;    0.000
264.126; 1730.425;  153.825;    0.000
264.194; 1707.425;  144.825;    0.000
264.261; 1908.425;  188.825;    0.000
264.328; 1793.425;  161.825;    0.000
264.395; 1791.425;  184.825;    0.000
264.462; 1779.425;  162.825;    0.000
264.529; 1776.425;  178.825;    0.000
264.597; 1904.425;  160.825;    0.000
264.664; 1955.425;  158.825;    0.000
264.731; 1842.425;  176.825;    0.000
264.798; 1782.425;  137.825;    0.000
264.865; 1860.425;  175.825;    0.000
264.932; 1842.425;  162.825;    0.000
264.999; 1878.425;  153.825;    0.000
265.066; 1949.425;  168.825;    0.000
265.133; 1883.425;  142.825;    0.000
265.201; 2014.425;  163.825;    0.000
265.268; 1939.425;  143.825;    0.000
265.335; 1977.425;  156.825;    0.000
265.402; 1993.425;  136.825;    0.000
265.469; 1974.425;  127.825;    0.000
265.536; 1931.425;  159.825;    0.000
265.603; 1934.425;  191.825;    0.000
265.670; 1977.425;  136.825;    0.000
265.737; 2025.425;  186.825;    0.000
265.804; 1987.425;  147.825;    0.000
265.871; 2036.425;  147.825;    0.000
265.938; 2103.425;  153.825;    0.000
266.005; 2025.425;  172.825;    0.000
266.072; 1963.425;  151.825;    0.000
266.139; 2048.425;  175.825;    0.000
266.206; 2054.425;  165.825;    0.000
266.273; 2058.425;  162.825;    0.000
266.340; 2051.425;  150.825;    0.000
266.407; 2116.425;  169.825;    0.000
266.474; 2108.425;  151.825;    0.000
266.541; 2145.425;  164.825;    0.000
266.608; 2101.425;  111.825;    0.000
266.675; 2148.425;  173.825;    0.000
266.742; 2170.425;  148.825;    0.000
266.808; 2246.425;  185.825;    0.000
266.875; 2163.425;  188.825;    0.000
266.942; 2173.425;  131.825;    0.000
267.009; 2090.425;  184.825;    0.000
267.076; 2179.425;  200.825;    0.000
267.143; 2075.425;  216.825;    0.000
267.210; 2170.425;  138.825;    0.000
267.277; 2229.425;  143.825;    0.000
267.344; 2137.425;  172.825;    0.000
267.410; 2222.425;  172.825;    0.000
267.477; 2150.425;  160.825;    0.000
267.544; 2283.425;  175.825;    0.000
267.611; 2259.425;  189.825;    0.000
267.678; 2231.425;  162.825;    0.000
267.745; 2261.425;  206.825;    0.000
267.811; 2207.425;  146.825;    0.000
267.878; 2322.425;  147.825;    0.000
267.945; 2262.425;  170.825;    0.000
268.012; 2250.425;  153.825;    0.000
268.079; 2289.425;  185.825;    0.000
268.145; 2288.425;  197.825;    0.000
268.212; 2191.425;  167.825;    0.000
268.279; 2235.425;  145.825;    0.000
268.346; 2271.425;  182.825;    0.000
268.412; 2251.425;  144.825;    0.000
268.479; 2272.425;  186.825;    0.000
268.546; 2208.425;  147.825;    0.000
268.613; 2298.425;  188.825;    0.000
268.679; 2288.425;  173.825;    0.000
268.746; 2346.425;  204.825;    0.000
268.813; 2222.425;  199.825;    0.000
268.879; 2296.425;  157.825;    0.000
268.946; 2199.425;  192.825;    0.000
269.013; 2290.425;  136.825;    0.000
269.079; 2309.425;  166.825;    0.000
269.146; 2213.425;  129.825;    0.000
269.213; 2286.425;  178.825;    0.000
269.280; 2268.425;  148.825;    0.000
269.346; 2241.425;  194.825;    0.000
269.413; 2243.425;  135.825;    0.000
269.479; 2273.425;  180.825;    0.000
269.546; 2259.425;  169.825;    0.000
269.613; 2258.425;  160.825;    0.000
269.679; 2241.425;  161.825;    0.000
269.746; 2294.425;  143.825;    0.000
269.813; 2271.425;  172.825;    0.000
269.879; 2308.425;  152.825;    0.000
269.946; 2247.425;  156.825;    0.000
270.012; 2247.425;  190.825;    0.000
270.079; 2221.425;  143.825;    0.000
270.145; 2312.425;  148.825;    0.000
270.212; 2226.425;  176.825;    0.000
270.279; 2280.425;  168.825;    0.000
270.345; 2200.425;  143.825;    0.000
270.412; 2289.425;  155.825;    0.000
270.478; 2300.425;  176.825;    0.000
270.545; 2273.425;  112.825;    0.000
270.611; 2274.425;  186.825;    0.000
270.678; 2236.425;  141.825;    0.000
270.744; 2237.425;  145.825;    0.000
270.811; 2152.425;  120.825;    0.000
270.877; 2209.425;  118.825;    0.000
270.944; 2257.425;  135.825;    0.000
271.010; 2250.425;  128.825;    0.000
271.077; 2261.425;  176.825;    0.000
271.143; 2260.425;  162.825;    0.000
271.210; 2225.425;  133.825;    0.000
271.276; 2297.425;  107.825;    0.000
271.342; 2305.425;  202.825;    0.000
271.409; 2265.425;  160.825;    0.000
271.475; 2232.425;  165.825;    0.000
271.542; 2229.425;  152.825;    0.000
271.608; 2235.425;  163.825;    0.000
271.675; 2229.425;  149.825;    0.000
271.741; 2273.425;  164.825;    0.000
271.807; 2264.425;  128.825;    0.000
271.874; 2219.425;  148.825;    0.000
271.940; 2320.425;  179.825;    0.000
272.007; 2305.425;  148.825;    0.000
272.073; 2243.425;  146.825;    0.000
272.139; 2280.425;  166.825;    0.000
272.206; 2248.425;  198.825;    0.000
272.272; 2274.425;  201.825;    0.000
272.338; 2333.425;  208.825;    0.000
272.405; 2240.425;  181.825;    0.000
272.471; 2250.425;  167.825;    0.000
272.537; 2216.425;  189.825;    0.000
272.604; 2293.425;  162.825;    0.000
272.670; 2287.425;  194.825;    0.000
272.736; 2232.425;  176.825;    0.000
272.802; 2297.425;  163.825;    0.000
272.869; 2380.425;  170.825;    0.000
272.935; 2313.425;  145.825;    0.000
273.001; 2348.425;  149.825;    0.000
273.068; 2322.425;  172.825;    0.000
273.134; 2313.425;  155.825;    0.000
273.200; 2360.425;  183.825;    0.000
273.266; 2339.425;  160.825;    0.000
273.333; 2362.425;  190.825;    0.000
273.399; 2317.425;  132.825;    0.000
273.465; 2281.425;  179.825;    0.000
273.531; 2380.425;  161.825;    0.000
273.597; 2444.425;  194.825;    0.000
273.664; 2429.425;  193.825;    0.000
273.730; 2449.425;  180.825;    0.000
273.796; 2385.425;  145.825;    0.000
273.862; 2292.425;  176.825;    0.000
273.928; 2408.425;  169.825;    0.000
273.995; 2405.425;  202.825;    0.000
274.061; 2453.425;  176.825;    0.000
274.127; 2457.425;  178.825;    0.000
274.193; 2456.425;  106.825;    0.000
274.259; 2484.425;  186.825;    0.000
274.325; 2455.425;  163.825;    0.000
274.391; 2461.425;  162.825;    0.000
274.457; 2449.425;  145.825;    0.000
274.524; 2458.425;  189.825;    0.000
274.590; 2540.425;  161.825;    0.000
274.656; 2508.425;  157.825;    0.000
274.722; 2581.425;  143.825;    0.000
274.788; 2639.425;  166.825;    0.000
274.854; 2589.425;  200.825;    0.000
274.920; 2506.425;  132.825;    0.000
274.986; 2666.425;  184.825;    0.000
275.052; 2661.425;  169.825;    0.000
275.118; 2552.425;  153.825;    0.000
275.184; 2657.425;  182.825;    0.000
275.250; 2677.425;  124.825;    0.000
275.316; 2677.425;  154.825;    0.000
275.382; 2673.425;  150.825;    0.000
275.448; 2772.425;  180.825;    0.000
275.514; 2797.425;  143.825;    0.000
275.580; 2809.425;  120.825;    0.000
275.646; 2865.425;  127.825;    0.000
275.712; 2857.425;  109.825;    0.000
275.778; 2922.425;  126.825;    0.000
275.844; 2917.425;  155.825;    0.000
275.910; 2985.425;  164.825;    0.000
275.976; 2977.425;  161.825;    0.000
276.042; 3057.425;  152.825;    0.000
276.108; 2965.425;  159.825;    0.000
276.174; 3099.425;  149.825;    0.000
276.240; 3067.425;  112.825;    0.000
276.306; 3057.425;  142.825;    0.000
276.372; 3347.425;  136.825;    0.000
276.437; 3261.425;  141.825;    0.000
276.503; 3296.425;  150.825;    0.000
276.569; 3422.425;  178.825;    0.000
276.635; 3371.425;  117.825;    0.000
276.701; 3692.425;  174.825;    0.000
276.767; 3557.425;  136.825;    0.000
276.833; 3672.425;  119.825;    0.000
276.899; 3769.425;  171.825;    0.000
276.964; 3816.425;  146.825;    0.000
277.030; 3976.425;  157.825;    0.000
277.096; 4081.425;  124.825;    0.000
277.162; 4232.425;  185.825;    0.000
277.228; 4179.425;  125.825;    0.000
277.293; 4408.425;  159.825;    0.000
277.359; 4600.425;  186.825;    0.000
277.425; 4659.425;  176.825;    0.000
277.491; 5128.425;  140.825;    0.000
277.557; 5940.425;  172.825;    0.000
277.622; 7274.425;  187.825;    0.000
277.688; 7526.425;  203.825;    0.000
277.754; 7488.425;  170.825;    0.000
277.820; 8264.425;  142.825;    0.000
277.885; 9482.425;  182.825;    0.000
277.951;11229.425;  171.825;    0.000
278.017;10081.425;  173.825;    0.000
278.083; 9302.425;  151.825;    0.000
278.148; 9064.425;  159.825;    0.000
278.214; 8895.425;  173.825;    0.000
278.280; 9435.425;  137.825;    0.000
278.345; 9085.425;  190.825;    0.000
278.411; 8613.425;  149.825;    0.000
278.477; 9060.425;  157.825;    0.000
278.542; 9428.425;  136.825;    0.000
278.608;10164.425;  144.825;    0.000
278.674;11043.425;  215.825;    0.000
278.739;12197.425;  148.825;    0.000
278.805;13480.425;  152.825;    0.000
278.871;15480.425;  170.825;    0.000
278.936;19236.426;  180.825;    0.000
279.002;25484.426;  177.825;    0.000
279.067;31353.426;  172.825;    0.000
279.133;30838.426;  160.825;    0.000
279.199;29168.426;  165.825;    0.000
279.264;30154.426;  130.825;    0.000
279.330;33652.426;  154.825;    0.000
279.395;39453.426;  170.825;    0.000
279.461;44261.426;  136.825;    0.000
279.527;46428.426;  174.825;    0.000
279.592;46337.426;  179.825;    0.000
279.658;43750.426;  187.825;    0.000
279.723;42941.426;  201.825;    0.000
279.789;44021.426;  194.825;    0.000
279.854;40758.426;  171.825;    0.000
279.920;35951.426;  183.825;    0.000
279.985;33653.426;  173.825;    0.000
280.051;34293.426;  194.825;    0.000
280.116;38151.426;  197.825;    0.000
280.182;43177.426;  171.825;    0.000
280.247;46088.426;  131.825;    0.000
280.313;42967.426;  166.825;    0.000
280.378;35729.426;  159.825;    0.000
280.444;28892.426;  190.825;    0.000
280.509;24285.426;  189.825;    0.000
280.574;20862.426;  171.825;    0.000
280.640;18376.426;  167.825;    0.000
280.705;16287.425;  129.825;    0.000
280.771;15202.425;  193.825;    0.000
280.836;13993.425;  172.825;    0.000
280.902;12879.425;  189.825;    0.000
280.967;12080.425;  143.825;    0.000
281.032;11528.425;  182.825;    0.000
281.098;10819.425;  172.825;    0.000
281.163;10349.425;  184.825;    0.000
281.229;10004.425;  210.825;    0.000
281.294; 9524.425;  223.825;    0.000
281.359; 8886.425;  197.825;    0.000
281.425; 8656.425;  192.825;    0.000
281.490; 8595.425;  162.825;    0.000
281.555; 8120.425;  193.825;    0.000
281.621; 7788.425;  141.825;    0.000
281.686; 7625.425;  166.825;    0.000
281.751; 7344.425;  204.825;    0.000
281.816; 7052.425;  159.825;    0.000
281.882; 6852.425;  146.825;    0.000
281.947; 6722.425;  176.825;    0.000
282.012; 6559.425;  139.825;    0.000
282.078; 6396.425;  186.825;    0.000
282.143; 6214.425;  151.825;    0.000
282.208; 6212.425;  213.825;    0.000
282.273; 5893.425;  160.825;    0.000
282.339; 6040.425;  175.825;    0.000
282.404; 5930.425;  157.825;    0.000
282.469; 5753.425;  185.825;    0.000
282.534; 5544.425;  166.825;    0.000
282.600; 5505.425;  168.825;    0.000
282.665; 5444.425;  167.825;    0.000
282.730; 5207.425;  148.825;    0.000
282.795; 5347.425;  186.825;    0.000
282.860; 5208.425;  161.825;    0.000
282.926; 5031.425;  178.825;    0.000
282.991; 5078.425;  139.825;    0.000
283.056; 5004.425;  158.825;    0.000
283.121; 4938.425;  191.825;    0.000
283.186; 4800.425;  182.825;    0.000
283.251; 4848.425;  181.825;    0.000
283.316; 4861.425;  187.825;    0.000
283.382; 4830.425;  175.825;    0.000
283.447; 4703.425;  183.825;    0.000
283.512; 4808.425;  175.825;    0.000
283.577; 4580.425;  180.825;    0.000
283.642; 4487.425;  193.825;    0.000
283.707; 4605.425;  145.825;    0.000
283.772; 4478.425;  143.825;    0.000
283.837; 4430.425;  143.825;    0.000
283.902; 4456.425;  150.825;    0.000
283.967; 4440.425;  166.825;    0.000
284.032; 4259.425;  126.825;    0.000
284.097; 4445.425;  201.825;    0.000
284.163; 4375.425;  133.825;    0.000
284.228; 4506.425;  193.825;    0.000
284.293; 4412.425;  157.825;    0.000
284.358; 4588.425;  185.825;    0.000
284.423; 4485.425;  142.825;    0.000
284.488; 4684.425;  192.825;    0.000
284.553; 4777.425;  146.825;    0.000
284.618; 4730.425;  154.825;    0.000
284.683; 4964.425;  172.825;    0.000
284.748; 5203.425;  195.825;    0.000
284.812; 5402.425;  190.825;    0.000
284.877; 5771.425;  169.825;    0.000
284.942; 6457.425;  195.825;    0.000
285.007; 7358.425;  204.825;    0.000
285.072; 9608.425;  189.825;    0.000
285.137;13177.425;  149.825;    0.000
285.202;16430.426;  164.825;    0.000
285.267;15501.425;  161.825;    0.000
285.332;12125.425;  140.825;    0.000
285.397; 9754.425;  142.825;    0.000
285.462; 7629.425;  146.825;    0.000
285.527; 6789.425;  132.825;    0.000
285.591; 6223.425;  160.825;    0.000
285.656; 5761.425;  136.825;    0.000
285.721; 5253.425;  135.825;    0.000
285.786; 5147.425;  171.825;    0.000
285.851; 4911.425;  168.825;    0.000
285.916; 4684.425;  178.825;    0.000
285.981; 4597.425;  152.825;    0.000
286.045; 4511.425;  167.825;    0.000
286.110; 4420.425;  187.825;    0.000
286.175; 4406.425;  162.825;    0.000
286.240; 4316.425;  163.825;    0.000
286.305; 4251.425;  190.825;    0.000
286.369; 4178.425;  143.825;    0.000
286.434; 4128.425;  185.825;    0.000
286.499; 4019.425;  195.825;    0.000
286.564; 3960.425;  173.825;    0.000
286.628; 3964.425;  159.825;    0.000
286.693; 3985.425;  175.825;    0.000
286.758; 3992.425;  170.825;    0.000
286.823; 3960.425;  129.825;    0.000
286.887; 3824.425;  172.825;    0.000
286.952; 3944.425;  163.825;    0.000
287.017; 3873.425;  217.825;    0.000
287.082; 3884.425;  165.825;    0.000
287.146; 3792.425;  176.825;    0.000
287.211; 3784.425;  192.825;    0.000
287.276; 3750.425;  147.825;    0.000
287.340; 3713.425;  162.825;    0.000
287.405; 3842.425;  196.825;    0.000
287.470; 3588.425;  148.825;    0.000
287.534; 3784.425;  166.825;    0.000
287.599; 3791.425;  193.825;    0.000
287.663; 3803.425;  191.825;    0.000
287.728; 3635.425;  146.825;    0.000
287.793; 3728.425;  234.825;    0.000
287.857; 3664.425;  177.825;    0.000
287.922; 3720.425;  166.825;    0.000
287.987; 3642.425;  169.825;    0.000
288.051; 3616.425;  169.825;    0.000
288.116; 3646.425;  187.825;    0.000
288.180; 3680.425;  200.825;    0.000
288.245; 3708.425;  201.825;    0.000
288.309; 3629.425;  176.825;    0.000
288.374; 3700.425;  162.825;    0.000
288.439; 3565.425;  195.825;    0.000
288.503; 3592.425;  162.825;    0.000
288.568; 3700.425;  228.825;    0.000
288.632; 3629.425;  194.825;    0.000
288.697; 3670.425;  173.825;    0.000
288.761; 3601.425;  153.825;    0.000
288.826; 3610.425;  151.825;    0.000
288.890; 3614.425;  208.825;    0.000
288.955; 3589.425;  159.825;    0.000
289.019; 3553.425;  198.825;    0.000
289.084; 3571.425;  152.825;    0.000
289.148; 3511.425;  171.825;    0.000
289.212; 3459.425;  184.825;    0.000
289.277; 3523.425;  165.825;    0.000
289.341; 3667.425;  207.825;    0.000
289.406; 3574.425;  156.825;    0.000
289.470; 3484.425;  191.825;    0.000
289.535; 3550.425;  222.825;    0.000
289.599; 3606.425;  214.825;    0.000
289.663; 3476.425;  183.825;    0.000
289.728; 3527.425;  192.825;    0.000
289.792; 3596.425;  197.825;    0.000
289.857; 3597.425;  221.825;    0.000
289.921; 3565.425;  177.825;    0.000
289.985; 3660.425;  177.825;    0.000
290.050; 3476.425;  178.825;    0.000
290.114; 3586.425;  112.825;    0.000
290.178; 3501.425;  170.825;    0.000
290.243; 3463.425;  162.825;    0.000
290.307; 3528.425;  178.825;    0.000
290.371; 3632.425;  141.825;    0.000
290.436; 3531.425;  178.825;    0.000
290.500; 3485.425;  135.825;    0.000
290.564; 3590.425;  199.825;    0.000
290.629; 3454.425;  165.825;    0.000
290.693; 3544.425;  154.825;    0.000
290.757; 3484.425;  159.825;    0.000
290.821; 3549.425;  179.825;    0.000
290.886; 3555.425;  141.825;    0.000
290.950; 3621.425;  166.825;    0.000
291.014; 3592.425;  169.825;    0.000
291.078; 3664.425;  191.825;    0.000
291.143; 3729.425;  169.825;    0.000
291.207; 3738.425;  164.825;    0.000
291.271; 3673.425;  193.825;    0.000
291.335; 3882.425;  150.825;    0.000
291.399; 3736.425;  175.825;    0.000
291.464; 4037.425;  128.825;    0.000
291.528; 4175.425;  162.825;    0.000
291.592; 4217.425;  152.825;    0.000
291.656; 3987.425;  175.825;    0.000
291.720; 4026.425;  173.825;    0.000
291.784; 4017.425;  192.825;    0.000
291.849; 3868.425;  159.825;    0.000
291.913; 3789.425;  174.825;    0.000
291.977; 3870.425;  177.825;    0.000
292.041; 4025.425;  188.825;    0.000
292.105; 4017.425;  174.825;    0.000
292.169; 3878.425;  143.825;    0.000
292.233; 4027.425;  149.825;    0.000
292.297; 4011.425;  176.825;    0.000
292.361; 4173.425;  178.825;    0.000
292.425; 4249.425;  153.825;    0.000
292.490; 4459.425;  185.825;    0.000
292.554; 4556.425;  144.825;    0.000
292.618; 4922.425;  166.825;    0.000
292.682; 5313.425;  181.825;    0.000
292.746; 5975.425;  152.825;    0.000
292.810; 7814.425;  208.825;    0.000
292.874; 9532.425;  142.825;    0.000
292.938; 9785.425;  195.825;    0.000
293.002; 8777.425;  156.825;    0.000
293.066; 8246.425;  108.825;    0.000
293.130; 7673.425;  136.825;    0.000
293.194; 7456.425;  135.825;    0.000
293.258; 7179.425;  187.825;    0.000
293.322; 6935.425;  148.825;    0.000
293.386; 7183.425;  186.825;    0.000
293.450; 7549.425;  196.825;    0.000
293.514; 8324.425;  175.825;    0.000
293.577;10504.425;  137.825;    0.000
293.641;13866.425;  142.825;    0.000
293.705;14846.425;  201.825;    0.000
293.769;13611.425;  150.825;    0.000
293.833;11886.425;  147.825;    0.000
293.897;10724.425;  170.825;    0.000
293.961; 9625.425;  121.825;    0.000
294.025; 8787.425;  172.825;    0.000
294.089; 8102.425;  167.825;    0.000
294.152; 7611.425;  167.825;    0.000
294.216; 6996.425;  165.825;    0.000
294.280; 6809.425;  168.825;    0.000
294.344; 6418.425;  160.825;    0.000
294.408; 6067.425;  187.825;    0.000
294.472; 5722.425;  141.825;    0.000
294.536; 5464.425;  184.825;    0.000
294.599; 5501.425;  176.825;    0.000
294.663; 5201.425;  120.825;    0.000
294.727; 4946.425;  159.825;    0.000
294.791; 4947.425;  190.825;    0.000
294.855; 4870.425;  148.825;    0.000
294.918; 4783.425;  160.825;    0.000
294.982; 4623.425;  156.825;    0.000
295.046; 4615.425;  177.825;    0.000
295.110; 4490.425;  149.825;    0.000
295.173; 4171.425;  156.825;    0.000
295.237; 4204.425;  174.825;    0.000
295.301; 4262.425;  152.825;    0.000
295.364; 4094.425;  204.825;    0.000
295.428; 4101.425;  196.825;    0.000
295.492; 3966.425;  178.825;    0.000
295.556; 4070.425;  161.825;    0.000
295.619; 3995.425;  178.825;    0.000
295.683; 3863.425;  152.825;    0.000
295.747; 3813.425;  148.825;    0.000
295.810; 3923.425;  177.825;    0.000
295.874; 3763.425;  146.825;    0.000
295.938; 3590.425;  115.825;    0.000
296.001; 3794.425;  172.825;    0.000
296.065; 3703.425;  146.825;    0.000
296.128; 3610.425;  164.825;    0.000
296.192; 3686.425;  137.825;    0.000
296.256; 3643.425;  143.825;    0.000
296.319; 3577.425;  156.825;    0.000
296.383; 3504.425;  165.825;    0.000
296.447; 3553.425;  170.825;    0.000
296.510; 3425.425;  174.825;    0.000
296.574; 3480.425;  127.825;    0.000
296.637; 3383.425;  132.825;    0.000
296.701; 3512.425;  206.825;    0.000
296.764; 3409.425;  179.825;    0.000
296.828; 3357.425;  213.825;    0.000
296.891; 3296.425;  149.825;    0.000
296.955; 3372.425;  170.825;    0.000
297.018; 3318.425;  185.825;    0.000
297.082; 3401.425;  205.825;    0.000
297.145; 3251.425;  154.825;    0.000
297.209; 3152.425;  200.825;    0.000
297.272; 3304.425;  157.825;    0.000
297.336; 3223.425;  164.825;    0.000
297.399; 3289.425;  166.825;    0.000
297.463; 3284.425;  195.825;    0.000
297.526; 3296.425;  176.825;    0.000
297.590; 3268.425;  198.825;    0.000
297.653; 3332.425;  146.825;    0.000
297.717; 3187.425;  175.825;    0.000
297.780; 3250.425;  139.825;    0.000
297.843; 3162.425;  174.825;    0.000
297.907; 3212.425;  149.825;    0.000
297.970; 3200.425;  161.825;    0.000
298.034; 3246.425;  185.825;    0.000
298.097; 3141.425;  167.825;    0.000
298.160; 3165.425;  195.825;    0.000
298.224; 3162.425;  178.825;    0.000
298.287; 3220.425;  164.825;    0.000
298.350; 3133.425;  194.825;    0.000
298.414; 3119.425;  191.825;    0.000
298.477; 2961.425;  155.825;    0.000
298.540; 3003.425;  139.825;    0.000
298.604; 3138.425;  198.825;    0.000
298.667; 3053.425;  183.825;    0.000
298.730; 3100.425;  185.825;    0.000
298.794; 3125.425;  153.825;    0.000
298.857; 3136.425;  169.825;    0.000
298.920; 3059.425;  159.825;    0.000
298.984; 2917.425;  179.825;    0.000
299.047; 3008.425;  174.825;    0.000
299.110; 2967.425;  144.825;    0.000
299.173; 2918.425;  190.825;    0.000
299.237; 3066.425;  163.825;    0.000
299.300; 2975.425;  153.825;    0.000
299.363; 2918.425;  145.825;    0.000
299.426; 2924.425;  160.825;    0.000
299.489; 2873.425;  173.825;    0.000
299.553; 2945.425;  209.825;    0.000
299.616; 3060.425;  172.825;    0.000
299.679; 2933.425;  204.825;    0.000
299.742; 3000.425;  162.825;    0.000
299.805; 2977.425;  198.825;    0.000
299.868; 2873.425;  176.825;    0.000
299.932; 2810.425;  166.825;    0.000
299.995; 2909.425;  162.825;    0.000
300.058; 2880.425;  175.825;    0.000
300.121; 2883.425;  197.825;    0.000
300.184; 2839.425;  188.825;    0.000
300.247; 2765.425;  181.825;    0.000
300.310; 2899.425;  161.825;    0.000
300.374; 2848.425;  201.825;    0.000
300.437; 2852.425;  156.825;    0.000
300.500; 2976.425;  180.825;    0.000
300.563; 2855.425;  174.825;    0.000
300.626; 2798.425;  206.825;    0.000
300.689; 2896.425;  218.825;    0.000
300.752; 2828.425;  192.825;    0.000
300.815; 2802.425;  172.825;    0.000
300.878; 2774.425;  207.825;    0.000
300.941; 2807.425;  163.825;    0.000
301.004; 2764.425;  171.825;    0.000
301.067; 2792.425;  198.825;    0.000
301.130; 2825.425;  156.825;    0.000
301.193; 2801.425;  173.825;    0.000
301.256; 2776.425;  167.825;    0.000
301.319; 2614.425;  211.825;    0.000
301.382; 2816.425;  167.825;    0.000
301.445; 2749.425;  224.825;    0.000
301.508; 2765.425;  168.825;    0.000
301.571; 2770.425;  161.825;    0.000
301.634; 2845.425;  177.825;    0.000
301.697; 2684.425;  203.825;    0.000
301.760; 2799.425;  190.825;    0.000
301.823; 2725.425;  182.825;    0.000
301.885; 2791.425;  202.825;    0.000
301.948; 2679.425;  200.825;    0.000
302.011; 2782.425;  157.825;    0.000
302.074; 2848.425;  205.825;    0.000
302.137; 2751.425;  149.825;    0.000
302.200; 2792.425;  201.825;    0.000
302.263; 2710.425;  178.825;    0.000
302.326; 2755.425;  184.825;    0.000
302.388; 2818.425;  176.825;    0.000
302.451; 2678.425;  146.825;    0.000
302.514; 2746.425;  192.825;    0.000
302.577; 2741.425;  181.825;    0.000
302.640; 2720.425;  186.825;    0.000
302.703; 2643.425;  164.825;    0.000
302.765; 2717.425;  197.825;    0.000
302.828; 2769.425;  208.825;    0.000
302.891; 2743.425;  168.825;    0.000
302.954; 2690.425;  177.825;    0.000
303.016; 2720.425;  190.825;    0.000
303.079; 2729.425;  216.825;    0.000
303.142; 2861.425;  228.825;    0.000
303.205; 2716.425;  192.825;    0.000
303.267; 2659.425;  182.825;    0.000
303.330; 2824.425;  201.825;    0.000
303.393; 2755.425;  196.825;    0.000
303.456; 2755.425;  184.825;    0.000
303.518; 2724.425;  194.825;    0.000
303.581; 2742.425;  195.825;    0.000
303.644; 2782.425;  184.825;    0.000
303.706; 2684.425;  150.825;    0.000
303.769; 2730.425;  182.825;    0.000
303.832; 2652.425;  143.825;    0.000
303.894; 2801.425;  207.825;    0.000
303.957; 2655.425;  178.825;    0.000
304.020; 2650.425;  203.825;    0.000
304.082; 2669.425;  175.825;    0.000
304.145; 2684.425;  171.825;    0.000
304.207; 2685.425;  157.825;    0.000
304.270; 2716.425;  195.825;    0.000
304.333; 2711.425;  195.825;    0.000
304.395; 2713.425;  197.825;    0.000
304.458; 2714.425;  231.825;    0.000
304.520; 2695.425;  218.825;    0.000
304.583; 2752.425;  177.825;    0.000
304.646; 2674.425;  177.825;    0.000
304.708; 2721.425;  178.825;    0.000
304.771; 2731.425;  143.825;    0.000
304.833; 2716.425;  241.825;    0.000
304.896; 2652.425;  200.825;    0.000
304.958; 2669.425;  176.825;    0.000
305.021; 2665.425;  159.825;    0.000
305.083; 2740.425;  159.825;    0.000
305.146; 2652.425;  190.825;    0.000
305.208; 2678.425;  152.825;    0.000
305.271; 2641.425;  162.825;    0.000
305.333; 2661.425;  219.825;    0.000
305.396; 2638.425;  163.825;    0.000
305.458; 2716.425;  215.825;    0.000
305.520; 2687.425;  174.825;    0.000
305.583; 2751.425;  161.825;    0.000
305.645; 2749.425;  203.825;    0.000
305.708; 2687.425;  163.825;    0.000
305.770; 2648.425;  215.825;    0.000
305.833; 2678.425;  207.825;    0.000
305.895; 2700.425;  166.825;    0.000
305.957; 2665.425;  175.825;    0.000
306.020; 2616.425;  169.825;    0.000
306.082; 2618.425;  203.825;    0.000
306.144; 2723.425;  181.825;    0.000
306.207; 2694.425;  199.825;    0.000
306.269; 2733.425;  177.825;    0.000
306.331; 2646.425;  160.825;    0.000
306.394; 2677.425;  193.825;    0.000
306.456; 2596.425;  136.825;    0.000
306.518; 2697.425;  189.825;    0.000
306.581; 2655.425;  156.825;    0.000
306.643; 2765.425;  190.825;    0.000
306.705; 2729.425;  190.825;    0.000
306.768; 2740.425;  172.825;    0.000
306.830; 2773.425;  214.825;    0.000
306.892; 2738.425;  198.825;    0.000
306.954; 2757.425;  177.825;    0.000
307.017; 2801.425;  183.825;    0.000
307.079; 2788.425;  170.825;    0.000
307.141; 2839.425;  173.825;    0.000
307.203; 2759.425;  171.825;    0.000
307.266; 2819.425;  166.825;    0.000
307.328; 2805.425;  207.825;    0.000
307.390; 2910.425;  201.825;    0.000
307.452; 2810.425;  182.825;    0.000
307.514; 2850.425;  213.825;    0.000
307.577; 2846.425;  213.825;    0.000
307.639; 2827.425;  197.825;    0.000
307.701; 2801.425;  174.825;    0.000
307.763; 2839.425;  181.825;    0.000
307.825; 2725.425;  186.825;    0.000
307.887; 2835.425;  198.825;    0.000
307.949; 2826.425;  158.825;    0.000
308.012; 2833.425;  209.825;    0.000
308.074; 2892.425;  176.825;    0.000
308.136; 2867.425;  227.825;    0.000
308.198; 2880.425;  187.825;    0.000
308.260; 2839.425;  211.825;    0.000
308.322; 2901.425;  206.825;    0.000
308.384; 2896.425;  186.825;    0.000
308.446; 2854.425;  175.825;    0.000
308.508; 2906.425;  211.825;    0.000
308.570; 3010.425;  191.825;    0.000
308.632; 2859.425;  195.825;    0.000
308.694; 2882.425;  173.825;    0.000
308.756; 2909.425;  185.825;    0.000
308.818; 2973.425;  195.825;    0.000
308.880; 2895.425;  189.825;    0.000
308.942; 3000.425;  231.825;    0.000
309.004; 3109.425;  188.825;    0.000
309.066; 3095.425;  196.825;    0.000
309.128; 3173.425;  155.825;    0.000
309.190; 3174.425;  176.825;    0.000
309.252; 3342.425;  191.825;    0.000
309.314; 3401.425;  236.825;    0.000
309.376; 3424.425;  212.825;    0.000
309.438; 3239.425;  201.825;    0.000
309.500; 3349.425;  206.825;    0.000
309.562; 3285.425;  213.825;    0.000
309.624; 3479.425;  196.825;    0.000
309.686; 3642.425;  198.825;    0.000
309.747; 3536.425;  186.825;    0.000
309.809; 3381.425;  215.825;    0.000
309.871; 3443.425;  242.825;    0.000
309.933; 3206.425;  162.825;    0.000
309.995; 3161.425;  163.825;    0.000
310.057; 3188.425;  145.825;    0.000
310.119; 3183.425;  205.825;    0.000
310.180; 3162.425;  195.825;    0.000
310.242; 3065.425;  167.825;    0.000
310.304; 3133.425;  213.825;    0.000
310.366; 3156.425;  224.825;    0.000
310.428; 2996.425;  170.825;    0.000
310.489; 3053.425;  195.825;    0.000
310.551; 3011.425;  207.825;    0.000
310.613; 3053.425;  168.825;    0.000
310.675; 3124.425;  188.825;    0.000
310.737; 3058.425;  211.825;    0.000
310.798; 3089.425;  221.825;    0.000
310.860; 3124.425;  201.825;    0.000
310.922; 2945.425;  206.825;    0.000
310.983; 3036.425;  222.825;    0.000
311.045; 3079.425;  235.825;    0.000
311.107; 3085.425;  184.825;    0.000
311.169; 2974.425;  148.825;    0.000
311.230; 2973.425;  211.825;    0.000
311.292; 2990.425;  235.825;    0.000
311.354; 2972.425;  183.825;    0.000
311.415; 2991.425;  196.825;    0.000
311.477; 2973.425;  200.825;    0.000
311.539; 3047.425;  171.825;    0.000
311.600; 3093.425;  169.825;    0.000
311.662; 3002.425;  231.825;    0.000
311.724; 2954.425;  204.825;    0.000
311.785; 2985.425;  214.825;    0.000
311.847; 3024.425;  193.825;    0.000
311.908; 2991.425;  180.825;    0.000
311.970; 2993.425;  233.825;    0.000
312.032; 3009.425;  192.825;    0.000
312.093; 2993.425;  195.825;    0.000
312.155; 3040.425;  194.825;    0.000
312.216; 3056.425;  238.825;    0.000
312.278; 3043.425;  146.825;    0.000
312.339; 3065.425;  184.825;    0.000
312.401; 3047.425;  201.825;    0.000
312.462; 3016.425;  173.825;    0.000
312.524; 2954.425;  205.825;    0.000
312.585; 3010.425;  199.825;    0.000
312.647; 3019.425;  168.825;    0.000
312.708; 2934.425;  180.825;    0.000
312.770; 2986.425;  180.825;    0.000
312.831; 2935.425;  176.825;    0.000
312.893; 2923.425;  211.825;    0.000
312.954; 3082.425;  178.825;    0.000
313.016; 3115.425;  204.825;    0.000
313.077; 3041.425;  216.825;    0.000
313.139; 3060.425;  172.825;    0.000
313.200; 2998.425;  197.825;    0.000
313.261; 3069.425;  227.825;    0.000
313.323; 3052.425;  204.825;    0.000
313.384; 3001.425;  182.825;    0.000
313.446; 3062.425;  204.825;    0.000
313.507; 2925.425;  164.825;    0.000
313.568; 2993.425;  197.825;    0.000
313.630; 3026.425;  190.825;    0.000
313.691; 2965.425;  185.825;    0.000
313.752; 2927.425;  192.825;    0.000
313.814; 2999.425;  176.825;    0.000
313.875; 3027.425;  210.825;    0.000
313.936; 3117.425;  165.825;    0.000
313.998; 2963.425;  162.825;    0.000
314.059; 2928.425;  178.825;    0.000
314.120; 2952.425;  176.825;    0.000
314.182; 3016.425;  167.825;    0.000
314.243; 3005.425;  204.825;    0.000
314.304; 2960.425;  197.825;    0.000
314.365; 3040.425;  183.825;    0.000
314.427; 3046.425;  176.825;    0.000
314.488; 3030.425;  149.825;    0.000
314.549; 3033.425;  218.825;    0.000
314.610; 2972.425;  160.825;    0.000
314.672; 3016.425;  187.825;    0.000
314.733; 2967.425;  184.825;    0.000
314.794; 2931.425;  164.825;    0.000
314.855; 3045.425;  191.825;    0.000
314.917; 2916.425;  172.825;    0.000
314.978; 3036.425;  185.825;    0.000
315.039; 2888.425;  194.825;    0.000
315.100; 3046.425;  190.825;    0.000
315.161; 3013.425;  185.825;    0.000
315.222; 2962.425;  204.825;    0.000
315.283; 2958.425;  166.825;    0.000
315.345; 3016.425;  133.825;    0.000
315.406; 2931.425;  191.825;    0.000
315.467; 2993.425;  166.825;    0.000
315.528; 3031.425;  194.825;    0.000
315.589; 2993.425;  193.825;    0.000
315.650; 3016.425;  190.825;    0.000
315.711; 2888.425;  219.825;    0.000
315.772; 2899.425;  159.825;    0.000
315.833; 3014.425;  191.825;    0.000
315.894; 2969.425;  202.825;    0.000
315.955; 2974.425;  167.825;    0.000
316.016; 2990.425;  177.825;    0.000
316.078; 3010.425;  185.825;    0.000
316.139; 2951.425;  219.825;    0.000
316.200; 2945.425;  163.825;    0.000
316.261; 2983.425;  183.825;    0.000
316.322; 2939.425;  230.825;    0.000
316.383; 2941.425;  198.825;    0.000
316.444; 3014.425;  209.825;    0.000
316.504; 2869.425;  179.825;    0.000
316.565; 2938.425;  185.825;    0.000
316.626; 2980.425;  155.825;    0.000
316.687; 3109.425;  211.825;    0.000
316.748; 3009.425;  192.825;    0.000
316.809; 2991.425;  183.825;    0.000
316.870; 3007.425;  196.825;    0.000
316.931; 3094.425;  173.825;    0.000
316.992; 3041.425;  179.825;    0.000
317.053; 3019.425;  186.825;    0.000
317.114; 2918.425;  189.825;    0.000
317.175; 2966.425;  226.825;    0.000
317.235; 2969.425;  206.825;    0.000
317.296; 2913.425;  191.825;    0.000
317.357; 2864.425;  173.825;    0.000
317.418; 2963.425;  212.825;    0.000
317.479; 2985.425;  247.825;    0.000
317.540; 2935.425;  205.825;    0.000
317.601; 2977.425;  205.825;    0.000
317.661; 2940.425;  150.825;    0.000
317.722; 2984.425;  198.825;    0.000
317.783; 2897.425;  153.825;    0.000
317.844; 2994.425;  202.825;    0.000
317.904; 2943.425;  180.825;    0.000
317.965; 2998.425;  205.825;    0.000
318.026; 2924.425;  223.825;    0.000
318.087; 2983.425;  218.825;    0.000
318.148; 2943.425;  207.825;    0.000
318.208; 2990.425;  212.825;    0.000
318.269; 2971.425;  174.825;    0.000
318.330; 2966.425;  191.825;    0.000
318.390; 2948.425;  197.825;    0.000
318.451; 2968.425;  167.825;    0.000
318.512; 2867.425;  174.825;    0.000
318.572; 2942.425;  199.825;    0.000
318.633; 3007.425;  233.825;    0.000
318.694; 2966.425;  232.825;    0.000
318.754; 3114.425;  181.825;    0.000
318.815; 2900.425;  199.825;    0.000
318.876; 2939.425;  207.825;    0.000
318.936; 3014.425;  202.825;    0.000
318.997; 2893.425;  182.825;    0.000
319.058; 2947.425;  180.825;    0.000
319.118; 2980.425;  199.825;    0.000
319.179; 2974.425;  199.825;    0.000
319.239; 3019.425;  229.825;    0.000
319.300; 2955.425;  223.825;    0.000
319.361; 2882.425;  210.825;    0.000
319.421; 2948.425;  205.825;    0.000
319.482; 2941.425;  205.825;    0.000
319.542; 2898.425;  176.825;    0.000
319.603; 2924.425;  191.825;    0.000
319.663; 2889.425;  183.825;    0.000
319.724; 2898.425;  174.825;    0.000
319.784; 2899.425;  198.825;    0.000
319.845; 2909.425;  218.825;    0.000
319.905; 2954.425;  217.825;    0.000
319.966; 2963.425;  197.825;    0.000
320.026; 2897.425;  209.825;    0.000
320.087; 2968.425;  225.825;    0.000
320.147; 2791.425;  201.825;    0.000
320.208; 2929.425;  176.825;    0.000
320.268; 2836.425;  168.825;    0.000
320.329; 2845.425;  238.825;    0.000
320.389; 2912.425;  220.825;    0.000
320.449; 2890.425;  230.825;    0.000
320.510; 2871.425;  234.825;    0.000
320.570; 2892.425;  210.825;    0.000
320.631; 2931.425;  207.825;    0.000
320.691; 2840.425;  222.825;    0.000
320.751; 2967.425;  195.825;    0.000
320.812; 2922.425;  193.825;    0.000
320.872; 2964.425;  237.825;    0.000
320.932; 2864.425;  213.825;    0.000
320.993; 2852.425;  185.825;    0.000
321.053; 2976.425;  245.825;    0.000
321.113; 2895.425;  206.825;    0.000
321.174; 2916.425;  202.825;    0.000
321.234; 2904.425;  244.825;    0.000
321.294; 2800.425;  228.825;    0.000
321.355; 2880.425;  208.825;    0.000
321.415; 2930.425;  223.825;    0.000
321.475; 2840.425;  203.825;    0.000
321.535; 2896.425;  230.825;    0.000
321.596; 2860.425;  186.825;    0.000
321.656; 2858.425;  216.825;    0.000
321.716; 2917.425;  207.825;    0.000
321.776; 2922.425;  181.825;    0.000
321.837; 2874.425;  207.825;    0.000
321.897; 2864.425;  225.825;    0.000
321.957; 2809.425;  222.825;    0.000
322.017; 2839.425;  215.825;    0.000
322.077; 2975.425;  250.825;    0.000
322.138; 2945.425;  189.825;    0.000
322.198; 2876.425;  200.825;    0.000
322.258; 2903.425;  217.825;    0.000
322.318; 2822.425;  183.825;    0.000
322.378; 2904.425;  231.825;    0.000
322.438; 2883.425;  228.825;    0.000
322.499; 2900.425;  248.825;    0.000
322.559; 2816.425;  198.825;    0.000
322.619; 2883.425;  221.825;    0.000
322.679; 2840.425;  217.825;    0.000
322.739; 2766.425;  204.825;    0.000
322.799; 2936.425;  236.825;    0.000
322.859; 2864.425;  213.825;    0.000
322.919; 2858.425;  210.825;    0.000
322.979; 2958.425;  244.825;    0.000
323.039; 2821.425;  218.825;    0.000
323.099; 2962.425;  232.825;    0.000
323.159; 2912.425;  216.825;    0.000
323.219; 2829.425;  169.825;    0.000
323.279; 2859.425;  236.825;    0.000
323.339; 2905.425;  243.825;    0.000
323.399; 2895.425;  208.825;    0.000
323.459; 2892.425;  220.825;    0.000
323.519; 3011.425;  228.825;    0.000
323.579; 2892.425;  164.825;    0.000
323.639; 2899.425;  209.825;    0.000
323.699; 2860.425;  188.825;    0.000
323.759; 2856.425;  206.825;    0.000
323.819; 2950.425;  204.825;    0.000
323.879; 2888.425;  222.825;    0.000
323.939; 2764.425;  206.825;    0.000
323.999; 2872.425;  202.825;    0.000
324.059; 2870.425;  245.825;    0.000
324.119; 2839.425;  214.825;    0.000
324.178; 2832.425;  183.825;    0.000
324.238; 2864.425;  193.825;    0.000
324.298; 2846.425;  207.825;    0.000
324.358; 2813.425;  196.825;    0.000
324.418; 2808.425;  193.825;    0.000
324.478; 2790.425;  191.825;    0.000
324.538; 2788.425;  224.825;    0.000
324.597; 2789.425;  187.825;    0.000
324.657; 2905.425;  208.825;    0.000
324.717; 2786.425;  198.825;    0.000
324.777; 2875.425;  159.825;    0.000
324.837; 2730.425;  180.825;    0.000
324.896; 2911.425;  215.825;    0.000
324.956; 2759.425;  210.825;    0.000
325.016; 2783.425;  187.825;    0.000
325.076; 2852.425;  197.825;    0.000
325.135; 2933.425;  226.825;    0.000
325.195; 2792.425;  201.825;    0.000
325.255; 2796.425;  167.825;    0.000
325.315; 2802.425;  217.825;    0.000
325.374; 2906.425;  196.825;    0.000
325.434; 2923.425;  167.825;    0.000
325.494; 2800.425;  214.825;    0.000
325.553; 2782.425;  203.825;    0.000
325.613; 2913.425;  206.825;    0.000
325.673; 2773.425;  148.825;    0.000
325.732; 2692.425;  207.825;    0.000
325.792; 2756.425;  151.825;    0.000
325.852; 2773.425;  195.825;    0.000
325.911; 2789.425;  201.825;    0.000
325.971; 2859.425;  224.825;    0.000
326.031; 2786.425;  201.825;    0.000
326.090; 2758.425;  203.825;    0.000
326.150; 2755.425;  183.825;    0.000
326.209; 2745.425;  226.825;    0.000
326.269; 2816.425;  194.825;    0.000
326.328; 2789.425;  200.825;    0.000
326.388; 2743.425;  177.825;    0.000
326.448; 2886.425;  239.825;    0.000
326.507; 2863.425;  197.825;    0.000
326.567; 2792.425;  161.825;    0.000
326.626; 2803.425;  220.825;    0.000
326.686; 2702.425;  178.825;    0.000
326.745; 2775.425;  167.825;    0.000
326.805; 2754.425;  176.825;    0.000
326.864; 2740.425;  204.825;    0.000
326.924; 2734.425;  218.825;    0.000
326.983; 2757.425;  201.825;    0.000
327.043; 2762.425;  219.825;    0.000
327.102; 2757.425;  202.825;    0.000
327.161; 2740.425;  228.825;    0.000
327.221; 2797.425;  217.825;    0.000
327.280; 2623.425;  188.825;    0.000
327.340; 2727.425;  209.825;    0.000
327.399; 2767.425;  189.825;    0.000
327.459; 2788.425;  216.825;    0.000
327.518; 2691.425;  200.825;    0.000
327.577; 2674.425;  194.825;    0.000
327.637; 2678.425;  180.825;    0.000
327.696; 2642.425;  208.825;    0.000
327.755; 2642.425;  218.825;    0.000
327.815; 2690.425;  234.825;    0.000
327.874; 2767.425;  259.825;    0.000
327.933; 2757.425;  192.825;    0.000
327.993; 2749.425;  208.825;    0.000
328.052; 2755.425;  221.825;    0.000
328.111; 2633.425;  203.825;    0.000
328.171; 2642.425;  221.825;    0.000
328.230; 2701.425;  222.825;    0.000
328.289; 2655.425;  254.825;    0.000
328.349; 2734.425;  232.825;    0.000
328.408; 2639.425;  223.825;    0.000
328.467; 2725.425;  198.825;    0.000
328.526; 2691.425;  217.825;    0.000
328.586; 2538.425;  185.825;    0.000
328.645; 2663.425;  210.825;    0.000
328.704; 2574.425;  211.825;    0.000
328.763; 2611.425;  231.825;    0.000
328.822; 2680.425;  254.825;    0.000
328.882; 2681.425;  216.825;    0.000
328.941; 2586.425;  239.825;    0.000
329.000; 2633.425;  251.825;    0.000
329.059; 2572.425;  227.825;    0.000
329.118; 2624.425;  233.825;    0.000
329.177; 2625.425;  188.825;    0.000
329.237; 2643.425;  257.825;    0.000
329.296; 2719.425;  265.825;    0.000
329.355; 2632.425;  245.825;    0.000
329.414; 2608.425;  236.825;    0.000
329.473; 2695.425;  242.825;    0.000
329.532; 2638.425;  228.825;    0.000
329.591; 2666.425;  206.825;    0.000
329.650; 2728.425;  250.825;    0.000
329.709; 2706.425;  278.825;    0.000
329.768; 2690.425;  219.825;    0.000
329.827; 2741.425;  254.825;    0.000
329.886; 2649.425;  221.825;    0.000
329.945; 2614.425;  239.825;    0.000
330.004; 2633.425;  245.825;    0.000
330.063; 2605.425;  201.825;    0.000
330.122; 2679.425;  227.825;    0.000
330.181; 2727.425;  196.825;    0.000
330.240; 2513.425;  203.825;    0.000
330.299; 2661.425;  214.825;    0.000
330.358; 2637.425;  196.825;    0.000
330.417; 2666.425;  201.825;    0.000
330.476; 2584.425;  248.825;    0.000
330.535; 2591.425;  253.825;    0.000
330.594; 2587.425;  231.825;    0.000
330.653; 2673.425;  210.825;    0.000
330.712; 2663.425;  242.825;    0.000
330.771; 2692.425;  240.825;    0.000
330.830; 2606.425;  230.825;    0.000
330.889; 2690.425;  217.825;    0.000
330.948; 2611.425;  211.825;    0.000
331.006; 2612.425;  217.825;    0.000
331.065; 2584.425;  170.825;    0.000
331.124; 2673.425;  211.825;    0.000
331.183; 2571.425;  192.825;    0.000
331.242; 2544.425;  227.825;    0.000
331.301; 2580.425;  240.825;    0.000
331.359; 2556.425;  223.825;    0.000
331.418; 2485.425;  215.825;    0.000
331.477; 2502.425;  230.825;    0.000
331.536; 2568.425;  221.825;    0.000
331.595; 2442.425;  198.825;    0.000
331.653; 2534.425;  207.825;    0.000
331.712; 2591.425;  217.825;    0.000
331.771; 2481.425;  221.825;    0.000
331.830; 2530.425;  222.825;    0.000
331.888; 2537.425;  213.825;    0.000
331.947; 2565.425;  233.825;    0.000
332.006; 2572.425;  212.825;    0.000
332.065; 2655.425;  200.825;    0.000
332.123; 2547.425;  223.825;    0.000
332.182; 2549.425;  180.825;    0.000
332.241; 2563.425;  192.825;    0.000
332.299; 2614.425;  172.825;    0.000
332.358; 2478.425;  216.825;    0.000
332.417; 2542.425;  211.825;    0.000
332.475; 2619.425;  222.825;    0.000
332.534; 2560.425;  238.825;    0.000
332.592; 2493.425;  216.825;    0.000
332.651; 2535.425;  196.825;    0.000
332.710; 2637.425;  215.825;    0.000
332.768; 2598.425;  193.825;    0.000
332.827; 2604.425;  201.825;    0.000
332.885; 2591.425;  226.825;    0.000
332.944; 2548.425;  174.825;    0.000
333.003; 2623.425;  187.825;    0.000
333.061; 2619.425;  208.825;    0.000
333.120; 2628.425;  202.825;    0.000
333.178; 2726.425;  227.825;    0.000
333.237; 2680.425;  215.825;    0.000
333.295; 2770.425;  245.825;    0.000
333.354; 2698.425;  194.825;    0.000
333.412; 2662.425;  165.825;    0.000
333.471; 2721.425;  219.825;    0.000
333.529; 2836.425;  255.825;    0.000
333.588; 2845.425;  264.825;    0.000
333.646; 2867.425;  231.825;    0.000
333.705; 2889.425;  232.825;    0.000
333.763; 2845.425;  233.825;    0.000
333.822; 2806.425;  221.825;    0.000
333.880; 2739.425;  180.825;    0.000
333.938; 2712.425;  229.825;    0.000
333.997; 2633.425;  194.825;    0.000
334.055; 2815.425;  230.825;    0.000
334.114; 2659.425;  230.825;    0.000
334.172; 2598.425;  170.825;    0.000
334.230; 2590.425;  192.825;    0.000
334.289; 2715.425;  225.825;    0.000
334.347; 2688.425;  233.825;    0.000
334.405; 2748.425;  207.825;    0.000
334.464; 2665.425;  175.825;    0.000
334.522; 2575.425;  180.825;    0.000
334.580; 2622.425;  172.825;    0.000
334.639; 2640.425;  230.825;    0.000
334.697; 2642.425;  217.825;    0.000
334.755; 2559.425;  217.825;    0.000
334.814; 2754.425;  210.825;    0.000
334.872; 2623.425;  170.825;    0.000
334.930; 2646.425;  167.825;    0.000
334.988; 2629.425;  244.825;    0.000
335.047; 2648.425;  202.825;    0.000
335.105; 2657.425;  181.825;    0.000
335.163; 2682.425;  195.825;    0.000
335.221; 2713.425;  203.825;    0.000
335.280; 2643.425;  216.825;    0.000
335.338; 2724.425;  197.825;    0.000
335.396; 2635.425;  232.825;    0.000
335.454; 2651.425;  211.825;    0.000
335.512; 2565.425;  221.825;    0.000
335.570; 2624.425;  216.825;    0.000
335.629; 2634.425;  244.825;    0.000
335.687; 2622.425;  244.825;    0.000
335.745; 2646.425;  189.825;    0.000
335.803; 2691.425;  198.825;    0.000
335.861; 2698.425;  236.825;    0.000
335.919; 2673.425;  234.825;    0.000
335.977; 2701.425;  214.825;    0.000
336.035; 2669.425;  242.825;    0.000
336.094; 2662.425;  219.825;    0.000
336.152; 2661.425;  196.825;    0.000
336.210; 2657.425;  221.825;    0.000
336.268; 2651.425;  257.825;    0.000
336.326; 2795.425;  211.825;    0.000
336.384; 2679.425;  217.825;    0.000
336.442; 2575.425;  176.825;    0.000
336.500; 2725.425;  242.825;    0.000
336.558; 2654.425;  238.825;    0.000
336.616; 2610.425;  261.825;    0.000
336.674; 2630.425;  200.825;    0.000
336.732; 2648.425;  208.825;    0.000
336.790; 2693.425;  183.825;    0.000
336.848; 2663.425;  199.825;    0.000
336.906; 2605.425;  240.825;    0.000
336.964; 2619.425;  234.825;    0.000
337.022; 2558.425;  282.825;    0.000
337.080; 2669.425;  265.825;    0.000
337.138; 2612.425;  255.825;    0.000
337.195; 2551.425;  200.825;    0.000
337.253; 2566.425;  199.825;    0.000
337.311; 2627.425;  233.825;    0.000
337.369; 2647.425;  250.825;    0.000
337.427; 2572.425;  201.825;    0.000
337.485; 2572.425;  228.825;    0.000
337.543; 2633.425;  221.825;    0.000
337.601; 2618.425;  232.825;    0.000
337.658; 2658.425;  215.825;    0.000
337.716; 2460.425;  198.825;    0.000
337.774; 2514.425;  262.825;    0.000
337.832; 2577.425;  220.825;    0.000
337.890; 2505.425;  194.825;    0.000
337.947; 2559.425;  205.825;    0.000
338.005; 2494.425;  229.825;    0.000
338.063; 2575.425;  237.825;    0.000
338.121; 2549.425;  220.825;    0.000
338.178; 2549.425;  227.825;    0.000
338.236; 2650.425;  238.825;    0.000
338.294; 2525.425;  242.825;    0.000
338.352; 2568.425;  230.825;    0.000
338.409; 2523.425;  222.825;    0.000
338.467; 2489.425;  233.825;    0.000
338.525; 2551.425;  253.825;    0.000
338.583; 2491.425;  221.825;    0.000
338.640; 2556.425;  225.825;    0.000
338.698; 2482.425;  229.825;    0.000
338.756; 2487.425;  238.825;    0.000
338.813; 2546.425;  260.825;    0.000
338.871; 2598.425;  246.825;    0.000
338.928; 2538.425;  240.825;    0.000
338.986; 2565.425;  228.825;    0.000
339.044; 2492.425;  265.825;    0.000
339.101; 2555.425;  224.825;    0.000
339.159; 2457.425;  235.825;    0.000
339.216; 2553.425;  244.825;    0.000
339.274; 2491.425;  266.825;    0.000
339.332; 2530.425;  248.825;    0.000
339.389; 2606.425;  246.825;    0.000
339.447; 2603.425;  237.825;    0.000
339.504; 2541.425;  244.825;    0.000
339.562; 2560.425;  249.825;    0.000
339.619; 2565.425;  266.825;    0.000
339.677; 2545.425;  263.825;    0.000
339.734; 2500.425;  216.825;    0.000
339.792; 2527.425;  276.825;    0.000
339.849; 2468.425;  240.825;    0.000
339.907; 2497.425;  275.825;    0.000
339.964; 2529.425;  243.825;    0.000
340.022; 2592.425;  224.825;    0.000
340.079; 2614.425;  230.825;    0.000
340.137; 2544.425;  232.825;    0.000
340.194; 2565.425;  261.825;    0.000
340.252; 2595.425;  219.825;    0.000
340.309; 2598.425;  212.825;    0.000
340.366; 2437.425;  231.825;    0.000
340.424; 2456.425;  244.825;    0.000
340.481; 2569.425;  238.825;    0.000
340.538; 2488.425;  217.825;    0.000
340.596; 2523.425;  224.825;    0.000
340.653; 2559.425;  225.825;    0.000
340.711; 2520.425;  276.825;    0.000
340.768; 2615.425;  239.825;    0.000
340.825; 2570.425;  216.825;    0.000
340.883; 2598.425;  264.825;    0.000
340.940; 2528.425;  256.825;    0.000
340.997; 2528.425;  230.825;    0.000
341.054; 2558.425;  229.825;    0.000
341.112; 2553.425;  220.825;    0.000
341.169; 2529.425;  276.825;    0.000
341.226; 2550.425;  224.825;    0.000
341.284; 2564.425;  235.825;    0.000
341.341; 2631.425;  226.825;    0.000
341.398; 2505.425;  200.825;    0.000
341.455; 2657.425;  242.825;    0.000
341.512; 2621.425;  226.825;    0.000
341.570; 2566.425;  299.825;    0.000
341.627; 2556.425;  221.825;    0.000
341.684; 2491.425;  204.825;    0.000
341.741; 2647.425;  285.825;    0.000
341.798; 2601.425;  237.825;    0.000
341.856; 2499.425;  223.825;    0.000
341.913; 2558.425;  232.825;    0.000
341.970; 2552.425;  250.825;    0.000
342.027; 2624.425;  272.825;    0.000
342.084; 2597.425;  242.825;    0.000
342.141; 2702.425;  207.825;    0.000
342.198; 2579.425;  252.825;    0.000
342.255; 2590.425;  189.825;    0.000
342.313; 2648.425;  222.825;    0.000
342.370; 2581.425;  203.825;    0.000
342.427; 2593.425;  261.825;    0.000
342.484; 2588.425;  230.825;    0.000
342.541; 2601.425;  224.825;    0.000
342.598; 2586.425;  245.825;    0.000
342.655; 2535.425;  235.825;    0.000
342.712; 2589.425;  238.825;    0.000
342.769; 2606.425;  235.825;    0.000
342.826; 2619.425;  232.825;    0.000
342.883; 2593.425;  212.825;    0.000
342.940; 2502.425;  189.825;    0.000
342.997; 2601.425;  241.825;    0.000
343.054; 2481.425;  235.825;    0.000
343.111; 2528.425;  216.825;    0.000
343.168; 2529.425;  202.825;    0.000
343.225; 2629.425;  228.825;    0.000
343.282; 2655.425;  208.825;    0.000
343.339; 2655.425;  241.825;    0.000
343.395; 2714.425;  206.825;    0.000
343.452; 2639.425;  227.825;    0.000
343.509; 2655.425;  212.825;    0.000
343.566; 2674.425;  266.825;    0.000
343.623; 2674.425;  240.825;    0.000
343.680; 2683.425;  215.825;    0.000
343.737; 2744.425;  231.825;    0.000
343.794; 2728.425;  256.825;    0.000
343.850; 2679.425;  235.825;    0.000
343.907; 2631.425;  246.825;    0.000
343.964; 2736.425;  241.825;    0.000
344.021; 2656.425;  237.825;    0.000
344.078; 2776.425;  248.825;    0.000
344.134; 2792.425;  225.825;    0.000
344.191; 2732.425;  209.825;    0.000
344.248; 2710.425;  234.825;    0.000
344.305; 2820.425;  224.825;    0.000
344.361; 2746.425;  194.825;    0.000
344.418; 2776.425;  240.825;    0.000
344.475; 2780.425;  252.825;    0.000
344.532; 2727.425;  251.825;    0.000
344.588; 2734.425;  240.825;    0.000
344.645; 2715.425;  253.825;    0.000
344.702; 2756.425;  216.825;    0.000
344.758; 2704.425;  258.825;    0.000
344.815; 2680.425;  239.825;    0.000
344.872; 2729.425;  216.825;    0.000
344.928; 2688.425;  236.825;    0.000
344.985; 2766.425;  238.825;    0.000
345.042; 2718.425;  211.825;    0.000
345.098; 2712.425;  223.825;    0.000
345.155; 2627.425;  266.825;    0.000
345.212; 2692.425;  266.825;    0.000
345.268; 2695.425;  245.825;    0.000
345.325; 2727.425;  225.825;    0.000
345.381; 2788.425;  223.825;    0.000
345.438; 2672.425;  259.825;    0.000
345.495; 2846.425;  233.825;    0.000
345.551; 2788.425;  254.825;    0.000
345.608; 2646.425;  212.825;    0.000
345.664; 2658.425;  225.825;    0.000
345.721; 2648.425;  223.825;    0.000
345.777; 2673.425;  226.825;    0.000
345.834; 2698.425;  215.825;    0.000
345.890; 2687.425;  230.825;    0.000
345.947; 2675.425;  232.825;    0.000
346.003; 2702.425;  241.825;    0.000
346.060; 2731.425;  241.825;    0.000
346.116; 2713.425;  231.825;    0.000
346.173; 2768.425;  229.825;    0.000
346.229; 2654.425;  262.825;    0.000
346.285; 2615.425;  232.825;    0.000
346.342; 2788.425;  228.825;    0.000
346.398; 2677.425;  203.825;    0.000
346.455; 2750.425;  214.825;    0.000
346.511; 2759.425;  245.825;    0.000
346.567; 2756.425;  192.825;    0.000
346.624; 2764.425;  206.825;    0.000
346.680; 2719.425;  209.825;    0.000
346.737; 2709.425;  239.825;    0.000
346.793; 2784.425;  234.825;    0.000
346.849; 2778.425;  252.825;    0.000
346.906; 2808.425;  247.825;    0.000
346.962; 2768.425;  274.825;    0.000
347.018; 2771.425;  225.825;    0.000
347.074; 2740.425;  261.825;    0.000
347.131; 2763.425;  230.825;    0.000
347.187; 2710.425;  269.825;    0.000
347.243; 2700.425;  261.825;    0.000
347.300; 2756.425;  236.825;    0.000
347.356; 2786.425;  284.825;    0.000
347.412; 2758.425;  243.825;    0.000
347.468; 2785.425;  276.825;    0.000
347.524; 2738.425;  232.825;    0.000
347.581; 2664.425;  242.825;    0.000
347.637; 2727.425;  270.825;    0.000
347.693; 2817.425;  269.825;    0.000
347.749; 2819.425;  278.825;    0.000
347.805; 2753.425;  224.825;    0.000
347.862; 2842.425;  207.825;    0.000
347.918; 2796.425;  259.825;    0.000
347.974; 2717.425;  244.825;    0.000
348.030; 2780.425;  219.825;    0.000
348.086; 2797.425;  250.825;    0.000
348.142; 2741.425;  251.825;    0.000
348.198; 2836.425;  267.825;    0.000
348.254; 2877.425;  230.825;    0.000
348.311; 2776.425;  261.825;    0.000
348.367; 2767.425;  259.825;    0.000
348.423; 2729.425;  251.825;    0.000
348.479; 2720.425;  251.825;    0.000
348.535; 2763.425;  269.825;    0.000
348.591; 2764.425;  238.825;    0.000
348.647; 2690.425;  273.825;    0.000
348.703; 2825.425;  291.825;    0.000
348.759; 2812.425;  231.825;    0.000
348.815; 2734.425;  286.825;    0.000
348.871; 2866.425;  265.825;    0.000
348.927; 2747.425;  234.825;    0.000
348.983; 2775.425;  267.825;    0.000
349.039; 2814.425;  233.825;    0.000
349.095; 2807.425;  225.825;    0.000
349.151; 2767.425;  242.825;    0.000
349.207; 2700.425;  223.825;    0.000
349.263; 2834.425;  219.825;    0.000
349.319; 2717.425;  226.825;    0.000
349.374; 2764.425;  232.825;    0.000
349.430; 2788.425;  235.825;    0.000
349.486; 2800.425;  227.825;    0.000
349.542; 2965.425;  253.825;    0.000
349.598; 2919.425;  227.825;    0.000
349.654; 2924.425;  270.825;    0.000
349.710; 2864.425;  233.825;    0.000
349.766; 2792.425;  245.825;    0.000
349.821; 2845.425;  242.825;    0.000
349.877; 2762.425;  229.825;    0.000
349.933; 2898.425;  229.825;    0.000
349.989; 2876.425;  230.825;    0.000
350.045; 2820.425;  236.825;    0.000
350.100; 2763.425;  237.825;    0.000
350.156; 2783.425;  230.825;    0.000
350.212; 2853.425;  254.825;    0.000
350.268; 2872.425;  239.825;    0.000
350.323; 2812.425;  204.825;    0.000
350.379; 2760.425;  246.825;    0.000
350.435; 2826.425;  249.825;    0.000
350.491; 2821.425;  217.825;    0.000
350.546; 2842.425;  231.825;    0.000
350.602; 2868.425;  240.825;    0.000
350.658; 2846.425;  235.825;    0.000
350.713; 2741.425;  234.825;    0.000
350.769; 2765.425;  218.825;    0.000
350.825; 2795.425;  227.825;    0.000
350.880; 2792.425;  226.825;    0.000
350.936; 2849.425;  247.825;    0.000
350.992; 2819.425;  213.825;    0.000
351.047; 2941.425;  207.825;    0.000
351.103; 2798.425;  271.825;    0.000
351.158; 2794.425;  251.825;    0.000
351.214; 2865.425;  199.825;    0.000
351.270; 2882.425;  214.825;    0.000
351.325; 2797.425;  235.825;    0.000
351.381; 2951.425;  223.825;    0.000
351.436; 2881.425;  237.825;    0.000
351.492; 2823.425;  221.825;    0.000
351.547; 2899.425;  237.825;    0.000
351.603; 2869.425;  239.825;    0.000
351.658; 2854.425;  209.825;    0.000
351.714; 2881.425;  226.825;    0.000
351.769; 2934.425;  238.825;    0.000
351.825; 2902.425;  226.825;    0.000
351.880; 2895.425;  217.825;    0.000
351.936; 2879.425;  246.825;    0.000
351.991; 2865.425;  233.825;    0.000
352.047; 2853.425;  215.825;    0.000
352.102; 2829.425;  243.825;    0.000
352.158; 2796.425;  234.825;    0.000
352.213; 2756.425;  201.825;    0.000
352.268; 2873.425;  234.825;    0.000
352.324; 2799.425;  211.825;    0.000
352.379; 2885.425;  221.825;    0.000
352.434; 2908.425;  259.825;    0.000
352.490; 2848.425;  250.825;    0.000
352.545; 2875.425;  251.825;    0.000
352.601; 2862.425;  283.825;    0.000
352.656; 2879.425;  236.825;    0.000
352.711; 2794.425;  237.825;    0.000
352.767; 2840.425;  201.825;    0.000
352.822; 2900.425;  209.825;    0.000
352.877; 2781.425;  239.825;    0.000
352.932; 2854.425;  228.825;    0.000
352.988; 2799.425;  202.825;    0.000
353.043; 2916.425;  268.825;    0.000
353.098; 2886.425;  208.825;    0.000
353.153; 2861.425;  219.825;    0.000
353.209; 2779.425;  252.825;    0.000
353.264; 2862.425;  225.825;    0.000
353.319; 2774.425;  234.825;    0.000
353.374; 2865.425;  236.825;    0.000
353.430; 2833.425;  245.825;    0.000
353.485; 2812.425;  238.825;    0.000
353.540; 2771.425;  238.825;    0.000
353.595; 2789.425;  215.825;    0.000
353.650; 2789.425;  238.825;    0.000
353.705; 2891.425;  274.825;    0.000
353.761; 2834.425;  229.825;    0.000
353.816; 2882.425;  275.825;    0.000
353.871; 2879.425;  245.825;    0.000
353.926; 2885.425;  253.825;    0.000
353.981; 2866.425;  269.825;    0.000
354.036; 2883.425;  246.825;    0.000
354.091; 2871.425;  257.825;    0.000
354.146; 2878.425;  278.825;    0.000
354.201; 2899.425;  276.825;    0.000
354.256; 2861.425;  224.825;    0.000
354.311; 2912.425;  287.825;    0.000
354.367; 2898.425;  210.825;    0.000
354.422; 2887.425;  231.825;    0.000
354.477; 2828.425;  226.825;    0.000
354.532; 2887.425;  262.825;    0.000
354.587; 2890.425;  275.825;    0.000
354.642; 2923.425;  247.825;    0.000
354.697; 2918.425;  251.825;    0.000
354.751; 2902.425;  249.825;    0.000
354.806; 2836.425;  217.825;    0.000
354.861; 2841.425;  247.825;    0.000
354.916; 2948.425;  259.825;    0.000
354.971; 3023.425;  241.825;    0.000
355.026; 2895.425;  250.825;    0.000
355.081; 2840.425;  244.825;    0.000
355.136; 2839.425;  203.825;    0.000
355.191; 2864.425;  241.825;    0.000
355.246; 2960.425;  248.825;    0.000
355.301; 2862.425;  259.825;    0.000
355.355; 2928.425;  236.825;    0.000
355.410; 2880.425;  221.825;    0.000
355.465; 2862.425;  206.825;    0.000
355.520; 2826.425;  258.825;    0.000
355.575; 2913.425;  273.825;    0.000
355.630; 2946.425;  252.825;    0.000
355.684; 2876.425;  246.825;    0.000
355.739; 2885.425;  251.825;    0.000
355.794; 2897.425;  247.825;    0.000
355.849; 2867.425;  246.825;    0.000
355.904; 2921.425;  262.825;    0.000
355.958; 2904.425;  249.825;    0.000
356.013; 2823.425;  213.825;    0.000
356.068; 2879.425;  255.825;    0.000
356.123; 2878.425;  205.825;    0.000
356.177; 2879.425;  239.825;    0.000
356.232; 2934.425;  258.825;    0.000
356.287; 2888.425;  248.825;    0.000
356.341; 2952.425;  221.825;    0.000
356.396; 2839.425;  220.825;    0.000
356.451; 2888.425;  231.825;    0.000
356.505; 2977.425;  231.825;    0.000
356.560; 3008.425;  254.825;    0.000
356.615; 2864.425;  234.825;    0.000
356.669; 2964.425;  250.825;    0.000
356.724; 2982.425;  261.825;    0.000
356.778; 2881.425;  207.825;    0.000
356.833; 2812.425;  205.825;    0.000
356.888; 2902.425;  235.825;    0.000
356.942; 2888.425;  205.825;    0.000
356.997; 2875.425;  276.825;    0.000
357.051; 2931.425;  243.825;    0.000
357.106; 2960.425;  242.825;    0.000
357.160; 2897.425;  241.825;    0.000
357.215; 2948.425;  212.825;    0.000
357.269; 2862.425;  238.825;    0.000
357.324; 2826.425;  223.825;    0.000
357.378; 2984.425;  221.825;    0.000
357.433; 2873.425;  262.825;    0.000
357.487; 2862.425;  246.825;    0.000
357.542; 2927.425;  221.825;    0.000
357.596; 2941.425;  225.825;    0.000
357.651; 2984.425;  244.825;    0.000
357.705; 2877.425;  269.825;    0.000
357.760; 2875.425;  209.825;    0.000
357.814; 2812.425;  250.825;    0.000
357.868; 2849.425;  266.825;    0.000
357.923; 2838.425;  248.825;    0.000
357.977; 2797.425;  262.825;    0.000
358.032; 2920.425;  228.825;    0.000
358.086; 2920.425;  257.825;    0.000
358.140; 2841.425;  217.825;    0.000
358.195; 2875.425;  246.825;    0.000
358.249; 2869.425;  255.825;    0.000
358.303; 2916.425;  252.825;    0.000
358.358; 2898.425;  278.825;    0.000
358.412; 2811.425;  276.825;    0.000
358.466; 2894.425;  275.825;    0.000
358.521; 2899.425;  229.825;    0.000
358.575; 2856.425;  270.825;    0.000
358.629; 2935.425;  239.825;    0.000
358.683; 2836.425;  254.825;    0.000
358.738; 2827.425;  239.825;    0.000
358.792; 2824.425;  272.825;    0.000
358.846; 2830.425;  289.825;    0.000
358.900; 2810.425;  299.825;    0.000
358.954; 2954.425;  247.825;    0.000
359.009; 2792.425;  245.825;    0.000
359.063; 2908.425;  272.825;    0.000
359.117; 2893.425;  242.825;    0.000
359.171; 2857.425;  279.825;    0.000
359.225; 2813.425;  221.825;    0.000
359.280; 2874.425;  238.825;    0.000
359.334; 2836.425;  264.825;    0.000
359.388; 2891.425;  273.825;    0.000
359.442; 2845.425;  233.825;    0.000
359.496; 2773.425;  226.825;    0.000
359.550; 2953.425;  271.825;    0.000
359.604; 2850.425;  296.825;    0.000
359.658; 2814.425;  252.825;    0.000
359.712; 2845.425;  256.825;    0.000
359.766; 2867.425;  257.825;    0.000
359.820; 2841.425;  239.825;    0.000
359.875; 2915.425;  252.825;    0.000
359.929; 2923.425;  258.825;    0.000
359.983; 2783.425;  232.825;    0.000
360.037; 2878.425;  268.825;    0.000
360.091; 2849.425;  303.825;    0.000
360.145; 2874.425;  232.825;    0.000
360.199; 2798.425;  255.825;    0.000
360.253; 2826.425;  252.825;    0.000
360.306; 2827.425;  278.825;    0.000
360.360; 2909.425;  249.825;    0.000
360.414; 2837.425;  274.825;    0.000
360.468; 2875.425;  247.825;    0.000
360.522; 2873.425;  268.825;    0.000
360.576; 2862.425;  263.825;    0.000
360.630; 2855.425;  296.825;    0.000
360.684; 2833.425;  253.825;    0.000
360.738; 2898.425;  301.825;    0.000
360.792; 2899.425;  282.825;    0.000
360.846; 2855.425;  277.825;    0.000
360.899; 2820.425;  292.825;    0.000
360.953; 2893.425;  266.825;    0.000
361.007; 2775.425;  240.825;    0.000
361.061; 2834.425;  247.825;    0.000
361.115; 2848.425;  276.825;    0.000
361.168; 2902.425;  288.825;    0.000
361.222; 2785.425;  271.825;    0.000
361.276; 2886.425;  270.825;    0.000
361.330; 2797.425;  295.825;    0.000
361.384; 2892.425;  276.825;    0.000
361.437; 2799.425;  280.825;    0.000
361.491; 2853.425;  261.825;    0.000
361.545; 2839.425;  273.825;    0.000
361.599; 2827.425;  269.825;    0.000
361.652; 2864.425;  258.825;    0.000
361.706; 2856.425;  270.825;    0.000
361.760; 2855.425;  294.825;    0.000
361.813; 2792.425;  244.825;    0.000
361.867; 2892.425;  294.825;    0.000
361.921; 2784.425;  285.825;    0.000
361.974; 2864.425;  269.825;    0.000
362.028; 2814.425;  275.825;    0.000
362.082; 2822.425;  270.825;    0.000
362.135; 2850.425;  259.825;    0.000
362.189; 2844.425;  302.825;    0.000
362.242; 2806.425;  296.825;    0.000
362.296; 2869.425;  285.825;    0.000
362.350; 2865.425;  303.825;    0.000
362.403; 2743.425;  271.825;    0.000
362.457; 2834.425;  285.825;    0.000
362.510; 2903.425;  288.825;    0.000
362.564; 2841.425;  268.825;    0.000
362.617; 2877.425;  285.825;    0.000
362.671; 2840.425;  277.825;    0.000
362.724; 2747.425;  242.825;    0.000
362.778; 2816.425;  274.825;    0.000
362.831; 2829.425;  280.825;    0.000
362.885; 2811.425;  284.825;    0.000
362.938; 2648.425;  276.825;    0.000
362.992;  336.425;  289.825;    0.000
363.045;  264.425;  247.825;    0.000
363.099;  267.425;  260.825;    0.000
363.152;  324.425;  258.825;    0.000
363.205;  278.425;  286.825;    0.000
363.259;  250.425;  236.825;    0.000
363.312;  306.425;  297.825;    0.000
363.366;  290.425;  266.825;    0.000
363.419;  284.425;  309.825;    0.000
363.472;  299.425;  293.825;    0.000
363.526;  261.425;  270.825;    0.000
363.579;  273.425;  276.825;    0.000
363.632;  287.425;  279.825;    0.000
363.686;  262.425;  292.825;    0.000
363.739;  238.425;  248.825;    0.000
363.792;  275.425;  287.825;    0.000

