
Integration time [ms]:   1.000
Averaging Nr. [scans]: 1
Smoothing Nr. [pixels]: 0
Data measured with spectrometer [name]: UV2
Wave   ;Sample   ;Dark     ;Reference
[nm]   ;[counts] ;[counts] ;[counts] 

353.533;  242.075;  216.475;    0.000
353.597;  248.075;  244.475;    0.000
353.660;  203.075;  181.475;    0.000
353.723;  171.075;  203.475;    0.000
353.786;  196.075;  180.475;    0.000
353.850;  233.075;  213.475;    0.000
353.913;  186.075;  191.475;    0.000
353.976;  192.075;  195.475;    0.000
354.039;  186.075;  158.475;    0.000
354.102;  194.075;  199.475;    0.000
354.166;  223.075;  185.475;    0.000
354.229;  185.075;  188.475;    0.000
354.292;  192.075;  188.475;    0.000
354.355;  185.075;  226.475;    0.000
354.418;  209.075;  158.475;    0.000
354.481;  186.075;  185.475;    0.000
354.545;  595.075;  191.475;    0.000
354.608;  634.075;  247.475;    0.000
354.671;  583.075;  176.475;    0.000
354.734;  625.075;  198.475;    0.000
354.797;  653.075;  195.475;    0.000
354.860;  640.075;  212.475;    0.000
354.923;  603.075;  184.475;    0.000
354.986;  670.075;  169.475;    0.000
355.050;  663.075;  206.475;    0.000
355.113;  649.075;  210.475;    0.000
355.176;  696.075;  217.475;    0.000
355.239;  702.075;  201.475;    0.000
355.302;  677.075;  193.475;    0.000
355.365;  668.075;  234.475;    0.000
355.428;  747.075;  182.475;    0.000
355.491;  748.075;  233.475;    0.000
355.554;  699.075;  167.475;    0.000
355.617;  783.075;  195.475;    0.000
355.680;  738.075;  198.475;    0.000
355.743;  770.075;  186.475;    0.000
355.806;  760.075;  171.475;    0.000
355.869;  734.075;  244.475;    0.000
355.932;  750.075;  164.475;    0.000
355.995;  763.075;  220.475;    0.000
356.058;  741.075;  172.475;    0.000
356.121;  826.075;  228.475;    0.000
356.184;  831.075;  225.475;    0.000
356.247;  787.075;  161.475;    0.000
356.310;  714.075;  195.475;    0.000
356.373;  843.075;  191.475;    0.000
356.436;  775.075;  147.475;    0.000
356.498;  794.075;  183.475;    0.000
356.561;  806.075;  137.475;    0.000
356.624;  785.075;  186.475;    0.000
356.687;  800.075;  158.475;    0.000
356.750;  820.075;  194.475;    0.000
356.813;  809.075;  186.475;    0.000
356.876;  833.075;  161.475;    0.000
356.939;  799.075;  188.475;    0.000
357.001;  836.075;  200.475;    0.000
357.064;  834.075;  182.475;    0.000
357.127;  829.075;  168.475;    0.000
357.190;  847.075;  157.475;    0.000
357.253;  860.075;  199.475;    0.000
357.316;  868.075;  187.475;    0.000
357.378;  831.075;  174.475;    0.000
357.441;  859.075;  165.475;    0.000
357.504;  828.075;  189.475;    0.000
357.567;  844.075;  116.475;    0.000
357.629;  806.075;  176.475;    0.000
357.692;  816.075;  134.475;    0.000
357.755;  880.075;  175.475;    0.000
357.818;  764.075;  159.475;    0.000
357.880;  888.075;  185.475;    0.000
357.943;  853.075;  159.475;    0.000
358.006;  862.075;  176.475;    0.000
358.069;  858.075;  156.475;    0.000
358.131;  902.075;  170.475;    0.000
358.194;  788.075;  125.475;    0.000
358.257;  801.075;  186.475;    0.000
358.319;  851.075;  139.475;    0.000
358.382;  865.075;  175.475;    0.000
358.445;  879.075;  170.475;    0.000
358.507;  866.075;  129.475;    0.000
358.570;  879.075;  168.475;    0.000
358.633;  870.075;  152.475;    0.000
358.695;  813.075;  194.475;    0.000
358.758;  896.075;  154.475;    0.000
358.821;  919.075;  147.475;    0.000
358.883;  908.075;  163.475;    0.000
358.946;  867.075;  155.475;    0.000
359.008;  921.075;  208.475;    0.000
359.071;  892.075;  182.475;    0.000
359.134;  820.075;  126.475;    0.000
359.196;  842.075;  142.475;    0.000
359.259;  896.075;  138.475;    0.000
359.321;  917.075;  153.475;    0.000
359.384;  914.075;  186.475;    0.000
359.446;  926.075;  152.475;    0.000
359.509;  891.075;  144.475;    0.000
359.571;  894.075;  164.475;    0.000
359.634;  895.075;  171.475;    0.000
359.696;  905.075;  144.475;    0.000
359.759;  925.075;  171.475;    0.000
359.821;  902.075;  161.475;    0.000
359.884;  893.075;  159.475;    0.000
359.946;  958.075;  186.475;    0.000
360.009;  909.075;  171.475;    0.000
360.071;  927.075;  166.475;    0.000
360.134;  915.075;  215.475;    0.000
360.196;  857.075;  138.475;    0.000
360.259;  917.075;  196.475;    0.000
360.321;  907.075;  148.475;    0.000
360.384;  910.075;  150.475;    0.000
360.446;  868.075;  148.475;    0.000
360.508;  943.075;  172.475;    0.000
360.571;  967.075;  155.475;    0.000
360.633;  984.075;  153.475;    0.000
360.696;  957.075;  142.475;    0.000
360.758;  904.075;  165.475;    0.000
360.820;  946.075;  155.475;    0.000
360.883;  942.075;  156.475;    0.000
360.945;  908.075;  171.475;    0.000
361.007;  937.075;  138.475;    0.000
361.070;  914.075;  129.475;    0.000
361.132; 1003.075;  166.475;    0.000
361.194;  961.075;  143.475;    0.000
361.257;  932.075;  154.475;    0.000
361.319;  951.075;  176.475;    0.000
361.381;  955.075;  143.475;    0.000
361.443;  922.075;  136.475;    0.000
361.506; 1017.075;  160.475;    0.000
361.568;  976.075;  140.475;    0.000
361.630;  994.075;  159.475;    0.000
361.693;  984.075;  162.475;    0.000
361.755;  951.075;  185.475;    0.000
361.817; 1017.075;  209.475;    0.000
361.879; 1028.075;  161.475;    0.000
361.941;  929.075;  152.475;    0.000
362.004;  980.075;  132.475;    0.000
362.066;  970.075;  159.475;    0.000
362.128;  923.075;  143.475;    0.000
362.190;  970.075;  131.475;    0.000
362.252;  971.075;  131.475;    0.000
362.315;  956.075;  175.475;    0.000
362.377;  983.075;  140.475;    0.000
362.439; 1008.075;  140.475;    0.000
362.501; 1011.075;  140.475;    0.000
362.563; 1004.075;  152.475;    0.000
362.625;  970.075;  174.475;    0.000
362.688; 1084.075;  195.475;    0.000
362.750; 1090.075;  221.475;    0.000
362.812; 1022.075;  171.475;    0.000
362.874; 1002.075;  117.475;    0.000
362.936;  991.075;  162.475;    0.000
362.998;  992.075;  142.475;    0.000
363.060; 1065.075;  143.475;    0.000
363.122; 1039.075;  148.475;    0.000
363.184;  987.075;  179.475;    0.000
363.246; 1040.075;  186.475;    0.000
363.308; 1014.075;  180.475;    0.000
363.370; 1049.075;  200.475;    0.000
363.432;  990.075;  139.475;    0.000
363.494; 1010.075;  138.475;    0.000
363.556; 1002.075;  114.475;    0.000
363.618; 1057.075;  153.475;    0.000
363.680; 1051.075;  153.475;    0.000
363.742; 1029.075;  178.475;    0.000
363.804; 1047.075;  214.475;    0.000
363.866;  999.075;  170.475;    0.000
363.928;  931.075;  145.475;    0.000
363.990; 1082.075;  215.475;    0.000
364.052; 1035.075;  166.475;    0.000
364.114; 1002.075;  168.475;    0.000
364.176; 1072.075;  176.475;    0.000
364.238; 1078.075;  203.475;    0.000
364.300;  997.075;  158.475;    0.000
364.362; 1058.075;  152.475;    0.000
364.424; 1003.075;  119.475;    0.000
364.486; 1096.075;  187.475;    0.000
364.548; 1031.075;  180.475;    0.000
364.609; 1073.075;  212.475;    0.000
364.671; 1009.075;  165.475;    0.000
364.733; 1002.075;  190.475;    0.000
364.795; 1034.075;  148.475;    0.000
364.857; 1020.075;  159.475;    0.000
364.919; 1059.075;  159.475;    0.000
364.981; 1007.075;  191.475;    0.000
365.042; 1061.075;  170.475;    0.000
365.104; 1043.075;  145.475;    0.000
365.166; 1054.075;  134.475;    0.000
365.228; 1024.075;  150.475;    0.000
365.290; 1022.075;  158.475;    0.000
365.351; 1061.075;  168.475;    0.000
365.413; 1044.075;  173.475;    0.000
365.475; 1021.075;  172.475;    0.000
365.537; 1058.075;  126.475;    0.000
365.598; 1117.075;  160.475;    0.000
365.660; 1031.075;  127.475;    0.000
365.722; 1110.075;  189.475;    0.000
365.784; 1037.075;  161.475;    0.000
365.845; 1061.075;  152.475;    0.000
365.907; 1045.075;  117.475;    0.000
365.969; 1114.075;  146.475;    0.000
366.030; 1089.075;  171.475;    0.000
366.092; 1109.075;  155.475;    0.000
366.154; 1063.075;  137.475;    0.000
366.215; 1109.075;  147.475;    0.000
366.277; 1081.075;  148.475;    0.000
366.339; 1101.075;  158.475;    0.000
366.400; 1097.075;  140.475;    0.000
366.462; 1088.075;  159.475;    0.000
366.524; 1121.075;  160.475;    0.000
366.585; 1053.075;  157.475;    0.000
366.647; 1085.075;  170.475;    0.000
366.708; 1059.075;  123.475;    0.000
366.770; 1164.075;  194.475;    0.000
366.832; 1151.075;  191.475;    0.000
366.893; 1099.075;  155.475;    0.000
366.955; 1021.075;  132.475;    0.000
367.016; 1102.075;  126.475;    0.000
367.078; 1088.075;  202.475;    0.000
367.139; 1112.075;  116.475;    0.000
367.201; 1086.075;  134.475;    0.000
367.262; 1067.075;  157.475;    0.000
367.324; 1075.075;  202.475;    0.000
367.385; 1100.075;  118.475;    0.000
367.447; 1152.075;  155.475;    0.000
367.508; 1053.075;  134.475;    0.000
367.570; 1052.075;  165.475;    0.000
367.631; 1080.075;  118.475;    0.000
367.693; 1130.075;  170.475;    0.000
367.754; 1116.075;  154.475;    0.000
367.816; 1125.075;  146.475;    0.000
367.877; 1136.075;  175.475;    0.000
367.939; 1132.075;  200.475;    0.000
368.000; 1101.075;  168.475;    0.000
368.062; 1078.075;  138.475;    0.000
368.123; 1113.075;  170.475;    0.000
368.184; 1102.075;  188.475;    0.000
368.246; 1148.075;  145.475;    0.000
368.307; 1101.075;  163.475;    0.000
368.369; 1113.075;  144.475;    0.000
368.430; 1091.075;  140.475;    0.000
368.491; 1073.075;  133.475;    0.000
368.553; 1132.075;  145.475;    0.000
368.614; 1087.075;  158.475;    0.000
368.675; 1107.075;  147.475;    0.000
368.737; 1130.075;  157.475;    0.000
368.798; 1127.075;  163.475;    0.000
368.859; 1114.075;  173.475;    0.000
368.921; 1072.075;  122.475;    0.000
368.982; 1124.075;  184.475;    0.000
369.043; 1151.075;  169.475;    0.000
369.104; 1088.075;  142.475;    0.000
369.166; 1141.075;  169.475;    0.000
369.227; 1142.075;  156.475;    0.000
369.288; 1128.075;  151.475;    0.000
369.349; 1128.075;  191.475;    0.000
369.411; 1114.075;  168.475;    0.000
369.472; 1141.075;  155.475;    0.000
369.533; 1179.075;  149.475;    0.000
369.594; 1158.075;  174.475;    0.000
369.656; 1128.075;  188.475;    0.000
369.717; 1111.075;  113.475;    0.000
369.778; 1151.075;  184.475;    0.000
369.839; 1120.075;  151.475;    0.000
369.900; 1149.075;  180.475;    0.000
369.961; 1160.075;  171.475;    0.000
370.023; 1166.075;  143.475;    0.000
370.084; 1158.075;  137.475;    0.000
370.145; 1124.075;  152.475;    0.000
370.206; 1141.075;  151.475;    0.000
370.267; 1138.075;  134.475;    0.000
370.328; 1171.075;  178.475;    0.000
370.389; 1169.075;  181.475;    0.000
370.451; 1196.075;  169.475;    0.000
370.512; 1197.075;  172.475;    0.000
370.573; 1081.075;  148.475;    0.000
370.634; 1208.075;  156.475;    0.000
370.695; 1093.075;  151.475;    0.000
370.756; 1176.075;  185.475;    0.000
370.817; 1121.075;  185.475;    0.000
370.878; 1147.075;  191.475;    0.000
370.939; 1132.075;  147.475;    0.000
371.000; 1153.075;  162.475;    0.000
371.061; 1180.075;  145.475;    0.000
371.122; 1205.075;  179.475;    0.000
371.183; 1124.075;  114.475;    0.000
371.244; 1174.075;  180.475;    0.000
371.305; 1179.075;  138.475;    0.000
371.366; 1182.075;  157.475;    0.000
371.427; 1163.075;  148.475;    0.000
371.488; 1160.075;  138.475;    0.000
371.549; 1199.075;  193.475;    0.000
371.610; 1140.075;  158.475;    0.000
371.671; 1187.075;  119.475;    0.000
371.732; 1204.075;  159.475;    0.000
371.793; 1202.075;  178.475;    0.000
371.853; 1206.075;  155.475;    0.000
371.914; 1160.075;  148.475;    0.000
371.975; 1184.075;  124.475;    0.000
372.036; 1136.075;  158.475;    0.000
372.097; 1161.075;  136.475;    0.000
372.158; 1121.075;  116.475;    0.000
372.219; 1258.075;  157.475;    0.000
372.280; 1232.075;  151.475;    0.000
372.340; 1176.075;  190.475;    0.000
372.401; 1203.075;  151.475;    0.000
372.462; 1161.075;  129.475;    0.000
372.523; 1193.075;  121.475;    0.000
372.584; 1202.075;  152.475;    0.000
372.645; 1194.075;  132.475;    0.000
372.705; 1154.075;  190.475;    0.000
372.766; 1201.075;  153.475;    0.000
372.827; 1203.075;  133.475;    0.000
372.888; 1169.075;  161.475;    0.000
372.948; 1227.075;  159.475;    0.000
373.009; 1215.075;  164.475;    0.000
373.070; 1251.075;  139.475;    0.000
373.131; 1202.075;  137.475;    0.000
373.191; 1189.075;  181.475;    0.000
373.252; 1168.075;  154.475;    0.000
373.313; 1234.075;  179.475;    0.000
373.373; 1226.075;  136.475;    0.000
373.434; 1265.075;  169.475;    0.000
373.495; 1193.075;   97.475;    0.000
373.555; 1186.075;  142.475;    0.000
373.616; 1193.075;  178.475;    0.000
373.677; 1233.075;  167.475;    0.000
373.737; 1217.075;  139.475;    0.000
373.798; 1185.075;  155.475;    0.000
373.859; 1189.075;  162.475;    0.000
373.919; 1217.075;  174.475;    0.000
373.980; 1219.075;  172.475;    0.000
374.041; 1187.075;  166.475;    0.000
374.101; 1187.075;  172.475;    0.000
374.162; 1245.075;  188.475;    0.000
374.222; 1219.075;  186.475;    0.000
374.283; 1258.075;  195.475;    0.000
374.343; 1260.075;  204.475;    0.000
374.404; 1222.075;  187.475;    0.000
374.465; 1237.075;  183.475;    0.000
374.525; 1218.075;  136.475;    0.000
374.586; 1259.075;  140.475;    0.000
374.646; 1284.075;  191.475;    0.000
374.707; 1307.075;  208.475;    0.000
374.767; 1269.075;  178.475;    0.000
374.828; 1271.075;  159.475;    0.000
374.888; 1232.075;  143.475;    0.000
374.949; 1260.075;  202.475;    0.000
375.009; 1280.075;  151.475;    0.000
375.070; 1259.075;  160.475;    0.000
375.130; 1272.075;  160.475;    0.000
375.190; 1248.075;  164.475;    0.000
375.251; 1320.075;  196.475;    0.000
375.311; 1290.075;  154.475;    0.000
375.372; 1254.075;  197.475;    0.000
375.432; 1314.075;  159.475;    0.000
375.493; 1270.075;  197.475;    0.000
375.553; 1240.075;  165.475;    0.000
375.613; 1265.075;  174.475;    0.000
375.674; 1317.075;  165.475;    0.000
375.734; 1277.075;  128.475;    0.000
375.794; 1247.075;  169.475;    0.000
375.855; 1266.075;  193.475;    0.000
375.915; 1265.075;  162.475;    0.000
375.975; 1205.075;  181.475;    0.000
376.036; 1257.075;  161.475;    0.000
376.096; 1270.075;  131.475;    0.000
376.156; 1327.075;  165.475;    0.000
376.217; 1327.075;  182.475;    0.000
376.277; 1293.075;  185.475;    0.000
376.337; 1327.075;  177.475;    0.000
376.398; 1287.075;  162.475;    0.000
376.458; 1324.075;  179.475;    0.000
376.518; 1224.075;  150.475;    0.000
376.578; 1243.075;  165.475;    0.000
376.639; 1278.075;  159.475;    0.000
376.699; 1306.075;  180.475;    0.000
376.759; 1358.075;  206.475;    0.000
376.819; 1256.075;  146.475;    0.000
376.880; 1274.075;  177.475;    0.000
376.940; 1307.075;  160.475;    0.000
377.000; 1223.075;  149.475;    0.000
377.060; 1297.075;  180.475;    0.000
377.120; 1282.075;  146.475;    0.000
377.180; 1295.075;  137.475;    0.000
377.241; 1276.075;  163.475;    0.000
377.301; 1394.075;  169.475;    0.000
377.361; 1327.075;  137.475;    0.000
377.421; 1379.075;  184.475;    0.000
377.481; 1342.075;  185.475;    0.000
377.541; 1362.075;  146.475;    0.000
377.601; 1291.075;  179.475;    0.000
377.661; 1376.075;  181.475;    0.000
377.722; 1344.075;  185.475;    0.000
377.782; 1325.075;  147.475;    0.000
377.842; 1379.075;  190.475;    0.000
377.902; 1276.075;  166.475;    0.000
377.962; 1274.075;  153.475;    0.000
378.022; 1338.075;  163.475;    0.000
378.082; 1321.075;  146.475;    0.000
378.142; 1430.075;  152.475;    0.000
378.202; 1416.075;  164.475;    0.000
378.262; 1393.075;  195.475;    0.000
378.322; 1419.075;  190.475;    0.000
378.382; 1407.075;  152.475;    0.000
378.442; 1381.075;  175.475;    0.000
378.502; 1388.075;  153.475;    0.000
378.562; 1357.075;  142.475;    0.000
378.622; 1440.075;  166.475;    0.000
378.682; 1440.075;  173.475;    0.000
378.742; 1455.075;  182.475;    0.000
378.802; 1376.075;  145.475;    0.000
378.862; 1485.075;  210.475;    0.000
378.921; 1492.075;  182.475;    0.000
378.981; 1498.075;  185.475;    0.000
379.041; 1466.075;  130.475;    0.000
379.101; 1430.075;  177.475;    0.000
379.161; 1475.075;  166.475;    0.000
379.221; 1452.075;  162.475;    0.000
379.281; 1475.075;  167.475;    0.000
379.341; 1481.075;  136.475;    0.000
379.401; 1481.075;  145.475;    0.000
379.460; 1488.075;  176.475;    0.000
379.520; 1438.075;  162.475;    0.000
379.580; 1480.075;  144.475;    0.000
379.640; 1469.075;  163.475;    0.000
379.700; 1463.075;  157.475;    0.000
379.759; 1524.075;  165.475;    0.000
379.819; 1507.075;  190.475;    0.000
379.879; 1502.075;  143.475;    0.000
379.939; 1541.075;  188.475;    0.000
379.999; 1540.075;  141.475;    0.000
380.058; 1554.075;  169.475;    0.000
380.118; 1508.075;  158.475;    0.000
380.178; 1593.075;  114.475;    0.000
380.237; 1599.075;  157.475;    0.000
380.297; 1570.075;  177.475;    0.000
380.357; 1587.075;  189.475;    0.000
380.417; 1542.075;  182.475;    0.000
380.476; 1661.075;  178.475;    0.000
380.536; 1602.075;  189.475;    0.000
380.596; 1569.075;  183.475;    0.000
380.655; 1654.075;  195.475;    0.000
380.715; 1573.075;  170.475;    0.000
380.775; 1603.075;  170.475;    0.000
380.834; 1595.075;  179.475;    0.000
380.894; 1573.075;  188.475;    0.000
380.954; 1541.075;  142.475;    0.000
381.013; 1589.075;  178.475;    0.000
381.073; 1592.075;  164.475;    0.000
381.132; 1650.075;  192.475;    0.000
381.192; 1609.075;  187.475;    0.000
381.252; 1629.075;  176.475;    0.000
381.311; 1619.075;  206.475;    0.000
381.371; 1636.075;  167.475;    0.000
381.430; 1657.075;  131.475;    0.000
381.490; 1665.075;  150.475;    0.000
381.549; 1673.075;  129.475;    0.000
381.609; 1706.075;  178.475;    0.000
381.668; 1754.075;  194.475;    0.000
381.728; 1705.075;  210.475;    0.000
381.787; 1787.075;  190.475;    0.000
381.847; 1773.075;  181.475;    0.000
381.906; 1727.075;  156.475;    0.000
381.966; 1811.075;  176.475;    0.000
382.025; 1803.075;  186.475;    0.000
382.085; 1786.075;  192.475;    0.000
382.144; 1885.075;  173.475;    0.000
382.204; 1900.075;  207.475;    0.000
382.263; 1902.075;  193.475;    0.000
382.323; 1866.075;  164.475;    0.000
382.382; 1925.075;  161.475;    0.000
382.441; 1967.075;  199.475;    0.000
382.501; 2084.075;  208.475;    0.000
382.560; 2081.075;  173.475;    0.000
382.619; 2085.075;  179.475;    0.000
382.679; 2217.075;  177.475;    0.000
382.738; 2384.075;  190.475;    0.000
382.798; 2418.075;  213.475;    0.000
382.857; 2661.075;  195.475;    0.000
382.916; 2835.075;  184.475;    0.000
382.976; 2879.075;  169.475;    0.000
383.035; 2752.075;  194.475;    0.000
383.094; 2841.075;  185.475;    0.000
383.154; 3055.075;  198.475;    0.000
383.213; 3674.075;  147.475;    0.000
383.272; 3556.075;  175.475;    0.000
383.331; 2938.075;  122.475;    0.000
383.391; 2725.075;  185.475;    0.000
383.450; 2618.075;  160.475;    0.000
383.509; 2655.075;  168.475;    0.000
383.568; 2752.075;  196.475;    0.000
383.628; 2819.075;  156.475;    0.000
383.687; 3005.075;  171.475;    0.000
383.746; 3469.075;  155.475;    0.000
383.805; 3970.075;  201.475;    0.000
383.864; 4004.075;  125.475;    0.000
383.924; 3226.075;  213.475;    0.000
383.983; 2697.075;  188.475;    0.000
384.042; 2461.075;  162.475;    0.000
384.101; 2363.075;  183.475;    0.000
384.160; 2260.075;  155.475;    0.000
384.219; 2111.075;  155.475;    0.000
384.279; 2161.075;  189.475;    0.000
384.338; 2021.075;  156.475;    0.000
384.397; 1942.075;  148.475;    0.000
384.456; 1948.075;  154.475;    0.000
384.515; 1986.075;  160.475;    0.000
384.574; 1965.075;  223.475;    0.000
384.633; 1909.075;  133.475;    0.000
384.692; 1931.075;  163.475;    0.000
384.751; 1886.075;  186.475;    0.000
384.810; 1869.075;  187.475;    0.000
384.869; 1909.075;  172.475;    0.000
384.929; 1853.075;  153.475;    0.000
384.988; 1870.075;  174.475;    0.000
385.047; 1785.075;  154.475;    0.000
385.106; 1901.075;  164.475;    0.000
385.165; 1825.075;  151.475;    0.000
385.224; 1819.075;  147.475;    0.000
385.283; 1791.075;  176.475;    0.000
385.342; 1821.075;  142.475;    0.000
385.401; 1785.075;  175.475;    0.000
385.459; 1765.075;  150.475;    0.000
385.518; 1850.075;  124.475;    0.000
385.577; 1778.075;  115.475;    0.000
385.636; 1781.075;  174.475;    0.000
385.695; 1805.075;  158.475;    0.000
385.754; 1805.075;  150.475;    0.000
385.813; 1707.075;  129.475;    0.000
385.872; 1751.075;  146.475;    0.000
385.931; 1845.075;  194.475;    0.000
385.990; 1853.075;  174.475;    0.000
386.049; 1819.075;  176.475;    0.000
386.107; 1756.075;  151.475;    0.000
386.166; 1746.075;  178.475;    0.000
386.225; 1819.075;  162.475;    0.000
386.284; 1739.075;  180.475;    0.000
386.343; 1744.075;  171.475;    0.000
386.402; 1772.075;  176.475;    0.000
386.460; 1767.075;  144.475;    0.000
386.519; 1762.075;  140.475;    0.000
386.578; 1774.075;  145.475;    0.000
386.637; 1808.075;  164.475;    0.000
386.696; 1858.075;  189.475;    0.000
386.754; 1742.075;  135.475;    0.000
386.813; 1763.075;  139.475;    0.000
386.872; 1727.075;  121.475;    0.000
386.931; 1768.075;  153.475;    0.000
386.989; 1747.075;  211.475;    0.000
387.048; 1727.075;  156.475;    0.000
387.107; 1834.075;  210.475;    0.000
387.165; 1666.075;  129.475;    0.000
387.224; 1748.075;  205.475;    0.000
387.283; 1738.075;  130.475;    0.000
387.342; 1752.075;  171.475;    0.000
387.400; 1737.075;  156.475;    0.000
387.459; 1731.075;  141.475;    0.000
387.517; 1768.075;  219.475;    0.000
387.576; 1683.075;  166.475;    0.000
387.635; 1714.075;  136.475;    0.000
387.693; 1751.075;  191.475;    0.000
387.752; 1708.075;  165.475;    0.000
387.811; 1786.075;  158.475;    0.000
387.869; 1766.075;  204.475;    0.000
387.928; 1703.075;  149.475;    0.000
387.986; 1744.075;  156.475;    0.000
388.045; 1700.075;  123.475;    0.000
388.103; 1667.075;  150.475;    0.000
388.162; 1717.075;  173.475;    0.000
388.221; 1782.075;  143.475;    0.000
388.279; 1648.075;  129.475;    0.000
388.338; 1712.075;  212.475;    0.000
388.396; 1670.075;  150.475;    0.000
388.455; 1697.075;  167.475;    0.000
388.513; 1667.075;  116.475;    0.000
388.572; 1684.075;  181.475;    0.000
388.630; 1722.075;  187.475;    0.000
388.689; 1745.075;  180.475;    0.000
388.747; 1665.075;  154.475;    0.000
388.806; 1692.075;  161.475;    0.000
388.864; 1682.075;  167.475;    0.000
388.922; 1721.075;  184.475;    0.000
388.981; 1771.075;  169.475;    0.000
389.039; 1671.075;  102.475;    0.000
389.098; 1764.075;  183.475;    0.000
389.156; 1701.075;  182.475;    0.000
389.214; 1751.075;  173.475;    0.000
389.273; 1718.075;  167.475;    0.000
389.331; 1702.075;  170.475;    0.000
389.390; 1700.075;  150.475;    0.000
389.448; 1673.075;  156.475;    0.000
389.506; 1746.075;  149.475;    0.000
389.565; 1711.075;  162.475;    0.000
389.623; 1745.075;  188.475;    0.000
389.681; 1680.075;  204.475;    0.000
389.740; 1733.075;  187.475;    0.000
389.798; 1683.075;  153.475;    0.000
389.856; 1710.075;  214.475;    0.000
389.914; 1679.075;  177.475;    0.000
389.973; 1694.075;  189.475;    0.000
390.031; 1805.075;  178.475;    0.000
390.089; 1686.075;  163.475;    0.000
390.147; 1687.075;  170.475;    0.000
390.206; 1712.075;  183.475;    0.000
390.264; 1743.075;  161.475;    0.000
390.322; 1749.075;  148.475;    0.000
390.380; 1741.075;  138.475;    0.000
390.439; 1710.075;  194.475;    0.000
390.497; 1644.075;  170.475;    0.000
390.555; 1662.075;  165.475;    0.000
390.613; 1695.075;  177.475;    0.000
390.671; 1651.075;  170.475;    0.000
390.729; 1639.075;  158.475;    0.000
390.788; 1740.075;  162.475;    0.000
390.846; 1703.075;  161.475;    0.000
390.904; 1728.075;  197.475;    0.000
390.962; 1790.075;  212.475;    0.000
391.020; 1750.075;  224.475;    0.000
391.078; 1666.075;  184.475;    0.000
391.136; 1786.075;  191.475;    0.000
391.194; 1722.075;  187.475;    0.000
391.253; 1717.075;  197.475;    0.000
391.311; 1755.075;  185.475;    0.000
391.369; 1709.075;  207.475;    0.000
391.427; 1677.075;  222.475;    0.000
391.485; 1757.075;  184.475;    0.000
391.543; 1777.075;  203.475;    0.000
391.601; 1714.075;  151.475;    0.000
391.659; 1785.075;  176.475;    0.000
391.717; 1749.075;  190.475;    0.000
391.775; 1713.075;  159.475;    0.000
391.833; 1635.075;  186.475;    0.000
391.891; 1757.075;  154.475;    0.000
391.949; 1803.075;  181.475;    0.000
392.007; 1725.075;  190.475;    0.000
392.065; 1723.075;  182.475;    0.000
392.123; 1696.075;  158.475;    0.000
392.180; 1739.075;  198.475;    0.000
392.238; 1766.075;  191.475;    0.000
392.296; 1693.075;  164.475;    0.000
392.354; 1794.075;  172.475;    0.000
392.412; 1748.075;  194.475;    0.000
392.470; 1680.075;  154.475;    0.000
392.528; 1751.075;  172.475;    0.000
392.586; 1717.075;  179.475;    0.000
392.644; 1791.075;  173.475;    0.000
392.701; 1796.075;  202.475;    0.000
392.759; 1722.075;  180.475;    0.000
392.817; 1752.075;  181.475;    0.000
392.875; 1783.075;  168.475;    0.000
392.933; 1740.075;  161.475;    0.000
392.991; 1728.075;  216.475;    0.000
393.048; 1767.075;  197.475;    0.000
393.106; 1786.075;  199.475;    0.000
393.164; 1760.075;  173.475;    0.000
393.222; 1754.075;  179.475;    0.000
393.279; 1810.075;  209.475;    0.000
393.337; 1790.075;  185.475;    0.000
393.395; 1847.075;  174.475;    0.000
393.453; 1798.075;  181.475;    0.000
393.510; 1773.075;  188.475;    0.000
393.568; 1821.075;  191.475;    0.000
393.626; 1733.075;  151.475;    0.000
393.684; 1766.075;  208.475;    0.000
393.741; 1797.075;  179.475;    0.000
393.799; 1817.075;  149.475;    0.000
393.857; 1809.075;  136.475;    0.000
393.914; 1779.075;  190.475;    0.000
393.972; 1783.075;  155.475;    0.000
394.030; 1791.075;  170.475;    0.000
394.087; 1743.075;  213.475;    0.000
394.145; 1827.075;  191.475;    0.000
394.202; 1734.075;  188.475;    0.000
394.260; 1812.075;  168.475;    0.000
394.318; 1848.075;  176.475;    0.000
394.375; 1754.075;  159.475;    0.000
394.433; 1804.075;  168.475;    0.000
394.490; 1773.075;  163.475;    0.000
394.548; 1860.075;  163.475;    0.000
394.605; 1826.075;  181.475;    0.000
394.663; 1845.075;  180.475;    0.000
394.720; 1780.075;  193.475;    0.000
394.778; 1827.075;  168.475;    0.000
394.836; 1826.075;  128.475;    0.000
394.893; 1855.075;  151.475;    0.000
394.951; 1811.075;  173.475;    0.000
395.008; 1768.075;  201.475;    0.000
395.065; 1788.075;  139.475;    0.000
395.123; 1783.075;  173.475;    0.000
395.180; 1754.075;  144.475;    0.000
395.238; 1802.075;  135.475;    0.000
395.295; 1818.075;  167.475;    0.000
395.353; 1872.075;  150.475;    0.000
395.410; 1800.075;  165.475;    0.000
395.468; 1889.075;  223.475;    0.000
395.525; 1887.075;  156.475;    0.000
395.582; 1859.075;  178.475;    0.000
395.640; 1868.075;  178.475;    0.000
395.697; 1888.075;  173.475;    0.000
395.754; 1889.075;  154.475;    0.000
395.812; 1902.075;  169.475;    0.000
395.869; 1966.075;  196.475;    0.000
395.927; 1820.075;  190.475;    0.000
395.984; 1948.075;  195.475;    0.000
396.041; 1817.075;  160.475;    0.000
396.098; 1831.075;  161.475;    0.000
396.156; 1875.075;  187.475;    0.000
396.213; 1892.075;  200.475;    0.000
396.270; 1934.075;  160.475;    0.000
396.328; 1835.075;  113.475;    0.000
396.385; 1840.075;  165.475;    0.000
396.442; 1902.075;  168.475;    0.000
396.499; 1914.075;  117.475;    0.000
396.557; 1897.075;  203.475;    0.000
396.614; 1954.075;  155.475;    0.000
396.671; 1874.075;  187.475;    0.000
396.728; 1847.075;  169.475;    0.000
396.785; 1919.075;  167.475;    0.000
396.843; 1991.075;  154.475;    0.000
396.900; 1925.075;  172.475;    0.000
396.957; 1999.075;  176.475;    0.000
397.014; 1998.075;  193.475;    0.000
397.071; 1942.075;  170.475;    0.000
397.128; 1902.075;  172.475;    0.000
397.186; 1985.075;  205.475;    0.000
397.243; 1974.075;  163.475;    0.000
397.300; 2015.075;  193.475;    0.000
397.357; 1895.075;  166.475;    0.000
397.414; 1959.075;  149.475;    0.000
397.471; 1925.075;  157.475;    0.000
397.528; 1965.075;  180.475;    0.000
397.585; 1940.075;  203.475;    0.000
397.642; 1948.075;  156.475;    0.000
397.699; 1944.075;  229.475;    0.000
397.756; 1937.075;  185.475;    0.000
397.814; 1977.075;  191.475;    0.000
397.871; 1916.075;  170.475;    0.000
397.928; 2012.075;  191.475;    0.000
397.985; 1978.075;  183.475;    0.000
398.042; 1917.075;  161.475;    0.000
398.099; 1981.075;  192.475;    0.000
398.156; 1994.075;  176.475;    0.000
398.212; 1956.075;  170.475;    0.000
398.269; 2005.075;  158.475;    0.000
398.326; 1971.075;  175.475;    0.000
398.383; 2005.075;  177.475;    0.000
398.440; 2027.075;  169.475;    0.000
398.497; 2048.075;  184.475;    0.000
398.554; 2013.075;  196.475;    0.000
398.611; 2018.075;  198.475;    0.000
398.668; 2061.075;  135.475;    0.000
398.725; 2022.075;  181.475;    0.000
398.782; 2046.075;  195.475;    0.000
398.839; 2095.075;  179.475;    0.000
398.895; 2121.075;  188.475;    0.000
398.952; 2113.075;  176.475;    0.000
399.009; 2065.075;  183.475;    0.000
399.066; 2101.075;  190.475;    0.000
399.123; 2104.075;  174.475;    0.000
399.180; 2109.075;  191.475;    0.000
399.236; 2107.075;  217.475;    0.000
399.293; 2153.075;  154.475;    0.000
399.350; 2209.075;  210.475;    0.000
399.407; 2248.075;  202.475;    0.000
399.463; 2213.075;  162.475;    0.000
399.520; 2172.075;  207.475;    0.000
399.577; 2157.075;  174.475;    0.000
399.634; 2253.075;  170.475;    0.000
399.690; 2238.075;  186.475;    0.000
399.747; 2271.075;  218.475;    0.000
399.804; 2252.075;  200.475;    0.000
399.861; 2249.075;  190.475;    0.000
399.917; 2301.075;  218.475;    0.000
399.974; 2247.075;  200.475;    0.000
400.031; 2228.075;  200.475;    0.000
400.087; 2214.075;  153.475;    0.000
400.144; 2227.075;  188.475;    0.000
400.201; 2199.075;  198.475;    0.000
400.257; 2210.075;  205.475;    0.000
400.314; 2280.075;  183.475;    0.000
400.370; 2161.075;  227.475;    0.000
400.427; 2164.075;  177.475;    0.000
400.484; 2158.075;  202.475;    0.000
400.540; 2165.075;  173.475;    0.000
400.597; 2200.075;  212.475;    0.000
400.653; 2143.075;  182.475;    0.000
400.710; 2176.075;  201.475;    0.000
400.766; 2185.075;  188.475;    0.000
400.823; 2197.075;  205.475;    0.000
400.879; 2108.075;  165.475;    0.000
400.936; 2086.075;  180.475;    0.000
400.993; 2166.075;  181.475;    0.000
401.049; 2269.075;  147.475;    0.000
401.105; 2231.075;  205.475;    0.000
401.162; 2178.075;  197.475;    0.000
401.218; 2047.075;  177.475;    0.000
401.275; 2201.075;  183.475;    0.000
401.331; 2123.075;  198.475;    0.000
401.388; 2120.075;  209.475;    0.000
401.444; 2111.075;  211.475;    0.000
401.501; 2228.075;  185.475;    0.000
401.557; 2079.075;  190.475;    0.000
401.614; 2174.075;  172.475;    0.000
401.670; 2162.075;  185.475;    0.000
401.726; 2098.075;  196.475;    0.000
401.783; 2140.075;  187.475;    0.000
401.839; 2156.075;  192.475;    0.000
401.895; 2173.075;  173.475;    0.000
401.952; 2049.075;  145.475;    0.000
402.008; 2125.075;  197.475;    0.000
402.064; 2130.075;  146.475;    0.000
402.121; 2164.075;  197.475;    0.000
402.177; 2191.075;  173.475;    0.000
402.233; 2207.075;  185.475;    0.000
402.290; 2149.075;  175.475;    0.000
402.346; 2221.075;  164.475;    0.000
402.402; 2104.075;  173.475;    0.000
402.458; 2170.075;  183.475;    0.000
402.515; 2190.075;  147.475;    0.000
402.571; 2193.075;  210.475;    0.000
402.627; 2159.075;  181.475;    0.000
402.683; 2174.075;  177.475;    0.000
402.740; 2191.075;  162.475;    0.000
402.796; 2155.075;  178.475;    0.000
402.852; 2169.075;  138.475;    0.000
402.908; 2226.075;  181.475;    0.000
402.964; 2233.075;  151.475;    0.000
403.021; 2174.075;  170.475;    0.000
403.077; 2230.075;  204.475;    0.000
403.133; 2211.075;  144.475;    0.000
403.189; 2265.075;  207.475;    0.000
403.245; 2265.075;  184.475;    0.000
403.301; 2279.075;  170.475;    0.000
403.357; 2229.075;  201.475;    0.000
403.414; 2306.075;  205.475;    0.000
403.470; 2217.075;  170.475;    0.000
403.526; 2281.075;  135.475;    0.000
403.582; 2314.075;  180.475;    0.000
403.638; 2339.075;  185.475;    0.000
403.694; 2239.075;  169.475;    0.000
403.750; 2255.075;  210.475;    0.000
403.806; 2245.075;  210.475;    0.000
403.862; 2277.075;  219.475;    0.000
403.918; 2224.075;  191.475;    0.000
403.974; 2286.075;  193.475;    0.000
404.030; 2232.075;  154.475;    0.000
404.086; 2231.075;  170.475;    0.000
404.142; 2309.075;  194.475;    0.000
404.198; 2326.075;  224.475;    0.000
404.254; 2351.075;  177.475;    0.000
404.310; 2240.075;  204.475;    0.000
404.366; 2310.075;  170.475;    0.000
404.422; 2287.075;  172.475;    0.000
404.478; 2311.075;  153.475;    0.000
404.534; 2256.075;  159.475;    0.000
404.590; 2216.075;  203.475;    0.000
404.646; 2231.075;  164.475;    0.000
404.701; 2250.075;  141.475;    0.000
404.757; 2336.075;  195.475;    0.000
404.813; 2256.075;  152.475;    0.000
404.869; 2338.075;  174.475;    0.000
404.925; 2254.075;  167.475;    0.000
404.981; 2273.075;  175.475;    0.000
405.037; 2254.075;  170.475;    0.000
405.092; 2226.075;  155.475;    0.000
405.148; 2351.075;  160.475;    0.000
405.204; 2259.075;  158.475;    0.000
405.260; 2253.075;  128.475;    0.000
405.316; 2339.075;  168.475;    0.000
405.371; 2203.075;  162.475;    0.000
405.427; 2322.075;  187.475;    0.000
405.483; 2336.075;  214.475;    0.000
405.539; 2337.075;  163.475;    0.000
405.594; 2328.075;  191.475;    0.000
405.650; 2224.075;  124.475;    0.000
405.706; 2275.075;  188.475;    0.000
405.761; 2310.075;  204.475;    0.000
405.817; 2283.075;  150.475;    0.000
405.873; 2408.075;  152.475;    0.000
405.928; 2326.075;  135.475;    0.000
405.984; 2356.075;  209.475;    0.000
406.040; 2359.075;  165.475;    0.000
406.095; 2300.075;  146.475;    0.000
406.151; 2454.075;  169.475;    0.000
406.207; 2265.075;  174.475;    0.000
406.262; 2300.075;  189.475;    0.000
406.318; 2392.075;  141.475;    0.000
406.374; 2338.075;  178.475;    0.000
406.429; 2405.075;  197.475;    0.000
406.485; 2463.075;  194.475;    0.000
406.540; 2452.075;  149.475;    0.000
406.596; 2420.075;  173.475;    0.000
406.651; 2395.075;  154.475;    0.000
406.707; 2471.075;  183.475;    0.000
406.763; 2478.075;  156.475;    0.000
406.818; 2398.075;  181.475;    0.000
406.874; 2484.075;  135.475;    0.000
406.929; 2502.075;  194.475;    0.000
406.985; 2542.075;  166.475;    0.000
407.040; 2563.075;  207.475;    0.000
407.095; 2583.075;  213.475;    0.000
407.151; 2512.075;  198.475;    0.000
407.206; 2535.075;  186.475;    0.000
407.262; 2483.075;  148.475;    0.000
407.317; 2586.075;  212.475;    0.000
407.373; 2602.075;  209.475;    0.000
407.428; 2578.075;  218.475;    0.000
407.484; 2544.075;  158.475;    0.000
407.539; 2518.075;  165.475;    0.000
407.594; 2607.075;  197.475;    0.000
407.650; 2521.075;  177.475;    0.000
407.705; 2511.075;  154.475;    0.000
407.760; 2662.075;  198.475;    0.000
407.816; 2649.075;  181.475;    0.000
407.871; 2700.075;  185.475;    0.000
407.926; 2563.075;  167.475;    0.000
407.982; 2498.075;  172.475;    0.000
408.037; 2593.075;  202.475;    0.000
408.092; 2631.075;  201.475;    0.000
408.148; 2596.075;  199.475;    0.000
408.203; 2572.075;  174.475;    0.000
408.258; 2543.075;  157.475;    0.000
408.314; 2625.075;  194.475;    0.000
408.369; 2562.075;  189.475;    0.000
408.424; 2584.075;  204.475;    0.000
408.479; 2616.075;  192.475;    0.000
408.534; 2622.075;  215.475;    0.000
408.590; 2573.075;  190.475;    0.000
408.645; 2545.075;  159.475;    0.000
408.700; 2570.075;  191.475;    0.000
408.755; 2532.075;  217.475;    0.000
408.810; 2505.075;  158.475;    0.000
408.866; 2577.075;  166.475;    0.000
408.921; 2577.075;  214.475;    0.000
408.976; 2661.075;  158.475;    0.000
409.031; 2512.075;  185.475;    0.000
409.086; 2587.075;  158.475;    0.000
409.141; 2533.075;  180.475;    0.000
409.196; 2535.075;  188.475;    0.000
409.252; 2541.075;  186.475;    0.000
409.307; 2540.075;  135.475;    0.000
409.362; 2534.075;  162.475;    0.000
409.417; 2453.075;  149.475;    0.000
409.472; 2592.075;  205.475;    0.000
409.527; 2529.075;  184.475;    0.000
409.582; 2510.075;  174.475;    0.000
409.637; 2523.075;  188.475;    0.000
409.692; 2461.075;  211.475;    0.000
409.747; 2488.075;  159.475;    0.000
409.802; 2541.075;  199.475;    0.000
409.857; 2501.075;  118.475;    0.000
409.912; 2564.075;  177.475;    0.000
409.967; 2561.075;  182.475;    0.000
410.022; 2516.075;  188.475;    0.000
410.077; 2539.075;  204.475;    0.000
410.132; 2529.075;  174.475;    0.000
410.187; 2468.075;  169.475;    0.000
410.242; 2493.075;  178.475;    0.000
410.297; 2522.075;  185.475;    0.000
410.351; 2576.075;  203.475;    0.000
410.406; 2563.075;  180.475;    0.000
410.461; 2638.075;  213.475;    0.000
410.516; 2549.075;  198.475;    0.000
410.571; 2533.075;  171.475;    0.000
410.626; 2572.075;  186.475;    0.000
410.681; 2556.075;  187.475;    0.000
410.736; 2563.075;  147.475;    0.000
410.790; 2511.075;  186.475;    0.000
410.845; 2559.075;  152.475;    0.000
410.900; 2528.075;  202.475;    0.000
410.955; 2550.075;  196.475;    0.000
411.010; 2634.075;  150.475;    0.000
411.064; 2628.075;  200.475;    0.000
411.119; 2608.075;  203.475;    0.000
411.174; 2544.075;  176.475;    0.000
411.229; 2577.075;  203.475;    0.000
411.283; 2535.075;  176.475;    0.000
411.338; 2552.075;  153.475;    0.000
411.393; 2496.075;  168.475;    0.000
411.447; 2546.075;  223.475;    0.000
411.502; 2615.075;  238.475;    0.000
411.557; 2576.075;  179.475;    0.000
411.612; 2574.075;  159.475;    0.000
411.666; 2500.075;  189.475;    0.000
411.721; 2553.075;  212.475;    0.000
411.776; 2618.075;  242.475;    0.000
411.830; 2542.075;  194.475;    0.000
411.885; 2601.075;  188.475;    0.000
411.939; 2590.075;  245.475;    0.000
411.994; 2587.075;  177.475;    0.000
412.049; 2607.075;  170.475;    0.000
412.103; 2655.075;  196.475;    0.000
412.158; 2649.075;  215.475;    0.000
412.212; 2585.075;  199.475;    0.000
412.267; 2668.075;  191.475;    0.000
412.322; 2638.075;  238.475;    0.000
412.376; 2594.075;  243.475;    0.000
412.431; 2637.075;  214.475;    0.000
412.485; 2511.075;  210.475;    0.000
412.540; 2540.075;  200.475;    0.000
412.594; 2669.075;  174.475;    0.000
412.649; 2573.075;  246.475;    0.000
412.703; 2603.075;  182.475;    0.000
412.758; 2576.075;  222.475;    0.000
412.812; 2552.075;  201.475;    0.000
412.866; 2535.075;  162.475;    0.000
412.921; 2493.075;  202.475;    0.000
412.975; 2568.075;  212.475;    0.000
413.030; 2530.075;  238.475;    0.000
413.084; 2512.075;  201.475;    0.000
413.139; 2640.075;  210.475;    0.000
413.193; 2561.075;  218.475;    0.000
413.247; 2538.075;  203.475;    0.000
413.302; 2477.075;  176.475;    0.000
413.356; 2610.075;  215.475;    0.000
413.410; 2650.075;  204.475;    0.000
413.465; 2555.075;  186.475;    0.000
413.519; 2579.075;  196.475;    0.000
413.573; 2559.075;  181.475;    0.000
413.628; 2549.075;  200.475;    0.000
413.682; 2553.075;  157.475;    0.000
413.736; 2538.075;  194.475;    0.000
413.791; 2572.075;  193.475;    0.000
413.845; 2502.075;  225.475;    0.000
413.899; 2647.075;  195.475;    0.000
413.953; 2633.075;  173.475;    0.000
414.008; 2569.075;  186.475;    0.000
414.062; 2544.075;  217.475;    0.000
414.116; 2613.075;  169.475;    0.000
414.170; 2580.075;  228.475;    0.000
414.225; 2509.075;  177.475;    0.000
414.279; 2589.075;  210.475;    0.000
414.333; 2620.075;  207.475;    0.000
414.387; 2615.075;  217.475;    0.000
414.441; 2542.075;  187.475;    0.000
414.496; 2597.075;  215.475;    0.000
414.550; 2615.075;  204.475;    0.000
414.604; 2552.075;  206.475;    0.000
414.658; 2602.075;  139.475;    0.000
414.712; 2573.075;  198.475;    0.000
414.766; 2549.075;  208.475;    0.000
414.820; 2574.075;  199.475;    0.000
414.874; 2622.075;  216.475;    0.000
414.928; 2557.075;  186.475;    0.000
414.982; 2549.075;  176.475;    0.000
415.037; 2547.075;  181.475;    0.000
415.091; 2537.075;  208.475;    0.000
415.145; 2497.075;  209.475;    0.000
415.199; 2603.075;  186.475;    0.000
415.253; 2555.075;  203.475;    0.000
415.307; 2504.075;  197.475;    0.000
415.361; 2525.075;  223.475;    0.000
415.415; 2549.075;  213.475;    0.000
415.469; 2572.075;  226.475;    0.000
415.523; 2556.075;  222.475;    0.000
415.577; 2554.075;  205.475;    0.000
415.631; 2607.075;  224.475;    0.000
415.684; 2569.075;  193.475;    0.000
415.738; 2556.075;  224.475;    0.000
415.792; 2590.075;  204.475;    0.000
415.846; 2471.075;  189.475;    0.000
415.900; 2490.075;  223.475;    0.000
415.954; 2545.075;  187.475;    0.000
416.008; 2620.075;  237.475;    0.000
416.062; 2495.075;  195.475;    0.000
416.116; 2596.075;  223.475;    0.000
416.169; 2559.075;  210.475;    0.000
416.223; 2509.075;  232.475;    0.000
416.277; 2500.075;  227.475;    0.000
416.331; 2612.075;  216.475;    0.000
416.385; 2520.075;  186.475;    0.000
416.439; 2598.075;  226.475;    0.000
416.492; 2573.075;  229.475;    0.000
416.546; 2582.075;  216.475;    0.000
416.600; 2542.075;  211.475;    0.000
416.654; 2624.075;  226.475;    0.000
416.707; 2525.075;  248.475;    0.000
416.761; 2599.075;  217.475;    0.000
416.815; 2527.075;  207.475;    0.000
416.869; 2533.075;  226.475;    0.000
416.922; 2546.075;  192.475;    0.000
416.976; 2561.075;  205.475;    0.000
417.030; 2602.075;  233.475;    0.000
417.083; 2582.075;  226.475;    0.000
417.137; 2623.075;  222.475;    0.000
417.191; 2563.075;  217.475;    0.000
417.244; 2537.075;  221.475;    0.000
417.298; 2485.075;  201.475;    0.000
417.352; 2515.075;  170.475;    0.000
417.405; 2590.075;  234.475;    0.000
417.459; 2488.075;  241.475;    0.000
417.512; 2563.075;  247.475;    0.000
417.566; 2549.075;  219.475;    0.000
417.620; 2534.075;  228.475;    0.000
417.673; 2449.075;  192.475;    0.000
417.727; 2502.075;  203.475;    0.000
417.780; 2508.075;  204.475;    0.000
417.834; 2541.075;  234.475;    0.000
417.887; 2507.075;  245.475;    0.000
417.941; 2601.075;  211.475;    0.000
417.994; 2595.075;  244.475;    0.000
418.048; 2520.075;  203.475;    0.000
418.101; 2517.075;  212.475;    0.000
418.155; 2526.075;  251.475;    0.000
418.208; 2587.075;  286.475;    0.000
418.262; 2568.075;  243.475;    0.000
418.315; 2478.075;  214.475;    0.000
418.369; 2553.075;  269.475;    0.000
418.422; 2583.075;  222.475;    0.000
418.476; 2626.075;  226.475;    0.000
418.529; 2520.075;  238.475;    0.000
418.582; 2571.075;  210.475;    0.000
418.636; 2501.075;  221.475;    0.000
418.689; 2528.075;  224.475;    0.000
418.743; 2535.075;  228.475;    0.000
418.796; 2638.075;  192.475;    0.000
418.849; 2462.075;  230.475;    0.000
418.903; 2475.075;  257.475;    0.000
418.956; 2542.075;  241.475;    0.000
419.009; 2584.075;  247.475;    0.000
419.063; 2457.075;  235.475;    0.000
419.116; 2585.075;  218.475;    0.000
419.169; 2494.075;  219.475;    0.000
419.222; 2483.075;  215.475;    0.000
419.276; 2576.075;  202.475;    0.000
419.329; 2509.075;  210.475;    0.000
419.382; 2487.075;  188.475;    0.000
419.435; 2457.075;  222.475;    0.000
419.489; 2492.075;  232.475;    0.000
419.542; 2506.075;  250.475;    0.000
419.595; 2555.075;  240.475;    0.000
419.648; 2556.075;  261.475;    0.000
419.701; 2541.075;  222.475;    0.000
419.755; 2516.075;  233.475;    0.000
419.808; 2435.075;  178.475;    0.000
419.861; 2484.075;  207.475;    0.000
419.914; 2564.075;  223.475;    0.000
419.967; 2471.075;  216.475;    0.000
420.020; 2430.075;  211.475;    0.000
420.073; 2456.075;  200.475;    0.000
420.127; 2524.075;  248.475;    0.000
420.180; 2422.075;  220.475;    0.000
420.233; 2554.075;  215.475;    0.000
420.286; 2523.075;  222.475;    0.000
420.339; 2454.075;  229.475;    0.000
420.392; 2478.075;  245.475;    0.000
420.445; 2417.075;  221.475;    0.000
420.498; 2443.075;  224.475;    0.000
420.551; 2444.075;  170.475;    0.000
420.604; 2477.075;  237.475;    0.000
420.657; 2485.075;  235.475;    0.000
420.710; 2473.075;  223.475;    0.000
420.763; 2518.075;  219.475;    0.000
420.816; 2512.075;  200.475;    0.000
420.869; 2395.075;  197.475;    0.000
420.922; 2339.075;  212.475;    0.000
420.975; 2507.075;  274.475;    0.000
421.028; 2457.075;  228.475;    0.000
421.081; 2516.075;  243.475;    0.000
421.134; 2424.075;  227.475;    0.000
421.187; 2498.075;  245.475;    0.000
421.239; 2436.075;  210.475;    0.000
421.292; 2407.075;  193.475;    0.000
421.345; 2524.075;  226.475;    0.000
421.398; 2326.075;  226.475;    0.000
421.451; 2403.075;  259.475;    0.000
421.504; 2424.075;  204.475;    0.000
421.557; 2384.075;  215.475;    0.000
421.609; 2414.075;  194.475;    0.000
421.662; 2349.075;  216.475;    0.000
421.715; 2422.075;  226.475;    0.000
421.768; 2368.075;  177.475;    0.000
421.821; 2442.075;  210.475;    0.000
421.873; 2397.075;  208.475;    0.000
421.926; 2431.075;  223.475;    0.000
421.979; 2397.075;  230.475;    0.000
422.032; 2402.075;  227.475;    0.000
422.084; 2437.075;  234.475;    0.000
422.137; 2387.075;  207.475;    0.000
422.190; 2378.075;  228.475;    0.000
422.243; 2379.075;  206.475;    0.000
422.295; 2355.075;  236.475;    0.000
422.348; 2435.075;  232.475;    0.000
422.401; 2288.075;  228.475;    0.000
422.453; 2395.075;  239.475;    0.000
422.506; 2410.075;  226.475;    0.000
422.559; 2338.075;  205.475;    0.000
422.611; 2412.075;  235.475;    0.000
422.664; 2384.075;  231.475;    0.000
422.716; 2402.075;  228.475;    0.000
422.769; 2365.075;  204.475;    0.000
422.822; 2397.075;  205.475;    0.000
422.874; 2398.075;  228.475;    0.000
422.927; 2490.075;  266.475;    0.000
422.979; 2375.075;  223.475;    0.000
423.032; 2383.075;  207.475;    0.000
423.084; 2407.075;  211.475;    0.000
423.137; 2351.075;  205.475;    0.000
423.189; 2435.075;  254.475;    0.000
423.242; 2378.075;  208.475;    0.000
423.294; 2382.075;  240.475;    0.000
423.347; 2336.075;  218.475;    0.000
423.399; 2362.075;  237.475;    0.000
423.452; 2408.075;  242.475;    0.000
423.504; 2285.075;  225.475;    0.000
423.557; 2379.075;  195.475;    0.000
423.609; 2364.075;  206.475;    0.000
423.662; 2357.075;  211.475;    0.000
423.714; 2302.075;  252.475;    0.000
423.766; 2303.075;  181.475;    0.000
423.819; 2406.075;  216.475;    0.000
423.871; 2340.075;  216.475;    0.000
423.923; 2257.075;  222.475;    0.000
423.976; 2393.075;  223.475;    0.000
424.028; 2336.075;  229.475;    0.000
424.081; 2303.075;  267.475;    0.000
424.133; 2370.075;  251.475;    0.000
424.185; 2277.075;  238.475;    0.000
424.238; 2397.075;  220.475;    0.000
424.290; 2272.075;  259.475;    0.000
424.342; 2312.075;  248.475;    0.000
424.394; 2381.075;  234.475;    0.000
424.447; 2345.075;  248.475;    0.000
424.499; 2363.075;  233.475;    0.000
424.551; 2376.075;  236.475;    0.000
424.603; 2330.075;  207.475;    0.000
424.656; 2305.075;  210.475;    0.000
424.708; 2333.075;  251.475;    0.000
424.760; 2364.075;  221.475;    0.000
424.812; 2332.075;  275.475;    0.000
424.864; 2293.075;  206.475;    0.000
424.917; 2231.075;  198.475;    0.000
424.969; 2419.075;  246.475;    0.000
425.021; 2282.075;  209.475;    0.000
425.073; 2306.075;  242.475;    0.000
425.125; 2303.075;  254.475;    0.000
425.177; 2276.075;  224.475;    0.000
425.229; 2310.075;  256.475;    0.000
425.282; 2275.075;  265.475;    0.000
425.334; 2345.075;  266.475;    0.000
425.386; 2274.075;  242.475;    0.000
425.438; 2346.075;  205.475;    0.000
425.490; 2245.075;  227.475;    0.000
425.542; 2256.075;  235.475;    0.000
425.594; 2257.075;  210.475;    0.000
425.646; 2255.075;  232.475;    0.000
425.698; 2361.075;  243.475;    0.000
425.750; 2267.075;  230.475;    0.000
425.802; 2242.075;  218.475;    0.000
425.854; 2249.075;  222.475;    0.000
425.906; 2306.075;  235.475;    0.000
425.958; 2337.075;  220.475;    0.000
426.010; 2264.075;  236.475;    0.000
426.062; 2291.075;  230.475;    0.000
426.114; 2343.075;  216.475;    0.000
426.166; 2311.075;  230.475;    0.000
426.218; 2249.075;  237.475;    0.000
426.270; 2280.075;  217.475;    0.000
426.321; 2218.075;  224.475;    0.000
426.373; 2248.075;  207.475;    0.000
426.425; 2292.075;  278.475;    0.000
426.477; 2301.075;  243.475;    0.000
426.529; 2252.075;  247.475;    0.000
426.581; 2141.075;  229.475;    0.000
426.633; 2264.075;  212.475;    0.000
426.684; 2230.075;  244.475;    0.000
426.736; 2231.075;  250.475;    0.000
426.788; 2206.075;  210.475;    0.000
426.840; 2141.075;  201.475;    0.000
426.892; 2246.075;  225.475;    0.000
426.943; 2269.075;  215.475;    0.000
426.995; 2264.075;  216.475;    0.000
427.047; 2149.075;  216.475;    0.000
427.099; 2199.075;  203.475;    0.000
427.150; 2245.075;  195.475;    0.000
427.202; 2157.075;  212.475;    0.000
427.254; 2158.075;  233.475;    0.000
427.306; 2267.075;  211.475;    0.000
427.357; 2270.075;  210.475;    0.000
427.409; 2203.075;  244.475;    0.000
427.461; 2257.075;  187.475;    0.000
427.512; 2233.075;  227.475;    0.000
427.564; 2168.075;  210.475;    0.000
427.616; 2219.075;  202.475;    0.000
427.667; 2184.075;  185.475;    0.000
427.719; 2181.075;  222.475;    0.000
427.770; 2181.075;  230.475;    0.000
427.822; 2230.075;  254.475;    0.000
427.874; 2262.075;  222.475;    0.000
427.925; 2194.075;  199.475;    0.000
427.977; 2207.075;  228.475;    0.000
428.028; 2237.075;  226.475;    0.000
428.080; 2247.075;  236.475;    0.000
428.131; 2169.075;  220.475;    0.000
428.183; 2239.075;  256.475;    0.000
428.234; 2154.075;  217.475;    0.000
428.286; 2141.075;  234.475;    0.000
428.337; 2140.075;  209.475;    0.000
428.389; 2169.075;  219.475;    0.000
428.440; 2190.075;  249.475;    0.000
428.492; 2151.075;  255.475;    0.000
428.543; 2169.075;  224.475;    0.000
428.595; 2122.075;  225.475;    0.000
428.646; 2215.075;  240.475;    0.000
428.697; 2167.075;  211.475;    0.000
428.749; 2130.075;  200.475;    0.000
428.800; 2217.075;  235.475;    0.000
428.852; 2193.075;  265.475;    0.000
428.903; 2122.075;  201.475;    0.000
428.954; 2106.075;  242.475;    0.000
429.006; 2191.075;  245.475;    0.000
429.057; 2091.075;  252.475;    0.000
429.108; 2133.075;  211.475;    0.000
429.160; 2163.075;  217.475;    0.000
429.211; 2141.075;  234.475;    0.000
429.262; 2126.075;  205.475;    0.000
429.314; 2234.075;  211.475;    0.000
429.365; 2133.075;  240.475;    0.000
429.416; 2184.075;  263.475;    0.000
429.467; 2155.075;  244.475;    0.000
429.519; 2119.075;  223.475;    0.000
429.570; 2175.075;  214.475;    0.000
429.621; 2111.075;  235.475;    0.000
429.672; 2192.075;  202.475;    0.000
429.724; 2112.075;  189.475;    0.000
429.775; 2140.075;  214.475;    0.000
429.826; 2094.075;  178.475;    0.000
429.877; 2152.075;  224.475;    0.000
429.928; 2106.075;  230.475;    0.000
429.980; 2058.075;  199.475;    0.000
430.031; 2152.075;  208.475;    0.000
430.082; 2095.075;  224.475;    0.000
430.133; 2114.075;  193.475;    0.000
430.184; 2129.075;  220.475;    0.000
430.235; 2075.075;  184.475;    0.000
430.286; 2176.075;  197.475;    0.000
430.337; 2074.075;  199.475;    0.000
430.388; 2051.075;  207.475;    0.000
430.439; 2157.075;  227.475;    0.000
430.490; 2184.075;  215.475;    0.000
430.542; 2090.075;  211.475;    0.000
430.593; 2089.075;  230.475;    0.000
430.644; 2078.075;  186.475;    0.000
430.695; 2135.075;  232.475;    0.000
430.746; 2136.075;  214.475;    0.000
430.797; 2143.075;  260.475;    0.000
430.848; 1999.075;  214.475;    0.000
430.898; 2071.075;  204.475;    0.000
430.949; 2106.075;  189.475;    0.000
431.000; 2092.075;  240.475;    0.000
431.051; 2150.075;  201.475;    0.000
431.102; 2104.075;  188.475;    0.000
431.153; 2072.075;  209.475;    0.000
431.204; 2089.075;  187.475;    0.000
431.255; 2096.075;  171.475;    0.000
431.306; 2061.075;  181.475;    0.000
431.357; 2112.075;  221.475;    0.000
431.408; 2102.075;  217.475;    0.000
431.458; 2151.075;  206.475;    0.000
431.509; 2044.075;  194.475;    0.000
431.560; 2117.075;  235.475;    0.000
431.611; 2098.075;  213.475;    0.000
431.662; 2161.075;  237.475;    0.000
431.713; 2100.075;  220.475;    0.000
431.763; 2142.075;  212.475;    0.000
431.814; 2173.075;  238.475;    0.000
431.865; 2129.075;  213.475;    0.000
431.916; 2033.075;  191.475;    0.000
431.966; 2088.075;  171.475;    0.000
432.017; 2147.075;  263.475;    0.000
432.068; 2101.075;  240.475;    0.000
432.118; 2139.075;  235.475;    0.000
432.169; 2105.075;  212.475;    0.000
432.220; 2062.075;  188.475;    0.000
432.271; 2052.075;  216.475;    0.000
432.321; 2127.075;  223.475;    0.000
432.372; 2156.075;  254.475;    0.000
432.423; 2065.075;  193.475;    0.000
432.473; 2025.075;  219.475;    0.000
432.524; 2018.075;  215.475;    0.000
432.574; 2122.075;  234.475;    0.000
432.625; 2068.075;  226.475;    0.000
432.676; 2131.075;  219.475;    0.000
432.726; 2177.075;  254.475;    0.000
432.777; 2093.075;  210.475;    0.000
432.827; 2097.075;  234.475;    0.000
432.878; 2060.075;  212.475;    0.000
432.928; 2112.075;  238.475;    0.000
432.979; 2149.075;  252.475;    0.000
433.029; 2171.075;  222.475;    0.000
433.080; 2089.075;  188.475;    0.000
433.130; 2006.075;  223.475;    0.000
433.181; 2148.075;  254.475;    0.000
433.231; 2143.075;  237.475;    0.000
433.282; 2142.075;  242.475;    0.000
433.332; 2075.075;  261.475;    0.000
433.383; 2107.075;  266.475;    0.000
433.433; 2154.075;  286.475;    0.000
433.484; 2114.075;  231.475;    0.000
433.534; 1989.075;  256.475;    0.000
433.585; 2018.075;  253.475;    0.000
433.635; 2070.075;  228.475;    0.000
433.685; 2055.075;  226.475;    0.000
433.736; 2077.075;  276.475;    0.000
433.786; 2065.075;  253.475;    0.000
433.836; 2127.075;  289.475;    0.000
433.887; 2025.075;  241.475;    0.000
433.937; 2154.075;  252.475;    0.000
433.987; 2113.075;  223.475;    0.000
434.038; 2145.075;  241.475;    0.000
434.088; 2068.075;  231.475;    0.000
434.138; 2131.075;  259.475;    0.000
434.189; 2093.075;  263.475;    0.000
434.239; 2091.075;  194.475;    0.000
434.289; 2135.075;  273.475;    0.000
434.339; 2102.075;  212.475;    0.000
434.389; 2124.075;  248.475;    0.000
434.440; 2163.075;  250.475;    0.000
434.490; 2080.075;  278.475;    0.000
434.540; 2152.075;  241.475;    0.000
434.590; 2101.075;  251.475;    0.000
434.640; 2102.075;  207.475;    0.000
434.691; 2220.075;  242.475;    0.000
434.741; 2156.075;  218.475;    0.000
434.791; 2222.075;  267.475;    0.000
434.841; 2183.075;  272.475;    0.000
434.891; 2187.075;  260.475;    0.000
434.941; 2188.075;  258.475;    0.000
434.991; 2160.075;  264.475;    0.000
435.042; 2139.075;  264.475;    0.000
435.092; 2162.075;  271.475;    0.000
435.142; 2072.075;  229.475;    0.000
435.192; 2134.075;  226.475;    0.000
435.242; 2150.075;  253.475;    0.000
435.292; 2128.075;  215.475;    0.000
435.342; 2067.075;  240.475;    0.000
435.392; 2108.075;  235.475;    0.000
435.442; 2023.075;  230.475;    0.000
435.492; 2091.075;  235.475;    0.000
435.542; 2056.075;  230.475;    0.000
435.592; 2082.075;  239.475;    0.000
435.642; 2080.075;  244.475;    0.000
435.692; 2030.075;  236.475;    0.000
435.742; 2114.075;  236.475;    0.000
435.792; 2080.075;  230.475;    0.000
435.842; 2005.075;  248.475;    0.000
435.891; 2052.075;  233.475;    0.000
435.941; 2019.075;  243.475;    0.000
435.991; 2063.075;  279.475;    0.000
436.041; 2114.075;  204.475;    0.000
436.091; 2055.075;  217.475;    0.000
436.141; 2060.075;  205.475;    0.000
436.191; 2010.075;  220.475;    0.000
436.241; 2000.075;  248.475;    0.000
436.290; 2009.075;  255.475;    0.000
436.340; 1956.075;  235.475;    0.000
436.390; 1996.075;  207.475;    0.000
436.440; 1973.075;  207.475;    0.000
436.490; 2026.075;  251.475;    0.000
436.539; 1991.075;  240.475;    0.000
436.589; 2020.075;  198.475;    0.000
436.639; 2016.075;  240.475;    0.000
436.689; 1977.075;  216.475;    0.000
436.738; 2071.075;  246.475;    0.000
436.788; 2062.075;  203.475;    0.000
436.838; 2060.075;  230.475;    0.000
436.887; 2016.075;  235.475;    0.000
436.937; 1999.075;  249.475;    0.000
436.987; 1994.075;  208.475;    0.000
437.036; 2015.075;  232.475;    0.000
437.086; 1990.075;  238.475;    0.000
437.136; 2006.075;  228.475;    0.000
437.185; 2012.075;  219.475;    0.000
437.235; 2007.075;  227.475;    0.000
437.285; 2012.075;  241.475;    0.000
437.334; 1987.075;  216.475;    0.000
437.384; 2041.075;  243.475;    0.000
437.433; 2014.075;  214.475;    0.000
437.483; 1992.075;  246.475;    0.000
437.532; 1960.075;  261.475;    0.000
437.582; 1934.075;  205.475;    0.000
437.631; 1939.075;  218.475;    0.000
437.681; 1929.075;  240.475;    0.000
437.730; 1946.075;  258.475;    0.000
437.780; 2034.075;  237.475;    0.000
437.829; 1971.075;  209.475;    0.000
437.879; 1962.075;  214.475;    0.000
437.928; 2085.075;  223.475;    0.000
437.978; 2023.075;  220.475;    0.000
438.027; 1953.075;  239.475;    0.000
438.077; 1906.075;  231.475;    0.000
438.126; 1979.075;  266.475;    0.000
438.176; 1877.075;  234.475;    0.000
438.225; 1968.075;  237.475;    0.000
438.274; 2015.075;  234.475;    0.000
438.324; 2053.075;  244.475;    0.000
438.373; 1954.075;  232.475;    0.000
438.422; 2015.075;  218.475;    0.000
438.472; 1990.075;  221.475;    0.000
438.521; 1950.075;  190.475;    0.000
438.570; 1987.075;  243.475;    0.000
438.620; 2017.075;  255.475;    0.000
438.669; 1984.075;  210.475;    0.000
438.718; 1979.075;  237.475;    0.000
438.768; 1973.075;  220.475;    0.000
438.817; 1936.075;  218.475;    0.000
438.866; 1925.075;  198.475;    0.000
438.915; 1962.075;  256.475;    0.000
438.965; 1936.075;  221.475;    0.000
439.014; 1991.075;  255.475;    0.000
439.063; 1968.075;  276.475;    0.000
439.112; 1963.075;  220.475;    0.000
439.162; 2035.075;  253.475;    0.000
439.211; 1948.075;  247.475;    0.000
439.260; 1944.075;  220.475;    0.000
439.309; 1934.075;  235.475;    0.000
439.358; 2012.075;  205.475;    0.000
439.407; 2004.075;  207.475;    0.000
439.456; 1978.075;  216.475;    0.000
439.506; 1964.075;  245.475;    0.000
439.555; 2039.075;  264.475;    0.000
439.604; 1956.075;  227.475;    0.000
439.653; 1980.075;  220.475;    0.000
439.702; 2003.075;  223.475;    0.000
439.751; 1926.075;  197.475;    0.000
439.800; 1992.075;  207.475;    0.000
439.849; 1984.075;  238.475;    0.000
439.898; 1904.075;  209.475;    0.000
439.947; 1946.075;  170.475;    0.000
439.996; 1955.075;  233.475;    0.000
440.045; 2028.075;  222.475;    0.000
440.094; 2014.075;  240.475;    0.000
440.143; 1978.075;  249.475;    0.000
440.192; 2031.075;  252.475;    0.000
440.241; 1992.075;  239.475;    0.000
440.290; 2044.075;  234.475;    0.000
440.339; 1999.075;  241.475;    0.000
440.388; 1969.075;  239.475;    0.000
440.437; 2000.075;  231.475;    0.000
440.486; 1972.075;  254.475;    0.000
440.535; 2028.075;  266.475;    0.000
440.583; 1932.075;  205.475;    0.000
440.632; 2067.075;  234.475;    0.000
440.681; 1978.075;  218.475;    0.000
440.730; 2016.075;  248.475;    0.000
440.779; 1924.075;  246.475;    0.000
440.828; 1974.075;  235.475;    0.000
440.876; 2020.075;  218.475;    0.000
440.925; 1943.075;  228.475;    0.000
440.974; 1998.075;  249.475;    0.000
441.023; 2014.075;  192.475;    0.000
441.072; 2059.075;  226.475;    0.000
441.120; 2012.075;  238.475;    0.000
441.169; 2020.075;  255.475;    0.000
441.218; 2033.075;  233.475;    0.000
441.267; 2059.075;  231.475;    0.000
441.315; 2038.075;  214.475;    0.000
441.364; 2094.075;  250.475;    0.000
441.413; 2024.075;  228.475;    0.000
441.461; 2017.075;  209.475;    0.000
441.510; 2092.075;  260.475;    0.000
441.559; 2151.075;  230.475;    0.000
441.607; 2005.075;  220.475;    0.000
441.656; 2056.075;  251.475;    0.000
441.705; 2067.075;  237.475;    0.000
441.753; 2134.075;  257.475;    0.000
441.802; 2072.075;  256.475;    0.000
441.850; 2055.075;  253.475;    0.000
441.899; 2040.075;  212.475;    0.000
441.948; 2048.075;  251.475;    0.000
441.996; 2079.075;  239.475;    0.000
442.045; 2112.075;  223.475;    0.000
442.093; 2058.075;  211.475;    0.000
442.142; 2044.075;  235.475;    0.000
442.190; 2094.075;  254.475;    0.000
442.239; 2078.075;  226.475;    0.000
442.287; 2138.075;  242.475;    0.000
442.336; 2055.075;  256.475;    0.000
442.384; 2058.075;  252.475;    0.000
442.433; 2071.075;  262.475;    0.000
442.481; 2059.075;  246.475;    0.000
442.529; 2087.075;  290.475;    0.000
442.578; 2106.075;  247.475;    0.000
442.626; 2071.075;  247.475;    0.000
442.675; 2076.075;  272.475;    0.000
442.723; 2104.075;  230.475;    0.000
442.771; 2128.075;  234.475;    0.000
442.820; 2023.075;  224.475;    0.000
442.868; 2100.075;  246.475;    0.000
442.917; 2088.075;  249.475;    0.000
442.965; 2122.075;  260.475;    0.000
443.013; 2140.075;  258.475;    0.000
443.062; 2072.075;  259.475;    0.000
443.110; 2096.075;  226.475;    0.000
443.158; 2138.075;  213.475;    0.000
443.206; 2023.075;  201.475;    0.000
443.255; 2138.075;  280.475;    0.000
443.303; 2140.075;  292.475;    0.000
443.351; 2070.075;  256.475;    0.000
443.399; 2085.075;  215.475;    0.000
443.448; 2076.075;  243.475;    0.000
443.496; 2109.075;  249.475;    0.000
443.544; 2044.075;  231.475;    0.000
443.592; 2133.075;  243.475;    0.000
443.640; 2109.075;  252.475;    0.000
443.689; 2160.075;  220.475;    0.000
443.737; 2079.075;  231.475;    0.000
443.785; 2158.075;  256.475;    0.000
443.833; 2107.075;  268.475;    0.000
443.881; 2147.075;  181.475;    0.000
443.929; 2144.075;  245.475;    0.000
443.977; 2192.075;  278.475;    0.000
444.025; 2141.075;  245.475;    0.000
444.074; 2092.075;  233.475;    0.000
444.122; 2180.075;  267.475;    0.000
444.170; 2182.075;  247.475;    0.000
444.218; 2190.075;  246.475;    0.000
444.266; 2203.075;  275.475;    0.000
444.314; 2222.075;  263.475;    0.000
444.362; 2238.075;  240.475;    0.000
444.410; 2205.075;  220.475;    0.000
444.458; 2203.075;  258.475;    0.000
444.506; 2164.075;  258.475;    0.000
444.554; 2195.075;  224.475;    0.000
444.602; 2333.075;  245.475;    0.000
444.650; 2209.075;  261.475;    0.000
444.698; 2228.075;  232.475;    0.000
444.746; 2212.075;  206.475;    0.000
444.793; 2202.075;  249.475;    0.000
444.841; 2347.075;  261.475;    0.000
444.889; 2275.075;  221.475;    0.000
444.937; 2240.075;  215.475;    0.000
444.985; 2242.075;  244.475;    0.000
445.033; 2331.075;  211.475;    0.000
445.081; 2242.075;  225.475;    0.000
445.129; 2176.075;  217.475;    0.000
445.176; 2172.075;  196.475;    0.000
445.224; 2215.075;  211.475;    0.000
445.272; 2238.075;  242.475;    0.000
445.320; 2275.075;  225.475;    0.000
445.368; 2260.075;  249.475;    0.000
445.415; 2348.075;  243.475;    0.000
445.463; 2202.075;  242.475;    0.000
445.511; 2197.075;  248.475;    0.000
445.559; 2254.075;  219.475;    0.000
445.606; 2266.075;  221.475;    0.000
445.654; 2278.075;  202.475;    0.000
445.702; 2241.075;  210.475;    0.000
445.749; 2419.075;  249.475;    0.000
445.797; 2309.075;  206.475;    0.000
445.845; 2315.075;  213.475;    0.000
445.892; 2295.075;  224.475;    0.000
445.940; 2287.075;  214.475;    0.000
445.988; 2314.075;  247.475;    0.000
446.035; 2289.075;  204.475;    0.000
446.083; 2260.075;  235.475;    0.000
446.130; 2262.075;  195.475;    0.000
446.178; 2426.075;  236.475;    0.000
446.226; 2319.075;  218.475;    0.000
446.273; 2405.075;  215.475;    0.000
446.321; 2366.075;  222.475;    0.000
446.368; 2335.075;  228.475;    0.000
446.416; 2411.075;  223.475;    0.000
446.463; 2302.075;  220.475;    0.000
446.511; 2341.075;  198.475;    0.000
446.558; 2397.075;  208.475;    0.000
446.606; 2434.075;  253.475;    0.000
446.653; 2380.075;  198.475;    0.000
446.701; 2407.075;  231.475;    0.000
446.748; 2447.075;  224.475;    0.000
446.796; 2469.075;  201.475;    0.000
446.843; 2491.075;  257.475;    0.000
446.891; 2462.075;  218.475;    0.000
446.938; 2532.075;  232.475;    0.000
446.985; 2554.075;  229.475;    0.000
447.033; 2545.075;  251.475;    0.000
447.080; 2502.075;  257.475;    0.000
447.128; 2515.075;  232.475;    0.000
447.175; 2572.075;  269.475;    0.000
447.222; 2527.075;  185.475;    0.000
447.270; 2703.075;  264.475;    0.000
447.317; 2559.075;  225.475;    0.000
447.364; 2660.075;  243.475;    0.000
447.411; 2648.075;  263.475;    0.000
447.459; 2718.075;  257.475;    0.000
447.506; 2680.075;  175.475;    0.000
447.553; 2746.075;  203.475;    0.000
447.601; 2902.075;  238.475;    0.000
447.648; 2816.075;  244.475;    0.000
447.695; 2841.075;  249.475;    0.000
447.742; 2838.075;  234.475;    0.000
447.789; 2921.075;  228.475;    0.000
447.837; 2957.075;  258.475;    0.000
447.884; 2968.075;  243.475;    0.000
447.931; 3069.075;  235.475;    0.000
447.978; 3089.075;  224.475;    0.000
448.025; 3085.075;  245.475;    0.000
448.072; 3167.075;  212.475;    0.000
448.120; 3158.075;  256.475;    0.000
448.167; 3117.075;  240.475;    0.000
448.214; 3109.075;  247.475;    0.000
448.261; 3161.075;  245.475;    0.000
448.308; 3040.075;  273.475;    0.000
448.355; 2923.075;  257.475;    0.000
448.402; 2907.075;  259.475;    0.000
448.449; 2851.075;  238.475;    0.000
448.496; 2809.075;  245.475;    0.000
448.543; 2796.075;  217.475;    0.000
448.590; 2854.075;  269.475;    0.000
448.637; 2756.075;  250.475;    0.000
448.684; 2592.075;  250.475;    0.000
448.731; 2579.075;  235.475;    0.000
448.778; 2724.075;  265.475;    0.000
448.825; 2609.075;  257.475;    0.000
448.872; 2480.075;  234.475;    0.000
448.919; 2570.075;  216.475;    0.000
448.966; 2564.075;  274.475;    0.000
449.013; 2536.075;  263.475;    0.000
449.060; 2529.075;  247.475;    0.000
449.107; 2506.075;  218.475;    0.000
449.154; 2483.075;  225.475;    0.000
449.200; 2448.075;  212.475;    0.000
449.247; 2510.075;  242.475;    0.000
449.294; 2463.075;  228.475;    0.000
449.341; 2505.075;  232.475;    0.000
449.388; 2398.075;  247.475;    0.000
449.435; 2410.075;  227.475;    0.000
449.481; 2499.075;  270.475;    0.000
449.528; 2410.075;  265.475;    0.000
449.575; 2291.075;  255.475;    0.000
449.622; 2321.075;  210.475;    0.000
449.668; 2285.075;  234.475;    0.000
449.715; 2240.075;  262.475;    0.000
449.762; 2217.075;  247.475;    0.000
449.809; 2236.075;  286.475;    0.000
449.855; 2185.075;  246.475;    0.000
449.902; 2287.075;  224.475;    0.000
449.949; 2362.075;  244.475;    0.000
449.995; 2297.075;  274.475;    0.000
450.042; 2256.075;  272.475;    0.000
450.089; 2319.075;  274.475;    0.000
450.135; 2278.075;  285.475;    0.000
450.182; 2195.075;  251.475;    0.000
450.229; 2209.075;  242.475;    0.000
450.275; 2224.075;  277.475;    0.000
450.322; 2184.075;  260.475;    0.000
450.368; 2225.075;  257.475;    0.000
450.415; 2200.075;  276.475;    0.000
450.462; 2185.075;  298.475;    0.000
450.508; 2182.075;  255.475;    0.000
450.555; 2156.075;  271.475;    0.000
450.601; 2197.075;  281.475;    0.000
450.648; 2142.075;  249.475;    0.000
450.694; 2139.075;  270.475;    0.000
450.741; 2167.075;  256.475;    0.000
450.787; 2160.075;  292.475;    0.000
450.834; 2105.075;  221.475;    0.000
450.880; 2117.075;  265.475;    0.000
450.927; 2098.075;  242.475;    0.000
450.973; 2154.075;  259.475;    0.000
451.019; 2060.075;  221.475;    0.000
451.066; 2107.075;  257.475;    0.000
451.112; 2133.075;  251.475;    0.000
451.159; 2039.075;  278.475;    0.000
451.205; 2059.075;  274.475;    0.000
451.251; 2102.075;  281.475;    0.000
451.298; 2110.075;  273.475;    0.000
451.344; 2075.075;  246.475;    0.000
451.390; 2128.075;  286.475;    0.000
451.437; 2152.075;  268.475;    0.000
451.483; 2145.075;  315.475;    0.000
451.529; 2007.075;  251.475;    0.000
451.576; 2088.075;  306.475;    0.000
451.622; 2116.075;  234.475;    0.000
451.668; 2068.075;  243.475;    0.000
451.714; 2127.075;  256.475;    0.000
451.761; 2098.075;  264.475;    0.000
451.807; 2058.075;  284.475;    0.000
451.853; 2082.075;  282.475;    0.000
451.899; 1986.075;  240.475;    0.000
451.945; 2066.075;  263.475;    0.000
451.992; 2107.075;  255.475;    0.000
452.038; 2049.075;  273.475;    0.000
452.084; 1997.075;  274.475;    0.000
452.130; 1991.075;  261.475;    0.000
452.176; 1931.075;  246.475;    0.000
452.222; 2060.075;  238.475;    0.000
452.268; 2063.075;  267.475;    0.000
452.315; 2065.075;  274.475;    0.000
452.361; 1980.075;  241.475;    0.000
452.407; 2062.075;  274.475;    0.000
452.453; 2022.075;  260.475;    0.000
452.499; 2006.075;  232.475;    0.000
452.545; 2019.075;  252.475;    0.000
452.591; 1976.075;  263.475;    0.000
452.637; 2005.075;  208.475;    0.000
452.683; 1895.075;  237.475;    0.000
452.729; 1983.075;  263.475;    0.000
452.775; 1998.075;  291.475;    0.000
452.821; 1994.075;  238.475;    0.000
452.867; 1869.075;  223.475;    0.000
452.913; 1924.075;  257.475;    0.000
452.959; 2032.075;  238.475;    0.000
453.005; 2009.075;  252.475;    0.000
453.051; 1951.075;  260.475;    0.000
453.097; 1971.075;  268.475;    0.000
453.142; 1900.075;  231.475;    0.000
453.188; 1910.075;  266.475;    0.000
453.234; 1989.075;  233.475;    0.000
453.280; 1968.075;  219.475;    0.000
453.326; 1974.075;  265.475;    0.000
453.372; 1924.075;  238.475;    0.000
453.418; 1997.075;  240.475;    0.000
453.463; 1935.075;  219.475;    0.000
453.509; 1922.075;  264.475;    0.000
453.555; 1961.075;  247.475;    0.000
453.601; 1958.075;  230.475;    0.000
453.647; 1875.075;  285.475;    0.000
453.692; 1876.075;  240.475;    0.000
453.738; 1851.075;  233.475;    0.000
453.784; 1939.075;  230.475;    0.000
453.829; 1937.075;  246.475;    0.000
453.875; 1938.075;  261.475;    0.000
453.921; 1914.075;  203.475;    0.000
453.967; 1934.075;  241.475;    0.000
454.012; 1924.075;  250.475;    0.000
454.058; 1943.075;  252.475;    0.000
454.104; 2023.075;  239.475;    0.000
454.149; 1949.075;  250.475;    0.000
454.195; 1905.075;  243.475;    0.000
454.240; 1930.075;  252.475;    0.000
454.286; 1840.075;  245.475;    0.000
454.332; 1876.075;  286.475;    0.000
454.377; 1925.075;  254.475;    0.000
454.423; 1917.075;  246.475;    0.000
454.468; 1953.075;  235.475;    0.000
454.514; 1934.075;  231.475;    0.000
454.559; 1976.075;  246.475;    0.000
454.605; 1873.075;  204.475;    0.000
454.650; 1873.075;  272.475;    0.000
454.696; 1965.075;  222.475;    0.000
454.741; 1941.075;  290.475;    0.000
454.787; 1912.075;  262.475;    0.000
454.832; 1873.075;  227.475;    0.000
454.878; 1913.075;  241.475;    0.000
454.923; 1893.075;  272.475;    0.000
454.969; 1911.075;  290.475;    0.000
455.014; 1910.075;  278.475;    0.000
455.060; 1849.075;  246.475;    0.000
455.105; 1969.075;  231.475;    0.000
455.150; 1909.075;  265.475;    0.000
455.196; 1910.075;  266.475;    0.000
455.241; 1865.075;  258.475;    0.000
455.286; 1889.075;  266.475;    0.000
455.332; 1813.075;  252.475;    0.000
455.377; 1871.075;  219.475;    0.000
455.422; 1873.075;  262.475;    0.000
455.468; 1861.075;  260.475;    0.000
455.513; 1923.075;  212.475;    0.000
455.558; 1909.075;  197.475;    0.000
455.604; 1924.075;  262.475;    0.000
455.649; 1871.075;  238.475;    0.000
455.694; 1849.075;  221.475;    0.000
455.739; 1900.075;  251.475;    0.000
455.785; 1945.075;  287.475;    0.000
455.830; 1940.075;  284.475;    0.000
455.875; 1900.075;  234.475;    0.000
455.920; 1865.075;  215.475;    0.000
455.965; 1894.075;  256.475;    0.000
456.010; 1951.075;  266.475;    0.000
456.056; 1904.075;  263.475;    0.000
456.101; 1898.075;  240.475;    0.000
456.146; 1883.075;  258.475;    0.000
456.191; 1851.075;  241.475;    0.000
456.236; 1924.075;  252.475;    0.000
456.281; 1840.075;  218.475;    0.000
456.326; 1867.075;  251.475;    0.000
456.371; 1854.075;  256.475;    0.000
456.416; 1820.075;  301.475;    0.000
456.461; 1832.075;  233.475;    0.000
456.507; 1884.075;  218.475;    0.000
456.552; 1892.075;  278.475;    0.000
456.597; 1889.075;  223.475;    0.000
456.642; 1920.075;  203.475;    0.000
456.687; 1832.075;  245.475;    0.000
456.732; 1912.075;  256.475;    0.000
456.776; 1894.075;  244.475;    0.000
456.821; 1925.075;  276.475;    0.000
456.866; 1900.075;  232.475;    0.000
456.911; 1840.075;  225.475;    0.000
456.956; 1822.075;  237.475;    0.000
457.001; 1827.075;  261.475;    0.000
457.046; 1873.075;  205.475;    0.000
457.091; 1860.075;  241.475;    0.000
457.136; 1928.075;  217.475;    0.000
457.181; 1855.075;  251.475;    0.000
457.225; 1926.075;  241.475;    0.000
457.270; 1855.075;  237.475;    0.000
457.315; 1852.075;  279.475;    0.000
457.360; 1846.075;  245.475;    0.000
457.405; 1876.075;  202.475;    0.000
457.450; 1927.075;  247.475;    0.000
457.494; 1862.075;  243.475;    0.000
457.539; 1864.075;  222.475;    0.000
457.584; 1877.075;  239.475;    0.000
457.629; 1884.075;  236.475;    0.000
457.673; 1892.075;  234.475;    0.000
457.718; 1945.075;  202.475;    0.000
457.763; 1930.075;  274.475;    0.000
457.807; 1949.075;  236.475;    0.000
457.852; 1904.075;  265.475;    0.000
457.897; 1942.075;  252.475;    0.000
457.941; 1899.075;  264.475;    0.000
457.986; 1891.075;  280.475;    0.000
458.031; 1933.075;  217.475;    0.000
458.075; 1978.075;  249.475;    0.000
458.120; 2027.075;  257.475;    0.000
458.165; 1846.075;  183.475;    0.000
458.209; 1970.075;  245.475;    0.000
458.254; 1891.075;  245.475;    0.000
458.298; 1907.075;  265.475;    0.000
458.343; 1852.075;  241.475;    0.000
458.387; 1899.075;  262.475;    0.000
458.432; 1943.075;  245.475;    0.000
458.476; 1920.075;  255.475;    0.000
458.521; 1900.075;  269.475;    0.000
458.565; 1958.075;  265.475;    0.000
458.610; 1926.075;  222.475;    0.000
458.654; 1956.075;  257.475;    0.000
458.699; 1936.075;  296.475;    0.000
458.743; 2010.075;  203.475;    0.000
458.788; 1973.075;  267.475;    0.000
458.832; 1993.075;  274.475;    0.000
458.877; 1960.075;  251.475;    0.000
458.921; 1958.075;  237.475;    0.000
458.965; 1971.075;  264.475;    0.000
459.010; 1947.075;  256.475;    0.000
459.054; 2001.075;  280.475;    0.000
459.099; 1956.075;  240.475;    0.000
459.143; 2011.075;  287.475;    0.000
459.187; 1992.075;  257.475;    0.000
459.231; 2004.075;  273.475;    0.000
459.276; 2013.075;  231.475;    0.000
459.320; 2010.075;  261.475;    0.000
459.364; 2008.075;  278.475;    0.000
459.409; 2032.075;  249.475;    0.000
459.453; 1984.075;  235.475;    0.000
459.497; 2051.075;  262.475;    0.000
459.541; 2093.075;  269.475;    0.000
459.586; 2006.075;  240.475;    0.000
459.630; 2056.075;  261.475;    0.000
459.674; 2014.075;  276.475;    0.000
459.718; 1980.075;  236.475;    0.000
459.762; 2001.075;  263.475;    0.000
459.807; 2105.075;  263.475;    0.000
459.851; 2018.075;  225.475;    0.000
459.895; 2011.075;  247.475;    0.000
459.939; 2042.075;  231.475;    0.000
459.983; 2015.075;  242.475;    0.000
460.027; 2015.075;  248.475;    0.000
460.071; 2031.075;  273.475;    0.000
460.115; 2052.075;  282.475;    0.000
460.159; 2073.075;  264.475;    0.000
460.204; 2052.075;  288.475;    0.000
460.248; 1946.075;  293.475;    0.000
460.292; 1986.075;  277.475;    0.000
460.336; 2056.075;  250.475;    0.000
460.380; 2073.075;  275.475;    0.000
460.424; 2002.075;  243.475;    0.000
460.468; 2079.075;  277.475;    0.000
460.512; 2117.075;  261.475;    0.000
460.556; 2138.075;  266.475;    0.000
460.599; 2047.075;  246.475;    0.000
460.643; 2059.075;  256.475;    0.000
460.687; 1986.075;  257.475;    0.000
460.731; 2069.075;  235.475;    0.000
460.775; 2059.075;  278.475;    0.000
460.819; 2026.075;  268.475;    0.000
460.863; 2078.075;  257.475;    0.000
460.907; 2039.075;  213.475;    0.000
460.951; 2089.075;  274.475;    0.000
460.995; 2040.075;  258.475;    0.000
461.038; 2005.075;  219.475;    0.000
461.082; 2135.075;  253.475;    0.000
461.126; 2046.075;  281.475;    0.000
461.170; 2059.075;  244.475;    0.000
461.214; 2038.075;  262.475;    0.000
461.257; 2135.075;  284.475;    0.000
461.301; 2148.075;  275.475;    0.000
461.345; 2083.075;  267.475;    0.000
461.389; 2148.075;  255.475;    0.000
461.432; 2079.075;  282.475;    0.000
461.476; 2144.075;  263.475;    0.000
461.520; 2068.075;  260.475;    0.000
461.563; 2092.075;  278.475;    0.000
461.607; 2094.075;  236.475;    0.000
461.651; 2080.075;  262.475;    0.000
461.694; 2190.075;  236.475;    0.000
461.738; 2108.075;  295.475;    0.000
461.782; 2120.075;  252.475;    0.000
461.825; 2035.075;  271.475;    0.000
461.869; 2112.075;  278.475;    0.000
461.913; 2191.075;  255.475;    0.000
461.956; 2074.075;  254.475;    0.000
462.000; 2106.075;  299.475;    0.000
462.043; 2138.075;  282.475;    0.000
462.087; 2138.075;  274.475;    0.000
462.130; 2174.075;  270.475;    0.000
462.174; 2109.075;  274.475;    0.000
462.217; 2137.075;  272.475;    0.000
462.261; 2203.075;  286.475;    0.000
462.304; 2125.075;  236.475;    0.000
462.348; 2183.075;  262.475;    0.000
462.391; 2179.075;  244.475;    0.000
462.435; 2155.075;  321.475;    0.000
462.478; 2156.075;  230.475;    0.000
462.522; 2111.075;  245.475;    0.000
462.565; 2202.075;  278.475;    0.000
462.608; 2200.075;  303.475;    0.000
462.652; 2154.075;  275.475;    0.000
462.695; 2254.075;  314.475;    0.000
462.739; 2236.075;  307.475;    0.000
462.782; 2185.075;  286.475;    0.000
462.825; 2268.075;  312.475;    0.000
462.869; 2227.075;  338.475;    0.000
462.912; 2201.075;  304.475;    0.000
462.955; 2294.075;  288.475;    0.000
462.998; 2269.075;  292.475;    0.000
463.042; 2192.075;  309.475;    0.000
463.085; 2224.075;  292.475;    0.000
463.128; 2295.075;  317.475;    0.000
463.172; 2179.075;  287.475;    0.000
463.215;  381.075;  313.475;    0.000
463.258;  300.075;  295.475;    0.000
463.301;  282.075;  275.475;    0.000
463.344;  320.075;  311.475;    0.000
463.388;  302.075;  296.475;    0.000
463.431;  291.075;  277.475;    0.000
463.474;  340.075;  364.475;    0.000
463.517;  309.075;  306.475;    0.000
463.560;  324.075;  308.475;    0.000
463.603;  325.075;  343.475;    0.000
463.646;  344.075;  309.475;    0.000
463.690;  324.075;  309.475;    0.000
463.733;  347.075;  320.475;    0.000
463.776;  294.075;  299.475;    0.000
463.819;  311.075;  320.475;    0.000
463.862;  288.075;  283.475;    0.000

