
Integration time [ms]:   1.000
Averaging Nr. [scans]: 1
Smoothing Nr. [pixels]: 0
Data measured with spectrometer [name]: UV2
Wave   ;Sample   ;Dark     ;Reference
[nm]   ;[counts] ;[counts] ;[counts] 

353.533;  237.850;  216.475;    0.000
353.597;  245.850;  244.475;    0.000
353.660;  186.850;  181.475;    0.000
353.723;  197.850;  203.475;    0.000
353.786;  191.850;  180.475;    0.000
353.850;  231.850;  213.475;    0.000
353.913;  169.850;  191.475;    0.000
353.976;  220.850;  195.475;    0.000
354.039;  189.850;  158.475;    0.000
354.102;  188.850;  199.475;    0.000
354.166;  218.850;  185.475;    0.000
354.229;  187.850;  188.475;    0.000
354.292;  179.850;  188.475;    0.000
354.355;  213.850;  226.475;    0.000
354.418;  191.850;  158.475;    0.000
354.481;  200.850;  185.475;    0.000
354.545;  614.850;  191.475;    0.000
354.608;  618.850;  247.475;    0.000
354.671;  559.850;  176.475;    0.000
354.734;  612.850;  198.475;    0.000
354.797;  621.850;  195.475;    0.000
354.860;  660.850;  212.475;    0.000
354.923;  642.850;  184.475;    0.000
354.986;  688.850;  169.475;    0.000
355.050;  683.850;  206.475;    0.000
355.113;  665.850;  210.475;    0.000
355.176;  707.850;  217.475;    0.000
355.239;  668.850;  201.475;    0.000
355.302;  693.850;  193.475;    0.000
355.365;  726.850;  234.475;    0.000
355.428;  723.850;  182.475;    0.000
355.491;  728.850;  233.475;    0.000
355.554;  667.850;  167.475;    0.000
355.617;  719.850;  195.475;    0.000
355.680;  682.850;  198.475;    0.000
355.743;  726.850;  186.475;    0.000
355.806;  745.850;  171.475;    0.000
355.869;  742.850;  244.475;    0.000
355.932;  762.850;  164.475;    0.000
355.995;  788.850;  220.475;    0.000
356.058;  802.850;  172.475;    0.000
356.121;  803.850;  228.475;    0.000
356.184;  786.850;  225.475;    0.000
356.247;  730.850;  161.475;    0.000
356.310;  743.850;  195.475;    0.000
356.373;  784.850;  191.475;    0.000
356.436;  782.850;  147.475;    0.000
356.498;  782.850;  183.475;    0.000
356.561;  806.850;  137.475;    0.000
356.624;  790.850;  186.475;    0.000
356.687;  765.850;  158.475;    0.000
356.750;  844.850;  194.475;    0.000
356.813;  766.850;  186.475;    0.000
356.876;  760.850;  161.475;    0.000
356.939;  824.850;  188.475;    0.000
357.001;  861.850;  200.475;    0.000
357.064;  831.850;  182.475;    0.000
357.127;  820.850;  168.475;    0.000
357.190;  815.850;  157.475;    0.000
357.253;  801.850;  199.475;    0.000
357.316;  885.850;  187.475;    0.000
357.378;  832.850;  174.475;    0.000
357.441;  837.850;  165.475;    0.000
357.504;  812.850;  189.475;    0.000
357.567;  795.850;  116.475;    0.000
357.629;  861.850;  176.475;    0.000
357.692;  857.850;  134.475;    0.000
357.755;  835.850;  175.475;    0.000
357.818;  861.850;  159.475;    0.000
357.880;  880.850;  185.475;    0.000
357.943;  815.850;  159.475;    0.000
358.006;  865.850;  176.475;    0.000
358.069;  850.850;  156.475;    0.000
358.131;  859.850;  170.475;    0.000
358.194;  869.850;  125.475;    0.000
358.257;  816.850;  186.475;    0.000
358.319;  817.850;  139.475;    0.000
358.382;  890.850;  175.475;    0.000
358.445;  838.850;  170.475;    0.000
358.507;  845.850;  129.475;    0.000
358.570;  895.850;  168.475;    0.000
358.633;  907.850;  152.475;    0.000
358.695;  880.850;  194.475;    0.000
358.758;  886.850;  154.475;    0.000
358.821;  869.850;  147.475;    0.000
358.883;  832.850;  163.475;    0.000
358.946;  842.850;  155.475;    0.000
359.008;  909.850;  208.475;    0.000
359.071;  832.850;  182.475;    0.000
359.134;  833.850;  126.475;    0.000
359.196;  921.850;  142.475;    0.000
359.259;  848.850;  138.475;    0.000
359.321;  941.850;  153.475;    0.000
359.384;  957.850;  186.475;    0.000
359.446;  907.850;  152.475;    0.000
359.509;  889.850;  144.475;    0.000
359.571;  925.850;  164.475;    0.000
359.634;  843.850;  171.475;    0.000
359.696;  911.850;  144.475;    0.000
359.759;  926.850;  171.475;    0.000
359.821;  895.850;  161.475;    0.000
359.884;  929.850;  159.475;    0.000
359.946;  904.850;  186.475;    0.000
360.009;  904.850;  171.475;    0.000
360.071;  880.850;  166.475;    0.000
360.134;  920.850;  215.475;    0.000
360.196;  943.850;  138.475;    0.000
360.259;  929.850;  196.475;    0.000
360.321;  921.850;  148.475;    0.000
360.384;  969.850;  150.475;    0.000
360.446;  933.850;  148.475;    0.000
360.508;  966.850;  172.475;    0.000
360.571;  905.850;  155.475;    0.000
360.633;  873.850;  153.475;    0.000
360.696;  849.850;  142.475;    0.000
360.758;  949.850;  165.475;    0.000
360.820;  942.850;  155.475;    0.000
360.883;  945.850;  156.475;    0.000
360.945;  937.850;  171.475;    0.000
361.007;  929.850;  138.475;    0.000
361.070; 1003.850;  129.475;    0.000
361.132;  978.850;  166.475;    0.000
361.194;  949.850;  143.475;    0.000
361.257;  955.850;  154.475;    0.000
361.319;  935.850;  176.475;    0.000
361.381;  986.850;  143.475;    0.000
361.443;  932.850;  136.475;    0.000
361.506;  981.850;  160.475;    0.000
361.568;  982.850;  140.475;    0.000
361.630;  928.850;  159.475;    0.000
361.693;  972.850;  162.475;    0.000
361.755;  943.850;  185.475;    0.000
361.817; 1013.850;  209.475;    0.000
361.879;  994.850;  161.475;    0.000
361.941; 1025.850;  152.475;    0.000
362.004;  993.850;  132.475;    0.000
362.066;  962.850;  159.475;    0.000
362.128; 1029.850;  143.475;    0.000
362.190;  974.850;  131.475;    0.000
362.252;  993.850;  131.475;    0.000
362.315; 1013.850;  175.475;    0.000
362.377;  986.850;  140.475;    0.000
362.439; 1003.850;  140.475;    0.000
362.501; 1050.850;  140.475;    0.000
362.563;  961.850;  152.475;    0.000
362.625; 1021.850;  174.475;    0.000
362.688;  996.850;  195.475;    0.000
362.750; 1070.850;  221.475;    0.000
362.812;  966.850;  171.475;    0.000
362.874; 1023.850;  117.475;    0.000
362.936; 1017.850;  162.475;    0.000
362.998;  997.850;  142.475;    0.000
363.060;  972.850;  143.475;    0.000
363.122;  996.850;  148.475;    0.000
363.184; 1024.850;  179.475;    0.000
363.246; 1063.850;  186.475;    0.000
363.308; 1031.850;  180.475;    0.000
363.370; 1013.850;  200.475;    0.000
363.432; 1045.850;  139.475;    0.000
363.494; 1033.850;  138.475;    0.000
363.556; 1018.850;  114.475;    0.000
363.618; 1026.850;  153.475;    0.000
363.680; 1021.850;  153.475;    0.000
363.742; 1077.850;  178.475;    0.000
363.804; 1099.850;  214.475;    0.000
363.866; 1066.850;  170.475;    0.000
363.928;  962.850;  145.475;    0.000
363.990; 1039.850;  215.475;    0.000
364.052; 1051.850;  166.475;    0.000
364.114; 1098.850;  168.475;    0.000
364.176; 1086.850;  176.475;    0.000
364.238; 1086.850;  203.475;    0.000
364.300; 1018.850;  158.475;    0.000
364.362; 1038.850;  152.475;    0.000
364.424; 1018.850;  119.475;    0.000
364.486; 1036.850;  187.475;    0.000
364.548;  972.850;  180.475;    0.000
364.609; 1082.850;  212.475;    0.000
364.671; 1066.850;  165.475;    0.000
364.733;  976.850;  190.475;    0.000
364.795;  999.850;  148.475;    0.000
364.857; 1039.850;  159.475;    0.000
364.919; 1066.850;  159.475;    0.000
364.981; 1054.850;  191.475;    0.000
365.042; 1065.850;  170.475;    0.000
365.104; 1046.850;  145.475;    0.000
365.166; 1000.850;  134.475;    0.000
365.228; 1034.850;  150.475;    0.000
365.290; 1034.850;  158.475;    0.000
365.351; 1001.850;  168.475;    0.000
365.413; 1088.850;  173.475;    0.000
365.475; 1081.850;  172.475;    0.000
365.537; 1044.850;  126.475;    0.000
365.598; 1116.850;  160.475;    0.000
365.660; 1021.850;  127.475;    0.000
365.722; 1057.850;  189.475;    0.000
365.784; 1061.850;  161.475;    0.000
365.845; 1015.850;  152.475;    0.000
365.907; 1043.850;  117.475;    0.000
365.969; 1061.850;  146.475;    0.000
366.030;  999.850;  171.475;    0.000
366.092; 1113.850;  155.475;    0.000
366.154; 1080.850;  137.475;    0.000
366.215; 1072.850;  147.475;    0.000
366.277; 1067.850;  148.475;    0.000
366.339; 1108.850;  158.475;    0.000
366.400; 1071.850;  140.475;    0.000
366.462; 1065.850;  159.475;    0.000
366.524; 1083.850;  160.475;    0.000
366.585;  998.850;  157.475;    0.000
366.647; 1045.850;  170.475;    0.000
366.708; 1036.850;  123.475;    0.000
366.770; 1075.850;  194.475;    0.000
366.832; 1106.850;  191.475;    0.000
366.893; 1108.850;  155.475;    0.000
366.955; 1049.850;  132.475;    0.000
367.016; 1069.850;  126.475;    0.000
367.078; 1064.850;  202.475;    0.000
367.139; 1116.850;  116.475;    0.000
367.201; 1059.850;  134.475;    0.000
367.262; 1051.850;  157.475;    0.000
367.324; 1061.850;  202.475;    0.000
367.385;  997.850;  118.475;    0.000
367.447; 1167.850;  155.475;    0.000
367.508; 1100.850;  134.475;    0.000
367.570; 1138.850;  165.475;    0.000
367.631; 1039.850;  118.475;    0.000
367.693; 1121.850;  170.475;    0.000
367.754; 1106.850;  154.475;    0.000
367.816; 1143.850;  146.475;    0.000
367.877; 1142.850;  175.475;    0.000
367.939; 1220.850;  200.475;    0.000
368.000; 1065.850;  168.475;    0.000
368.062; 1066.850;  138.475;    0.000
368.123; 1084.850;  170.475;    0.000
368.184; 1106.850;  188.475;    0.000
368.246; 1121.850;  145.475;    0.000
368.307; 1163.850;  163.475;    0.000
368.369; 1082.850;  144.475;    0.000
368.430; 1153.850;  140.475;    0.000
368.491; 1092.850;  133.475;    0.000
368.553; 1091.850;  145.475;    0.000
368.614; 1102.850;  158.475;    0.000
368.675; 1084.850;  147.475;    0.000
368.737; 1171.850;  157.475;    0.000
368.798; 1121.850;  163.475;    0.000
368.859; 1136.850;  173.475;    0.000
368.921; 1178.850;  122.475;    0.000
368.982; 1153.850;  184.475;    0.000
369.043; 1100.850;  169.475;    0.000
369.104; 1077.850;  142.475;    0.000
369.166; 1137.850;  169.475;    0.000
369.227; 1122.850;  156.475;    0.000
369.288; 1099.850;  151.475;    0.000
369.349; 1159.850;  191.475;    0.000
369.411; 1213.850;  168.475;    0.000
369.472; 1117.850;  155.475;    0.000
369.533; 1126.850;  149.475;    0.000
369.594; 1110.850;  174.475;    0.000
369.656; 1250.850;  188.475;    0.000
369.717; 1065.850;  113.475;    0.000
369.778; 1165.850;  184.475;    0.000
369.839; 1150.850;  151.475;    0.000
369.900; 1200.850;  180.475;    0.000
369.961; 1122.850;  171.475;    0.000
370.023; 1137.850;  143.475;    0.000
370.084; 1105.850;  137.475;    0.000
370.145; 1146.850;  152.475;    0.000
370.206; 1193.850;  151.475;    0.000
370.267; 1136.850;  134.475;    0.000
370.328; 1185.850;  178.475;    0.000
370.389; 1089.850;  181.475;    0.000
370.451; 1170.850;  169.475;    0.000
370.512; 1149.850;  172.475;    0.000
370.573; 1107.850;  148.475;    0.000
370.634; 1179.850;  156.475;    0.000
370.695; 1191.850;  151.475;    0.000
370.756; 1150.850;  185.475;    0.000
370.817; 1175.850;  185.475;    0.000
370.878; 1176.850;  191.475;    0.000
370.939; 1166.850;  147.475;    0.000
371.000; 1170.850;  162.475;    0.000
371.061; 1126.850;  145.475;    0.000
371.122; 1214.850;  179.475;    0.000
371.183; 1141.850;  114.475;    0.000
371.244; 1196.850;  180.475;    0.000
371.305; 1154.850;  138.475;    0.000
371.366; 1214.850;  157.475;    0.000
371.427; 1200.850;  148.475;    0.000
371.488; 1165.850;  138.475;    0.000
371.549; 1121.850;  193.475;    0.000
371.610; 1108.850;  158.475;    0.000
371.671; 1138.850;  119.475;    0.000
371.732; 1169.850;  159.475;    0.000
371.793; 1235.850;  178.475;    0.000
371.853; 1173.850;  155.475;    0.000
371.914; 1243.850;  148.475;    0.000
371.975; 1184.850;  124.475;    0.000
372.036; 1147.850;  158.475;    0.000
372.097; 1096.850;  136.475;    0.000
372.158; 1209.850;  116.475;    0.000
372.219; 1190.850;  157.475;    0.000
372.280; 1177.850;  151.475;    0.000
372.340; 1200.850;  190.475;    0.000
372.401; 1159.850;  151.475;    0.000
372.462; 1157.850;  129.475;    0.000
372.523; 1182.850;  121.475;    0.000
372.584; 1195.850;  152.475;    0.000
372.645; 1157.850;  132.475;    0.000
372.705; 1250.850;  190.475;    0.000
372.766; 1213.850;  153.475;    0.000
372.827; 1190.850;  133.475;    0.000
372.888; 1218.850;  161.475;    0.000
372.948; 1213.850;  159.475;    0.000
373.009; 1210.850;  164.475;    0.000
373.070; 1217.850;  139.475;    0.000
373.131; 1142.850;  137.475;    0.000
373.191; 1238.850;  181.475;    0.000
373.252; 1199.850;  154.475;    0.000
373.313; 1202.850;  179.475;    0.000
373.373; 1163.850;  136.475;    0.000
373.434; 1262.850;  169.475;    0.000
373.495; 1192.850;   97.475;    0.000
373.555; 1220.850;  142.475;    0.000
373.616; 1208.850;  178.475;    0.000
373.677; 1260.850;  167.475;    0.000
373.737; 1256.850;  139.475;    0.000
373.798; 1221.850;  155.475;    0.000
373.859; 1207.850;  162.475;    0.000
373.919; 1241.850;  174.475;    0.000
373.980; 1205.850;  172.475;    0.000
374.041; 1197.850;  166.475;    0.000
374.101; 1227.850;  172.475;    0.000
374.162; 1238.850;  188.475;    0.000
374.222; 1181.850;  186.475;    0.000
374.283; 1237.850;  195.475;    0.000
374.343; 1241.850;  204.475;    0.000
374.404; 1290.850;  187.475;    0.000
374.465; 1274.850;  183.475;    0.000
374.525; 1221.850;  136.475;    0.000
374.586; 1179.850;  140.475;    0.000
374.646; 1305.850;  191.475;    0.000
374.707; 1268.850;  208.475;    0.000
374.767; 1344.850;  178.475;    0.000
374.828; 1287.850;  159.475;    0.000
374.888; 1278.850;  143.475;    0.000
374.949; 1243.850;  202.475;    0.000
375.009; 1265.850;  151.475;    0.000
375.070; 1249.850;  160.475;    0.000
375.130; 1308.850;  160.475;    0.000
375.190; 1254.850;  164.475;    0.000
375.251; 1288.850;  196.475;    0.000
375.311; 1285.850;  154.475;    0.000
375.372; 1303.850;  197.475;    0.000
375.432; 1291.850;  159.475;    0.000
375.493; 1266.850;  197.475;    0.000
375.553; 1269.850;  165.475;    0.000
375.613; 1243.850;  174.475;    0.000
375.674; 1330.850;  165.475;    0.000
375.734; 1314.850;  128.475;    0.000
375.794; 1234.850;  169.475;    0.000
375.855; 1253.850;  193.475;    0.000
375.915; 1280.850;  162.475;    0.000
375.975; 1246.850;  181.475;    0.000
376.036; 1264.850;  161.475;    0.000
376.096; 1246.850;  131.475;    0.000
376.156; 1251.850;  165.475;    0.000
376.217; 1283.850;  182.475;    0.000
376.277; 1330.850;  185.475;    0.000
376.337; 1267.850;  177.475;    0.000
376.398; 1270.850;  162.475;    0.000
376.458; 1290.850;  179.475;    0.000
376.518; 1282.850;  150.475;    0.000
376.578; 1324.850;  165.475;    0.000
376.639; 1336.850;  159.475;    0.000
376.699; 1272.850;  180.475;    0.000
376.759; 1386.850;  206.475;    0.000
376.819; 1326.850;  146.475;    0.000
376.880; 1279.850;  177.475;    0.000
376.940; 1281.850;  160.475;    0.000
377.000; 1217.850;  149.475;    0.000
377.060; 1310.850;  180.475;    0.000
377.120; 1284.850;  146.475;    0.000
377.180; 1270.850;  137.475;    0.000
377.241; 1295.850;  163.475;    0.000
377.301; 1377.850;  169.475;    0.000
377.361; 1312.850;  137.475;    0.000
377.421; 1303.850;  184.475;    0.000
377.481; 1320.850;  185.475;    0.000
377.541; 1350.850;  146.475;    0.000
377.601; 1361.850;  179.475;    0.000
377.661; 1369.850;  181.475;    0.000
377.722; 1384.850;  185.475;    0.000
377.782; 1373.850;  147.475;    0.000
377.842; 1344.850;  190.475;    0.000
377.902; 1323.850;  166.475;    0.000
377.962; 1291.850;  153.475;    0.000
378.022; 1319.850;  163.475;    0.000
378.082; 1327.850;  146.475;    0.000
378.142; 1351.850;  152.475;    0.000
378.202; 1358.850;  164.475;    0.000
378.262; 1378.850;  195.475;    0.000
378.322; 1366.850;  190.475;    0.000
378.382; 1292.850;  152.475;    0.000
378.442; 1348.850;  175.475;    0.000
378.502; 1342.850;  153.475;    0.000
378.562; 1316.850;  142.475;    0.000
378.622; 1404.850;  166.475;    0.000
378.682; 1423.850;  173.475;    0.000
378.742; 1401.850;  182.475;    0.000
378.802; 1368.850;  145.475;    0.000
378.862; 1395.850;  210.475;    0.000
378.921; 1399.850;  182.475;    0.000
378.981; 1368.850;  185.475;    0.000
379.041; 1395.850;  130.475;    0.000
379.101; 1465.850;  177.475;    0.000
379.161; 1340.850;  166.475;    0.000
379.221; 1430.850;  162.475;    0.000
379.281; 1395.850;  167.475;    0.000
379.341; 1430.850;  136.475;    0.000
379.401; 1385.850;  145.475;    0.000
379.460; 1441.850;  176.475;    0.000
379.520; 1524.850;  162.475;    0.000
379.580; 1468.850;  144.475;    0.000
379.640; 1424.850;  163.475;    0.000
379.700; 1487.850;  157.475;    0.000
379.759; 1479.850;  165.475;    0.000
379.819; 1465.850;  190.475;    0.000
379.879; 1441.850;  143.475;    0.000
379.939; 1441.850;  188.475;    0.000
379.999; 1412.850;  141.475;    0.000
380.058; 1480.850;  169.475;    0.000
380.118; 1449.850;  158.475;    0.000
380.178; 1461.850;  114.475;    0.000
380.237; 1495.850;  157.475;    0.000
380.297; 1469.850;  177.475;    0.000
380.357; 1477.850;  189.475;    0.000
380.417; 1491.850;  182.475;    0.000
380.476; 1505.850;  178.475;    0.000
380.536; 1552.850;  189.475;    0.000
380.596; 1531.850;  183.475;    0.000
380.655; 1503.850;  195.475;    0.000
380.715; 1494.850;  170.475;    0.000
380.775; 1523.850;  170.475;    0.000
380.834; 1559.850;  179.475;    0.000
380.894; 1508.850;  188.475;    0.000
380.954; 1532.850;  142.475;    0.000
381.013; 1554.850;  178.475;    0.000
381.073; 1494.850;  164.475;    0.000
381.132; 1536.850;  192.475;    0.000
381.192; 1583.850;  187.475;    0.000
381.252; 1547.850;  176.475;    0.000
381.311; 1564.850;  206.475;    0.000
381.371; 1592.850;  167.475;    0.000
381.430; 1537.850;  131.475;    0.000
381.490; 1468.850;  150.475;    0.000
381.549; 1630.850;  129.475;    0.000
381.609; 1569.850;  178.475;    0.000
381.668; 1613.850;  194.475;    0.000
381.728; 1729.850;  210.475;    0.000
381.787; 1641.850;  190.475;    0.000
381.847; 1644.850;  181.475;    0.000
381.906; 1641.850;  156.475;    0.000
381.966; 1627.850;  176.475;    0.000
382.025; 1615.850;  186.475;    0.000
382.085; 1657.850;  192.475;    0.000
382.144; 1749.850;  173.475;    0.000
382.204; 1847.850;  207.475;    0.000
382.263; 1778.850;  193.475;    0.000
382.323; 1772.850;  164.475;    0.000
382.382; 1767.850;  161.475;    0.000
382.441; 1885.850;  199.475;    0.000
382.501; 1848.850;  208.475;    0.000
382.560; 1892.850;  173.475;    0.000
382.619; 1901.850;  179.475;    0.000
382.679; 1974.850;  177.475;    0.000
382.738; 2111.850;  190.475;    0.000
382.798; 2145.850;  213.475;    0.000
382.857; 2359.850;  195.475;    0.000
382.916; 2489.850;  184.475;    0.000
382.976; 2672.850;  169.475;    0.000
383.035; 2430.850;  194.475;    0.000
383.094; 2465.850;  185.475;    0.000
383.154; 2696.850;  198.475;    0.000
383.213; 3117.850;  147.475;    0.000
383.272; 3019.850;  175.475;    0.000
383.331; 2474.850;  122.475;    0.000
383.391; 2373.850;  185.475;    0.000
383.450; 2287.850;  160.475;    0.000
383.509; 2305.850;  168.475;    0.000
383.568; 2554.850;  196.475;    0.000
383.628; 2448.850;  156.475;    0.000
383.687; 2585.850;  171.475;    0.000
383.746; 2938.850;  155.475;    0.000
383.805; 3405.850;  201.475;    0.000
383.864; 3350.850;  125.475;    0.000
383.924; 2833.850;  213.475;    0.000
383.983; 2383.850;  188.475;    0.000
384.042; 2206.850;  162.475;    0.000
384.101; 2145.850;  183.475;    0.000
384.160; 1996.850;  155.475;    0.000
384.219; 1947.850;  155.475;    0.000
384.279; 1928.850;  189.475;    0.000
384.338; 1876.850;  156.475;    0.000
384.397; 1817.850;  148.475;    0.000
384.456; 1753.850;  154.475;    0.000
384.515; 1850.850;  160.475;    0.000
384.574; 1883.850;  223.475;    0.000
384.633; 1767.850;  133.475;    0.000
384.692; 1805.850;  163.475;    0.000
384.751; 1737.850;  186.475;    0.000
384.810; 1718.850;  187.475;    0.000
384.869; 1658.850;  172.475;    0.000
384.929; 1726.850;  153.475;    0.000
384.988; 1721.850;  174.475;    0.000
385.047; 1757.850;  154.475;    0.000
385.106; 1664.850;  164.475;    0.000
385.165; 1758.850;  151.475;    0.000
385.224; 1802.850;  147.475;    0.000
385.283; 1663.850;  176.475;    0.000
385.342; 1733.850;  142.475;    0.000
385.401; 1721.850;  175.475;    0.000
385.459; 1638.850;  150.475;    0.000
385.518; 1712.850;  124.475;    0.000
385.577; 1744.850;  115.475;    0.000
385.636; 1789.850;  174.475;    0.000
385.695; 1635.850;  158.475;    0.000
385.754; 1772.850;  150.475;    0.000
385.813; 1791.850;  129.475;    0.000
385.872; 1699.850;  146.475;    0.000
385.931; 1771.850;  194.475;    0.000
385.990; 1730.850;  174.475;    0.000
386.049; 1711.850;  176.475;    0.000
386.107; 1700.850;  151.475;    0.000
386.166; 1586.850;  178.475;    0.000
386.225; 1658.850;  162.475;    0.000
386.284; 1714.850;  180.475;    0.000
386.343; 1738.850;  171.475;    0.000
386.402; 1739.850;  176.475;    0.000
386.460; 1606.850;  144.475;    0.000
386.519; 1754.850;  140.475;    0.000
386.578; 1610.850;  145.475;    0.000
386.637; 1674.850;  164.475;    0.000
386.696; 1710.850;  189.475;    0.000
386.754; 1684.850;  135.475;    0.000
386.813; 1660.850;  139.475;    0.000
386.872; 1640.850;  121.475;    0.000
386.931; 1718.850;  153.475;    0.000
386.989; 1710.850;  211.475;    0.000
387.048; 1693.850;  156.475;    0.000
387.107; 1691.850;  210.475;    0.000
387.165; 1693.850;  129.475;    0.000
387.224; 1678.850;  205.475;    0.000
387.283; 1728.850;  130.475;    0.000
387.342; 1737.850;  171.475;    0.000
387.400; 1646.850;  156.475;    0.000
387.459; 1689.850;  141.475;    0.000
387.517; 1684.850;  219.475;    0.000
387.576; 1687.850;  166.475;    0.000
387.635; 1697.850;  136.475;    0.000
387.693; 1744.850;  191.475;    0.000
387.752; 1669.850;  165.475;    0.000
387.811; 1677.850;  158.475;    0.000
387.869; 1760.850;  204.475;    0.000
387.928; 1713.850;  149.475;    0.000
387.986; 1705.850;  156.475;    0.000
388.045; 1595.850;  123.475;    0.000
388.103; 1735.850;  150.475;    0.000
388.162; 1707.850;  173.475;    0.000
388.221; 1619.850;  143.475;    0.000
388.279; 1667.850;  129.475;    0.000
388.338; 1628.850;  212.475;    0.000
388.396; 1676.850;  150.475;    0.000
388.455; 1722.850;  167.475;    0.000
388.513; 1622.850;  116.475;    0.000
388.572; 1682.850;  181.475;    0.000
388.630; 1689.850;  187.475;    0.000
388.689; 1693.850;  180.475;    0.000
388.747; 1608.850;  154.475;    0.000
388.806; 1612.850;  161.475;    0.000
388.864; 1752.850;  167.475;    0.000
388.922; 1709.850;  184.475;    0.000
388.981; 1657.850;  169.475;    0.000
389.039; 1723.850;  102.475;    0.000
389.098; 1753.850;  183.475;    0.000
389.156; 1645.850;  182.475;    0.000
389.214; 1721.850;  173.475;    0.000
389.273; 1693.850;  167.475;    0.000
389.331; 1678.850;  170.475;    0.000
389.390; 1667.850;  150.475;    0.000
389.448; 1667.850;  156.475;    0.000
389.506; 1717.850;  149.475;    0.000
389.565; 1721.850;  162.475;    0.000
389.623; 1738.850;  188.475;    0.000
389.681; 1750.850;  204.475;    0.000
389.740; 1680.850;  187.475;    0.000
389.798; 1735.850;  153.475;    0.000
389.856; 1675.850;  214.475;    0.000
389.914; 1670.850;  177.475;    0.000
389.973; 1682.850;  189.475;    0.000
390.031; 1679.850;  178.475;    0.000
390.089; 1696.850;  163.475;    0.000
390.147; 1648.850;  170.475;    0.000
390.206; 1688.850;  183.475;    0.000
390.264; 1748.850;  161.475;    0.000
390.322; 1650.850;  148.475;    0.000
390.380; 1673.850;  138.475;    0.000
390.439; 1653.850;  194.475;    0.000
390.497; 1751.850;  170.475;    0.000
390.555; 1693.850;  165.475;    0.000
390.613; 1694.850;  177.475;    0.000
390.671; 1723.850;  170.475;    0.000
390.729; 1719.850;  158.475;    0.000
390.788; 1714.850;  162.475;    0.000
390.846; 1643.850;  161.475;    0.000
390.904; 1712.850;  197.475;    0.000
390.962; 1690.850;  212.475;    0.000
391.020; 1728.850;  224.475;    0.000
391.078; 1740.850;  184.475;    0.000
391.136; 1780.850;  191.475;    0.000
391.194; 1743.850;  187.475;    0.000
391.253; 1756.850;  197.475;    0.000
391.311; 1765.850;  185.475;    0.000
391.369; 1735.850;  207.475;    0.000
391.427; 1803.850;  222.475;    0.000
391.485; 1782.850;  184.475;    0.000
391.543; 1709.850;  203.475;    0.000
391.601; 1695.850;  151.475;    0.000
391.659; 1756.850;  176.475;    0.000
391.717; 1832.850;  190.475;    0.000
391.775; 1776.850;  159.475;    0.000
391.833; 1705.850;  186.475;    0.000
391.891; 1722.850;  154.475;    0.000
391.949; 1701.850;  181.475;    0.000
392.007; 1803.850;  190.475;    0.000
392.065; 1713.850;  182.475;    0.000
392.123; 1749.850;  158.475;    0.000
392.180; 1806.850;  198.475;    0.000
392.238; 1721.850;  191.475;    0.000
392.296; 1830.850;  164.475;    0.000
392.354; 1701.850;  172.475;    0.000
392.412; 1783.850;  194.475;    0.000
392.470; 1770.850;  154.475;    0.000
392.528; 1757.850;  172.475;    0.000
392.586; 1768.850;  179.475;    0.000
392.644; 1741.850;  173.475;    0.000
392.701; 1802.850;  202.475;    0.000
392.759; 1870.850;  180.475;    0.000
392.817; 1775.850;  181.475;    0.000
392.875; 1869.850;  168.475;    0.000
392.933; 1775.850;  161.475;    0.000
392.991; 1804.850;  216.475;    0.000
393.048; 1814.850;  197.475;    0.000
393.106; 1768.850;  199.475;    0.000
393.164; 1851.850;  173.475;    0.000
393.222; 1824.850;  179.475;    0.000
393.279; 1875.850;  209.475;    0.000
393.337; 2010.850;  185.475;    0.000
393.395; 1937.850;  174.475;    0.000
393.453; 1832.850;  181.475;    0.000
393.510; 1853.850;  188.475;    0.000
393.568; 1878.850;  191.475;    0.000
393.626; 1774.850;  151.475;    0.000
393.684; 1787.850;  208.475;    0.000
393.741; 1841.850;  179.475;    0.000
393.799; 1801.850;  149.475;    0.000
393.857; 1822.850;  136.475;    0.000
393.914; 1810.850;  190.475;    0.000
393.972; 1806.850;  155.475;    0.000
394.030; 1835.850;  170.475;    0.000
394.087; 1787.850;  213.475;    0.000
394.145; 1822.850;  191.475;    0.000
394.202; 1772.850;  188.475;    0.000
394.260; 1806.850;  168.475;    0.000
394.318; 1826.850;  176.475;    0.000
394.375; 1762.850;  159.475;    0.000
394.433; 1778.850;  168.475;    0.000
394.490; 1755.850;  163.475;    0.000
394.548; 1814.850;  163.475;    0.000
394.605; 1888.850;  181.475;    0.000
394.663; 1916.850;  180.475;    0.000
394.720; 1862.850;  193.475;    0.000
394.778; 1806.850;  168.475;    0.000
394.836; 1870.850;  128.475;    0.000
394.893; 1823.850;  151.475;    0.000
394.951; 1831.850;  173.475;    0.000
395.008; 1830.850;  201.475;    0.000
395.065; 1914.850;  139.475;    0.000
395.123; 1880.850;  173.475;    0.000
395.180; 1914.850;  144.475;    0.000
395.238; 1922.850;  135.475;    0.000
395.295; 1904.850;  167.475;    0.000
395.353; 1880.850;  150.475;    0.000
395.410; 1893.850;  165.475;    0.000
395.468; 1950.850;  223.475;    0.000
395.525; 1944.850;  156.475;    0.000
395.582; 1973.850;  178.475;    0.000
395.640; 1959.850;  178.475;    0.000
395.697; 1933.850;  173.475;    0.000
395.754; 1860.850;  154.475;    0.000
395.812; 1961.850;  169.475;    0.000
395.869; 1987.850;  196.475;    0.000
395.927; 1994.850;  190.475;    0.000
395.984; 1937.850;  195.475;    0.000
396.041; 1939.850;  160.475;    0.000
396.098; 1971.850;  161.475;    0.000
396.156; 1948.850;  187.475;    0.000
396.213; 1984.850;  200.475;    0.000
396.270; 1961.850;  160.475;    0.000
396.328; 1968.850;  113.475;    0.000
396.385; 1930.850;  165.475;    0.000
396.442; 1909.850;  168.475;    0.000
396.499; 1933.850;  117.475;    0.000
396.557; 1957.850;  203.475;    0.000
396.614; 1967.850;  155.475;    0.000
396.671; 1970.850;  187.475;    0.000
396.728; 2019.850;  169.475;    0.000
396.785; 1913.850;  167.475;    0.000
396.843; 2049.850;  154.475;    0.000
396.900; 2032.850;  172.475;    0.000
396.957; 2024.850;  176.475;    0.000
397.014; 2020.850;  193.475;    0.000
397.071; 1979.850;  170.475;    0.000
397.128; 1959.850;  172.475;    0.000
397.186; 2043.850;  205.475;    0.000
397.243; 2057.850;  163.475;    0.000
397.300; 2033.850;  193.475;    0.000
397.357; 1980.850;  166.475;    0.000
397.414; 2132.850;  149.475;    0.000
397.471; 2030.850;  157.475;    0.000
397.528; 2059.850;  180.475;    0.000
397.585; 2065.850;  203.475;    0.000
397.642; 2011.850;  156.475;    0.000
397.699; 2041.850;  229.475;    0.000
397.756; 2008.850;  185.475;    0.000
397.814; 2046.850;  191.475;    0.000
397.871; 2035.850;  170.475;    0.000
397.928; 2074.850;  191.475;    0.000
397.985; 2059.850;  183.475;    0.000
398.042; 2027.850;  161.475;    0.000
398.099; 2078.850;  192.475;    0.000
398.156; 2046.850;  176.475;    0.000
398.212; 2128.850;  170.475;    0.000
398.269; 2160.850;  158.475;    0.000
398.326; 2150.850;  175.475;    0.000
398.383; 2054.850;  177.475;    0.000
398.440; 2134.850;  169.475;    0.000
398.497; 2155.850;  184.475;    0.000
398.554; 2075.850;  196.475;    0.000
398.611; 2130.850;  198.475;    0.000
398.668; 2132.850;  135.475;    0.000
398.725; 2142.850;  181.475;    0.000
398.782; 2130.850;  195.475;    0.000
398.839; 2180.850;  179.475;    0.000
398.895; 2132.850;  188.475;    0.000
398.952; 2147.850;  176.475;    0.000
399.009; 2208.850;  183.475;    0.000
399.066; 2184.850;  190.475;    0.000
399.123; 2219.850;  174.475;    0.000
399.180; 2279.850;  191.475;    0.000
399.236; 2236.850;  217.475;    0.000
399.293; 2293.850;  154.475;    0.000
399.350; 2369.850;  210.475;    0.000
399.407; 2380.850;  202.475;    0.000
399.463; 2330.850;  162.475;    0.000
399.520; 2359.850;  207.475;    0.000
399.577; 2473.850;  174.475;    0.000
399.634; 2379.850;  170.475;    0.000
399.690; 2355.850;  186.475;    0.000
399.747; 2452.850;  218.475;    0.000
399.804; 2380.850;  200.475;    0.000
399.861; 2429.850;  190.475;    0.000
399.917; 2438.850;  218.475;    0.000
399.974; 2324.850;  200.475;    0.000
400.031; 2373.850;  200.475;    0.000
400.087; 2369.850;  153.475;    0.000
400.144; 2407.850;  188.475;    0.000
400.201; 2340.850;  198.475;    0.000
400.257; 2337.850;  205.475;    0.000
400.314; 2345.850;  183.475;    0.000
400.370; 2293.850;  227.475;    0.000
400.427; 2242.850;  177.475;    0.000
400.484; 2381.850;  202.475;    0.000
400.540; 2231.850;  173.475;    0.000
400.597; 2263.850;  212.475;    0.000
400.653; 2249.850;  182.475;    0.000
400.710; 2318.850;  201.475;    0.000
400.766; 2255.850;  188.475;    0.000
400.823; 2208.850;  205.475;    0.000
400.879; 2268.850;  165.475;    0.000
400.936; 2301.850;  180.475;    0.000
400.993; 2244.850;  181.475;    0.000
401.049; 2286.850;  147.475;    0.000
401.105; 2315.850;  205.475;    0.000
401.162; 2275.850;  197.475;    0.000
401.218; 2249.850;  177.475;    0.000
401.275; 2229.850;  183.475;    0.000
401.331; 2286.850;  198.475;    0.000
401.388; 2314.850;  209.475;    0.000
401.444; 2304.850;  211.475;    0.000
401.501; 2249.850;  185.475;    0.000
401.557; 2215.850;  190.475;    0.000
401.614; 2244.850;  172.475;    0.000
401.670; 2310.850;  185.475;    0.000
401.726; 2245.850;  196.475;    0.000
401.783; 2255.850;  187.475;    0.000
401.839; 2288.850;  192.475;    0.000
401.895; 2241.850;  173.475;    0.000
401.952; 2228.850;  145.475;    0.000
402.008; 2269.850;  197.475;    0.000
402.064; 2212.850;  146.475;    0.000
402.121; 2247.850;  197.475;    0.000
402.177; 2307.850;  173.475;    0.000
402.233; 2401.850;  185.475;    0.000
402.290; 2307.850;  175.475;    0.000
402.346; 2207.850;  164.475;    0.000
402.402; 2250.850;  173.475;    0.000
402.458; 2322.850;  183.475;    0.000
402.515; 2291.850;  147.475;    0.000
402.571; 2272.850;  210.475;    0.000
402.627; 2194.850;  181.475;    0.000
402.683; 2308.850;  177.475;    0.000
402.740; 2270.850;  162.475;    0.000
402.796; 2268.850;  178.475;    0.000
402.852; 2329.850;  138.475;    0.000
402.908; 2334.850;  181.475;    0.000
402.964; 2331.850;  151.475;    0.000
403.021; 2266.850;  170.475;    0.000
403.077; 2271.850;  204.475;    0.000
403.133; 2361.850;  144.475;    0.000
403.189; 2354.850;  207.475;    0.000
403.245; 2396.850;  184.475;    0.000
403.301; 2364.850;  170.475;    0.000
403.357; 2418.850;  201.475;    0.000
403.414; 2391.850;  205.475;    0.000
403.470; 2384.850;  170.475;    0.000
403.526; 2377.850;  135.475;    0.000
403.582; 2413.850;  180.475;    0.000
403.638; 2422.850;  185.475;    0.000
403.694; 2336.850;  169.475;    0.000
403.750; 2377.850;  210.475;    0.000
403.806; 2411.850;  210.475;    0.000
403.862; 2409.850;  219.475;    0.000
403.918; 2466.850;  191.475;    0.000
403.974; 2407.850;  193.475;    0.000
404.030; 2355.850;  154.475;    0.000
404.086; 2328.850;  170.475;    0.000
404.142; 2445.850;  194.475;    0.000
404.198; 2398.850;  224.475;    0.000
404.254; 2406.850;  177.475;    0.000
404.310; 2384.850;  204.475;    0.000
404.366; 2403.850;  170.475;    0.000
404.422; 2453.850;  172.475;    0.000
404.478; 2362.850;  153.475;    0.000
404.534; 2388.850;  159.475;    0.000
404.590; 2437.850;  203.475;    0.000
404.646; 2422.850;  164.475;    0.000
404.701; 2325.850;  141.475;    0.000
404.757; 2426.850;  195.475;    0.000
404.813; 2315.850;  152.475;    0.000
404.869; 2423.850;  174.475;    0.000
404.925; 2372.850;  167.475;    0.000
404.981; 2425.850;  175.475;    0.000
405.037; 2464.850;  170.475;    0.000
405.092; 2448.850;  155.475;    0.000
405.148; 2378.850;  160.475;    0.000
405.204; 2393.850;  158.475;    0.000
405.260; 2427.850;  128.475;    0.000
405.316; 2431.850;  168.475;    0.000
405.371; 2363.850;  162.475;    0.000
405.427; 2476.850;  187.475;    0.000
405.483; 2463.850;  214.475;    0.000
405.539; 2480.850;  163.475;    0.000
405.594; 2500.850;  191.475;    0.000
405.650; 2430.850;  124.475;    0.000
405.706; 2499.850;  188.475;    0.000
405.761; 2502.850;  204.475;    0.000
405.817; 2457.850;  150.475;    0.000
405.873; 2541.850;  152.475;    0.000
405.928; 2432.850;  135.475;    0.000
405.984; 2462.850;  209.475;    0.000
406.040; 2432.850;  165.475;    0.000
406.095; 2499.850;  146.475;    0.000
406.151; 2579.850;  169.475;    0.000
406.207; 2495.850;  174.475;    0.000
406.262; 2474.850;  189.475;    0.000
406.318; 2457.850;  141.475;    0.000
406.374; 2554.850;  178.475;    0.000
406.429; 2584.850;  197.475;    0.000
406.485; 2594.850;  194.475;    0.000
406.540; 2608.850;  149.475;    0.000
406.596; 2523.850;  173.475;    0.000
406.651; 2626.850;  154.475;    0.000
406.707; 2601.850;  183.475;    0.000
406.763; 2610.850;  156.475;    0.000
406.818; 2517.850;  181.475;    0.000
406.874; 2552.850;  135.475;    0.000
406.929; 2642.850;  194.475;    0.000
406.985; 2711.850;  166.475;    0.000
407.040; 2650.850;  207.475;    0.000
407.095; 2755.850;  213.475;    0.000
407.151; 2671.850;  198.475;    0.000
407.206; 2698.850;  186.475;    0.000
407.262; 2692.850;  148.475;    0.000
407.317; 2790.850;  212.475;    0.000
407.373; 2736.850;  209.475;    0.000
407.428; 2806.850;  218.475;    0.000
407.484; 2788.850;  158.475;    0.000
407.539; 2743.850;  165.475;    0.000
407.594; 2732.850;  197.475;    0.000
407.650; 2783.850;  177.475;    0.000
407.705; 2774.850;  154.475;    0.000
407.760; 2747.850;  198.475;    0.000
407.816; 2770.850;  181.475;    0.000
407.871; 2781.850;  185.475;    0.000
407.926; 2892.850;  167.475;    0.000
407.982; 2820.850;  172.475;    0.000
408.037; 2738.850;  202.475;    0.000
408.092; 2700.850;  201.475;    0.000
408.148; 2813.850;  199.475;    0.000
408.203; 2839.850;  174.475;    0.000
408.258; 2663.850;  157.475;    0.000
408.314; 2760.850;  194.475;    0.000
408.369; 2757.850;  189.475;    0.000
408.424; 2705.850;  204.475;    0.000
408.479; 2686.850;  192.475;    0.000
408.534; 2760.850;  215.475;    0.000
408.590; 2715.850;  190.475;    0.000
408.645; 2631.850;  159.475;    0.000
408.700; 2723.850;  191.475;    0.000
408.755; 2726.850;  217.475;    0.000
408.810; 2703.850;  158.475;    0.000
408.866; 2674.850;  166.475;    0.000
408.921; 2728.850;  214.475;    0.000
408.976; 2762.850;  158.475;    0.000
409.031; 2676.850;  185.475;    0.000
409.086; 2674.850;  158.475;    0.000
409.141; 2714.850;  180.475;    0.000
409.196; 2743.850;  188.475;    0.000
409.252; 2710.850;  186.475;    0.000
409.307; 2637.850;  135.475;    0.000
409.362; 2680.850;  162.475;    0.000
409.417; 2692.850;  149.475;    0.000
409.472; 2774.850;  205.475;    0.000
409.527; 2720.850;  184.475;    0.000
409.582; 2727.850;  174.475;    0.000
409.637; 2655.850;  188.475;    0.000
409.692; 2719.850;  211.475;    0.000
409.747; 2680.850;  159.475;    0.000
409.802; 2715.850;  199.475;    0.000
409.857; 2652.850;  118.475;    0.000
409.912; 2694.850;  177.475;    0.000
409.967; 2732.850;  182.475;    0.000
410.022; 2697.850;  188.475;    0.000
410.077; 2744.850;  204.475;    0.000
410.132; 2755.850;  174.475;    0.000
410.187; 2644.850;  169.475;    0.000
410.242; 2747.850;  178.475;    0.000
410.297; 2711.850;  185.475;    0.000
410.351; 2629.850;  203.475;    0.000
410.406; 2674.850;  180.475;    0.000
410.461; 2705.850;  213.475;    0.000
410.516; 2706.850;  198.475;    0.000
410.571; 2750.850;  171.475;    0.000
410.626; 2703.850;  186.475;    0.000
410.681; 2674.850;  187.475;    0.000
410.736; 2649.850;  147.475;    0.000
410.790; 2722.850;  186.475;    0.000
410.845; 2668.850;  152.475;    0.000
410.900; 2722.850;  202.475;    0.000
410.955; 2734.850;  196.475;    0.000
411.010; 2781.850;  150.475;    0.000
411.064; 2746.850;  200.475;    0.000
411.119; 2655.850;  203.475;    0.000
411.174; 2762.850;  176.475;    0.000
411.229; 2720.850;  203.475;    0.000
411.283; 2679.850;  176.475;    0.000
411.338; 2618.850;  153.475;    0.000
411.393; 2684.850;  168.475;    0.000
411.447; 2626.850;  223.475;    0.000
411.502; 2665.850;  238.475;    0.000
411.557; 2716.850;  179.475;    0.000
411.612; 2748.850;  159.475;    0.000
411.666; 2667.850;  189.475;    0.000
411.721; 2726.850;  212.475;    0.000
411.776; 2797.850;  242.475;    0.000
411.830; 2699.850;  194.475;    0.000
411.885; 2773.850;  188.475;    0.000
411.939; 2674.850;  245.475;    0.000
411.994; 2748.850;  177.475;    0.000
412.049; 2711.850;  170.475;    0.000
412.103; 2718.850;  196.475;    0.000
412.158; 2713.850;  215.475;    0.000
412.212; 2808.850;  199.475;    0.000
412.267; 2753.850;  191.475;    0.000
412.322; 2772.850;  238.475;    0.000
412.376; 2762.850;  243.475;    0.000
412.431; 2779.850;  214.475;    0.000
412.485; 2713.850;  210.475;    0.000
412.540; 2697.850;  200.475;    0.000
412.594; 2685.850;  174.475;    0.000
412.649; 2840.850;  246.475;    0.000
412.703; 2698.850;  182.475;    0.000
412.758; 2773.850;  222.475;    0.000
412.812; 2647.850;  201.475;    0.000
412.866; 2643.850;  162.475;    0.000
412.921; 2691.850;  202.475;    0.000
412.975; 2680.850;  212.475;    0.000
413.030; 2765.850;  238.475;    0.000
413.084; 2614.850;  201.475;    0.000
413.139; 2718.850;  210.475;    0.000
413.193; 2762.850;  218.475;    0.000
413.247; 2627.850;  203.475;    0.000
413.302; 2629.850;  176.475;    0.000
413.356; 2660.850;  215.475;    0.000
413.410; 2654.850;  204.475;    0.000
413.465; 2650.850;  186.475;    0.000
413.519; 2668.850;  196.475;    0.000
413.573; 2651.850;  181.475;    0.000
413.628; 2675.850;  200.475;    0.000
413.682; 2632.850;  157.475;    0.000
413.736; 2682.850;  194.475;    0.000
413.791; 2663.850;  193.475;    0.000
413.845; 2636.850;  225.475;    0.000
413.899; 2558.850;  195.475;    0.000
413.953; 2661.850;  173.475;    0.000
414.008; 2634.850;  186.475;    0.000
414.062; 2672.850;  217.475;    0.000
414.116; 2643.850;  169.475;    0.000
414.170; 2682.850;  228.475;    0.000
414.225; 2623.850;  177.475;    0.000
414.279; 2696.850;  210.475;    0.000
414.333; 2639.850;  207.475;    0.000
414.387; 2674.850;  217.475;    0.000
414.441; 2728.850;  187.475;    0.000
414.496; 2742.850;  215.475;    0.000
414.550; 2695.850;  204.475;    0.000
414.604; 2768.850;  206.475;    0.000
414.658; 2670.850;  139.475;    0.000
414.712; 2669.850;  198.475;    0.000
414.766; 2644.850;  208.475;    0.000
414.820; 2628.850;  199.475;    0.000
414.874; 2777.850;  216.475;    0.000
414.928; 2704.850;  186.475;    0.000
414.982; 2669.850;  176.475;    0.000
415.037; 2653.850;  181.475;    0.000
415.091; 2741.850;  208.475;    0.000
415.145; 2723.850;  209.475;    0.000
415.199; 2747.850;  186.475;    0.000
415.253; 2703.850;  203.475;    0.000
415.307; 2647.850;  197.475;    0.000
415.361; 2661.850;  223.475;    0.000
415.415; 2710.850;  213.475;    0.000
415.469; 2726.850;  226.475;    0.000
415.523; 2668.850;  222.475;    0.000
415.577; 2684.850;  205.475;    0.000
415.631; 2757.850;  224.475;    0.000
415.684; 2684.850;  193.475;    0.000
415.738; 2620.850;  224.475;    0.000
415.792; 2709.850;  204.475;    0.000
415.846; 2649.850;  189.475;    0.000
415.900; 2603.850;  223.475;    0.000
415.954; 2753.850;  187.475;    0.000
416.008; 2687.850;  237.475;    0.000
416.062; 2593.850;  195.475;    0.000
416.116; 2665.850;  223.475;    0.000
416.169; 2636.850;  210.475;    0.000
416.223; 2785.850;  232.475;    0.000
416.277; 2668.850;  227.475;    0.000
416.331; 2583.850;  216.475;    0.000
416.385; 2607.850;  186.475;    0.000
416.439; 2679.850;  226.475;    0.000
416.492; 2697.850;  229.475;    0.000
416.546; 2655.850;  216.475;    0.000
416.600; 2556.850;  211.475;    0.000
416.654; 2644.850;  226.475;    0.000
416.707; 2608.850;  248.475;    0.000
416.761; 2575.850;  217.475;    0.000
416.815; 2614.850;  207.475;    0.000
416.869; 2653.850;  226.475;    0.000
416.922; 2637.850;  192.475;    0.000
416.976; 2621.850;  205.475;    0.000
417.030; 2612.850;  233.475;    0.000
417.083; 2646.850;  226.475;    0.000
417.137; 2645.850;  222.475;    0.000
417.191; 2595.850;  217.475;    0.000
417.244; 2639.850;  221.475;    0.000
417.298; 2609.850;  201.475;    0.000
417.352; 2706.850;  170.475;    0.000
417.405; 2601.850;  234.475;    0.000
417.459; 2808.850;  241.475;    0.000
417.512; 2706.850;  247.475;    0.000
417.566; 2707.850;  219.475;    0.000
417.620; 2762.850;  228.475;    0.000
417.673; 2627.850;  192.475;    0.000
417.727; 2685.850;  203.475;    0.000
417.780; 2698.850;  204.475;    0.000
417.834; 2640.850;  234.475;    0.000
417.887; 2690.850;  245.475;    0.000
417.941; 2646.850;  211.475;    0.000
417.994; 2659.850;  244.475;    0.000
418.048; 2680.850;  203.475;    0.000
418.101; 2615.850;  212.475;    0.000
418.155; 2622.850;  251.475;    0.000
418.208; 2696.850;  286.475;    0.000
418.262; 2714.850;  243.475;    0.000
418.315; 2681.850;  214.475;    0.000
418.369; 2622.850;  269.475;    0.000
418.422; 2668.850;  222.475;    0.000
418.476; 2641.850;  226.475;    0.000
418.529; 2600.850;  238.475;    0.000
418.582; 2595.850;  210.475;    0.000
418.636; 2588.850;  221.475;    0.000
418.689; 2681.850;  224.475;    0.000
418.743; 2719.850;  228.475;    0.000
418.796; 2671.850;  192.475;    0.000
418.849; 2664.850;  230.475;    0.000
418.903; 2691.850;  257.475;    0.000
418.956; 2721.850;  241.475;    0.000
419.009; 2702.850;  247.475;    0.000
419.063; 2610.850;  235.475;    0.000
419.116; 2641.850;  218.475;    0.000
419.169; 2654.850;  219.475;    0.000
419.222; 2695.850;  215.475;    0.000
419.276; 2708.850;  202.475;    0.000
419.329; 2612.850;  210.475;    0.000
419.382; 2629.850;  188.475;    0.000
419.435; 2684.850;  222.475;    0.000
419.489; 2694.850;  232.475;    0.000
419.542; 2607.850;  250.475;    0.000
419.595; 2663.850;  240.475;    0.000
419.648; 2625.850;  261.475;    0.000
419.701; 2679.850;  222.475;    0.000
419.755; 2654.850;  233.475;    0.000
419.808; 2636.850;  178.475;    0.000
419.861; 2588.850;  207.475;    0.000
419.914; 2669.850;  223.475;    0.000
419.967; 2606.850;  216.475;    0.000
420.020; 2600.850;  211.475;    0.000
420.073; 2633.850;  200.475;    0.000
420.127; 2607.850;  248.475;    0.000
420.180; 2591.850;  220.475;    0.000
420.233; 2496.850;  215.475;    0.000
420.286; 2593.850;  222.475;    0.000
420.339; 2609.850;  229.475;    0.000
420.392; 2624.850;  245.475;    0.000
420.445; 2568.850;  221.475;    0.000
420.498; 2555.850;  224.475;    0.000
420.551; 2527.850;  170.475;    0.000
420.604; 2537.850;  237.475;    0.000
420.657; 2495.850;  235.475;    0.000
420.710; 2535.850;  223.475;    0.000
420.763; 2546.850;  219.475;    0.000
420.816; 2546.850;  200.475;    0.000
420.869; 2597.850;  197.475;    0.000
420.922; 2484.850;  212.475;    0.000
420.975; 2556.850;  274.475;    0.000
421.028; 2510.850;  228.475;    0.000
421.081; 2506.850;  243.475;    0.000
421.134; 2551.850;  227.475;    0.000
421.187; 2457.850;  245.475;    0.000
421.239; 2569.850;  210.475;    0.000
421.292; 2520.850;  193.475;    0.000
421.345; 2454.850;  226.475;    0.000
421.398; 2488.850;  226.475;    0.000
421.451; 2579.850;  259.475;    0.000
421.504; 2511.850;  204.475;    0.000
421.557; 2517.850;  215.475;    0.000
421.609; 2468.850;  194.475;    0.000
421.662; 2523.850;  216.475;    0.000
421.715; 2454.850;  226.475;    0.000
421.768; 2592.850;  177.475;    0.000
421.821; 2493.850;  210.475;    0.000
421.873; 2529.850;  208.475;    0.000
421.926; 2454.850;  223.475;    0.000
421.979; 2544.850;  230.475;    0.000
422.032; 2535.850;  227.475;    0.000
422.084; 2567.850;  234.475;    0.000
422.137; 2487.850;  207.475;    0.000
422.190; 2506.850;  228.475;    0.000
422.243; 2511.850;  206.475;    0.000
422.295; 2542.850;  236.475;    0.000
422.348; 2454.850;  232.475;    0.000
422.401; 2546.850;  228.475;    0.000
422.453; 2574.850;  239.475;    0.000
422.506; 2494.850;  226.475;    0.000
422.559; 2512.850;  205.475;    0.000
422.611; 2458.850;  235.475;    0.000
422.664; 2592.850;  231.475;    0.000
422.716; 2544.850;  228.475;    0.000
422.769; 2474.850;  204.475;    0.000
422.822; 2497.850;  205.475;    0.000
422.874; 2486.850;  228.475;    0.000
422.927; 2501.850;  266.475;    0.000
422.979; 2403.850;  223.475;    0.000
423.032; 2434.850;  207.475;    0.000
423.084; 2471.850;  211.475;    0.000
423.137; 2488.850;  205.475;    0.000
423.189; 2463.850;  254.475;    0.000
423.242; 2488.850;  208.475;    0.000
423.294; 2470.850;  240.475;    0.000
423.347; 2432.850;  218.475;    0.000
423.399; 2477.850;  237.475;    0.000
423.452; 2440.850;  242.475;    0.000
423.504; 2421.850;  225.475;    0.000
423.557; 2448.850;  195.475;    0.000
423.609; 2433.850;  206.475;    0.000
423.662; 2549.850;  211.475;    0.000
423.714; 2503.850;  252.475;    0.000
423.766; 2429.850;  181.475;    0.000
423.819; 2435.850;  216.475;    0.000
423.871; 2421.850;  216.475;    0.000
423.923; 2401.850;  222.475;    0.000
423.976; 2412.850;  223.475;    0.000
424.028; 2419.850;  229.475;    0.000
424.081; 2442.850;  267.475;    0.000
424.133; 2415.850;  251.475;    0.000
424.185; 2469.850;  238.475;    0.000
424.238; 2467.850;  220.475;    0.000
424.290; 2506.850;  259.475;    0.000
424.342; 2484.850;  248.475;    0.000
424.394; 2366.850;  234.475;    0.000
424.447; 2371.850;  248.475;    0.000
424.499; 2402.850;  233.475;    0.000
424.551; 2480.850;  236.475;    0.000
424.603; 2375.850;  207.475;    0.000
424.656; 2392.850;  210.475;    0.000
424.708; 2428.850;  251.475;    0.000
424.760; 2492.850;  221.475;    0.000
424.812; 2493.850;  275.475;    0.000
424.864; 2378.850;  206.475;    0.000
424.917; 2429.850;  198.475;    0.000
424.969; 2395.850;  246.475;    0.000
425.021; 2419.850;  209.475;    0.000
425.073; 2465.850;  242.475;    0.000
425.125; 2434.850;  254.475;    0.000
425.177; 2447.850;  224.475;    0.000
425.229; 2450.850;  256.475;    0.000
425.282; 2354.850;  265.475;    0.000
425.334; 2407.850;  266.475;    0.000
425.386; 2432.850;  242.475;    0.000
425.438; 2364.850;  205.475;    0.000
425.490; 2340.850;  227.475;    0.000
425.542; 2396.850;  235.475;    0.000
425.594; 2368.850;  210.475;    0.000
425.646; 2367.850;  232.475;    0.000
425.698; 2423.850;  243.475;    0.000
425.750; 2357.850;  230.475;    0.000
425.802; 2319.850;  218.475;    0.000
425.854; 2385.850;  222.475;    0.000
425.906; 2418.850;  235.475;    0.000
425.958; 2376.850;  220.475;    0.000
426.010; 2363.850;  236.475;    0.000
426.062; 2328.850;  230.475;    0.000
426.114; 2371.850;  216.475;    0.000
426.166; 2368.850;  230.475;    0.000
426.218; 2349.850;  237.475;    0.000
426.270; 2332.850;  217.475;    0.000
426.321; 2353.850;  224.475;    0.000
426.373; 2406.850;  207.475;    0.000
426.425; 2357.850;  278.475;    0.000
426.477; 2401.850;  243.475;    0.000
426.529; 2279.850;  247.475;    0.000
426.581; 2387.850;  229.475;    0.000
426.633; 2306.850;  212.475;    0.000
426.684; 2301.850;  244.475;    0.000
426.736; 2281.850;  250.475;    0.000
426.788; 2370.850;  210.475;    0.000
426.840; 2310.850;  201.475;    0.000
426.892; 2276.850;  225.475;    0.000
426.943; 2285.850;  215.475;    0.000
426.995; 2311.850;  216.475;    0.000
427.047; 2278.850;  216.475;    0.000
427.099; 2358.850;  203.475;    0.000
427.150; 2319.850;  195.475;    0.000
427.202; 2355.850;  212.475;    0.000
427.254; 2222.850;  233.475;    0.000
427.306; 2250.850;  211.475;    0.000
427.357; 2336.850;  210.475;    0.000
427.409; 2314.850;  244.475;    0.000
427.461; 2216.850;  187.475;    0.000
427.512; 2290.850;  227.475;    0.000
427.564; 2360.850;  210.475;    0.000
427.616; 2329.850;  202.475;    0.000
427.667; 2276.850;  185.475;    0.000
427.719; 2295.850;  222.475;    0.000
427.770; 2318.850;  230.475;    0.000
427.822; 2267.850;  254.475;    0.000
427.874; 2315.850;  222.475;    0.000
427.925; 2237.850;  199.475;    0.000
427.977; 2262.850;  228.475;    0.000
428.028; 2280.850;  226.475;    0.000
428.080; 2294.850;  236.475;    0.000
428.131; 2252.850;  220.475;    0.000
428.183; 2151.850;  256.475;    0.000
428.234; 2278.850;  217.475;    0.000
428.286; 2233.850;  234.475;    0.000
428.337; 2208.850;  209.475;    0.000
428.389; 2245.850;  219.475;    0.000
428.440; 2256.850;  249.475;    0.000
428.492; 2334.850;  255.475;    0.000
428.543; 2237.850;  224.475;    0.000
428.595; 2211.850;  225.475;    0.000
428.646; 2263.850;  240.475;    0.000
428.697; 2231.850;  211.475;    0.000
428.749; 2240.850;  200.475;    0.000
428.800; 2215.850;  235.475;    0.000
428.852; 2274.850;  265.475;    0.000
428.903; 2198.850;  201.475;    0.000
428.954; 2282.850;  242.475;    0.000
429.006; 2149.850;  245.475;    0.000
429.057; 2174.850;  252.475;    0.000
429.108; 2188.850;  211.475;    0.000
429.160; 2198.850;  217.475;    0.000
429.211; 2202.850;  234.475;    0.000
429.262; 2167.850;  205.475;    0.000
429.314; 2294.850;  211.475;    0.000
429.365; 2205.850;  240.475;    0.000
429.416; 2208.850;  263.475;    0.000
429.467; 2242.850;  244.475;    0.000
429.519; 2202.850;  223.475;    0.000
429.570; 2156.850;  214.475;    0.000
429.621; 2211.850;  235.475;    0.000
429.672; 2225.850;  202.475;    0.000
429.724; 2178.850;  189.475;    0.000
429.775; 2116.850;  214.475;    0.000
429.826; 2263.850;  178.475;    0.000
429.877; 2242.850;  224.475;    0.000
429.928; 2181.850;  230.475;    0.000
429.980; 2184.850;  199.475;    0.000
430.031; 2167.850;  208.475;    0.000
430.082; 2160.850;  224.475;    0.000
430.133; 2154.850;  193.475;    0.000
430.184; 2193.850;  220.475;    0.000
430.235; 2195.850;  184.475;    0.000
430.286; 2146.850;  197.475;    0.000
430.337; 2145.850;  199.475;    0.000
430.388; 2186.850;  207.475;    0.000
430.439; 2185.850;  227.475;    0.000
430.490; 2170.850;  215.475;    0.000
430.542; 2178.850;  211.475;    0.000
430.593; 2185.850;  230.475;    0.000
430.644; 2170.850;  186.475;    0.000
430.695; 2209.850;  232.475;    0.000
430.746; 2228.850;  214.475;    0.000
430.797; 2238.850;  260.475;    0.000
430.848; 2215.850;  214.475;    0.000
430.898; 2146.850;  204.475;    0.000
430.949; 2103.850;  189.475;    0.000
431.000; 2233.850;  240.475;    0.000
431.051; 2180.850;  201.475;    0.000
431.102; 2114.850;  188.475;    0.000
431.153; 2160.850;  209.475;    0.000
431.204; 2168.850;  187.475;    0.000
431.255; 2091.850;  171.475;    0.000
431.306; 2179.850;  181.475;    0.000
431.357; 2130.850;  221.475;    0.000
431.408; 2177.850;  217.475;    0.000
431.458; 2125.850;  206.475;    0.000
431.509; 2108.850;  194.475;    0.000
431.560; 2202.850;  235.475;    0.000
431.611; 2130.850;  213.475;    0.000
431.662; 2305.850;  237.475;    0.000
431.713; 2257.850;  220.475;    0.000
431.763; 2165.850;  212.475;    0.000
431.814; 2150.850;  238.475;    0.000
431.865; 2212.850;  213.475;    0.000
431.916; 2101.850;  191.475;    0.000
431.966; 2171.850;  171.475;    0.000
432.017; 2219.850;  263.475;    0.000
432.068; 2164.850;  240.475;    0.000
432.118; 2179.850;  235.475;    0.000
432.169; 2195.850;  212.475;    0.000
432.220; 2160.850;  188.475;    0.000
432.271; 2172.850;  216.475;    0.000
432.321; 2121.850;  223.475;    0.000
432.372; 2104.850;  254.475;    0.000
432.423; 2166.850;  193.475;    0.000
432.473; 2203.850;  219.475;    0.000
432.524; 2195.850;  215.475;    0.000
432.574; 2087.850;  234.475;    0.000
432.625; 2123.850;  226.475;    0.000
432.676; 2098.850;  219.475;    0.000
432.726; 2154.850;  254.475;    0.000
432.777; 2120.850;  210.475;    0.000
432.827; 2138.850;  234.475;    0.000
432.878; 2162.850;  212.475;    0.000
432.928; 2206.850;  238.475;    0.000
432.979; 2120.850;  252.475;    0.000
433.029; 2129.850;  222.475;    0.000
433.080; 2072.850;  188.475;    0.000
433.130; 2086.850;  223.475;    0.000
433.181; 2140.850;  254.475;    0.000
433.231; 2085.850;  237.475;    0.000
433.282; 2229.850;  242.475;    0.000
433.332; 2141.850;  261.475;    0.000
433.383; 2162.850;  266.475;    0.000
433.433; 2235.850;  286.475;    0.000
433.484; 2145.850;  231.475;    0.000
433.534; 2051.850;  256.475;    0.000
433.585; 2243.850;  253.475;    0.000
433.635; 2134.850;  228.475;    0.000
433.685; 2128.850;  226.475;    0.000
433.736; 2197.850;  276.475;    0.000
433.786; 2188.850;  253.475;    0.000
433.836; 2236.850;  289.475;    0.000
433.887; 2206.850;  241.475;    0.000
433.937; 2213.850;  252.475;    0.000
433.987; 2189.850;  223.475;    0.000
434.038; 2171.850;  241.475;    0.000
434.088; 2175.850;  231.475;    0.000
434.138; 2230.850;  259.475;    0.000
434.189; 2147.850;  263.475;    0.000
434.239; 2123.850;  194.475;    0.000
434.289; 2140.850;  273.475;    0.000
434.339; 2172.850;  212.475;    0.000
434.389; 2170.850;  248.475;    0.000
434.440; 2192.850;  250.475;    0.000
434.490; 2214.850;  278.475;    0.000
434.540; 2155.850;  241.475;    0.000
434.590; 2241.850;  251.475;    0.000
434.640; 2180.850;  207.475;    0.000
434.691; 2281.850;  242.475;    0.000
434.741; 2218.850;  218.475;    0.000
434.791; 2222.850;  267.475;    0.000
434.841; 2231.850;  272.475;    0.000
434.891; 2291.850;  260.475;    0.000
434.941; 2221.850;  258.475;    0.000
434.991; 2290.850;  264.475;    0.000
435.042; 2176.850;  264.475;    0.000
435.092; 2260.850;  271.475;    0.000
435.142; 2232.850;  229.475;    0.000
435.192; 2235.850;  226.475;    0.000
435.242; 2178.850;  253.475;    0.000
435.292; 2161.850;  215.475;    0.000
435.342; 2177.850;  240.475;    0.000
435.392; 2199.850;  235.475;    0.000
435.442; 2054.850;  230.475;    0.000
435.492; 2152.850;  235.475;    0.000
435.542; 2193.850;  230.475;    0.000
435.592; 2155.850;  239.475;    0.000
435.642; 2168.850;  244.475;    0.000
435.692; 2056.850;  236.475;    0.000
435.742; 2163.850;  236.475;    0.000
435.792; 2031.850;  230.475;    0.000
435.842; 2106.850;  248.475;    0.000
435.891; 2075.850;  233.475;    0.000
435.941; 2155.850;  243.475;    0.000
435.991; 2100.850;  279.475;    0.000
436.041; 2034.850;  204.475;    0.000
436.091; 2104.850;  217.475;    0.000
436.141; 2046.850;  205.475;    0.000
436.191; 2072.850;  220.475;    0.000
436.241; 2095.850;  248.475;    0.000
436.290; 2014.850;  255.475;    0.000
436.340; 2075.850;  235.475;    0.000
436.390; 2072.850;  207.475;    0.000
436.440; 2039.850;  207.475;    0.000
436.490; 2012.850;  251.475;    0.000
436.539; 2106.850;  240.475;    0.000
436.589; 2016.850;  198.475;    0.000
436.639; 2059.850;  240.475;    0.000
436.689; 2092.850;  216.475;    0.000
436.738; 2105.850;  246.475;    0.000
436.788; 2072.850;  203.475;    0.000
436.838; 2105.850;  230.475;    0.000
436.887; 2062.850;  235.475;    0.000
436.937; 2039.850;  249.475;    0.000
436.987; 2021.850;  208.475;    0.000
437.036; 2057.850;  232.475;    0.000
437.086; 1991.850;  238.475;    0.000
437.136; 2116.850;  228.475;    0.000
437.185; 2026.850;  219.475;    0.000
437.235; 2075.850;  227.475;    0.000
437.285; 2007.850;  241.475;    0.000
437.334; 2090.850;  216.475;    0.000
437.384; 2105.850;  243.475;    0.000
437.433; 2022.850;  214.475;    0.000
437.483; 2086.850;  246.475;    0.000
437.532; 2016.850;  261.475;    0.000
437.582; 2042.850;  205.475;    0.000
437.631; 2051.850;  218.475;    0.000
437.681; 2070.850;  240.475;    0.000
437.730; 1990.850;  258.475;    0.000
437.780; 1915.850;  237.475;    0.000
437.829; 2120.850;  209.475;    0.000
437.879; 2066.850;  214.475;    0.000
437.928; 1976.850;  223.475;    0.000
437.978; 2006.850;  220.475;    0.000
438.027; 2070.850;  239.475;    0.000
438.077; 1945.850;  231.475;    0.000
438.126; 2082.850;  266.475;    0.000
438.176; 1993.850;  234.475;    0.000
438.225; 1996.850;  237.475;    0.000
438.274; 2026.850;  234.475;    0.000
438.324; 1993.850;  244.475;    0.000
438.373; 1994.850;  232.475;    0.000
438.422; 2009.850;  218.475;    0.000
438.472; 1991.850;  221.475;    0.000
438.521; 1980.850;  190.475;    0.000
438.570; 1941.850;  243.475;    0.000
438.620; 2004.850;  255.475;    0.000
438.669; 1997.850;  210.475;    0.000
438.718; 2036.850;  237.475;    0.000
438.768; 2087.850;  220.475;    0.000
438.817; 2021.850;  218.475;    0.000
438.866; 1997.850;  198.475;    0.000
438.915; 1999.850;  256.475;    0.000
438.965; 2009.850;  221.475;    0.000
439.014; 2022.850;  255.475;    0.000
439.063; 2091.850;  276.475;    0.000
439.112; 1985.850;  220.475;    0.000
439.162; 1992.850;  253.475;    0.000
439.211; 2109.850;  247.475;    0.000
439.260; 2066.850;  220.475;    0.000
439.309; 2012.850;  235.475;    0.000
439.358; 1917.850;  205.475;    0.000
439.407; 1981.850;  207.475;    0.000
439.456; 1983.850;  216.475;    0.000
439.506; 1990.850;  245.475;    0.000
439.555; 2059.850;  264.475;    0.000
439.604; 1983.850;  227.475;    0.000
439.653; 2085.850;  220.475;    0.000
439.702; 2050.850;  223.475;    0.000
439.751; 1972.850;  197.475;    0.000
439.800; 1984.850;  207.475;    0.000
439.849; 2026.850;  238.475;    0.000
439.898; 1977.850;  209.475;    0.000
439.947; 1972.850;  170.475;    0.000
439.996; 2029.850;  233.475;    0.000
440.045; 1981.850;  222.475;    0.000
440.094; 2102.850;  240.475;    0.000
440.143; 1997.850;  249.475;    0.000
440.192; 2069.850;  252.475;    0.000
440.241; 2055.850;  239.475;    0.000
440.290; 1987.850;  234.475;    0.000
440.339; 2054.850;  241.475;    0.000
440.388; 1973.850;  239.475;    0.000
440.437; 1985.850;  231.475;    0.000
440.486; 1918.850;  254.475;    0.000
440.535; 2058.850;  266.475;    0.000
440.583; 2006.850;  205.475;    0.000
440.632; 2027.850;  234.475;    0.000
440.681; 2077.850;  218.475;    0.000
440.730; 2138.850;  248.475;    0.000
440.779; 2052.850;  246.475;    0.000
440.828; 1998.850;  235.475;    0.000
440.876; 1996.850;  218.475;    0.000
440.925; 2037.850;  228.475;    0.000
440.974; 2012.850;  249.475;    0.000
441.023; 2049.850;  192.475;    0.000
441.072; 2054.850;  226.475;    0.000
441.120; 2113.850;  238.475;    0.000
441.169; 2135.850;  255.475;    0.000
441.218; 2033.850;  233.475;    0.000
441.267; 2117.850;  231.475;    0.000
441.315; 2056.850;  214.475;    0.000
441.364; 2131.850;  250.475;    0.000
441.413; 2006.850;  228.475;    0.000
441.461; 2055.850;  209.475;    0.000
441.510; 2187.850;  260.475;    0.000
441.559; 2097.850;  230.475;    0.000
441.607; 2066.850;  220.475;    0.000
441.656; 2110.850;  251.475;    0.000
441.705; 2092.850;  237.475;    0.000
441.753; 2126.850;  257.475;    0.000
441.802; 2077.850;  256.475;    0.000
441.850; 2078.850;  253.475;    0.000
441.899; 2210.850;  212.475;    0.000
441.948; 2075.850;  251.475;    0.000
441.996; 2100.850;  239.475;    0.000
442.045; 2059.850;  223.475;    0.000
442.093; 2104.850;  211.475;    0.000
442.142; 2086.850;  235.475;    0.000
442.190; 2084.850;  254.475;    0.000
442.239; 2079.850;  226.475;    0.000
442.287; 2074.850;  242.475;    0.000
442.336; 2109.850;  256.475;    0.000
442.384; 2146.850;  252.475;    0.000
442.433; 2091.850;  262.475;    0.000
442.481; 2122.850;  246.475;    0.000
442.529; 2182.850;  290.475;    0.000
442.578; 2077.850;  247.475;    0.000
442.626; 2098.850;  247.475;    0.000
442.675; 2136.850;  272.475;    0.000
442.723; 2104.850;  230.475;    0.000
442.771; 2104.850;  234.475;    0.000
442.820; 2141.850;  224.475;    0.000
442.868; 2006.850;  246.475;    0.000
442.917; 2123.850;  249.475;    0.000
442.965; 2061.850;  260.475;    0.000
443.013; 2151.850;  258.475;    0.000
443.062; 2087.850;  259.475;    0.000
443.110; 2200.850;  226.475;    0.000
443.158; 2094.850;  213.475;    0.000
443.206; 2131.850;  201.475;    0.000
443.255; 2198.850;  280.475;    0.000
443.303; 2190.850;  292.475;    0.000
443.351; 2125.850;  256.475;    0.000
443.399; 2144.850;  215.475;    0.000
443.448; 2140.850;  243.475;    0.000
443.496; 2068.850;  249.475;    0.000
443.544; 2074.850;  231.475;    0.000
443.592; 2133.850;  243.475;    0.000
443.640; 2183.850;  252.475;    0.000
443.689; 2177.850;  220.475;    0.000
443.737; 2175.850;  231.475;    0.000
443.785; 2132.850;  256.475;    0.000
443.833; 2163.850;  268.475;    0.000
443.881; 2212.850;  181.475;    0.000
443.929; 2259.850;  245.475;    0.000
443.977; 2154.850;  278.475;    0.000
444.025; 2181.850;  245.475;    0.000
444.074; 2196.850;  233.475;    0.000
444.122; 2189.850;  267.475;    0.000
444.170; 2156.850;  247.475;    0.000
444.218; 2228.850;  246.475;    0.000
444.266; 2201.850;  275.475;    0.000
444.314; 2291.850;  263.475;    0.000
444.362; 2201.850;  240.475;    0.000
444.410; 2239.850;  220.475;    0.000
444.458; 2231.850;  258.475;    0.000
444.506; 2211.850;  258.475;    0.000
444.554; 2132.850;  224.475;    0.000
444.602; 2195.850;  245.475;    0.000
444.650; 2292.850;  261.475;    0.000
444.698; 2274.850;  232.475;    0.000
444.746; 2258.850;  206.475;    0.000
444.793; 2251.850;  249.475;    0.000
444.841; 2334.850;  261.475;    0.000
444.889; 2295.850;  221.475;    0.000
444.937; 2266.850;  215.475;    0.000
444.985; 2306.850;  244.475;    0.000
445.033; 2292.850;  211.475;    0.000
445.081; 2184.850;  225.475;    0.000
445.129; 2198.850;  217.475;    0.000
445.176; 2190.850;  196.475;    0.000
445.224; 2168.850;  211.475;    0.000
445.272; 2241.850;  242.475;    0.000
445.320; 2281.850;  225.475;    0.000
445.368; 2230.850;  249.475;    0.000
445.415; 2216.850;  243.475;    0.000
445.463; 2263.850;  242.475;    0.000
445.511; 2213.850;  248.475;    0.000
445.559; 2171.850;  219.475;    0.000
445.606; 2242.850;  221.475;    0.000
445.654; 2217.850;  202.475;    0.000
445.702; 2210.850;  210.475;    0.000
445.749; 2283.850;  249.475;    0.000
445.797; 2332.850;  206.475;    0.000
445.845; 2178.850;  213.475;    0.000
445.892; 2261.850;  224.475;    0.000
445.940; 2220.850;  214.475;    0.000
445.988; 2272.850;  247.475;    0.000
446.035; 2289.850;  204.475;    0.000
446.083; 2314.850;  235.475;    0.000
446.130; 2275.850;  195.475;    0.000
446.178; 2333.850;  236.475;    0.000
446.226; 2295.850;  218.475;    0.000
446.273; 2377.850;  215.475;    0.000
446.321; 2270.850;  222.475;    0.000
446.368; 2378.850;  228.475;    0.000
446.416; 2247.850;  223.475;    0.000
446.463; 2332.850;  220.475;    0.000
446.511; 2315.850;  198.475;    0.000
446.558; 2330.850;  208.475;    0.000
446.606; 2378.850;  253.475;    0.000
446.653; 2352.850;  198.475;    0.000
446.701; 2381.850;  231.475;    0.000
446.748; 2376.850;  224.475;    0.000
446.796; 2344.850;  201.475;    0.000
446.843; 2448.850;  257.475;    0.000
446.891; 2381.850;  218.475;    0.000
446.938; 2475.850;  232.475;    0.000
446.985; 2377.850;  229.475;    0.000
447.033; 2411.850;  251.475;    0.000
447.080; 2429.850;  257.475;    0.000
447.128; 2439.850;  232.475;    0.000
447.175; 2554.850;  269.475;    0.000
447.222; 2473.850;  185.475;    0.000
447.270; 2588.850;  264.475;    0.000
447.317; 2607.850;  225.475;    0.000
447.364; 2490.850;  243.475;    0.000
447.411; 2528.850;  263.475;    0.000
447.459; 2551.850;  257.475;    0.000
447.506; 2603.850;  175.475;    0.000
447.553; 2624.850;  203.475;    0.000
447.601; 2704.850;  238.475;    0.000
447.648; 2707.850;  244.475;    0.000
447.695; 2670.850;  249.475;    0.000
447.742; 2726.850;  234.475;    0.000
447.789; 2811.850;  228.475;    0.000
447.837; 2885.850;  258.475;    0.000
447.884; 2820.850;  243.475;    0.000
447.931; 2856.850;  235.475;    0.000
447.978; 2902.850;  224.475;    0.000
448.025; 2964.850;  245.475;    0.000
448.072; 2891.850;  212.475;    0.000
448.120; 3035.850;  256.475;    0.000
448.167; 3027.850;  240.475;    0.000
448.214; 2884.850;  247.475;    0.000
448.261; 2865.850;  245.475;    0.000
448.308; 2846.850;  273.475;    0.000
448.355; 2852.850;  257.475;    0.000
448.402; 2722.850;  259.475;    0.000
448.449; 2657.850;  238.475;    0.000
448.496; 2669.850;  245.475;    0.000
448.543; 2624.850;  217.475;    0.000
448.590; 2613.850;  269.475;    0.000
448.637; 2722.850;  250.475;    0.000
448.684; 2689.850;  250.475;    0.000
448.731; 2571.850;  235.475;    0.000
448.778; 2611.850;  265.475;    0.000
448.825; 2385.850;  257.475;    0.000
448.872; 2514.850;  234.475;    0.000
448.919; 2483.850;  216.475;    0.000
448.966; 2426.850;  274.475;    0.000
449.013; 2454.850;  263.475;    0.000
449.060; 2393.850;  247.475;    0.000
449.107; 2390.850;  218.475;    0.000
449.154; 2408.850;  225.475;    0.000
449.200; 2322.850;  212.475;    0.000
449.247; 2366.850;  242.475;    0.000
449.294; 2335.850;  228.475;    0.000
449.341; 2352.850;  232.475;    0.000
449.388; 2381.850;  247.475;    0.000
449.435; 2350.850;  227.475;    0.000
449.481; 2226.850;  270.475;    0.000
449.528; 2264.850;  265.475;    0.000
449.575; 2199.850;  255.475;    0.000
449.622; 2313.850;  210.475;    0.000
449.668; 2174.850;  234.475;    0.000
449.715; 2260.850;  262.475;    0.000
449.762; 2167.850;  247.475;    0.000
449.809; 2268.850;  286.475;    0.000
449.855; 2197.850;  246.475;    0.000
449.902; 2100.850;  224.475;    0.000
449.949; 2241.850;  244.475;    0.000
449.995; 2214.850;  274.475;    0.000
450.042; 2173.850;  272.475;    0.000
450.089; 2183.850;  274.475;    0.000
450.135; 2285.850;  285.475;    0.000
450.182; 2191.850;  251.475;    0.000
450.229; 2114.850;  242.475;    0.000
450.275; 2193.850;  277.475;    0.000
450.322; 2194.850;  260.475;    0.000
450.368; 2135.850;  257.475;    0.000
450.415; 2154.850;  276.475;    0.000
450.462; 2164.850;  298.475;    0.000
450.508; 2111.850;  255.475;    0.000
450.555; 2168.850;  271.475;    0.000
450.601; 2136.850;  281.475;    0.000
450.648; 2126.850;  249.475;    0.000
450.694; 2155.850;  270.475;    0.000
450.741; 2054.850;  256.475;    0.000
450.787; 2151.850;  292.475;    0.000
450.834; 2079.850;  221.475;    0.000
450.880; 2064.850;  265.475;    0.000
450.927; 2066.850;  242.475;    0.000
450.973; 2132.850;  259.475;    0.000
451.019; 2158.850;  221.475;    0.000
451.066; 2052.850;  257.475;    0.000
451.112; 2067.850;  251.475;    0.000
451.159; 2022.850;  278.475;    0.000
451.205; 2115.850;  274.475;    0.000
451.251; 2132.850;  281.475;    0.000
451.298; 2117.850;  273.475;    0.000
451.344; 2096.850;  246.475;    0.000
451.390; 2048.850;  286.475;    0.000
451.437; 2058.850;  268.475;    0.000
451.483; 2039.850;  315.475;    0.000
451.529; 1953.850;  251.475;    0.000
451.576; 2047.850;  306.475;    0.000
451.622; 2017.850;  234.475;    0.000
451.668; 2048.850;  243.475;    0.000
451.714; 2062.850;  256.475;    0.000
451.761; 2055.850;  264.475;    0.000
451.807; 2028.850;  284.475;    0.000
451.853; 2009.850;  282.475;    0.000
451.899; 1999.850;  240.475;    0.000
451.945; 1996.850;  263.475;    0.000
451.992; 2014.850;  255.475;    0.000
452.038; 2011.850;  273.475;    0.000
452.084; 1959.850;  274.475;    0.000
452.130; 2042.850;  261.475;    0.000
452.176; 1865.850;  246.475;    0.000
452.222; 1990.850;  238.475;    0.000
452.268; 2006.850;  267.475;    0.000
452.315; 1918.850;  274.475;    0.000
452.361; 1958.850;  241.475;    0.000
452.407; 2073.850;  274.475;    0.000
452.453; 1986.850;  260.475;    0.000
452.499; 2002.850;  232.475;    0.000
452.545; 2000.850;  252.475;    0.000
452.591; 1964.850;  263.475;    0.000
452.637; 1955.850;  208.475;    0.000
452.683; 1936.850;  237.475;    0.000
452.729; 1976.850;  263.475;    0.000
452.775; 1979.850;  291.475;    0.000
452.821; 1965.850;  238.475;    0.000
452.867; 1886.850;  223.475;    0.000
452.913; 1921.850;  257.475;    0.000
452.959; 1937.850;  238.475;    0.000
453.005; 1966.850;  252.475;    0.000
453.051; 1969.850;  260.475;    0.000
453.097; 2046.850;  268.475;    0.000
453.142; 1889.850;  231.475;    0.000
453.188; 1959.850;  266.475;    0.000
453.234; 1936.850;  233.475;    0.000
453.280; 1929.850;  219.475;    0.000
453.326; 1966.850;  265.475;    0.000
453.372; 1921.850;  238.475;    0.000
453.418; 1898.850;  240.475;    0.000
453.463; 1937.850;  219.475;    0.000
453.509; 1913.850;  264.475;    0.000
453.555; 1984.850;  247.475;    0.000
453.601; 1831.850;  230.475;    0.000
453.647; 1980.850;  285.475;    0.000
453.692; 1897.850;  240.475;    0.000
453.738; 1909.850;  233.475;    0.000
453.784; 1897.850;  230.475;    0.000
453.829; 1936.850;  246.475;    0.000
453.875; 1895.850;  261.475;    0.000
453.921; 1891.850;  203.475;    0.000
453.967; 1873.850;  241.475;    0.000
454.012; 1941.850;  250.475;    0.000
454.058; 1889.850;  252.475;    0.000
454.104; 1886.850;  239.475;    0.000
454.149; 1846.850;  250.475;    0.000
454.195; 1815.850;  243.475;    0.000
454.240; 1959.850;  252.475;    0.000
454.286; 1937.850;  245.475;    0.000
454.332; 1936.850;  286.475;    0.000
454.377; 1888.850;  254.475;    0.000
454.423; 1946.850;  246.475;    0.000
454.468; 1954.850;  235.475;    0.000
454.514; 1957.850;  231.475;    0.000
454.559; 1931.850;  246.475;    0.000
454.605; 1859.850;  204.475;    0.000
454.650; 1864.850;  272.475;    0.000
454.696; 1932.850;  222.475;    0.000
454.741; 1967.850;  290.475;    0.000
454.787; 1872.850;  262.475;    0.000
454.832; 1876.850;  227.475;    0.000
454.878; 1899.850;  241.475;    0.000
454.923; 1939.850;  272.475;    0.000
454.969; 1964.850;  290.475;    0.000
455.014; 1915.850;  278.475;    0.000
455.060; 1855.850;  246.475;    0.000
455.105; 1882.850;  231.475;    0.000
455.150; 1922.850;  265.475;    0.000
455.196; 1843.850;  266.475;    0.000
455.241; 1956.850;  258.475;    0.000
455.286; 1778.850;  266.475;    0.000
455.332; 1946.850;  252.475;    0.000
455.377; 1878.850;  219.475;    0.000
455.422; 1958.850;  262.475;    0.000
455.468; 1819.850;  260.475;    0.000
455.513; 1856.850;  212.475;    0.000
455.558; 1856.850;  197.475;    0.000
455.604; 1876.850;  262.475;    0.000
455.649; 1800.850;  238.475;    0.000
455.694; 1890.850;  221.475;    0.000
455.739; 1865.850;  251.475;    0.000
455.785; 1941.850;  287.475;    0.000
455.830; 1913.850;  284.475;    0.000
455.875; 1901.850;  234.475;    0.000
455.920; 1838.850;  215.475;    0.000
455.965; 1937.850;  256.475;    0.000
456.010; 1933.850;  266.475;    0.000
456.056; 1853.850;  263.475;    0.000
456.101; 1759.850;  240.475;    0.000
456.146; 1856.850;  258.475;    0.000
456.191; 1897.850;  241.475;    0.000
456.236; 1919.850;  252.475;    0.000
456.281; 1825.850;  218.475;    0.000
456.326; 1924.850;  251.475;    0.000
456.371; 1863.850;  256.475;    0.000
456.416; 2005.850;  301.475;    0.000
456.461; 1884.850;  233.475;    0.000
456.507; 1855.850;  218.475;    0.000
456.552; 1859.850;  278.475;    0.000
456.597; 1850.850;  223.475;    0.000
456.642; 1917.850;  203.475;    0.000
456.687; 1959.850;  245.475;    0.000
456.732; 1932.850;  256.475;    0.000
456.776; 1888.850;  244.475;    0.000
456.821; 1834.850;  276.475;    0.000
456.866; 1853.850;  232.475;    0.000
456.911; 1942.850;  225.475;    0.000
456.956; 1885.850;  237.475;    0.000
457.001; 1901.850;  261.475;    0.000
457.046; 1870.850;  205.475;    0.000
457.091; 1871.850;  241.475;    0.000
457.136; 1856.850;  217.475;    0.000
457.181; 1845.850;  251.475;    0.000
457.225; 1969.850;  241.475;    0.000
457.270; 1920.850;  237.475;    0.000
457.315; 1908.850;  279.475;    0.000
457.360; 1889.850;  245.475;    0.000
457.405; 1889.850;  202.475;    0.000
457.450; 1849.850;  247.475;    0.000
457.494; 1901.850;  243.475;    0.000
457.539; 1879.850;  222.475;    0.000
457.584; 1847.850;  239.475;    0.000
457.629; 1831.850;  236.475;    0.000
457.673; 1917.850;  234.475;    0.000
457.718; 1895.850;  202.475;    0.000
457.763; 1848.850;  274.475;    0.000
457.807; 1912.850;  236.475;    0.000
457.852; 1936.850;  265.475;    0.000
457.897; 1887.850;  252.475;    0.000
457.941; 1906.850;  264.475;    0.000
457.986; 1929.850;  280.475;    0.000
458.031; 1925.850;  217.475;    0.000
458.075; 1919.850;  249.475;    0.000
458.120; 1956.850;  257.475;    0.000
458.165; 1918.850;  183.475;    0.000
458.209; 1967.850;  245.475;    0.000
458.254; 1937.850;  245.475;    0.000
458.298; 1936.850;  265.475;    0.000
458.343; 1893.850;  241.475;    0.000
458.387; 1944.850;  262.475;    0.000
458.432; 1988.850;  245.475;    0.000
458.476; 1977.850;  255.475;    0.000
458.521; 1971.850;  269.475;    0.000
458.565; 2015.850;  265.475;    0.000
458.610; 1999.850;  222.475;    0.000
458.654; 2019.850;  257.475;    0.000
458.699; 2017.850;  296.475;    0.000
458.743; 2050.850;  203.475;    0.000
458.788; 2064.850;  267.475;    0.000
458.832; 2014.850;  274.475;    0.000
458.877; 1938.850;  251.475;    0.000
458.921; 1979.850;  237.475;    0.000
458.965; 1988.850;  264.475;    0.000
459.010; 2039.850;  256.475;    0.000
459.054; 2092.850;  280.475;    0.000
459.099; 2024.850;  240.475;    0.000
459.143; 2042.850;  287.475;    0.000
459.187; 2037.850;  257.475;    0.000
459.231; 2056.850;  273.475;    0.000
459.276; 1991.850;  231.475;    0.000
459.320; 2167.850;  261.475;    0.000
459.364; 2096.850;  278.475;    0.000
459.409; 2073.850;  249.475;    0.000
459.453; 2089.850;  235.475;    0.000
459.497; 2106.850;  262.475;    0.000
459.541; 2174.850;  269.475;    0.000
459.586; 2015.850;  240.475;    0.000
459.630; 2025.850;  261.475;    0.000
459.674; 2067.850;  276.475;    0.000
459.718; 2068.850;  236.475;    0.000
459.762; 2098.850;  263.475;    0.000
459.807; 2146.850;  263.475;    0.000
459.851; 2093.850;  225.475;    0.000
459.895; 2042.850;  247.475;    0.000
459.939; 2171.850;  231.475;    0.000
459.983; 2096.850;  242.475;    0.000
460.027; 2086.850;  248.475;    0.000
460.071; 2089.850;  273.475;    0.000
460.115; 2120.850;  282.475;    0.000
460.159; 2104.850;  264.475;    0.000
460.204; 2101.850;  288.475;    0.000
460.248; 2188.850;  293.475;    0.000
460.292; 2163.850;  277.475;    0.000
460.336; 2093.850;  250.475;    0.000
460.380; 2211.850;  275.475;    0.000
460.424; 2207.850;  243.475;    0.000
460.468; 2079.850;  277.475;    0.000
460.512; 2182.850;  261.475;    0.000
460.556; 2143.850;  266.475;    0.000
460.599; 2210.850;  246.475;    0.000
460.643; 2136.850;  256.475;    0.000
460.687; 2162.850;  257.475;    0.000
460.731; 2186.850;  235.475;    0.000
460.775; 2100.850;  278.475;    0.000
460.819; 2160.850;  268.475;    0.000
460.863; 2173.850;  257.475;    0.000
460.907; 2104.850;  213.475;    0.000
460.951; 2232.850;  274.475;    0.000
460.995; 2201.850;  258.475;    0.000
461.038; 2143.850;  219.475;    0.000
461.082; 2185.850;  253.475;    0.000
461.126; 2183.850;  281.475;    0.000
461.170; 2185.850;  244.475;    0.000
461.214; 2165.850;  262.475;    0.000
461.257; 2174.850;  284.475;    0.000
461.301; 2165.850;  275.475;    0.000
461.345; 2178.850;  267.475;    0.000
461.389; 2129.850;  255.475;    0.000
461.432; 2139.850;  282.475;    0.000
461.476; 2128.850;  263.475;    0.000
461.520; 2141.850;  260.475;    0.000
461.563; 2156.850;  278.475;    0.000
461.607; 2195.850;  236.475;    0.000
461.651; 2192.850;  262.475;    0.000
461.694; 2137.850;  236.475;    0.000
461.738; 2185.850;  295.475;    0.000
461.782; 2171.850;  252.475;    0.000
461.825; 2186.850;  271.475;    0.000
461.869; 2209.850;  278.475;    0.000
461.913; 2261.850;  255.475;    0.000
461.956; 2225.850;  254.475;    0.000
462.000; 2270.850;  299.475;    0.000
462.043; 2212.850;  282.475;    0.000
462.087; 2239.850;  274.475;    0.000
462.130; 2291.850;  270.475;    0.000
462.174; 2253.850;  274.475;    0.000
462.217; 2320.850;  272.475;    0.000
462.261; 2297.850;  286.475;    0.000
462.304; 2166.850;  236.475;    0.000
462.348; 2238.850;  262.475;    0.000
462.391; 2187.850;  244.475;    0.000
462.435; 2227.850;  321.475;    0.000
462.478; 2261.850;  230.475;    0.000
462.522; 2286.850;  245.475;    0.000
462.565; 2254.850;  278.475;    0.000
462.608; 2360.850;  303.475;    0.000
462.652; 2304.850;  275.475;    0.000
462.695; 2275.850;  314.475;    0.000
462.739; 2306.850;  307.475;    0.000
462.782; 2318.850;  286.475;    0.000
462.825; 2341.850;  312.475;    0.000
462.869; 2375.850;  338.475;    0.000
462.912; 2350.850;  304.475;    0.000
462.955; 2354.850;  288.475;    0.000
462.998; 2448.850;  292.475;    0.000
463.042; 2331.850;  309.475;    0.000
463.085; 2400.850;  292.475;    0.000
463.128; 2344.850;  317.475;    0.000
463.172; 2278.850;  287.475;    0.000
463.215;  363.850;  313.475;    0.000
463.258;  298.850;  295.475;    0.000
463.301;  295.850;  275.475;    0.000
463.344;  299.850;  311.475;    0.000
463.388;  312.850;  296.475;    0.000
463.431;  278.850;  277.475;    0.000
463.474;  368.850;  364.475;    0.000
463.517;  296.850;  306.475;    0.000
463.560;  304.850;  308.475;    0.000
463.603;  323.850;  343.475;    0.000
463.646;  360.850;  309.475;    0.000
463.690;  315.850;  309.475;    0.000
463.733;  343.850;  320.475;    0.000
463.776;  315.850;  299.475;    0.000
463.819;  336.850;  320.475;    0.000
463.862;  273.850;  283.475;    0.000

