Pellet_position2_Burst5-n5
Integration time [ms]:   1.000
Averaging Nr. [scans]: 1
Smoothing Nr. [pixels]: 0
Data measured with spectrometer [name]: UV1
Wave   ;Sample   ;Dark     ;Reference
[nm]   ;[counts] ;[counts] ;[counts] 

236.381;  116.075;    0.000;    0.000
236.451;  185.075;    0.000;    0.000
236.520;  185.075;    0.000;    0.000
236.590;  203.075;    0.000;    0.000
236.660;  179.075;    0.000;    0.000
236.730;  200.075;    0.000;    0.000
236.799;  203.075;    0.000;    0.000
236.869;  183.075;    0.000;    0.000
236.939;  188.075;    0.000;    0.000
237.009;  198.075;    0.000;    0.000
237.078;  162.075;    0.000;    0.000
237.148;  180.075;    0.000;    0.000
237.218;  170.075;    0.000;    0.000
237.287;  176.075;    0.000;    0.000
237.357;  219.075;    0.000;    0.000
237.427;  179.075;    0.000;    0.000
237.496;  396.075;    0.000;    0.000
237.566;  389.075;    0.000;    0.000
237.636;  370.075;    0.000;    0.000
237.705;  438.075;    0.000;    0.000
237.775;  358.075;    0.000;    0.000
237.845;  408.075;    0.000;    0.000
237.914;  397.075;    0.000;    0.000
237.984;  375.075;    0.000;    0.000
238.054;  359.075;    0.000;    0.000
238.123;  423.075;    0.000;    0.000
238.193;  386.075;    0.000;    0.000
238.263;  381.075;    0.000;    0.000
238.332;  388.075;    0.000;    0.000
238.402;  424.075;    0.000;    0.000
238.471;  408.075;    0.000;    0.000
238.541;  357.075;    0.000;    0.000
238.611;  361.075;    0.000;    0.000
238.680;  380.075;    0.000;    0.000
238.750;  352.075;    0.000;    0.000
238.819;  378.075;    0.000;    0.000
238.889;  367.075;    0.000;    0.000
238.958;  385.075;    0.000;    0.000
239.028;  404.075;    0.000;    0.000
239.097;  390.075;    0.000;    0.000
239.167;  385.075;    0.000;    0.000
239.237;  382.075;    0.000;    0.000
239.306;  387.075;    0.000;    0.000
239.376;  410.075;    0.000;    0.000
239.445;  415.075;    0.000;    0.000
239.515;  437.075;    0.000;    0.000
239.584;  339.075;    0.000;    0.000
239.654;  414.075;    0.000;    0.000
239.723;  389.075;    0.000;    0.000
239.793;  406.075;    0.000;    0.000
239.862;  359.075;    0.000;    0.000
239.932;  362.075;    0.000;    0.000
240.001;  393.075;    0.000;    0.000
240.070;  369.075;    0.000;    0.000
240.140;  385.075;    0.000;    0.000
240.209;  348.075;    0.000;    0.000
240.279;  373.075;    0.000;    0.000
240.348;  391.075;    0.000;    0.000
240.418;  335.075;    0.000;    0.000
240.487;  369.075;    0.000;    0.000
240.556;  398.075;    0.000;    0.000
240.626;  421.075;    0.000;    0.000
240.695;  440.075;    0.000;    0.000
240.765;  358.075;    0.000;    0.000
240.834;  389.075;    0.000;    0.000
240.903;  395.075;    0.000;    0.000
240.973;  377.075;    0.000;    0.000
241.042;  370.075;    0.000;    0.000
241.112;  401.075;    0.000;    0.000
241.181;  365.075;    0.000;    0.000
241.250;  364.075;    0.000;    0.000
241.320;  381.075;    0.000;    0.000
241.389;  393.075;    0.000;    0.000
241.458;  407.075;    0.000;    0.000
241.528;  367.075;    0.000;    0.000
241.597;  374.075;    0.000;    0.000
241.666;  371.075;    0.000;    0.000
241.736;  409.075;    0.000;    0.000
241.805;  372.075;    0.000;    0.000
241.874;  410.075;    0.000;    0.000
241.943;  403.075;    0.000;    0.000
242.013;  420.075;    0.000;    0.000
242.082;  389.075;    0.000;    0.000
242.151;  398.075;    0.000;    0.000
242.221;  405.075;    0.000;    0.000
242.290;  392.075;    0.000;    0.000
242.359;  348.075;    0.000;    0.000
242.428;  455.075;    0.000;    0.000
242.498;  355.075;    0.000;    0.000
242.567;  407.075;    0.000;    0.000
242.636;  350.075;    0.000;    0.000
242.705;  412.075;    0.000;    0.000
242.774;  346.075;    0.000;    0.000
242.844;  372.075;    0.000;    0.000
242.913;  392.075;    0.000;    0.000
242.982;  367.075;    0.000;    0.000
243.051;  386.075;    0.000;    0.000
243.120;  423.075;    0.000;    0.000
243.190;  372.075;    0.000;    0.000
243.259;  386.075;    0.000;    0.000
243.328;  350.075;    0.000;    0.000
243.397;  417.075;    0.000;    0.000
243.466;  386.075;    0.000;    0.000
243.535;  396.075;    0.000;    0.000
243.605;  367.075;    0.000;    0.000
243.674;  381.075;    0.000;    0.000
243.743;  409.075;    0.000;    0.000
243.812;  417.075;    0.000;    0.000
243.881;  386.075;    0.000;    0.000
243.950;  378.075;    0.000;    0.000
244.019;  403.075;    0.000;    0.000
244.088;  383.075;    0.000;    0.000
244.158;  413.075;    0.000;    0.000
244.227;  391.075;    0.000;    0.000
244.296;  357.075;    0.000;    0.000
244.365;  382.075;    0.000;    0.000
244.434;  376.075;    0.000;    0.000
244.503;  365.075;    0.000;    0.000
244.572;  382.075;    0.000;    0.000
244.641;  363.075;    0.000;    0.000
244.710;  359.075;    0.000;    0.000
244.779;  372.075;    0.000;    0.000
244.848;  377.075;    0.000;    0.000
244.917;  349.075;    0.000;    0.000
244.986;  376.075;    0.000;    0.000
245.055;  398.075;    0.000;    0.000
245.124;  350.075;    0.000;    0.000
245.193;  387.075;    0.000;    0.000
245.262;  337.075;    0.000;    0.000
245.331;  414.075;    0.000;    0.000
245.400;  363.075;    0.000;    0.000
245.469;  407.075;    0.000;    0.000
245.538;  382.075;    0.000;    0.000
245.607;  417.075;    0.000;    0.000
245.676;  415.075;    0.000;    0.000
245.745;  404.075;    0.000;    0.000
245.814;  374.075;    0.000;    0.000
245.883;  427.075;    0.000;    0.000
245.952;  411.075;    0.000;    0.000
246.021;  404.075;    0.000;    0.000
246.090;  364.075;    0.000;    0.000
246.159;  399.075;    0.000;    0.000
246.227;  390.075;    0.000;    0.000
246.296;  382.075;    0.000;    0.000
246.365;  398.075;    0.000;    0.000
246.434;  386.075;    0.000;    0.000
246.503;  400.075;    0.000;    0.000
246.572;  379.075;    0.000;    0.000
246.641;  375.075;    0.000;    0.000
246.710;  411.075;    0.000;    0.000
246.779;  427.075;    0.000;    0.000
246.847;  476.075;    0.000;    0.000
246.916;  344.075;    0.000;    0.000
246.985;  354.075;    0.000;    0.000
247.054;  372.075;    0.000;    0.000
247.123;  342.075;    0.000;    0.000
247.192;  384.075;    0.000;    0.000
247.260;  346.075;    0.000;    0.000
247.329;  427.075;    0.000;    0.000
247.398;  408.075;    0.000;    0.000
247.467;  383.075;    0.000;    0.000
247.536;  442.075;    0.000;    0.000
247.604;  431.075;    0.000;    0.000
247.673;  432.075;    0.000;    0.000
247.742;  414.075;    0.000;    0.000
247.811;  434.075;    0.000;    0.000
247.879;  401.075;    0.000;    0.000
247.948;  412.075;    0.000;    0.000
248.017;  394.075;    0.000;    0.000
248.086;  437.075;    0.000;    0.000
248.154;  381.075;    0.000;    0.000
248.223;  411.075;    0.000;    0.000
248.292;  404.075;    0.000;    0.000
248.360;  423.075;    0.000;    0.000
248.429;  451.075;    0.000;    0.000
248.498;  357.075;    0.000;    0.000
248.567;  380.075;    0.000;    0.000
248.635;  438.075;    0.000;    0.000
248.704;  438.075;    0.000;    0.000
248.773;  426.075;    0.000;    0.000
248.841;  397.075;    0.000;    0.000
248.910;  428.075;    0.000;    0.000
248.979;  365.075;    0.000;    0.000
249.047;  369.075;    0.000;    0.000
249.116;  379.075;    0.000;    0.000
249.185;  427.075;    0.000;    0.000
249.253;  384.075;    0.000;    0.000
249.322;  393.075;    0.000;    0.000
249.390;  369.075;    0.000;    0.000
249.459;  418.075;    0.000;    0.000
249.528;  368.075;    0.000;    0.000
249.596;  364.075;    0.000;    0.000
249.665;  325.075;    0.000;    0.000
249.733;  397.075;    0.000;    0.000
249.802;  369.075;    0.000;    0.000
249.871;  366.075;    0.000;    0.000
249.939;  356.075;    0.000;    0.000
250.008;  421.075;    0.000;    0.000
250.076;  395.075;    0.000;    0.000
250.145;  337.075;    0.000;    0.000
250.213;  355.075;    0.000;    0.000
250.282;  354.075;    0.000;    0.000
250.350;  323.075;    0.000;    0.000
250.419;  390.075;    0.000;    0.000
250.487;  407.075;    0.000;    0.000
250.556;  368.075;    0.000;    0.000
250.624;  371.075;    0.000;    0.000
250.693;  350.075;    0.000;    0.000
250.761;  393.075;    0.000;    0.000
250.830;  370.075;    0.000;    0.000
250.898;  346.075;    0.000;    0.000
250.967;  362.075;    0.000;    0.000
251.035;  309.075;    0.000;    0.000
251.104;  365.075;    0.000;    0.000
251.172;  355.075;    0.000;    0.000
251.241;  305.075;    0.000;    0.000
251.309;  341.075;    0.000;    0.000
251.378;  383.075;    0.000;    0.000
251.446;  333.075;    0.000;    0.000
251.514;  356.075;    0.000;    0.000
251.583;  317.075;    0.000;    0.000
251.651;  353.075;    0.000;    0.000
251.720;  410.075;    0.000;    0.000
251.788;  341.075;    0.000;    0.000
251.856;  334.075;    0.000;    0.000
251.925;  321.075;    0.000;    0.000
251.993;  317.075;    0.000;    0.000
252.062;  395.075;    0.000;    0.000
252.130;  313.075;    0.000;    0.000
252.198;  357.075;    0.000;    0.000
252.267;  285.075;    0.000;    0.000
252.335;  297.075;    0.000;    0.000
252.403;  324.075;    0.000;    0.000
252.472;  331.075;    0.000;    0.000
252.540;  311.075;    0.000;    0.000
252.608;  327.075;    0.000;    0.000
252.677;  293.075;    0.000;    0.000
252.745;  332.075;    0.000;    0.000
252.813;  328.075;    0.000;    0.000
252.881;  276.075;    0.000;    0.000
252.950;  316.075;    0.000;    0.000
253.018;  305.075;    0.000;    0.000
253.086;  246.075;    0.000;    0.000
253.155;  304.075;    0.000;    0.000
253.223;  266.075;    0.000;    0.000
253.291;  308.075;    0.000;    0.000
253.359;  319.075;    0.000;    0.000
253.427;  311.075;    0.000;    0.000
253.496;  324.075;    0.000;    0.000
253.564;  245.075;    0.000;    0.000
253.632;  284.075;    0.000;    0.000
253.700;  324.075;    0.000;    0.000
253.769;  290.075;    0.000;    0.000
253.837;  292.075;    0.000;    0.000
253.905;  321.075;    0.000;    0.000
253.973;  318.075;    0.000;    0.000
254.041;  322.075;    0.000;    0.000
254.110;  287.075;    0.000;    0.000
254.178;  290.075;    0.000;    0.000
254.246;  299.075;    0.000;    0.000
254.314;  263.075;    0.000;    0.000
254.382;  285.075;    0.000;    0.000
254.450;  280.075;    0.000;    0.000
254.518;  289.075;    0.000;    0.000
254.587;  290.075;    0.000;    0.000
254.655;  340.075;    0.000;    0.000
254.723;  275.075;    0.000;    0.000
254.791;  322.075;    0.000;    0.000
254.859;  295.075;    0.000;    0.000
254.927;  293.075;    0.000;    0.000
254.995;  300.075;    0.000;    0.000
255.063;  334.075;    0.000;    0.000
255.131;  299.075;    0.000;    0.000
255.199;  260.075;    0.000;    0.000
255.267;  243.075;    0.000;    0.000
255.336;  264.075;    0.000;    0.000
255.404;  265.075;    0.000;    0.000
255.472;  296.075;    0.000;    0.000
255.540;  278.075;    0.000;    0.000
255.608;  318.075;    0.000;    0.000
255.676;  308.075;    0.000;    0.000
255.744;  301.075;    0.000;    0.000
255.812;  276.075;    0.000;    0.000
255.880;  331.075;    0.000;    0.000
255.948;  291.075;    0.000;    0.000
256.016;  266.075;    0.000;    0.000
256.084;  299.075;    0.000;    0.000
256.152;  300.075;    0.000;    0.000
256.220;  274.075;    0.000;    0.000
256.288;  264.075;    0.000;    0.000
256.356;  267.075;    0.000;    0.000
256.424;  246.075;    0.000;    0.000
256.491;  278.075;    0.000;    0.000
256.559;  285.075;    0.000;    0.000
256.627;  282.075;    0.000;    0.000
256.695;  252.075;    0.000;    0.000
256.763;  309.075;    0.000;    0.000
256.831;  283.075;    0.000;    0.000
256.899;  345.075;    0.000;    0.000
256.967;  255.075;    0.000;    0.000
257.035;  306.075;    0.000;    0.000
257.103;  331.075;    0.000;    0.000
257.171;  280.075;    0.000;    0.000
257.238;  275.075;    0.000;    0.000
257.306;  290.075;    0.000;    0.000
257.374;  307.075;    0.000;    0.000
257.442;  270.075;    0.000;    0.000
257.510;  310.075;    0.000;    0.000
257.578;  292.075;    0.000;    0.000
257.646;  319.075;    0.000;    0.000
257.713;  284.075;    0.000;    0.000
257.781;  303.075;    0.000;    0.000
257.849;  367.075;    0.000;    0.000
257.917;  260.075;    0.000;    0.000
257.985;  286.075;    0.000;    0.000
258.052;  310.075;    0.000;    0.000
258.120;  284.075;    0.000;    0.000
258.188;  318.075;    0.000;    0.000
258.256;  288.075;    0.000;    0.000
258.324;  349.075;    0.000;    0.000
258.391;  305.075;    0.000;    0.000
258.459;  330.075;    0.000;    0.000
258.527;  297.075;    0.000;    0.000
258.595;  282.075;    0.000;    0.000
258.662;  271.075;    0.000;    0.000
258.730;  321.075;    0.000;    0.000
258.798;  285.075;    0.000;    0.000
258.865;  303.075;    0.000;    0.000
258.933;  345.075;    0.000;    0.000
259.001;  360.075;    0.000;    0.000
259.069;  311.075;    0.000;    0.000
259.136;  309.075;    0.000;    0.000
259.204;  318.075;    0.000;    0.000
259.272;  295.075;    0.000;    0.000
259.339;  328.075;    0.000;    0.000
259.407;  332.075;    0.000;    0.000
259.475;  305.075;    0.000;    0.000
259.542;  281.075;    0.000;    0.000
259.610;  296.075;    0.000;    0.000
259.677;  304.075;    0.000;    0.000
259.745;  318.075;    0.000;    0.000
259.813;  353.075;    0.000;    0.000
259.880;  355.075;    0.000;    0.000
259.948;  318.075;    0.000;    0.000
260.016;  336.075;    0.000;    0.000
260.083;  391.075;    0.000;    0.000
260.151;  341.075;    0.000;    0.000
260.218;  364.075;    0.000;    0.000
260.286;  347.075;    0.000;    0.000
260.353;  356.075;    0.000;    0.000
260.421;  336.075;    0.000;    0.000
260.489;  357.075;    0.000;    0.000
260.556;  324.075;    0.000;    0.000
260.624;  372.075;    0.000;    0.000
260.691;  342.075;    0.000;    0.000
260.759;  380.075;    0.000;    0.000
260.826;  321.075;    0.000;    0.000
260.894;  370.075;    0.000;    0.000
260.961;  366.075;    0.000;    0.000
261.029;  385.075;    0.000;    0.000
261.096;  396.075;    0.000;    0.000
261.164;  369.075;    0.000;    0.000
261.231;  423.075;    0.000;    0.000
261.299;  425.075;    0.000;    0.000
261.366;  387.075;    0.000;    0.000
261.434;  440.075;    0.000;    0.000
261.501;  389.075;    0.000;    0.000
261.568;  440.075;    0.000;    0.000
261.636;  415.075;    0.000;    0.000
261.703;  428.075;    0.000;    0.000
261.771;  396.075;    0.000;    0.000
261.838;  425.075;    0.000;    0.000
261.906;  396.075;    0.000;    0.000
261.973;  458.075;    0.000;    0.000
262.040;  444.075;    0.000;    0.000
262.108;  428.075;    0.000;    0.000
262.175;  427.075;    0.000;    0.000
262.243;  464.075;    0.000;    0.000
262.310;  405.075;    0.000;    0.000
262.377;  444.075;    0.000;    0.000
262.445;  454.075;    0.000;    0.000
262.512;  432.075;    0.000;    0.000
262.579;  426.075;    0.000;    0.000
262.647;  443.075;    0.000;    0.000
262.714;  446.075;    0.000;    0.000
262.781;  417.075;    0.000;    0.000
262.849;  462.075;    0.000;    0.000
262.916;  447.075;    0.000;    0.000
262.983;  456.075;    0.000;    0.000
263.051;  431.075;    0.000;    0.000
263.118;  491.075;    0.000;    0.000
263.185;  465.075;    0.000;    0.000
263.252;  480.075;    0.000;    0.000
263.320;  446.075;    0.000;    0.000
263.387;  460.075;    0.000;    0.000
263.454;  466.075;    0.000;    0.000
263.522;  473.075;    0.000;    0.000
263.589;  504.075;    0.000;    0.000
263.656;  477.075;    0.000;    0.000
263.723;  452.075;    0.000;    0.000
263.790;  505.075;    0.000;    0.000
263.858;  479.075;    0.000;    0.000
263.925;  470.075;    0.000;    0.000
263.992;  417.075;    0.000;    0.000
264.059;  514.075;    0.000;    0.000
264.126;  537.075;    0.000;    0.000
264.194;  478.075;    0.000;    0.000
264.261;  539.075;    0.000;    0.000
264.328;  469.075;    0.000;    0.000
264.395;  533.075;    0.000;    0.000
264.462;  501.075;    0.000;    0.000
264.529;  505.075;    0.000;    0.000
264.597;  496.075;    0.000;    0.000
264.664;  561.075;    0.000;    0.000
264.731;  559.075;    0.000;    0.000
264.798;  481.075;    0.000;    0.000
264.865;  521.075;    0.000;    0.000
264.932;  518.075;    0.000;    0.000
264.999;  531.075;    0.000;    0.000
265.066;  508.075;    0.000;    0.000
265.133;  479.075;    0.000;    0.000
265.201;  541.075;    0.000;    0.000
265.268;  513.075;    0.000;    0.000
265.335;  462.075;    0.000;    0.000
265.402;  522.075;    0.000;    0.000
265.469;  524.075;    0.000;    0.000
265.536;  565.075;    0.000;    0.000
265.603;  579.075;    0.000;    0.000
265.670;  579.075;    0.000;    0.000
265.737;  601.075;    0.000;    0.000
265.804;  636.075;    0.000;    0.000
265.871;  587.075;    0.000;    0.000
265.938;  570.075;    0.000;    0.000
266.005;  552.075;    0.000;    0.000
266.072;  557.075;    0.000;    0.000
266.139;  628.075;    0.000;    0.000
266.206;  562.075;    0.000;    0.000
266.273;  605.075;    0.000;    0.000
266.340;  564.075;    0.000;    0.000
266.407;  609.075;    0.000;    0.000
266.474;  590.075;    0.000;    0.000
266.541;  573.075;    0.000;    0.000
266.608;  561.075;    0.000;    0.000
266.675;  630.075;    0.000;    0.000
266.742;  641.075;    0.000;    0.000
266.808;  617.075;    0.000;    0.000
266.875;  579.075;    0.000;    0.000
266.942;  601.075;    0.000;    0.000
267.009;  599.075;    0.000;    0.000
267.076;  641.075;    0.000;    0.000
267.143;  623.075;    0.000;    0.000
267.210;  588.075;    0.000;    0.000
267.277;  575.075;    0.000;    0.000
267.344;  628.075;    0.000;    0.000
267.410;  607.075;    0.000;    0.000
267.477;  636.075;    0.000;    0.000
267.544;  606.075;    0.000;    0.000
267.611;  678.075;    0.000;    0.000
267.678;  622.075;    0.000;    0.000
267.745;  656.075;    0.000;    0.000
267.811;  604.075;    0.000;    0.000
267.878;  671.075;    0.000;    0.000
267.945;  603.075;    0.000;    0.000
268.012;  665.075;    0.000;    0.000
268.079;  692.075;    0.000;    0.000
268.145;  664.075;    0.000;    0.000
268.212;  636.075;    0.000;    0.000
268.279;  584.075;    0.000;    0.000
268.346;  657.075;    0.000;    0.000
268.412;  680.075;    0.000;    0.000
268.479;  574.075;    0.000;    0.000
268.546;  598.075;    0.000;    0.000
268.613;  646.075;    0.000;    0.000
268.679;  671.075;    0.000;    0.000
268.746;  626.075;    0.000;    0.000
268.813;  675.075;    0.000;    0.000
268.879;  651.075;    0.000;    0.000
268.946;  687.075;    0.000;    0.000
269.013;  658.075;    0.000;    0.000
269.079;  649.075;    0.000;    0.000
269.146;  630.075;    0.000;    0.000
269.213;  678.075;    0.000;    0.000
269.279;  602.075;    0.000;    0.000
269.346;  617.075;    0.000;    0.000
269.413;  579.075;    0.000;    0.000
269.479;  681.075;    0.000;    0.000
269.546;  643.075;    0.000;    0.000
269.613;  583.075;    0.000;    0.000
269.679;  729.075;    0.000;    0.000
269.746;  628.075;    0.000;    0.000
269.813;  633.075;    0.000;    0.000
269.879;  620.075;    0.000;    0.000
269.946;  622.075;    0.000;    0.000
270.012;  655.075;    0.000;    0.000
270.079;  598.075;    0.000;    0.000
270.145;  637.075;    0.000;    0.000
270.212;  632.075;    0.000;    0.000
270.279;  669.075;    0.000;    0.000
270.345;  644.075;    0.000;    0.000
270.412;  653.075;    0.000;    0.000
270.478;  629.075;    0.000;    0.000
270.545;  670.075;    0.000;    0.000
270.611;  613.075;    0.000;    0.000
270.678;  612.075;    0.000;    0.000
270.744;  635.075;    0.000;    0.000
270.811;  607.075;    0.000;    0.000
270.877;  601.075;    0.000;    0.000
270.944;  639.075;    0.000;    0.000
271.010;  594.075;    0.000;    0.000
271.077;  656.075;    0.000;    0.000
271.143;  652.075;    0.000;    0.000
271.210;  607.075;    0.000;    0.000
271.276;  630.075;    0.000;    0.000
271.343;  653.075;    0.000;    0.000
271.409;  626.075;    0.000;    0.000
271.475;  638.075;    0.000;    0.000
271.542;  602.075;    0.000;    0.000
271.608;  619.075;    0.000;    0.000
271.675;  643.075;    0.000;    0.000
271.741;  655.075;    0.000;    0.000
271.807;  625.075;    0.000;    0.000
271.874;  661.075;    0.000;    0.000
271.940;  664.075;    0.000;    0.000
272.007;  654.075;    0.000;    0.000
272.073;  648.075;    0.000;    0.000
272.139;  653.075;    0.000;    0.000
272.206;  665.075;    0.000;    0.000
272.272;  666.075;    0.000;    0.000
272.338;  689.075;    0.000;    0.000
272.405;  604.075;    0.000;    0.000
272.471;  665.075;    0.000;    0.000
272.537;  657.075;    0.000;    0.000
272.604;  647.075;    0.000;    0.000
272.670;  621.075;    0.000;    0.000
272.736;  618.075;    0.000;    0.000
272.803;  669.075;    0.000;    0.000
272.869;  677.075;    0.000;    0.000
272.935;  696.075;    0.000;    0.000
273.001;  635.075;    0.000;    0.000
273.068;  673.075;    0.000;    0.000
273.134;  677.075;    0.000;    0.000
273.200;  693.075;    0.000;    0.000
273.266;  646.075;    0.000;    0.000
273.333;  714.075;    0.000;    0.000
273.399;  623.075;    0.000;    0.000
273.465;  651.075;    0.000;    0.000
273.531;  681.075;    0.000;    0.000
273.597;  681.075;    0.000;    0.000
273.664;  663.075;    0.000;    0.000
273.730;  670.075;    0.000;    0.000
273.796;  664.075;    0.000;    0.000
273.862;  693.075;    0.000;    0.000
273.928;  703.075;    0.000;    0.000
273.994;  660.075;    0.000;    0.000
274.061;  719.075;    0.000;    0.000
274.127;  636.075;    0.000;    0.000
274.193;  667.075;    0.000;    0.000
274.259;  658.075;    0.000;    0.000
274.325;  624.075;    0.000;    0.000
274.391;  678.075;    0.000;    0.000
274.457;  694.075;    0.000;    0.000
274.524;  696.075;    0.000;    0.000
274.590;  709.075;    0.000;    0.000
274.656;  734.075;    0.000;    0.000
274.722;  707.075;    0.000;    0.000
274.788;  675.075;    0.000;    0.000
274.854;  754.075;    0.000;    0.000
274.920;  685.075;    0.000;    0.000
274.986;  707.075;    0.000;    0.000
275.052;  698.075;    0.000;    0.000
275.118;  644.075;    0.000;    0.000
275.184;  719.075;    0.000;    0.000
275.250;  701.075;    0.000;    0.000
275.316;  750.075;    0.000;    0.000
275.382;  721.075;    0.000;    0.000
275.448;  792.075;    0.000;    0.000
275.514;  722.075;    0.000;    0.000
275.580;  691.075;    0.000;    0.000
275.646;  771.075;    0.000;    0.000
275.712;  701.075;    0.000;    0.000
275.778;  764.075;    0.000;    0.000
275.844;  689.075;    0.000;    0.000
275.910;  808.075;    0.000;    0.000
275.976;  780.075;    0.000;    0.000
276.042;  739.075;    0.000;    0.000
276.108;  808.075;    0.000;    0.000
276.174;  815.075;    0.000;    0.000
276.240;  822.075;    0.000;    0.000
276.306;  800.075;    0.000;    0.000
276.372;  846.075;    0.000;    0.000
276.437;  816.075;    0.000;    0.000
276.503;  832.075;    0.000;    0.000
276.569;  921.075;    0.000;    0.000
276.635;  868.075;    0.000;    0.000
276.701;  907.075;    0.000;    0.000
276.767;  830.075;    0.000;    0.000
276.833;  918.075;    0.000;    0.000
276.899;  913.075;    0.000;    0.000
276.964;  936.075;    0.000;    0.000
277.030;  978.075;    0.000;    0.000
277.096;  947.075;    0.000;    0.000
277.162; 1011.075;    0.000;    0.000
277.228;  967.075;    0.000;    0.000
277.293; 1106.075;    0.000;    0.000
277.359; 1093.075;    0.000;    0.000
277.425; 1168.075;    0.000;    0.000
277.491; 1186.075;    0.000;    0.000
277.557; 1248.075;    0.000;    0.000
277.622; 1823.075;    0.000;    0.000
277.688; 1921.075;    0.000;    0.000
277.754; 1780.075;    0.000;    0.000
277.820; 2097.075;    0.000;    0.000
277.885; 2202.075;    0.000;    0.000
277.951; 2776.075;    0.000;    0.000
278.017; 2779.075;    0.000;    0.000
278.083; 2252.075;    0.000;    0.000
278.148; 2199.075;    0.000;    0.000
278.214; 2123.075;    0.000;    0.000
278.280; 2254.075;    0.000;    0.000
278.345; 2150.075;    0.000;    0.000
278.411; 1922.075;    0.000;    0.000
278.477; 2016.075;    0.000;    0.000
278.542; 2082.075;    0.000;    0.000
278.608; 2323.075;    0.000;    0.000
278.674; 2541.075;    0.000;    0.000
278.739; 2761.075;    0.000;    0.000
278.805; 3026.075;    0.000;    0.000
278.871; 3511.075;    0.000;    0.000
278.936; 4040.075;    0.000;    0.000
279.002; 5669.075;    0.000;    0.000
279.067; 8107.075;    0.000;    0.000
279.133; 8691.075;    0.000;    0.000
279.199; 7760.075;    0.000;    0.000
279.264; 7866.075;    0.000;    0.000
279.330; 8523.075;    0.000;    0.000
279.395;10520.075;    0.000;    0.000
279.461;13098.075;    0.000;    0.000
279.527;14310.075;    0.000;    0.000
279.592;14251.075;    0.000;    0.000
279.658;13328.075;    0.000;    0.000
279.723;12310.075;    0.000;    0.000
279.789;12961.075;    0.000;    0.000
279.854;12153.075;    0.000;    0.000
279.920;10482.075;    0.000;    0.000
279.985; 9244.075;    0.000;    0.000
280.051; 8873.075;    0.000;    0.000
280.116; 9833.075;    0.000;    0.000
280.182;12179.075;    0.000;    0.000
280.247;14005.075;    0.000;    0.000
280.313;13706.075;    0.000;    0.000
280.378;10781.075;    0.000;    0.000
280.444; 8163.075;    0.000;    0.000
280.509; 6324.075;    0.000;    0.000
280.574; 5287.075;    0.000;    0.000
280.640; 4609.075;    0.000;    0.000
280.705; 4153.075;    0.000;    0.000
280.771; 3540.075;    0.000;    0.000
280.836; 3292.075;    0.000;    0.000
280.902; 3120.075;    0.000;    0.000
280.967; 2753.075;    0.000;    0.000
281.032; 2687.075;    0.000;    0.000
281.098; 2562.075;    0.000;    0.000
281.163; 2280.075;    0.000;    0.000
281.229; 2274.075;    0.000;    0.000
281.294; 2233.075;    0.000;    0.000
281.359; 2120.075;    0.000;    0.000
281.425; 2105.075;    0.000;    0.000
281.490; 2000.075;    0.000;    0.000
281.555; 1887.075;    0.000;    0.000
281.621; 1755.075;    0.000;    0.000
281.686; 1760.075;    0.000;    0.000
281.751; 1679.075;    0.000;    0.000
281.817; 1670.075;    0.000;    0.000
281.882; 1666.075;    0.000;    0.000
281.947; 1510.075;    0.000;    0.000
282.012; 1566.075;    0.000;    0.000
282.078; 1538.075;    0.000;    0.000
282.143; 1517.075;    0.000;    0.000
282.208; 1447.075;    0.000;    0.000
282.273; 1461.075;    0.000;    0.000
282.339; 1413.075;    0.000;    0.000
282.404; 1397.075;    0.000;    0.000
282.469; 1303.075;    0.000;    0.000
282.534; 1366.075;    0.000;    0.000
282.600; 1277.075;    0.000;    0.000
282.665; 1261.075;    0.000;    0.000
282.730; 1307.075;    0.000;    0.000
282.795; 1296.075;    0.000;    0.000
282.860; 1231.075;    0.000;    0.000
282.926; 1289.075;    0.000;    0.000
282.991; 1259.075;    0.000;    0.000
283.056; 1198.075;    0.000;    0.000
283.121; 1272.075;    0.000;    0.000
283.186; 1228.075;    0.000;    0.000
283.251; 1221.075;    0.000;    0.000
283.316; 1150.075;    0.000;    0.000
283.382; 1173.075;    0.000;    0.000
283.447; 1240.075;    0.000;    0.000
283.512; 1160.075;    0.000;    0.000
283.577; 1155.075;    0.000;    0.000
283.642; 1165.075;    0.000;    0.000
283.707; 1119.075;    0.000;    0.000
283.772; 1096.075;    0.000;    0.000
283.837; 1114.075;    0.000;    0.000
283.902; 1126.075;    0.000;    0.000
283.967; 1111.075;    0.000;    0.000
284.032; 1132.075;    0.000;    0.000
284.097; 1182.075;    0.000;    0.000
284.163; 1121.075;    0.000;    0.000
284.228; 1149.075;    0.000;    0.000
284.293; 1154.075;    0.000;    0.000
284.358; 1202.075;    0.000;    0.000
284.423; 1159.075;    0.000;    0.000
284.488; 1193.075;    0.000;    0.000
284.553; 1237.075;    0.000;    0.000
284.618; 1219.075;    0.000;    0.000
284.683; 1199.075;    0.000;    0.000
284.748; 1338.075;    0.000;    0.000
284.812; 1373.075;    0.000;    0.000
284.877; 1457.075;    0.000;    0.000
284.942; 1662.075;    0.000;    0.000
285.007; 1914.075;    0.000;    0.000
285.072; 2417.075;    0.000;    0.000
285.137; 3379.075;    0.000;    0.000
285.202; 4839.075;    0.000;    0.000
285.267; 5155.075;    0.000;    0.000
285.332; 3905.075;    0.000;    0.000
285.397; 2703.075;    0.000;    0.000
285.462; 2158.075;    0.000;    0.000
285.527; 1940.075;    0.000;    0.000
285.591; 1802.075;    0.000;    0.000
285.656; 1509.075;    0.000;    0.000
285.721; 1428.075;    0.000;    0.000
285.786; 1419.075;    0.000;    0.000
285.851; 1298.075;    0.000;    0.000
285.916; 1363.075;    0.000;    0.000
285.981; 1263.075;    0.000;    0.000
286.045; 1232.075;    0.000;    0.000
286.110; 1182.075;    0.000;    0.000
286.175; 1207.075;    0.000;    0.000
286.240; 1190.075;    0.000;    0.000
286.305; 1170.075;    0.000;    0.000
286.369; 1172.075;    0.000;    0.000
286.434; 1123.075;    0.000;    0.000
286.499; 1160.075;    0.000;    0.000
286.564; 1173.075;    0.000;    0.000
286.628; 1065.075;    0.000;    0.000
286.693; 1066.075;    0.000;    0.000
286.758; 1122.075;    0.000;    0.000
286.823; 1140.075;    0.000;    0.000
286.887; 1081.075;    0.000;    0.000
286.952; 1117.075;    0.000;    0.000
287.017; 1125.075;    0.000;    0.000
287.082; 1051.075;    0.000;    0.000
287.146; 1044.075;    0.000;    0.000
287.211; 1041.075;    0.000;    0.000
287.276; 1051.075;    0.000;    0.000
287.340; 1047.075;    0.000;    0.000
287.405; 1020.075;    0.000;    0.000
287.470; 1046.075;    0.000;    0.000
287.534; 1073.075;    0.000;    0.000
287.599; 1076.075;    0.000;    0.000
287.663; 1026.075;    0.000;    0.000
287.728;  980.075;    0.000;    0.000
287.793; 1135.075;    0.000;    0.000
287.857; 1113.075;    0.000;    0.000
287.922; 1042.075;    0.000;    0.000
287.987; 1041.075;    0.000;    0.000
288.051; 1110.075;    0.000;    0.000
288.116; 1034.075;    0.000;    0.000
288.180; 1095.075;    0.000;    0.000
288.245; 1089.075;    0.000;    0.000
288.309; 1127.075;    0.000;    0.000
288.374; 1019.075;    0.000;    0.000
288.439; 1045.075;    0.000;    0.000
288.503; 1010.075;    0.000;    0.000
288.568; 1037.075;    0.000;    0.000
288.632; 1080.075;    0.000;    0.000
288.697; 1032.075;    0.000;    0.000
288.761; 1015.075;    0.000;    0.000
288.826;  953.075;    0.000;    0.000
288.890; 1037.075;    0.000;    0.000
288.955; 1006.075;    0.000;    0.000
289.019; 1068.075;    0.000;    0.000
289.084; 1000.075;    0.000;    0.000
289.148;  957.075;    0.000;    0.000
289.212; 1055.075;    0.000;    0.000
289.277; 1059.075;    0.000;    0.000
289.341; 1050.075;    0.000;    0.000
289.406;  974.075;    0.000;    0.000
289.470; 1027.075;    0.000;    0.000
289.535; 1020.075;    0.000;    0.000
289.599; 1094.075;    0.000;    0.000
289.663; 1015.075;    0.000;    0.000
289.728; 1029.075;    0.000;    0.000
289.792;  996.075;    0.000;    0.000
289.857; 1068.075;    0.000;    0.000
289.921;  981.075;    0.000;    0.000
289.985; 1006.075;    0.000;    0.000
290.050; 1005.075;    0.000;    0.000
290.114;  986.075;    0.000;    0.000
290.178; 1002.075;    0.000;    0.000
290.243; 1009.075;    0.000;    0.000
290.307;  997.075;    0.000;    0.000
290.371;  989.075;    0.000;    0.000
290.436; 1077.075;    0.000;    0.000
290.500;  989.075;    0.000;    0.000
290.564; 1043.075;    0.000;    0.000
290.629; 1003.075;    0.000;    0.000
290.693; 1035.075;    0.000;    0.000
290.757; 1087.075;    0.000;    0.000
290.821; 1061.075;    0.000;    0.000
290.886; 1068.075;    0.000;    0.000
290.950; 1058.075;    0.000;    0.000
291.014; 1060.075;    0.000;    0.000
291.078; 1084.075;    0.000;    0.000
291.143; 1029.075;    0.000;    0.000
291.207; 1126.075;    0.000;    0.000
291.271; 1095.075;    0.000;    0.000
291.335; 1076.075;    0.000;    0.000
291.399; 1086.075;    0.000;    0.000
291.464; 1177.075;    0.000;    0.000
291.528; 1335.075;    0.000;    0.000
291.592; 1204.075;    0.000;    0.000
291.656; 1212.075;    0.000;    0.000
291.720; 1147.075;    0.000;    0.000
291.784; 1159.075;    0.000;    0.000
291.849; 1136.075;    0.000;    0.000
291.913; 1112.075;    0.000;    0.000
291.977; 1162.075;    0.000;    0.000
292.041; 1170.075;    0.000;    0.000
292.105; 1214.075;    0.000;    0.000
292.169; 1196.075;    0.000;    0.000
292.233; 1258.075;    0.000;    0.000
292.297; 1271.075;    0.000;    0.000
292.361; 1237.075;    0.000;    0.000
292.425; 1205.075;    0.000;    0.000
292.490; 1304.075;    0.000;    0.000
292.554; 1307.075;    0.000;    0.000
292.618; 1482.075;    0.000;    0.000
292.682; 1519.075;    0.000;    0.000
292.746; 1649.075;    0.000;    0.000
292.810; 2128.075;    0.000;    0.000
292.874; 2766.075;    0.000;    0.000
292.938; 3027.075;    0.000;    0.000
293.002; 2734.075;    0.000;    0.000
293.066; 2449.075;    0.000;    0.000
293.130; 2368.075;    0.000;    0.000
293.194; 2111.075;    0.000;    0.000
293.258; 2104.075;    0.000;    0.000
293.322; 2115.075;    0.000;    0.000
293.386; 2089.075;    0.000;    0.000
293.450; 2190.075;    0.000;    0.000
293.514; 2466.075;    0.000;    0.000
293.577; 2902.075;    0.000;    0.000
293.641; 4092.075;    0.000;    0.000
293.705; 4901.075;    0.000;    0.000
293.769; 4485.075;    0.000;    0.000
293.833; 3875.075;    0.000;    0.000
293.897; 3379.075;    0.000;    0.000
293.961; 3054.075;    0.000;    0.000
294.025; 2835.075;    0.000;    0.000
294.089; 2415.075;    0.000;    0.000
294.153; 2322.075;    0.000;    0.000
294.216; 2258.075;    0.000;    0.000
294.280; 2117.075;    0.000;    0.000
294.344; 1910.075;    0.000;    0.000
294.408; 1846.075;    0.000;    0.000
294.472; 1827.075;    0.000;    0.000
294.536; 1815.075;    0.000;    0.000
294.599; 1741.075;    0.000;    0.000
294.663; 1609.075;    0.000;    0.000
294.727; 1555.075;    0.000;    0.000
294.791; 1550.075;    0.000;    0.000
294.855; 1426.075;    0.000;    0.000
294.918; 1541.075;    0.000;    0.000
294.982; 1527.075;    0.000;    0.000
295.046; 1506.075;    0.000;    0.000
295.110; 1471.075;    0.000;    0.000
295.173; 1423.075;    0.000;    0.000
295.237; 1375.075;    0.000;    0.000
295.301; 1346.075;    0.000;    0.000
295.364; 1403.075;    0.000;    0.000
295.428; 1372.075;    0.000;    0.000
295.492; 1312.075;    0.000;    0.000
295.556; 1292.075;    0.000;    0.000
295.619; 1333.075;    0.000;    0.000
295.683; 1318.075;    0.000;    0.000
295.747; 1260.075;    0.000;    0.000
295.810; 1292.075;    0.000;    0.000
295.874; 1310.075;    0.000;    0.000
295.938; 1269.075;    0.000;    0.000
296.001; 1335.075;    0.000;    0.000
296.065; 1286.075;    0.000;    0.000
296.128; 1280.075;    0.000;    0.000
296.192; 1239.075;    0.000;    0.000
296.256; 1223.075;    0.000;    0.000
296.319; 1270.075;    0.000;    0.000
296.383; 1249.075;    0.000;    0.000
296.446; 1256.075;    0.000;    0.000
296.510; 1278.075;    0.000;    0.000
296.574; 1232.075;    0.000;    0.000
296.637; 1253.075;    0.000;    0.000
296.701; 1261.075;    0.000;    0.000
296.764; 1228.075;    0.000;    0.000
296.828; 1267.075;    0.000;    0.000
296.891; 1174.075;    0.000;    0.000
296.955; 1179.075;    0.000;    0.000
297.018; 1177.075;    0.000;    0.000
297.082; 1222.075;    0.000;    0.000
297.145; 1208.075;    0.000;    0.000
297.209; 1193.075;    0.000;    0.000
297.272; 1260.075;    0.000;    0.000
297.336; 1217.075;    0.000;    0.000
297.399; 1255.075;    0.000;    0.000
297.463; 1236.075;    0.000;    0.000
297.526; 1265.075;    0.000;    0.000
297.590; 1116.075;    0.000;    0.000
297.653; 1265.075;    0.000;    0.000
297.717; 1286.075;    0.000;    0.000
297.780; 1146.075;    0.000;    0.000
297.843; 1195.075;    0.000;    0.000
297.907; 1128.075;    0.000;    0.000
297.970; 1217.075;    0.000;    0.000
298.034; 1189.075;    0.000;    0.000
298.097; 1195.075;    0.000;    0.000
298.160; 1172.075;    0.000;    0.000
298.224; 1154.075;    0.000;    0.000
298.287; 1183.075;    0.000;    0.000
298.350; 1179.075;    0.000;    0.000
298.414; 1202.075;    0.000;    0.000
298.477; 1188.075;    0.000;    0.000
298.540; 1247.075;    0.000;    0.000
298.604; 1224.075;    0.000;    0.000
298.667; 1198.075;    0.000;    0.000
298.730; 1141.075;    0.000;    0.000
298.794; 1210.075;    0.000;    0.000
298.857; 1144.075;    0.000;    0.000
298.920; 1128.075;    0.000;    0.000
298.984; 1187.075;    0.000;    0.000
299.047; 1197.075;    0.000;    0.000
299.110; 1203.075;    0.000;    0.000
299.173; 1218.075;    0.000;    0.000
299.237; 1154.075;    0.000;    0.000
299.300; 1178.075;    0.000;    0.000
299.363; 1139.075;    0.000;    0.000
299.426; 1202.075;    0.000;    0.000
299.489; 1055.075;    0.000;    0.000
299.553; 1105.075;    0.000;    0.000
299.616; 1215.075;    0.000;    0.000
299.679; 1180.075;    0.000;    0.000
299.742; 1131.075;    0.000;    0.000
299.805; 1160.075;    0.000;    0.000
299.868; 1163.075;    0.000;    0.000
299.932; 1116.075;    0.000;    0.000
299.995; 1162.075;    0.000;    0.000
300.058; 1202.075;    0.000;    0.000
300.121; 1198.075;    0.000;    0.000
300.184; 1154.075;    0.000;    0.000
300.247; 1122.075;    0.000;    0.000
300.310; 1177.075;    0.000;    0.000
300.374; 1129.075;    0.000;    0.000
300.437; 1149.075;    0.000;    0.000
300.500; 1191.075;    0.000;    0.000
300.563; 1201.075;    0.000;    0.000
300.626; 1167.075;    0.000;    0.000
300.689; 1145.075;    0.000;    0.000
300.752; 1145.075;    0.000;    0.000
300.815; 1176.075;    0.000;    0.000
300.878; 1157.075;    0.000;    0.000
300.941; 1194.075;    0.000;    0.000
301.004; 1153.075;    0.000;    0.000
301.067; 1119.075;    0.000;    0.000
301.130; 1106.075;    0.000;    0.000
301.193; 1183.075;    0.000;    0.000
301.256; 1163.075;    0.000;    0.000
301.319; 1235.075;    0.000;    0.000
301.382; 1206.075;    0.000;    0.000
301.445; 1205.075;    0.000;    0.000
301.508; 1150.075;    0.000;    0.000
301.571; 1120.075;    0.000;    0.000
301.634; 1180.075;    0.000;    0.000
301.697; 1143.075;    0.000;    0.000
301.760; 1191.075;    0.000;    0.000
301.823; 1135.075;    0.000;    0.000
301.885; 1094.075;    0.000;    0.000
301.948; 1112.075;    0.000;    0.000
302.011; 1186.075;    0.000;    0.000
302.074; 1182.075;    0.000;    0.000
302.137; 1116.075;    0.000;    0.000
302.200; 1175.075;    0.000;    0.000
302.263; 1148.075;    0.000;    0.000
302.326; 1191.075;    0.000;    0.000
302.388; 1177.075;    0.000;    0.000
302.451; 1230.075;    0.000;    0.000
302.514; 1084.075;    0.000;    0.000
302.577; 1238.075;    0.000;    0.000
302.640; 1196.075;    0.000;    0.000
302.703; 1133.075;    0.000;    0.000
302.765; 1205.075;    0.000;    0.000
302.828; 1270.075;    0.000;    0.000
302.891; 1237.075;    0.000;    0.000
302.954; 1210.075;    0.000;    0.000
303.016; 1209.075;    0.000;    0.000
303.079; 1193.075;    0.000;    0.000
303.142; 1247.075;    0.000;    0.000
303.205; 1263.075;    0.000;    0.000
303.267; 1221.075;    0.000;    0.000
303.330; 1223.075;    0.000;    0.000
303.393; 1237.075;    0.000;    0.000
303.456; 1248.075;    0.000;    0.000
303.518; 1256.075;    0.000;    0.000
303.581; 1245.075;    0.000;    0.000
303.644; 1250.075;    0.000;    0.000
303.706; 1259.075;    0.000;    0.000
303.769; 1294.075;    0.000;    0.000
303.832; 1246.075;    0.000;    0.000
303.894; 1275.075;    0.000;    0.000
303.957; 1259.075;    0.000;    0.000
304.020; 1238.075;    0.000;    0.000
304.082; 1265.075;    0.000;    0.000
304.145; 1319.075;    0.000;    0.000
304.207; 1234.075;    0.000;    0.000
304.270; 1252.075;    0.000;    0.000
304.333; 1239.075;    0.000;    0.000
304.395; 1271.075;    0.000;    0.000
304.458; 1276.075;    0.000;    0.000
304.520; 1297.075;    0.000;    0.000
304.583; 1278.075;    0.000;    0.000
304.646; 1292.075;    0.000;    0.000
304.708; 1288.075;    0.000;    0.000
304.771; 1302.075;    0.000;    0.000
304.833; 1265.075;    0.000;    0.000
304.896; 1343.075;    0.000;    0.000
304.958; 1292.075;    0.000;    0.000
305.021; 1346.075;    0.000;    0.000
305.083; 1331.075;    0.000;    0.000
305.146; 1391.075;    0.000;    0.000
305.208; 1280.075;    0.000;    0.000
305.271; 1320.075;    0.000;    0.000
305.333; 1369.075;    0.000;    0.000
305.396; 1360.075;    0.000;    0.000
305.458; 1330.075;    0.000;    0.000
305.520; 1356.075;    0.000;    0.000
305.583; 1364.075;    0.000;    0.000
305.645; 1377.075;    0.000;    0.000
305.708; 1348.075;    0.000;    0.000
305.770; 1433.075;    0.000;    0.000
305.833; 1360.075;    0.000;    0.000
305.895; 1402.075;    0.000;    0.000
305.957; 1321.075;    0.000;    0.000
306.020; 1324.075;    0.000;    0.000
306.082; 1373.075;    0.000;    0.000
306.144; 1360.075;    0.000;    0.000
306.207; 1373.075;    0.000;    0.000
306.269; 1387.075;    0.000;    0.000
306.331; 1354.075;    0.000;    0.000
306.394; 1347.075;    0.000;    0.000
306.456; 1340.075;    0.000;    0.000
306.518; 1351.075;    0.000;    0.000
306.581; 1302.075;    0.000;    0.000
306.643; 1331.075;    0.000;    0.000
306.705; 1382.075;    0.000;    0.000
306.768; 1432.075;    0.000;    0.000
306.830; 1418.075;    0.000;    0.000
306.892; 1441.075;    0.000;    0.000
306.954; 1504.075;    0.000;    0.000
307.017; 1411.075;    0.000;    0.000
307.079; 1404.075;    0.000;    0.000
307.141; 1469.075;    0.000;    0.000
307.203; 1441.075;    0.000;    0.000
307.266; 1406.075;    0.000;    0.000
307.328; 1412.075;    0.000;    0.000
307.390; 1452.075;    0.000;    0.000
307.452; 1447.075;    0.000;    0.000
307.514; 1537.075;    0.000;    0.000
307.577; 1437.075;    0.000;    0.000
307.639; 1446.075;    0.000;    0.000
307.701; 1506.075;    0.000;    0.000
307.763; 1506.075;    0.000;    0.000
307.825; 1543.075;    0.000;    0.000
307.887; 1509.075;    0.000;    0.000
307.949; 1537.075;    0.000;    0.000
308.011; 1543.075;    0.000;    0.000
308.074; 1529.075;    0.000;    0.000
308.136; 1582.075;    0.000;    0.000
308.198; 1501.075;    0.000;    0.000
308.260; 1555.075;    0.000;    0.000
308.322; 1620.075;    0.000;    0.000
308.384; 1525.075;    0.000;    0.000
308.446; 1597.075;    0.000;    0.000
308.508; 1657.075;    0.000;    0.000
308.570; 1626.075;    0.000;    0.000
308.632; 1586.075;    0.000;    0.000
308.694; 1609.075;    0.000;    0.000
308.756; 1645.075;    0.000;    0.000
308.818; 1605.075;    0.000;    0.000
308.880; 1677.075;    0.000;    0.000
308.942; 1637.075;    0.000;    0.000
309.004; 1741.075;    0.000;    0.000
309.066; 1631.075;    0.000;    0.000
309.128; 1627.075;    0.000;    0.000
309.190; 1741.075;    0.000;    0.000
309.252; 1727.075;    0.000;    0.000
309.314; 1755.075;    0.000;    0.000
309.376; 1848.075;    0.000;    0.000
309.438; 1836.075;    0.000;    0.000
309.500; 1731.075;    0.000;    0.000
309.562; 1750.075;    0.000;    0.000
309.624; 1798.075;    0.000;    0.000
309.686; 1854.075;    0.000;    0.000
309.747; 1864.075;    0.000;    0.000
309.809; 1842.075;    0.000;    0.000
309.871; 1809.075;    0.000;    0.000
309.933; 1767.075;    0.000;    0.000
309.995; 1731.075;    0.000;    0.000
310.057; 1740.075;    0.000;    0.000
310.119; 1775.075;    0.000;    0.000
310.180; 1751.075;    0.000;    0.000
310.242; 1660.075;    0.000;    0.000
310.304; 1696.075;    0.000;    0.000
310.366; 1696.075;    0.000;    0.000
310.428; 1674.075;    0.000;    0.000
310.489; 1706.075;    0.000;    0.000
310.551; 1684.075;    0.000;    0.000
310.613; 1624.075;    0.000;    0.000
310.675; 1724.075;    0.000;    0.000
310.737; 1701.075;    0.000;    0.000
310.798; 1679.075;    0.000;    0.000
310.860; 1656.075;    0.000;    0.000
310.922; 1638.075;    0.000;    0.000
310.983; 1634.075;    0.000;    0.000
311.045; 1601.075;    0.000;    0.000
311.107; 1646.075;    0.000;    0.000
311.169; 1616.075;    0.000;    0.000
311.230; 1627.075;    0.000;    0.000
311.292; 1683.075;    0.000;    0.000
311.354; 1645.075;    0.000;    0.000
311.415; 1697.075;    0.000;    0.000
311.477; 1720.075;    0.000;    0.000
311.539; 1644.075;    0.000;    0.000
311.600; 1660.075;    0.000;    0.000
311.662; 1727.075;    0.000;    0.000
311.724; 1671.075;    0.000;    0.000
311.785; 1654.075;    0.000;    0.000
311.847; 1566.075;    0.000;    0.000
311.908; 1632.075;    0.000;    0.000
311.970; 1702.075;    0.000;    0.000
312.032; 1590.075;    0.000;    0.000
312.093; 1697.075;    0.000;    0.000
312.155; 1675.075;    0.000;    0.000
312.216; 1688.075;    0.000;    0.000
312.278; 1715.075;    0.000;    0.000
312.339; 1701.075;    0.000;    0.000
312.401; 1621.075;    0.000;    0.000
312.462; 1688.075;    0.000;    0.000
312.524; 1670.075;    0.000;    0.000
312.585; 1690.075;    0.000;    0.000
312.647; 1685.075;    0.000;    0.000
312.708; 1637.075;    0.000;    0.000
312.770; 1654.075;    0.000;    0.000
312.831; 1639.075;    0.000;    0.000
312.893; 1705.075;    0.000;    0.000
312.954; 1689.075;    0.000;    0.000
313.016; 1675.075;    0.000;    0.000
313.077; 1667.075;    0.000;    0.000
313.139; 1694.075;    0.000;    0.000
313.200; 1629.075;    0.000;    0.000
313.261; 1767.075;    0.000;    0.000
313.323; 1792.075;    0.000;    0.000
313.384; 1736.075;    0.000;    0.000
313.446; 1789.075;    0.000;    0.000
313.507; 1745.075;    0.000;    0.000
313.568; 1682.075;    0.000;    0.000
313.630; 1690.075;    0.000;    0.000
313.691; 1666.075;    0.000;    0.000
313.752; 1697.075;    0.000;    0.000
313.814; 1767.075;    0.000;    0.000
313.875; 1759.075;    0.000;    0.000
313.936; 1751.075;    0.000;    0.000
313.998; 1669.075;    0.000;    0.000
314.059; 1691.075;    0.000;    0.000
314.120; 1688.075;    0.000;    0.000
314.182; 1762.075;    0.000;    0.000
314.243; 1724.075;    0.000;    0.000
314.304; 1691.075;    0.000;    0.000
314.365; 1760.075;    0.000;    0.000
314.427; 1718.075;    0.000;    0.000
314.488; 1683.075;    0.000;    0.000
314.549; 1746.075;    0.000;    0.000
314.610; 1756.075;    0.000;    0.000
314.672; 1674.075;    0.000;    0.000
314.733; 1705.075;    0.000;    0.000
314.794; 1718.075;    0.000;    0.000
314.855; 1809.075;    0.000;    0.000
314.916; 1702.075;    0.000;    0.000
314.978; 1731.075;    0.000;    0.000
315.039; 1695.075;    0.000;    0.000
315.100; 1779.075;    0.000;    0.000
315.161; 1685.075;    0.000;    0.000
315.222; 1725.075;    0.000;    0.000
315.283; 1746.075;    0.000;    0.000
315.345; 1730.075;    0.000;    0.000
315.406; 1784.075;    0.000;    0.000
315.467; 1731.075;    0.000;    0.000
315.528; 1883.075;    0.000;    0.000
315.589; 1855.075;    0.000;    0.000
315.650; 1787.075;    0.000;    0.000
315.711; 1782.075;    0.000;    0.000
315.772; 1718.075;    0.000;    0.000
315.833; 1732.075;    0.000;    0.000
315.894; 1714.075;    0.000;    0.000
315.955; 1774.075;    0.000;    0.000
316.016; 1797.075;    0.000;    0.000
316.078; 1727.075;    0.000;    0.000
316.139; 1858.075;    0.000;    0.000
316.200; 1731.075;    0.000;    0.000
316.261; 1751.075;    0.000;    0.000
316.322; 1793.075;    0.000;    0.000
316.383; 1806.075;    0.000;    0.000
316.444; 1865.075;    0.000;    0.000
316.504; 1738.075;    0.000;    0.000
316.565; 1822.075;    0.000;    0.000
316.626; 1769.075;    0.000;    0.000
316.687; 1863.075;    0.000;    0.000
316.748; 1833.075;    0.000;    0.000
316.809; 1693.075;    0.000;    0.000
316.870; 1717.075;    0.000;    0.000
316.931; 1815.075;    0.000;    0.000
316.992; 1788.075;    0.000;    0.000
317.053; 1765.075;    0.000;    0.000
317.114; 1825.075;    0.000;    0.000
317.175; 1879.075;    0.000;    0.000
317.235; 1820.075;    0.000;    0.000
317.296; 1800.075;    0.000;    0.000
317.357; 1821.075;    0.000;    0.000
317.418; 1837.075;    0.000;    0.000
317.479; 1844.075;    0.000;    0.000
317.540; 1818.075;    0.000;    0.000
317.601; 1772.075;    0.000;    0.000
317.661; 1755.075;    0.000;    0.000
317.722; 1821.075;    0.000;    0.000
317.783; 1750.075;    0.000;    0.000
317.844; 1891.075;    0.000;    0.000
317.904; 1748.075;    0.000;    0.000
317.965; 1784.075;    0.000;    0.000
318.026; 1841.075;    0.000;    0.000
318.087; 1787.075;    0.000;    0.000
318.148; 1804.075;    0.000;    0.000
318.208; 1810.075;    0.000;    0.000
318.269; 1802.075;    0.000;    0.000
318.330; 1865.075;    0.000;    0.000
318.390; 1832.075;    0.000;    0.000
318.451; 1870.075;    0.000;    0.000
318.512; 1887.075;    0.000;    0.000
318.572; 1901.075;    0.000;    0.000
318.633; 1869.075;    0.000;    0.000
318.694; 1906.075;    0.000;    0.000
318.754; 1817.075;    0.000;    0.000
318.815; 1808.075;    0.000;    0.000
318.876; 1787.075;    0.000;    0.000
318.936; 1845.075;    0.000;    0.000
318.997; 1803.075;    0.000;    0.000
319.058; 1867.075;    0.000;    0.000
319.118; 1826.075;    0.000;    0.000
319.179; 1844.075;    0.000;    0.000
319.239; 1873.075;    0.000;    0.000
319.300; 1890.075;    0.000;    0.000
319.361; 1826.075;    0.000;    0.000
319.421; 1799.075;    0.000;    0.000
319.482; 1768.075;    0.000;    0.000
319.542; 1815.075;    0.000;    0.000
319.603; 1797.075;    0.000;    0.000
319.663; 1865.075;    0.000;    0.000
319.724; 1726.075;    0.000;    0.000
319.784; 1824.075;    0.000;    0.000
319.845; 1866.075;    0.000;    0.000
319.905; 1841.075;    0.000;    0.000
319.966; 1823.075;    0.000;    0.000
320.026; 1853.075;    0.000;    0.000
320.087; 1840.075;    0.000;    0.000
320.147; 1873.075;    0.000;    0.000
320.208; 1869.075;    0.000;    0.000
320.268; 1764.075;    0.000;    0.000
320.329; 1867.075;    0.000;    0.000
320.389; 1936.075;    0.000;    0.000
320.449; 1907.075;    0.000;    0.000
320.510; 1899.075;    0.000;    0.000
320.570; 1858.075;    0.000;    0.000
320.631; 1892.075;    0.000;    0.000
320.691; 1874.075;    0.000;    0.000
320.751; 1862.075;    0.000;    0.000
320.812; 1918.075;    0.000;    0.000
320.872; 1917.075;    0.000;    0.000
320.932; 1958.075;    0.000;    0.000
320.993; 1865.075;    0.000;    0.000
321.053; 1921.075;    0.000;    0.000
321.113; 1877.075;    0.000;    0.000
321.174; 1987.075;    0.000;    0.000
321.234; 1843.075;    0.000;    0.000
321.294; 1891.075;    0.000;    0.000
321.355; 1903.075;    0.000;    0.000
321.415; 1953.075;    0.000;    0.000
321.475; 1822.075;    0.000;    0.000
321.535; 1952.075;    0.000;    0.000
321.596; 1968.075;    0.000;    0.000
321.656; 1994.075;    0.000;    0.000
321.716; 1913.075;    0.000;    0.000
321.776; 2039.075;    0.000;    0.000
321.837; 1972.075;    0.000;    0.000
321.897; 2010.075;    0.000;    0.000
321.957; 1895.075;    0.000;    0.000
322.017; 1957.075;    0.000;    0.000
322.077; 2064.075;    0.000;    0.000
322.138; 1978.075;    0.000;    0.000
322.198; 1963.075;    0.000;    0.000
322.258; 1888.075;    0.000;    0.000
322.318; 1971.075;    0.000;    0.000
322.378; 2004.075;    0.000;    0.000
322.438; 1967.075;    0.000;    0.000
322.499; 1986.075;    0.000;    0.000
322.559; 1878.075;    0.000;    0.000
322.619; 1918.075;    0.000;    0.000
322.679; 1952.075;    0.000;    0.000
322.739; 2078.075;    0.000;    0.000
322.799; 1953.075;    0.000;    0.000
322.859; 1907.075;    0.000;    0.000
322.919; 2005.075;    0.000;    0.000
322.979; 2012.075;    0.000;    0.000
323.039; 1917.075;    0.000;    0.000
323.099; 1831.075;    0.000;    0.000
323.159; 1894.075;    0.000;    0.000
323.219; 1971.075;    0.000;    0.000
323.279; 1952.075;    0.000;    0.000
323.339; 1953.075;    0.000;    0.000
323.399; 2094.075;    0.000;    0.000
323.459; 1985.075;    0.000;    0.000
323.519; 2050.075;    0.000;    0.000
323.579; 2008.075;    0.000;    0.000
323.639; 2025.075;    0.000;    0.000
323.699; 2087.075;    0.000;    0.000
323.759; 2043.075;    0.000;    0.000
323.819; 2005.075;    0.000;    0.000
323.879; 2046.075;    0.000;    0.000
323.939; 2041.075;    0.000;    0.000
323.999; 1954.075;    0.000;    0.000
324.059; 2040.075;    0.000;    0.000
324.119; 2011.075;    0.000;    0.000
324.179; 1943.075;    0.000;    0.000
324.238; 2027.075;    0.000;    0.000
324.298; 1969.075;    0.000;    0.000
324.358; 1982.075;    0.000;    0.000
324.418; 1954.075;    0.000;    0.000
324.478; 1994.075;    0.000;    0.000
324.538; 1934.075;    0.000;    0.000
324.597; 1995.075;    0.000;    0.000
324.657; 1971.075;    0.000;    0.000
324.717; 2017.075;    0.000;    0.000
324.777; 1957.075;    0.000;    0.000
324.837; 1931.075;    0.000;    0.000
324.896; 2002.075;    0.000;    0.000
324.956; 2044.075;    0.000;    0.000
325.016; 1969.075;    0.000;    0.000
325.076; 2011.075;    0.000;    0.000
325.135; 1976.075;    0.000;    0.000
325.195; 2025.075;    0.000;    0.000
325.255; 1982.075;    0.000;    0.000
325.315; 1999.075;    0.000;    0.000
325.374; 2070.075;    0.000;    0.000
325.434; 1970.075;    0.000;    0.000
325.494; 1941.075;    0.000;    0.000
325.553; 1927.075;    0.000;    0.000
325.613; 1934.075;    0.000;    0.000
325.673; 1937.075;    0.000;    0.000
325.732; 1941.075;    0.000;    0.000
325.792; 1923.075;    0.000;    0.000
325.852; 1928.075;    0.000;    0.000
325.911; 1965.075;    0.000;    0.000
325.971; 1989.075;    0.000;    0.000
326.031; 1987.075;    0.000;    0.000
326.090; 1954.075;    0.000;    0.000
326.150; 1908.075;    0.000;    0.000
326.209; 1895.075;    0.000;    0.000
326.269; 1929.075;    0.000;    0.000
326.328; 1942.075;    0.000;    0.000
326.388; 1985.075;    0.000;    0.000
326.448; 2112.075;    0.000;    0.000
326.507; 2016.075;    0.000;    0.000
326.567; 1969.075;    0.000;    0.000
326.626; 2031.075;    0.000;    0.000
326.686; 1967.075;    0.000;    0.000
326.745; 1976.075;    0.000;    0.000
326.805; 1950.075;    0.000;    0.000
326.864; 2033.075;    0.000;    0.000
326.924; 1976.075;    0.000;    0.000
326.983; 1948.075;    0.000;    0.000
327.043; 1962.075;    0.000;    0.000
327.102; 1873.075;    0.000;    0.000
327.161; 1993.075;    0.000;    0.000
327.221; 2104.075;    0.000;    0.000
327.280; 2038.075;    0.000;    0.000
327.340; 2135.075;    0.000;    0.000
327.399; 2063.075;    0.000;    0.000
327.459; 2073.075;    0.000;    0.000
327.518; 1984.075;    0.000;    0.000
327.577; 1983.075;    0.000;    0.000
327.637; 2030.075;    0.000;    0.000
327.696; 2006.075;    0.000;    0.000
327.755; 1981.075;    0.000;    0.000
327.815; 1998.075;    0.000;    0.000
327.874; 2012.075;    0.000;    0.000
327.933; 1983.075;    0.000;    0.000
327.993; 2071.075;    0.000;    0.000
328.052; 1961.075;    0.000;    0.000
328.111; 2077.075;    0.000;    0.000
328.171; 1990.075;    0.000;    0.000
328.230; 2028.075;    0.000;    0.000
328.289; 2022.075;    0.000;    0.000
328.349; 2007.075;    0.000;    0.000
328.408; 2001.075;    0.000;    0.000
328.467; 2013.075;    0.000;    0.000
328.526; 2018.075;    0.000;    0.000
328.586; 1983.075;    0.000;    0.000
328.645; 2054.075;    0.000;    0.000
328.704; 2047.075;    0.000;    0.000
328.763; 1947.075;    0.000;    0.000
328.822; 1991.075;    0.000;    0.000
328.882; 2088.075;    0.000;    0.000
328.941; 2051.075;    0.000;    0.000
329.000; 2098.075;    0.000;    0.000
329.059; 2106.075;    0.000;    0.000
329.118; 2128.075;    0.000;    0.000
329.177; 2086.075;    0.000;    0.000
329.237; 2110.075;    0.000;    0.000
329.296; 2125.075;    0.000;    0.000
329.355; 2049.075;    0.000;    0.000
329.414; 2094.075;    0.000;    0.000
329.473; 2157.075;    0.000;    0.000
329.532; 2105.075;    0.000;    0.000
329.591; 2167.075;    0.000;    0.000
329.650; 2145.075;    0.000;    0.000
329.709; 2177.075;    0.000;    0.000
329.768; 2283.075;    0.000;    0.000
329.827; 2293.075;    0.000;    0.000
329.886; 2314.075;    0.000;    0.000
329.945; 2459.075;    0.000;    0.000
330.004; 2405.075;    0.000;    0.000
330.063; 2420.075;    0.000;    0.000
330.122; 2497.075;    0.000;    0.000
330.181; 2599.075;    0.000;    0.000
330.240; 2552.075;    0.000;    0.000
330.299; 2569.075;    0.000;    0.000
330.358; 2386.075;    0.000;    0.000
330.417; 2331.075;    0.000;    0.000
330.476; 2292.075;    0.000;    0.000
330.535; 2232.075;    0.000;    0.000
330.594; 2213.075;    0.000;    0.000
330.653; 2103.075;    0.000;    0.000
330.712; 2216.075;    0.000;    0.000
330.771; 2132.075;    0.000;    0.000
330.830; 2120.075;    0.000;    0.000
330.889; 2165.075;    0.000;    0.000
330.948; 2180.075;    0.000;    0.000
331.006; 2212.075;    0.000;    0.000
331.065; 2192.075;    0.000;    0.000
331.124; 2120.075;    0.000;    0.000
331.183; 2047.075;    0.000;    0.000
331.242; 2092.075;    0.000;    0.000
331.301; 2164.075;    0.000;    0.000
331.359; 2154.075;    0.000;    0.000
331.418; 2118.075;    0.000;    0.000
331.477; 2110.075;    0.000;    0.000
331.536; 2052.075;    0.000;    0.000
331.595; 2136.075;    0.000;    0.000
331.653; 2037.075;    0.000;    0.000
331.712; 2107.075;    0.000;    0.000
331.771; 1993.075;    0.000;    0.000
331.830; 2070.075;    0.000;    0.000
331.888; 2050.075;    0.000;    0.000
331.947; 1975.075;    0.000;    0.000
332.006; 2028.075;    0.000;    0.000
332.065; 2049.075;    0.000;    0.000
332.123; 2087.075;    0.000;    0.000
332.182; 2029.075;    0.000;    0.000
332.241; 2068.075;    0.000;    0.000
332.299; 2080.075;    0.000;    0.000
332.358; 2153.075;    0.000;    0.000
332.417; 2084.075;    0.000;    0.000
332.475; 2091.075;    0.000;    0.000
332.534; 2104.075;    0.000;    0.000
332.592; 2172.075;    0.000;    0.000
332.651; 2085.075;    0.000;    0.000
332.710; 2074.075;    0.000;    0.000
332.768; 2066.075;    0.000;    0.000
332.827; 1990.075;    0.000;    0.000
332.885; 2054.075;    0.000;    0.000
332.944; 2059.075;    0.000;    0.000
333.003; 2115.075;    0.000;    0.000
333.061; 2081.075;    0.000;    0.000
333.120; 2111.075;    0.000;    0.000
333.178; 2257.075;    0.000;    0.000
333.237; 2286.075;    0.000;    0.000
333.295; 2178.075;    0.000;    0.000
333.354; 2219.075;    0.000;    0.000
333.412; 2208.075;    0.000;    0.000
333.471; 2273.075;    0.000;    0.000
333.529; 2357.075;    0.000;    0.000
333.588; 2427.075;    0.000;    0.000
333.646; 2352.075;    0.000;    0.000
333.705; 2496.075;    0.000;    0.000
333.763; 2403.075;    0.000;    0.000
333.822; 2321.075;    0.000;    0.000
333.880; 2356.075;    0.000;    0.000
333.938; 2342.075;    0.000;    0.000
333.997; 2298.075;    0.000;    0.000
334.055; 2310.075;    0.000;    0.000
334.114; 2311.075;    0.000;    0.000
334.172; 2208.075;    0.000;    0.000
334.230; 2205.075;    0.000;    0.000
334.289; 2241.075;    0.000;    0.000
334.347; 2343.075;    0.000;    0.000
334.405; 2284.075;    0.000;    0.000
334.464; 2318.075;    0.000;    0.000
334.522; 2267.075;    0.000;    0.000
334.580; 2185.075;    0.000;    0.000
334.639; 2294.075;    0.000;    0.000
334.697; 2294.075;    0.000;    0.000
334.755; 2199.075;    0.000;    0.000
334.814; 2222.075;    0.000;    0.000
334.872; 2239.075;    0.000;    0.000
334.930; 2121.075;    0.000;    0.000
334.988; 2205.075;    0.000;    0.000
335.047; 2216.075;    0.000;    0.000
335.105; 2285.075;    0.000;    0.000
335.163; 2204.075;    0.000;    0.000
335.221; 2313.075;    0.000;    0.000
335.280; 2343.075;    0.000;    0.000
335.338; 2262.075;    0.000;    0.000
335.396; 2257.075;    0.000;    0.000
335.454; 2158.075;    0.000;    0.000
335.512; 2275.075;    0.000;    0.000
335.570; 2234.075;    0.000;    0.000
335.629; 2311.075;    0.000;    0.000
335.687; 2453.075;    0.000;    0.000
335.745; 2395.075;    0.000;    0.000
335.803; 2472.075;    0.000;    0.000
335.861; 2389.075;    0.000;    0.000
335.919; 2460.075;    0.000;    0.000
335.977; 2417.075;    0.000;    0.000
336.035; 2438.075;    0.000;    0.000
336.094; 2464.075;    0.000;    0.000
336.152; 2549.075;    0.000;    0.000
336.210; 2606.075;    0.000;    0.000
336.268; 2527.075;    0.000;    0.000
336.326; 2539.075;    0.000;    0.000
336.384; 2520.075;    0.000;    0.000
336.442; 2473.075;    0.000;    0.000
336.500; 2377.075;    0.000;    0.000
336.558; 2442.075;    0.000;    0.000
336.616; 2442.075;    0.000;    0.000
336.674; 2520.075;    0.000;    0.000
336.732; 2445.075;    0.000;    0.000
336.790; 2489.075;    0.000;    0.000
336.848; 2455.075;    0.000;    0.000
336.906; 2517.075;    0.000;    0.000
336.964; 2442.075;    0.000;    0.000
337.022; 2413.075;    0.000;    0.000
337.080; 2471.075;    0.000;    0.000
337.138; 2416.075;    0.000;    0.000
337.195; 2447.075;    0.000;    0.000
337.253; 2493.075;    0.000;    0.000
337.311; 2475.075;    0.000;    0.000
337.369; 2408.075;    0.000;    0.000
337.427; 2388.075;    0.000;    0.000
337.485; 2284.075;    0.000;    0.000
337.543; 2355.075;    0.000;    0.000
337.601; 2418.075;    0.000;    0.000
337.658; 2378.075;    0.000;    0.000
337.716; 2338.075;    0.000;    0.000
337.774; 2390.075;    0.000;    0.000
337.832; 2270.075;    0.000;    0.000
337.890; 2239.075;    0.000;    0.000
337.947; 2301.075;    0.000;    0.000
338.005; 2247.075;    0.000;    0.000
338.063; 2327.075;    0.000;    0.000
338.121; 2335.075;    0.000;    0.000
338.178; 2400.075;    0.000;    0.000
338.236; 2503.075;    0.000;    0.000
338.294; 2430.075;    0.000;    0.000
338.352; 2446.075;    0.000;    0.000
338.409; 2398.075;    0.000;    0.000
338.467; 2298.075;    0.000;    0.000
338.525; 2218.075;    0.000;    0.000
338.583; 2239.075;    0.000;    0.000
338.640; 2247.075;    0.000;    0.000
338.698; 2353.075;    0.000;    0.000
338.756; 2303.075;    0.000;    0.000
338.813; 2375.075;    0.000;    0.000
338.871; 2302.075;    0.000;    0.000
338.928; 2402.075;    0.000;    0.000
338.986; 2353.075;    0.000;    0.000
339.044; 2416.075;    0.000;    0.000
339.101; 2396.075;    0.000;    0.000
339.159; 2425.075;    0.000;    0.000
339.217; 2295.075;    0.000;    0.000
339.274; 2397.075;    0.000;    0.000
339.332; 2356.075;    0.000;    0.000
339.389; 2314.075;    0.000;    0.000
339.447; 2255.075;    0.000;    0.000
339.504; 2252.075;    0.000;    0.000
339.562; 2377.075;    0.000;    0.000
339.619; 2370.075;    0.000;    0.000
339.677; 2313.075;    0.000;    0.000
339.734; 2276.075;    0.000;    0.000
339.792; 2300.075;    0.000;    0.000
339.849; 2345.075;    0.000;    0.000
339.907; 2441.075;    0.000;    0.000
339.964; 2303.075;    0.000;    0.000
340.022; 2376.075;    0.000;    0.000
340.079; 2432.075;    0.000;    0.000
340.137; 2355.075;    0.000;    0.000
340.194; 2449.075;    0.000;    0.000
340.252; 2382.075;    0.000;    0.000
340.309; 2366.075;    0.000;    0.000
340.366; 2394.075;    0.000;    0.000
340.424; 2336.075;    0.000;    0.000
340.481; 2275.075;    0.000;    0.000
340.538; 2385.075;    0.000;    0.000
340.596; 2369.075;    0.000;    0.000
340.653; 2453.075;    0.000;    0.000
340.711; 2478.075;    0.000;    0.000
340.768; 2512.075;    0.000;    0.000
340.825; 2475.075;    0.000;    0.000
340.883; 2497.075;    0.000;    0.000
340.940; 2469.075;    0.000;    0.000
340.997; 2397.075;    0.000;    0.000
341.054; 2322.075;    0.000;    0.000
341.112; 2416.075;    0.000;    0.000
341.169; 2453.075;    0.000;    0.000
341.226; 2415.075;    0.000;    0.000
341.284; 2501.075;    0.000;    0.000
341.341; 2517.075;    0.000;    0.000
341.398; 2432.075;    0.000;    0.000
341.455; 2437.075;    0.000;    0.000
341.512; 2486.075;    0.000;    0.000
341.570; 2517.075;    0.000;    0.000
341.627; 2459.075;    0.000;    0.000
341.684; 2418.075;    0.000;    0.000
341.741; 2497.075;    0.000;    0.000
341.798; 2491.075;    0.000;    0.000
341.856; 2445.075;    0.000;    0.000
341.913; 2478.075;    0.000;    0.000
341.970; 2495.075;    0.000;    0.000
342.027; 2453.075;    0.000;    0.000
342.084; 2554.075;    0.000;    0.000
342.141; 2599.075;    0.000;    0.000
342.198; 2673.075;    0.000;    0.000
342.255; 2542.075;    0.000;    0.000
342.313; 2515.075;    0.000;    0.000
342.370; 2501.075;    0.000;    0.000
342.427; 2388.075;    0.000;    0.000
342.484; 2353.075;    0.000;    0.000
342.541; 2349.075;    0.000;    0.000
342.598; 2404.075;    0.000;    0.000
342.655; 2375.075;    0.000;    0.000
342.712; 2436.075;    0.000;    0.000
342.769; 2383.075;    0.000;    0.000
342.826; 2385.075;    0.000;    0.000
342.883; 2310.075;    0.000;    0.000
342.940; 2340.075;    0.000;    0.000
342.997; 2364.075;    0.000;    0.000
343.054; 2360.075;    0.000;    0.000
343.111; 2339.075;    0.000;    0.000
343.168; 2331.075;    0.000;    0.000
343.225; 2320.075;    0.000;    0.000
343.282; 2372.075;    0.000;    0.000
343.339; 2440.075;    0.000;    0.000
343.395; 2392.075;    0.000;    0.000
343.452; 2532.075;    0.000;    0.000
343.509; 2432.075;    0.000;    0.000
343.566; 2400.075;    0.000;    0.000
343.623; 2416.075;    0.000;    0.000
343.680; 2370.075;    0.000;    0.000
343.737; 2414.075;    0.000;    0.000
343.794; 2360.075;    0.000;    0.000
343.850; 2424.075;    0.000;    0.000
343.907; 2358.075;    0.000;    0.000
343.964; 2397.075;    0.000;    0.000
344.021; 2451.075;    0.000;    0.000
344.078; 2390.075;    0.000;    0.000
344.134; 2542.075;    0.000;    0.000
344.191; 2535.075;    0.000;    0.000
344.248; 2513.075;    0.000;    0.000
344.305; 2518.075;    0.000;    0.000
344.361; 2451.075;    0.000;    0.000
344.418; 2543.075;    0.000;    0.000
344.475; 2436.075;    0.000;    0.000
344.532; 2435.075;    0.000;    0.000
344.588; 2463.075;    0.000;    0.000
344.645; 2412.075;    0.000;    0.000
344.702; 2392.075;    0.000;    0.000
344.758; 2448.075;    0.000;    0.000
344.815; 2356.075;    0.000;    0.000
344.872; 2348.075;    0.000;    0.000
344.928; 2386.075;    0.000;    0.000
344.985; 2462.075;    0.000;    0.000
345.042; 2464.075;    0.000;    0.000
345.098; 2606.075;    0.000;    0.000
345.155; 2484.075;    0.000;    0.000
345.212; 2401.075;    0.000;    0.000
345.268; 2467.075;    0.000;    0.000
345.325; 2424.075;    0.000;    0.000
345.381; 2555.075;    0.000;    0.000
345.438; 2540.075;    0.000;    0.000
345.495; 2523.075;    0.000;    0.000
345.551; 2544.075;    0.000;    0.000
345.608; 2452.075;    0.000;    0.000
345.664; 2458.075;    0.000;    0.000
345.721; 2478.075;    0.000;    0.000
345.777; 2364.075;    0.000;    0.000
345.834; 2332.075;    0.000;    0.000
345.890; 2320.075;    0.000;    0.000
345.947; 2467.075;    0.000;    0.000
346.003; 2447.075;    0.000;    0.000
346.060; 2488.075;    0.000;    0.000
346.116; 2460.075;    0.000;    0.000
346.173; 2410.075;    0.000;    0.000
346.229; 2450.075;    0.000;    0.000
346.285; 2400.075;    0.000;    0.000
346.342; 2452.075;    0.000;    0.000
346.398; 2514.075;    0.000;    0.000
346.455; 2577.075;    0.000;    0.000
346.511; 2617.075;    0.000;    0.000
346.567; 2680.075;    0.000;    0.000
346.624; 2586.075;    0.000;    0.000
346.680; 2591.075;    0.000;    0.000
346.737; 2615.075;    0.000;    0.000
346.793; 2599.075;    0.000;    0.000
346.849; 2616.075;    0.000;    0.000
346.906; 2705.075;    0.000;    0.000
346.962; 2694.075;    0.000;    0.000
347.018; 2688.075;    0.000;    0.000
347.074; 2618.075;    0.000;    0.000
347.131; 2674.075;    0.000;    0.000
347.187; 2539.075;    0.000;    0.000
347.243; 2639.075;    0.000;    0.000
347.300; 2596.075;    0.000;    0.000
347.356; 2635.075;    0.000;    0.000
347.412; 2645.075;    0.000;    0.000
347.468; 2434.075;    0.000;    0.000
347.524; 2428.075;    0.000;    0.000
347.581; 2442.075;    0.000;    0.000
347.637; 2504.075;    0.000;    0.000
347.693; 2533.075;    0.000;    0.000
347.749; 2469.075;    0.000;    0.000
347.805; 2402.075;    0.000;    0.000
347.862; 2319.075;    0.000;    0.000
347.918; 2418.075;    0.000;    0.000
347.974; 2359.075;    0.000;    0.000
348.030; 2385.075;    0.000;    0.000
348.086; 2415.075;    0.000;    0.000
348.142; 2446.075;    0.000;    0.000
348.198; 2453.075;    0.000;    0.000
348.254; 2532.075;    0.000;    0.000
348.311; 2475.075;    0.000;    0.000
348.367; 2476.075;    0.000;    0.000
348.423; 2359.075;    0.000;    0.000
348.479; 2369.075;    0.000;    0.000
348.535; 2386.075;    0.000;    0.000
348.591; 2468.075;    0.000;    0.000
348.647; 2518.075;    0.000;    0.000
348.703; 2510.075;    0.000;    0.000
348.759; 2427.075;    0.000;    0.000
348.815; 2423.075;    0.000;    0.000
348.871; 2326.075;    0.000;    0.000
348.927; 2541.075;    0.000;    0.000
348.983; 2467.075;    0.000;    0.000
349.039; 2498.075;    0.000;    0.000
349.095; 2446.075;    0.000;    0.000
349.151; 2431.075;    0.000;    0.000
349.207; 2481.075;    0.000;    0.000
349.263; 2582.075;    0.000;    0.000
349.319; 2505.075;    0.000;    0.000
349.374; 2489.075;    0.000;    0.000
349.430; 2512.075;    0.000;    0.000
349.486; 2491.075;    0.000;    0.000
349.542; 2577.075;    0.000;    0.000
349.598; 2505.075;    0.000;    0.000
349.654; 2499.075;    0.000;    0.000
349.710; 2462.075;    0.000;    0.000
349.766; 2538.075;    0.000;    0.000
349.821; 2483.075;    0.000;    0.000
349.877; 2415.075;    0.000;    0.000
349.933; 2544.075;    0.000;    0.000
349.989; 2563.075;    0.000;    0.000
350.045; 2469.075;    0.000;    0.000
350.100; 2484.075;    0.000;    0.000
350.156; 2402.075;    0.000;    0.000
350.212; 2436.075;    0.000;    0.000
350.268; 2484.075;    0.000;    0.000
350.323; 2451.075;    0.000;    0.000
350.379; 2480.075;    0.000;    0.000
350.435; 2387.075;    0.000;    0.000
350.491; 2396.075;    0.000;    0.000
350.546; 2470.075;    0.000;    0.000
350.602; 2380.075;    0.000;    0.000
350.658; 2390.075;    0.000;    0.000
350.713; 2406.075;    0.000;    0.000
350.769; 2368.075;    0.000;    0.000
350.825; 2405.075;    0.000;    0.000
350.880; 2448.075;    0.000;    0.000
350.936; 2479.075;    0.000;    0.000
350.992; 2415.075;    0.000;    0.000
351.047; 2496.075;    0.000;    0.000
351.103; 2477.075;    0.000;    0.000
351.158; 2454.075;    0.000;    0.000
351.214; 2472.075;    0.000;    0.000
351.270; 2378.075;    0.000;    0.000
351.325; 2404.075;    0.000;    0.000
351.381; 2429.075;    0.000;    0.000
351.436; 2517.075;    0.000;    0.000
351.492; 2524.075;    0.000;    0.000
351.547; 2557.075;    0.000;    0.000
351.603; 2656.075;    0.000;    0.000
351.658; 2579.075;    0.000;    0.000
351.714; 2511.075;    0.000;    0.000
351.769; 2474.075;    0.000;    0.000
351.825; 2459.075;    0.000;    0.000
351.880; 2594.075;    0.000;    0.000
351.936; 2528.075;    0.000;    0.000
351.991; 2576.075;    0.000;    0.000
352.047; 2555.075;    0.000;    0.000
352.102; 2486.075;    0.000;    0.000
352.157; 2511.075;    0.000;    0.000
352.213; 2446.075;    0.000;    0.000
352.268; 2472.075;    0.000;    0.000
352.324; 2478.075;    0.000;    0.000
352.379; 2597.075;    0.000;    0.000
352.434; 2576.075;    0.000;    0.000
352.490; 2523.075;    0.000;    0.000
352.545; 2502.075;    0.000;    0.000
352.601; 2521.075;    0.000;    0.000
352.656; 2439.075;    0.000;    0.000
352.711; 2476.075;    0.000;    0.000
352.767; 2368.075;    0.000;    0.000
352.822; 2349.075;    0.000;    0.000
352.877; 2355.075;    0.000;    0.000
352.932; 2462.075;    0.000;    0.000
352.988; 2410.075;    0.000;    0.000
353.043; 2508.075;    0.000;    0.000
353.098; 2561.075;    0.000;    0.000
353.153; 2442.075;    0.000;    0.000
353.209; 2419.075;    0.000;    0.000
353.264; 2401.075;    0.000;    0.000
353.319; 2402.075;    0.000;    0.000
353.374; 2327.075;    0.000;    0.000
353.430; 2433.075;    0.000;    0.000
353.485; 2382.075;    0.000;    0.000
353.540; 2417.075;    0.000;    0.000
353.595; 2399.075;    0.000;    0.000
353.650; 2404.075;    0.000;    0.000
353.705; 2385.075;    0.000;    0.000
353.761; 2339.075;    0.000;    0.000
353.816; 2357.075;    0.000;    0.000
353.871; 2392.075;    0.000;    0.000
353.926; 2258.075;    0.000;    0.000
353.981; 2325.075;    0.000;    0.000
354.036; 2306.075;    0.000;    0.000
354.091; 2363.075;    0.000;    0.000
354.146; 2370.075;    0.000;    0.000
354.201; 2255.075;    0.000;    0.000
354.256; 2359.075;    0.000;    0.000
354.311; 2299.075;    0.000;    0.000
354.367; 2376.075;    0.000;    0.000
354.422; 2391.075;    0.000;    0.000
354.477; 2404.075;    0.000;    0.000
354.532; 2384.075;    0.000;    0.000
354.587; 2356.075;    0.000;    0.000
354.642; 2356.075;    0.000;    0.000
354.697; 2476.075;    0.000;    0.000
354.752; 2390.075;    0.000;    0.000
354.806; 2442.075;    0.000;    0.000
354.861; 2454.075;    0.000;    0.000
354.916; 2384.075;    0.000;    0.000
354.971; 2416.075;    0.000;    0.000
355.026; 2357.075;    0.000;    0.000
355.081; 2369.075;    0.000;    0.000
355.136; 2249.075;    0.000;    0.000
355.191; 2292.075;    0.000;    0.000
355.246; 2230.075;    0.000;    0.000
355.301; 2329.075;    0.000;    0.000
355.356; 2339.075;    0.000;    0.000
355.410; 2385.075;    0.000;    0.000
355.465; 2352.075;    0.000;    0.000
355.520; 2377.075;    0.000;    0.000
355.575; 2303.075;    0.000;    0.000
355.630; 2328.075;    0.000;    0.000
355.684; 2319.075;    0.000;    0.000
355.739; 2340.075;    0.000;    0.000
355.794; 2367.075;    0.000;    0.000
355.849; 2328.075;    0.000;    0.000
355.904; 2344.075;    0.000;    0.000
355.958; 2334.075;    0.000;    0.000
356.013; 2310.075;    0.000;    0.000
356.068; 2374.075;    0.000;    0.000
356.123; 2458.075;    0.000;    0.000
356.177; 2410.075;    0.000;    0.000
356.232; 2475.075;    0.000;    0.000
356.287; 2525.075;    0.000;    0.000
356.341; 2501.075;    0.000;    0.000
356.396; 2313.075;    0.000;    0.000
356.451; 2379.075;    0.000;    0.000
356.505; 2288.075;    0.000;    0.000
356.560; 2307.075;    0.000;    0.000
356.615; 2363.075;    0.000;    0.000
356.669; 2389.075;    0.000;    0.000
356.724; 2370.075;    0.000;    0.000
356.778; 2326.075;    0.000;    0.000
356.833; 2376.075;    0.000;    0.000
356.888; 2330.075;    0.000;    0.000
356.942; 2331.075;    0.000;    0.000
356.997; 2367.075;    0.000;    0.000
357.051; 2363.075;    0.000;    0.000
357.106; 2416.075;    0.000;    0.000
357.160; 2261.075;    0.000;    0.000
357.215; 2226.075;    0.000;    0.000
357.269; 2342.075;    0.000;    0.000
357.324; 2212.075;    0.000;    0.000
357.378; 2288.075;    0.000;    0.000
357.433; 2229.075;    0.000;    0.000
357.487; 2367.075;    0.000;    0.000
357.542; 2251.075;    0.000;    0.000
357.596; 2262.075;    0.000;    0.000
357.651; 2410.075;    0.000;    0.000
357.705; 2389.075;    0.000;    0.000
357.760; 2326.075;    0.000;    0.000
357.814; 2240.075;    0.000;    0.000
357.868; 2305.075;    0.000;    0.000
357.923; 2297.075;    0.000;    0.000
357.977; 2305.075;    0.000;    0.000
358.032; 2345.075;    0.000;    0.000
358.086; 2328.075;    0.000;    0.000
358.140; 2257.075;    0.000;    0.000
358.195; 2255.075;    0.000;    0.000
358.249; 2205.075;    0.000;    0.000
358.303; 2263.075;    0.000;    0.000
358.358; 2214.075;    0.000;    0.000
358.412; 2285.075;    0.000;    0.000
358.466; 2242.075;    0.000;    0.000
358.521; 2173.075;    0.000;    0.000
358.575; 2286.075;    0.000;    0.000
358.629; 2219.075;    0.000;    0.000
358.683; 2223.075;    0.000;    0.000
358.738; 2135.075;    0.000;    0.000
358.792; 2215.075;    0.000;    0.000
358.846; 2201.075;    0.000;    0.000
358.900; 2158.075;    0.000;    0.000
358.954; 2260.075;    0.000;    0.000
359.009; 2266.075;    0.000;    0.000
359.063; 2280.075;    0.000;    0.000
359.117; 2247.075;    0.000;    0.000
359.171; 2257.075;    0.000;    0.000
359.225; 2204.075;    0.000;    0.000
359.280; 2249.075;    0.000;    0.000
359.334; 2280.075;    0.000;    0.000
359.388; 2286.075;    0.000;    0.000
359.442; 2337.075;    0.000;    0.000
359.496; 2210.075;    0.000;    0.000
359.550; 2177.075;    0.000;    0.000
359.604; 2220.075;    0.000;    0.000
359.658; 2213.075;    0.000;    0.000
359.712; 2191.075;    0.000;    0.000
359.766; 2179.075;    0.000;    0.000
359.820; 2237.075;    0.000;    0.000
359.875; 2142.075;    0.000;    0.000
359.929; 2289.075;    0.000;    0.000
359.983; 2148.075;    0.000;    0.000
360.037; 2282.075;    0.000;    0.000
360.091; 2173.075;    0.000;    0.000
360.145; 2167.075;    0.000;    0.000
360.199; 2155.075;    0.000;    0.000
360.253; 2198.075;    0.000;    0.000
360.306; 2151.075;    0.000;    0.000
360.360; 2087.075;    0.000;    0.000
360.414; 2184.075;    0.000;    0.000
360.468; 2198.075;    0.000;    0.000
360.522; 2201.075;    0.000;    0.000
360.576; 2218.075;    0.000;    0.000
360.630; 2148.075;    0.000;    0.000
360.684; 2146.075;    0.000;    0.000
360.738; 2147.075;    0.000;    0.000
360.792; 2209.075;    0.000;    0.000
360.846; 2167.075;    0.000;    0.000
360.899; 2226.075;    0.000;    0.000
360.953; 2215.075;    0.000;    0.000
361.007; 2160.075;    0.000;    0.000
361.061; 2153.075;    0.000;    0.000
361.115; 2194.075;    0.000;    0.000
361.168; 2197.075;    0.000;    0.000
361.222; 2180.075;    0.000;    0.000
361.276; 2236.075;    0.000;    0.000
361.330; 2239.075;    0.000;    0.000
361.384; 2213.075;    0.000;    0.000
361.437; 2219.075;    0.000;    0.000
361.491; 2184.075;    0.000;    0.000
361.545; 2168.075;    0.000;    0.000
361.599; 2122.075;    0.000;    0.000
361.652; 2149.075;    0.000;    0.000
361.706; 2118.075;    0.000;    0.000
361.760; 2122.075;    0.000;    0.000
361.813; 2198.075;    0.000;    0.000
361.867; 2143.075;    0.000;    0.000
361.921; 2245.075;    0.000;    0.000
361.974; 2137.075;    0.000;    0.000
362.028; 2153.075;    0.000;    0.000
362.082; 2129.075;    0.000;    0.000
362.135; 2126.075;    0.000;    0.000
362.189; 2151.075;    0.000;    0.000
362.242; 2183.075;    0.000;    0.000
362.296; 2181.075;    0.000;    0.000
362.350; 2169.075;    0.000;    0.000
362.403; 2113.075;    0.000;    0.000
362.457; 2018.075;    0.000;    0.000
362.510; 2030.075;    0.000;    0.000
362.564; 2045.075;    0.000;    0.000
362.617; 2091.075;    0.000;    0.000
362.671; 2095.075;    0.000;    0.000
362.724; 2041.075;    0.000;    0.000
362.778; 2109.075;    0.000;    0.000
362.831; 2041.075;    0.000;    0.000
362.885; 2086.075;    0.000;    0.000
362.938; 1952.075;    0.000;    0.000
362.992;  399.075;    0.000;    0.000
363.045;  297.075;    0.000;    0.000
363.099;  307.075;    0.000;    0.000
363.152;  315.075;    0.000;    0.000
363.205;  306.075;    0.000;    0.000
363.259;  272.075;    0.000;    0.000
363.312;  303.075;    0.000;    0.000
363.366;  318.075;    0.000;    0.000
363.419;  294.075;    0.000;    0.000
363.472;  299.075;    0.000;    0.000
363.526;  294.075;    0.000;    0.000
363.579;  322.075;    0.000;    0.000
363.632;  315.075;    0.000;    0.000
363.686;  295.075;    0.000;    0.000
363.739;  276.075;    0.000;    0.000
363.792;  301.075;    0.000;    0.000

