
Integration time [ms]:   1.000
Averaging Nr. [scans]: 1
Smoothing Nr. [pixels]: 0
Data measured with spectrometer [name]: NIR
Wave   ;Sample   ;Dark     ;Reference
[nm]   ;[counts] ;[counts] ;[counts] 

691.496;  -43.975;  163.125;    0.000
691.696;  -58.975;  208.125;    0.000
691.896;  -98.975;  111.125;    0.000
692.096;  -86.975;  178.125;    0.000
692.296; -135.975;   93.125;    0.000
692.496;  -83.975;  161.125;    0.000
692.695; -128.975;  135.125;    0.000
692.895;  -64.975;  179.125;    0.000
693.095;  -98.975;  158.125;    0.000
693.295;  -47.975;  168.125;    0.000
693.495;  -75.975;  170.125;    0.000
693.695;  -99.975;  155.125;    0.000
693.894;  -77.975;  151.125;    0.000
694.094;  -98.975;  164.125;    0.000
694.294; -105.975;  129.125;    0.000
694.494;  186.025;  170.125;    0.000
694.693; 2536.025;  137.125;    0.000
694.893; 2729.025;  163.125;    0.000
695.093; 2781.025;  121.125;    0.000
695.293; 2779.025;  144.125;    0.000
695.492; 2733.025;   88.125;    0.000
695.692; 2786.025;  148.125;    0.000
695.891; 2789.025;  125.125;    0.000
696.091; 2943.025;  184.125;    0.000
696.291; 2822.025;  153.125;    0.000
696.490; 2941.025;  131.125;    0.000
696.690; 2845.025;  123.125;    0.000
696.889; 2969.025;  180.125;    0.000
697.089; 2846.025;  147.125;    0.000
697.288; 3003.025;  164.125;    0.000
697.488; 2965.025;  133.125;    0.000
697.687; 2895.025;  153.125;    0.000
697.887; 2975.025;  119.125;    0.000
698.086; 2981.025;  143.125;    0.000
698.286; 2902.025;  125.125;    0.000
698.485; 2953.025;  120.125;    0.000
698.684; 2902.025;  116.125;    0.000
698.884; 2916.025;  131.125;    0.000
699.083; 2941.025;  115.125;    0.000
699.282; 2963.025;  144.125;    0.000
699.482; 2863.025;  109.125;    0.000
699.681; 2959.025;  115.125;    0.000
699.880; 2984.025;  125.125;    0.000
700.080; 3003.025;  139.125;    0.000
700.279; 2894.025;  111.125;    0.000
700.478; 3010.025;  146.125;    0.000
700.677; 2896.025;  131.125;    0.000
700.877; 2980.025;  156.125;    0.000
701.076; 2906.025;  153.125;    0.000
701.275; 2955.025;  123.125;    0.000
701.474; 2967.025;  150.125;    0.000
701.673; 2958.025;   97.125;    0.000
701.872; 2960.025;  139.125;    0.000
702.071; 2993.025;  108.125;    0.000
702.271; 3044.025;  125.125;    0.000
702.470; 3012.025;  108.125;    0.000
702.669; 2989.025;  102.125;    0.000
702.868; 2930.025;  153.125;    0.000
703.067; 3111.025;  145.125;    0.000
703.266; 2946.025;   96.125;    0.000
703.465; 2944.025;  165.125;    0.000
703.664; 3061.025;  106.125;    0.000
703.863; 3047.025;  144.125;    0.000
704.062; 2970.025;   86.125;    0.000
704.260; 2995.025;   99.125;    0.000
704.459; 3140.025;  112.125;    0.000
704.658; 2961.025;  106.125;    0.000
704.857; 3038.025;  129.125;    0.000
705.056; 3023.025;   98.125;    0.000
705.255; 3002.025;   97.125;    0.000
705.454; 3056.025;  101.125;    0.000
705.652; 3019.025;  142.125;    0.000
705.851; 3099.025;  100.125;    0.000
706.050; 3116.025;  162.125;    0.000
706.249; 3083.025;  146.125;    0.000
706.447; 3170.025;  120.125;    0.000
706.646; 3114.025;  114.125;    0.000
706.845; 3152.025;  117.125;    0.000
707.043; 3112.025;  136.125;    0.000
707.242; 3170.025;   90.125;    0.000
707.441; 3135.025;  131.125;    0.000
707.639; 3131.025;  120.125;    0.000
707.838; 3174.025;  122.125;    0.000
708.037; 3102.025;  109.125;    0.000
708.235; 3145.025;  122.125;    0.000
708.434; 3142.025;  109.125;    0.000
708.632; 3146.025;   47.125;    0.000
708.831; 3247.025;  122.125;    0.000
709.029; 3147.025;  130.125;    0.000
709.228; 3205.025;  112.125;    0.000
709.426; 3183.025;  128.125;    0.000
709.625; 3231.025;  129.125;    0.000
709.823; 3258.025;  130.125;    0.000
710.022; 3228.025;   90.125;    0.000
710.220; 3145.025;  131.125;    0.000
710.418; 3192.025;  133.125;    0.000
710.617; 3316.025;   82.125;    0.000
710.815; 3249.025;   90.125;    0.000
711.013; 3322.025;   86.125;    0.000
711.212; 3283.025;  117.125;    0.000
711.410; 3298.025;  106.125;    0.000
711.608; 3336.025;  138.125;    0.000
711.807; 3155.025;  116.125;    0.000
712.005; 3219.025;   82.125;    0.000
712.203; 3324.025;   90.125;    0.000
712.401; 3305.025;  124.125;    0.000
712.599; 3286.025;   64.125;    0.000
712.798; 3332.025;  113.125;    0.000
712.996; 3236.025;  100.125;    0.000
713.194; 3310.025;  130.125;    0.000
713.392; 3301.025;   89.125;    0.000
713.590; 3439.025;  105.125;    0.000
713.788; 3404.025;  100.125;    0.000
713.986; 3396.025;  117.125;    0.000
714.184; 3343.025;   72.125;    0.000
714.382; 3415.025;   88.125;    0.000
714.580; 3438.025;   88.125;    0.000
714.778; 3474.025;  129.125;    0.000
714.976; 3456.025;   90.125;    0.000
715.174; 3508.025;  119.125;    0.000
715.372; 3646.025;  117.125;    0.000
715.570; 3739.025;  101.125;    0.000
715.768; 3907.025;  122.125;    0.000
715.966; 4090.025;  114.125;    0.000
716.164; 4028.025;  135.125;    0.000
716.362; 4001.025;  126.125;    0.000
716.560; 3868.025;  126.125;    0.000
716.758; 3798.025;   98.125;    0.000
716.955; 3757.025;   76.125;    0.000
717.153; 3652.025;   45.125;    0.000
717.351; 3657.025;  106.125;    0.000
717.549; 3684.025;  108.125;    0.000
717.746; 3737.025;   66.125;    0.000
717.944; 3703.025;  127.125;    0.000
718.142; 3674.025;  148.125;    0.000
718.340; 3713.025;   94.125;    0.000
718.537; 3648.025;  107.125;    0.000
718.735; 3719.025;  130.125;    0.000
718.933; 3670.025;  111.125;    0.000
719.130; 3665.025;  107.125;    0.000
719.328; 3603.025;  128.125;    0.000
719.525; 3738.025;  141.125;    0.000
719.723; 3732.025;  122.125;    0.000
719.920; 3615.025;   85.125;    0.000
720.118; 3679.025;  115.125;    0.000
720.316; 3752.025;  153.125;    0.000
720.513; 3571.025;  120.125;    0.000
720.711; 3686.025;  134.125;    0.000
720.908; 3530.025;  126.125;    0.000
721.105; 3782.025;  119.125;    0.000
721.303; 3636.025;  112.125;    0.000
721.500; 3676.025;  125.125;    0.000
721.698; 3779.025;   94.125;    0.000
721.895; 3613.025;  118.125;    0.000
722.092; 3689.025;   77.125;    0.000
722.290; 3646.025;  135.125;    0.000
722.487; 3670.025;  154.125;    0.000
722.684; 3724.025;  122.125;    0.000
722.882; 3683.025;   90.125;    0.000
723.079; 3669.025;  132.125;    0.000
723.276; 3631.025;   95.125;    0.000
723.473; 3629.025;  106.125;    0.000
723.671; 3732.025;   80.125;    0.000
723.868; 3732.025;  112.125;    0.000
724.065; 3693.025;  107.125;    0.000
724.262; 3708.025;  119.125;    0.000
724.459; 3609.025;   80.125;    0.000
724.656; 3728.025;  109.125;    0.000
724.854; 3804.025;  107.125;    0.000
725.051; 3873.025;  103.125;    0.000
725.248; 3682.025;  101.125;    0.000
725.445; 3797.025;   93.125;    0.000
725.642; 3742.025;   92.125;    0.000
725.839; 3802.025;  157.125;    0.000
726.036; 3737.025;   71.125;    0.000
726.233; 3721.025;   80.125;    0.000
726.430; 3777.025;  146.125;    0.000
726.627; 3773.025;  103.125;    0.000
726.824; 3723.025;   46.125;    0.000
727.021; 3749.025;  149.125;    0.000
727.218; 3725.025;   87.125;    0.000
727.414; 3843.025;  112.125;    0.000
727.611; 3767.025;  111.125;    0.000
727.808; 3730.025;  122.125;    0.000
728.005; 3741.025;   58.125;    0.000
728.202; 3771.025;  129.125;    0.000
728.399; 3796.025;  111.125;    0.000
728.595; 3844.025;   93.125;    0.000
728.792; 3741.025;   78.125;    0.000
728.989; 3817.025;  104.125;    0.000
729.186; 3888.025;  110.125;    0.000
729.382; 3816.025;   93.125;    0.000
729.579; 3766.025;  102.125;    0.000
729.776; 3849.025;  112.125;    0.000
729.972; 3819.025;  101.125;    0.000
730.169; 3864.025;  150.125;    0.000
730.366; 3828.025;   92.125;    0.000
730.562; 3903.025;   74.125;    0.000
730.759; 3891.025;   97.125;    0.000
730.955; 3720.025;   86.125;    0.000
731.152; 3858.025;   88.125;    0.000
731.348; 3936.025;  117.125;    0.000
731.545; 3804.025;   62.125;    0.000
731.741; 3856.025;   84.125;    0.000
731.938; 3942.025;  108.125;    0.000
732.134; 3907.025;  115.125;    0.000
732.331; 3762.025;   88.125;    0.000
732.527; 3904.025;   96.125;    0.000
732.724; 3878.025;  103.125;    0.000
732.920; 3817.025;   93.125;    0.000
733.116; 3794.025;  109.125;    0.000
733.313; 3917.025;   77.125;    0.000
733.509; 3972.025;   81.125;    0.000
733.705; 3793.025;  141.125;    0.000
733.902; 3907.025;   88.125;    0.000
734.098; 3849.025;   56.125;    0.000
734.294; 4007.025;  122.125;    0.000
734.490; 3962.025;  102.125;    0.000
734.687; 3869.025;   70.125;    0.000
734.883; 3864.025;   73.125;    0.000
735.079; 3903.025;   65.125;    0.000
735.275; 3960.025;  112.125;    0.000
735.471; 3833.025;  124.125;    0.000
735.667; 3903.025;   94.125;    0.000
735.863; 4052.025;  106.125;    0.000
736.060; 4006.025;  106.125;    0.000
736.256; 3914.025;   95.125;    0.000
736.452; 3979.025;  103.125;    0.000
736.648; 3946.025;  106.125;    0.000
736.844; 4074.025;   98.125;    0.000
737.040; 4013.025;  118.125;    0.000
737.236; 4003.025;   95.125;    0.000
737.432; 4002.025;   59.125;    0.000
737.628; 3987.025;  120.125;    0.000
737.824; 4065.025;   78.125;    0.000
738.019; 4119.025;   98.125;    0.000
738.215; 4134.025;  127.125;    0.000
738.411; 4089.025;  111.125;    0.000
738.607; 4018.025;   69.125;    0.000
738.803; 4145.025;   40.125;    0.000
738.999; 4160.025;  128.125;    0.000
739.195; 4039.025;   81.125;    0.000
739.390; 4081.025;   97.125;    0.000
739.586; 4177.025;  100.125;    0.000
739.782; 4213.025;  135.125;    0.000
739.978; 4140.025;  121.125;    0.000
740.173; 4164.025;   92.125;    0.000
740.369; 4091.025;   92.125;    0.000
740.565; 4289.025;  119.125;    0.000
740.760; 4283.025;  139.125;    0.000
740.956; 4312.025;  134.125;    0.000
741.152; 4300.025;  107.125;    0.000
741.347; 4306.025;   63.125;    0.000
741.543; 4285.025;   99.125;    0.000
741.738; 4448.025;  119.125;    0.000
741.934; 4506.025;  156.125;    0.000
742.129; 4734.025;   87.125;    0.000
742.325; 5241.025;  143.125;    0.000
742.520; 5625.025;  109.125;    0.000
742.716; 5316.025;  135.125;    0.000
742.911; 5177.025;   77.125;    0.000
743.107; 5015.025;  117.125;    0.000
743.302; 5081.025;   93.125;    0.000
743.498; 5133.025;  118.125;    0.000
743.693; 5096.025;   95.125;    0.000
743.888; 5449.025;  122.125;    0.000
744.084; 5830.025;  104.125;    0.000
744.279; 6925.025;   94.125;    0.000
744.474; 7161.025;  138.125;    0.000
744.670; 6474.025;  113.125;    0.000
744.865; 6061.025;  116.125;    0.000
745.060; 5771.025;   89.125;    0.000
745.255; 5631.025;  144.125;    0.000
745.451; 5585.025;   98.125;    0.000
745.646; 5401.025;  110.125;    0.000
745.841; 5441.025;   87.125;    0.000
746.036; 5300.025;   98.125;    0.000
746.231; 5604.025;  153.125;    0.000
746.426; 5807.025;   90.125;    0.000
746.622; 6621.025;  154.125;    0.000
746.817; 8171.025;  111.125;    0.000
747.012; 8918.025;  110.125;    0.000
747.207; 8112.025;   76.125;    0.000
747.402; 7454.025;   94.125;    0.000
747.597; 6909.025;   68.125;    0.000
747.792; 6684.025;  125.125;    0.000
747.987; 6287.025;   92.125;    0.000
748.182; 6260.025;  113.125;    0.000
748.377; 6043.025;   72.125;    0.000
748.572; 5873.025;  135.125;    0.000
748.767; 5656.025;   98.125;    0.000
748.961; 5484.025;  123.125;    0.000
749.156; 5448.025;   96.125;    0.000
749.351; 5302.025;  121.125;    0.000
749.546; 5221.025;   95.125;    0.000
749.741; 5104.025;  144.125;    0.000
749.936; 5002.025;  105.125;    0.000
750.130; 4910.025;  101.125;    0.000
750.325; 4977.025;  126.125;    0.000
750.520; 4925.025;  113.125;    0.000
750.715; 4942.025;  135.125;    0.000
750.909; 4873.025;  138.125;    0.000
751.104; 4699.025;   96.125;    0.000
751.299; 4757.025;  118.125;    0.000
751.493; 4877.025;  124.125;    0.000
751.688; 4777.025;  131.125;    0.000
751.882; 4723.025;   96.125;    0.000
752.077; 4672.025;  123.125;    0.000
752.272; 4685.025;  112.125;    0.000
752.466; 4721.025;  143.125;    0.000
752.661; 4515.025;  107.125;    0.000
752.855; 4466.025;   97.125;    0.000
753.050; 4604.025;  125.125;    0.000
753.244; 4611.025;  161.125;    0.000
753.439; 4581.025;  101.125;    0.000
753.633; 4430.025;  129.125;    0.000
753.828; 4377.025;  114.125;    0.000
754.022; 4556.025;  118.125;    0.000
754.216; 4496.025;  126.125;    0.000
754.411; 4587.025;  148.125;    0.000
754.605; 4457.025;  100.125;    0.000
754.799; 4503.025;  146.125;    0.000
754.994; 4480.025;  116.125;    0.000
755.188; 4512.025;  146.125;    0.000
755.382; 4494.025;  103.125;    0.000
755.576; 4443.025;  119.125;    0.000
755.771; 4492.025;  100.125;    0.000
755.965; 4490.025;  129.125;    0.000
756.159; 4462.025;  100.125;    0.000
756.353; 4489.025;  153.125;    0.000
756.547; 4444.025;  113.125;    0.000
756.742; 4402.025;  129.125;    0.000
756.936; 4383.025;   70.125;    0.000
757.130; 4351.025;   91.125;    0.000
757.324; 4441.025;   92.125;    0.000
757.518; 4520.025;  128.125;    0.000
757.712; 4423.025;  146.125;    0.000
757.906; 4274.025;  114.125;    0.000
758.100; 4362.025;  153.125;    0.000
758.294; 4401.025;  133.125;    0.000
758.488; 4330.025;  149.125;    0.000
758.682; 4382.025;  132.125;    0.000
758.876; 4409.025;  128.125;    0.000
759.070; 4411.025;  178.125;    0.000
759.264; 4355.025;   98.125;    0.000
759.458; 4325.025;  168.125;    0.000
759.651; 4385.025;  131.125;    0.000
759.845; 4391.025;  133.125;    0.000
760.039; 4400.025;  120.125;    0.000
760.233; 4328.025;  116.125;    0.000
760.427; 4433.025;  121.125;    0.000
760.620; 4417.025;  163.125;    0.000
760.814; 4446.025;  106.125;    0.000
761.008; 4420.025;  119.125;    0.000
761.202; 4390.025;  121.125;    0.000
761.395; 4431.025;  136.125;    0.000
761.589; 4379.025;  111.125;    0.000
761.783; 4431.025;  116.125;    0.000
761.976; 4412.025;  139.125;    0.000
762.170; 4407.025;  140.125;    0.000
762.363; 4398.025;  115.125;    0.000
762.557; 4350.025;  129.125;    0.000
762.750; 4384.025;   85.125;    0.000
762.944; 4400.025;  107.125;    0.000
763.138; 4504.025;   99.125;    0.000
763.331; 4337.025;   97.125;    0.000
763.524; 4461.025;  100.125;    0.000
763.718; 4584.025;  130.125;    0.000
763.911; 4462.025;  127.125;    0.000
764.105; 4440.025;   69.125;    0.000
764.298; 4417.025;   94.125;    0.000
764.492; 4401.025;  129.125;    0.000
764.685; 4314.025;  114.125;    0.000
764.878; 4397.025;  145.125;    0.000
765.072; 4366.025;  124.125;    0.000
765.265; 4485.025;  124.125;    0.000
765.458; 4467.025;  108.125;    0.000
765.651; 4677.025;  132.125;    0.000
765.845; 4567.025;  106.125;    0.000
766.038; 4613.025;  155.125;    0.000
766.231; 5327.025;  153.125;    0.000
766.424; 8096.025;  165.125;    0.000
766.617; 8325.025;   85.125;    0.000
766.811; 5246.025;  140.125;    0.000
767.004; 4679.025;  151.125;    0.000
767.197; 4742.025;  178.125;    0.000
767.390; 4682.025;  112.125;    0.000
767.583; 4693.025;  134.125;    0.000
767.776; 4621.025;  101.125;    0.000
767.969; 4516.025;   99.125;    0.000
768.162; 4631.025;  152.125;    0.000
768.355; 4561.025;  115.125;    0.000
768.548; 4665.025;  154.125;    0.000
768.741; 4695.025;  124.125;    0.000
768.934; 4746.025;  129.125;    0.000
769.127; 4712.025;  137.125;    0.000
769.320; 4611.025;  115.125;    0.000
769.513; 4851.025;  144.125;    0.000
769.706; 5570.025;  107.125;    0.000
769.898; 8195.025;  134.125;    0.000
770.091; 6258.025;  128.125;    0.000
770.284; 4958.025;   97.125;    0.000
770.477; 4810.025;  135.125;    0.000
770.670; 4871.025;  137.125;    0.000
770.862; 4908.025;  112.125;    0.000
771.055; 4921.025;  127.125;    0.000
771.248; 4999.025;  116.125;    0.000
771.441; 4939.025;  101.125;    0.000
771.633; 5032.025;  130.125;    0.000
771.826; 4938.025;  147.125;    0.000
772.018; 5019.025;  117.125;    0.000
772.211; 5102.025;  141.125;    0.000
772.404; 5194.025;  104.125;    0.000
772.596; 5156.025;  128.125;    0.000
772.789; 5197.025;  131.125;    0.000
772.981; 5420.025;  134.125;    0.000
773.174; 5291.025;  108.125;    0.000
773.366; 5401.025;  153.125;    0.000
773.559; 5416.025;  137.125;    0.000
773.751; 5525.025;  119.125;    0.000
773.944; 5586.025;  148.125;    0.000
774.136; 5696.025;  155.125;    0.000
774.329; 5869.025;  126.125;    0.000
774.521; 5904.025;  116.125;    0.000
774.713; 6153.025;  119.125;    0.000
774.906; 6105.025;  179.125;    0.000
775.098; 6446.025;  127.125;    0.000
775.290; 6795.025;  146.125;    0.000
775.483; 7216.025;  123.125;    0.000
775.675; 7415.025;  119.125;    0.000
775.867; 7845.025;  119.125;    0.000
776.059; 8461.025;  137.125;    0.000
776.251; 9308.025;  154.125;    0.000
776.444;10330.025;  101.125;    0.000
776.636;11756.025;  153.125;    0.000
776.828;14527.025;  127.125;    0.000
777.020;19619.025;  140.125;    0.000
777.212;28702.025;  160.125;    0.000
777.404;32035.025;  170.125;    0.000
777.596;29772.025;  136.125;    0.000
777.788;22456.025;  137.125;    0.000
777.980;17642.025;  129.125;    0.000
778.172;14839.025;  139.125;    0.000
778.364;12836.025;  124.125;    0.000
778.556;11408.025;  163.125;    0.000
778.748;10430.025;  142.125;    0.000
778.940; 9605.025;  178.125;    0.000
779.132; 8920.025;  159.125;    0.000
779.324; 8138.025;  109.125;    0.000
779.516; 7826.025;  143.125;    0.000
779.708; 7457.025;  158.125;    0.000
779.900; 7181.025;  142.125;    0.000
780.091; 6754.025;  131.125;    0.000
780.283; 6605.025;  176.125;    0.000
780.475; 6483.025;  151.125;    0.000
780.667; 6275.025;  120.125;    0.000
780.859; 6021.025;  134.125;    0.000
781.050; 5915.025;  183.125;    0.000
781.242; 5717.025;   95.125;    0.000
781.434; 5650.025;  127.125;    0.000
781.625; 5588.025;  163.125;    0.000
781.817; 5531.025;  170.125;    0.000
782.008; 5362.025;  123.125;    0.000
782.200; 5313.025;  141.125;    0.000
782.392; 5171.025;  149.125;    0.000
782.583; 5152.025;  155.125;    0.000
782.775; 5066.025;  140.125;    0.000
782.966; 5029.025;  167.125;    0.000
783.158; 4917.025;  164.125;    0.000
783.349; 5008.025;  174.125;    0.000
783.541; 4940.025;  141.125;    0.000
783.732; 4947.025;  115.125;    0.000
783.924; 4913.025;  135.125;    0.000
784.115; 4827.025;  157.125;    0.000
784.306; 4756.025;  102.125;    0.000
784.498; 4768.025;  124.125;    0.000
784.689; 4754.025;  171.125;    0.000
784.880; 4657.025;  165.125;    0.000
785.072; 4628.025;  152.125;    0.000
785.263; 4572.025;  146.125;    0.000
785.454; 4710.025;  145.125;    0.000
785.645; 4539.025;  127.125;    0.000
785.837; 4527.025;  138.125;    0.000
786.028; 4634.025;  151.125;    0.000
786.219; 4604.025;  142.125;    0.000
786.410; 4541.025;  140.125;    0.000
786.601; 4588.025;  137.125;    0.000
786.792; 4526.025;  158.125;    0.000
786.984; 4503.025;  139.125;    0.000
787.175; 4554.025;  140.125;    0.000
787.366; 4481.025;  145.125;    0.000
787.557; 4470.025;  156.125;    0.000
787.748; 4397.025;  148.125;    0.000
787.939; 4598.025;  157.125;    0.000
788.130; 4541.025;  179.125;    0.000
788.321; 4663.025;  142.125;    0.000
788.512; 4691.025;  167.125;    0.000
788.703; 4597.025;  145.125;    0.000
788.894; 4665.025;  132.125;    0.000
789.084; 4685.025;  113.125;    0.000
789.275; 4664.025;  134.125;    0.000
789.466; 4654.025;  151.125;    0.000
789.657; 4667.025;  138.125;    0.000
789.848; 4659.025;  145.125;    0.000
790.039; 4711.025;  130.125;    0.000
790.229; 4696.025;  140.125;    0.000
790.420; 4715.025;  135.125;    0.000
790.611; 4694.025;  156.125;    0.000
790.801; 4646.025;   64.125;    0.000
790.992; 4650.025;  150.125;    0.000
791.183; 4526.025;  177.125;    0.000
791.373; 4582.025;   91.125;    0.000
791.564; 4611.025;   85.125;    0.000
791.755; 4517.025;  125.125;    0.000
791.945; 4647.025;   94.125;    0.000
792.136; 4627.025;   98.125;    0.000
792.326; 4539.025;  105.125;    0.000
792.517; 4634.025;  136.125;    0.000
792.707; 4657.025;  140.125;    0.000
792.898; 4760.025;  164.125;    0.000
793.088; 4770.025;  116.125;    0.000
793.279; 4798.025;  112.125;    0.000
793.469; 4709.025;  105.125;    0.000
793.660; 4895.025;  161.125;    0.000
793.850; 4926.025;  133.125;    0.000
794.040; 5035.025;  121.125;    0.000
794.231; 5241.025;  115.125;    0.000
794.421; 5503.025;  152.125;    0.000
794.611; 6056.025;  132.125;    0.000
794.802; 6797.025;  144.125;    0.000
794.992; 7158.025;  142.125;    0.000
795.182; 7205.025;  179.125;    0.000
795.372; 6816.025;  167.125;    0.000
795.563; 6344.025;  149.125;    0.000
795.753; 5909.025;  117.125;    0.000
795.943; 5679.025;  146.125;    0.000
796.133; 5445.025;  119.125;    0.000
796.323; 5196.025;  141.125;    0.000
796.513; 5118.025;  134.125;    0.000
796.703; 4985.025;  116.125;    0.000
796.893; 4894.025;  120.125;    0.000
797.083; 4795.025;  131.125;    0.000
797.273; 4688.025;  118.125;    0.000
797.463; 4719.025;  130.125;    0.000
797.653; 4489.025;   87.125;    0.000
797.843; 4481.025;  123.125;    0.000
798.033; 4432.025;  115.125;    0.000
798.223; 4374.025;  142.125;    0.000
798.413; 4294.025;  148.125;    0.000
798.603; 4321.025;  147.125;    0.000
798.793; 4283.025;  107.125;    0.000
798.983; 4252.025;  121.125;    0.000
799.172; 4101.025;  120.125;    0.000
799.362; 4113.025;  145.125;    0.000
799.552; 3989.025;  101.125;    0.000
799.742; 4070.025;  149.125;    0.000
799.932; 3968.025;  104.125;    0.000
800.121; 3983.025;  175.125;    0.000
800.311; 3953.025;  132.125;    0.000
800.501; 4017.025;  118.125;    0.000
800.690; 3989.025;  162.125;    0.000
800.880; 3912.025;  141.125;    0.000
801.070; 3966.025;  151.125;    0.000
801.259; 3941.025;  167.125;    0.000
801.449; 3929.025;  108.125;    0.000
801.638; 3953.025;  176.125;    0.000
801.828; 3830.025;  118.125;    0.000
802.017; 3849.025;  179.125;    0.000
802.207; 3843.025;  127.125;    0.000
802.396; 3763.025;  167.125;    0.000
802.586; 3827.025;  129.125;    0.000
802.775; 3905.025;  142.125;    0.000
802.965; 3769.025;  147.125;    0.000
803.154; 3710.025;  179.125;    0.000
803.343; 3688.025;  117.125;    0.000
803.533; 3782.025;  120.125;    0.000
803.722; 3753.025;  122.125;    0.000
803.911; 3711.025;  155.125;    0.000
804.101; 3809.025;  147.125;    0.000
804.290; 3714.025;  160.125;    0.000
804.479; 3699.025;  139.125;    0.000
804.668; 3781.025;  180.125;    0.000
804.857; 3674.025;  131.125;    0.000
805.047; 3701.025;  119.125;    0.000
805.236; 3647.025;  139.125;    0.000
805.425; 3648.025;  163.125;    0.000
805.614; 3641.025;  103.125;    0.000
805.803; 3675.025;  133.125;    0.000
805.992; 3711.025;  147.125;    0.000
806.181; 3660.025;  109.125;    0.000
806.370; 3678.025;  133.125;    0.000
806.559; 3561.025;  119.125;    0.000
806.748; 3682.025;  144.125;    0.000
806.937; 3614.025;  147.125;    0.000
807.126; 3622.025;  134.125;    0.000
807.315; 3609.025;  132.125;    0.000
807.504; 3565.025;  141.125;    0.000
807.693; 3639.025;  145.125;    0.000
807.882; 3527.025;   91.125;    0.000
808.071; 3499.025;  116.125;    0.000
808.260; 3607.025;  105.125;    0.000
808.448; 3651.025;  184.125;    0.000
808.637; 3664.025;  146.125;    0.000
808.826; 3636.025;  153.125;    0.000
809.015; 3556.025;  113.125;    0.000
809.203; 3594.025;  166.125;    0.000
809.392; 3586.025;  117.125;    0.000
809.581; 3586.025;  186.125;    0.000
809.770; 3512.025;  122.125;    0.000
809.958; 3616.025;  140.125;    0.000
810.147; 3563.025;  130.125;    0.000
810.335; 3585.025;  112.125;    0.000
810.524; 3609.025;  106.125;    0.000
810.713; 3614.025;  154.125;    0.000
810.901; 3678.025;  131.125;    0.000
811.090; 3664.025;  164.125;    0.000
811.278; 3627.025;  159.125;    0.000
811.467; 3783.025;  194.125;    0.000
811.655; 3827.025;  164.125;    0.000
811.844; 3713.025;  149.125;    0.000
812.032; 3814.025;  169.125;    0.000
812.220; 3686.025;  163.125;    0.000
812.409; 3736.025;  134.125;    0.000
812.597; 3748.025;  165.125;    0.000
812.785; 3743.025;  180.125;    0.000
812.974; 3651.025;  166.125;    0.000
813.162; 3823.025;  171.125;    0.000
813.350; 3710.025;  142.125;    0.000
813.539; 3766.025;  126.125;    0.000
813.727; 3722.025;  153.125;    0.000
813.915; 3698.025;  138.125;    0.000
814.103; 3670.025;  191.125;    0.000
814.291; 3789.025;  142.125;    0.000
814.479; 3821.025;  156.125;    0.000
814.668; 3781.025;  152.125;    0.000
814.856; 3845.025;  150.125;    0.000
815.044; 3835.025;  165.125;    0.000
815.232; 3829.025;  172.125;    0.000
815.420; 3937.025;  147.125;    0.000
815.608; 3953.025;  143.125;    0.000
815.796; 3975.025;  126.125;    0.000
815.984; 3942.025;  152.125;    0.000
816.172; 4033.025;  129.125;    0.000
816.360; 4177.025;  177.125;    0.000
816.548; 4113.025;  141.125;    0.000
816.736; 4214.025;  142.125;    0.000
816.924; 4505.025;  161.125;    0.000
817.111; 4419.025;  138.125;    0.000
817.299; 4475.025;  112.125;    0.000
817.487; 4797.025;  180.125;    0.000
817.675; 5129.025;  138.125;    0.000
817.863; 5505.025;  172.125;    0.000
818.050; 6744.025;  142.125;    0.000
818.238;10856.025;  151.125;    0.000
818.426;15099.025;  129.125;    0.000
818.613;11087.025;  124.125;    0.000
818.801; 9951.025;  209.125;    0.000
818.989; 9948.025;  178.125;    0.000
819.176; 9726.025;  155.125;    0.000
819.364;13152.025;  174.125;    0.000
819.552;19104.025;  131.125;    0.000
819.739;12626.025;  184.125;    0.000
819.927; 9546.025;  132.125;    0.000
820.114; 8471.025;  173.125;    0.000
820.302; 7960.025;  140.125;    0.000
820.489; 7386.025;  133.125;    0.000
820.677; 7111.025;  167.125;    0.000
820.864; 7127.025;  161.125;    0.000
821.052; 7648.025;  134.125;    0.000
821.239; 8134.025;  149.125;    0.000
821.426; 8729.025;  160.125;    0.000
821.614;10888.025;  143.125;    0.000
821.801;11630.025;  118.125;    0.000
821.988;10602.025;  154.125;    0.000
822.176; 9901.025;  112.125;    0.000
822.363;10173.025;  131.125;    0.000
822.550; 9606.025;  131.125;    0.000
822.737; 8587.025;  104.125;    0.000
822.924; 7999.025;  160.125;    0.000
823.112; 7495.025;  161.125;    0.000
823.299; 7065.025;  169.125;    0.000
823.486; 6863.025;  129.125;    0.000
823.673; 6592.025;  135.125;    0.000
823.860; 6364.025;  169.125;    0.000
824.047; 6426.025;  124.125;    0.000
824.234; 7143.025;  160.125;    0.000
824.421; 7126.025;  114.125;    0.000
824.608; 6540.025;  191.125;    0.000
824.795; 5916.025;  160.125;    0.000
824.982; 5571.025;  139.125;    0.000
825.169; 5358.025;  121.125;    0.000
825.356; 5081.025;  148.125;    0.000
825.543; 4658.025;  167.125;    0.000
825.730; 4740.025;  103.125;    0.000
825.917; 4488.025;  113.125;    0.000
826.104; 4343.025;  188.125;    0.000
826.290; 4333.025;  193.125;    0.000
826.477; 4215.025;  175.125;    0.000
826.664; 4120.025;  151.125;    0.000
826.851; 3938.025;  122.125;    0.000
827.038; 4002.025;  121.125;    0.000
827.224; 3909.025;  124.125;    0.000
827.411; 3894.025;  155.125;    0.000
827.598; 3812.025;  127.125;    0.000
827.784; 3791.025;  140.125;    0.000
827.971; 3625.025;  114.125;    0.000
828.157; 3649.025;  135.125;    0.000
828.344; 3455.025;  173.125;    0.000
828.531; 3630.025;  113.125;    0.000
828.717; 3542.025;  137.125;    0.000
828.904; 3523.025;  158.125;    0.000
829.090; 3517.025;  199.125;    0.000
829.277; 3470.025;  156.125;    0.000
829.463; 3377.025;  154.125;    0.000
829.650; 3429.025;  174.125;    0.000
829.836; 3322.025;  136.125;    0.000
830.022; 3421.025;  143.125;    0.000
830.209; 3237.025;  157.125;    0.000
830.395; 3245.025;  156.125;    0.000
830.581; 3251.025;  148.125;    0.000
830.768; 3243.025;  169.125;    0.000
830.954; 3235.025;  169.125;    0.000
831.140; 3197.025;  124.125;    0.000
831.327; 3185.025;  157.125;    0.000
831.513; 3152.025;  163.125;    0.000
831.699; 3166.025;  176.125;    0.000
831.885; 3174.025;  154.125;    0.000
832.071; 3207.025;  159.125;    0.000
832.257; 3025.025;  142.125;    0.000
832.444; 3128.025;  159.125;    0.000
832.630; 3047.025;  129.125;    0.000
832.816; 3079.025;  132.125;    0.000
833.002; 3068.025;  125.125;    0.000
833.188; 3091.025;  144.125;    0.000
833.374; 3092.025;  131.125;    0.000
833.560; 2958.025;  154.125;    0.000
833.746; 3056.025;  171.125;    0.000
833.932; 2844.025;  162.125;    0.000
834.118; 2932.025;  131.125;    0.000
834.303; 2968.025;  113.125;    0.000
834.489; 2951.025;  170.125;    0.000
834.675; 2930.025;  177.125;    0.000
834.861; 2978.025;  154.125;    0.000
835.047; 2906.025;  171.125;    0.000
835.233; 2854.025;   98.125;    0.000
835.418; 2922.025;  138.125;    0.000
835.604; 2779.025;  140.125;    0.000
835.790; 2827.025;  130.125;    0.000
835.976; 2999.025;  129.125;    0.000
836.161; 2843.025;  142.125;    0.000
836.347; 2811.025;  128.125;    0.000
836.533; 2842.025;  143.125;    0.000
836.718; 2872.025;  164.125;    0.000
836.904; 2910.025;  172.125;    0.000
837.089; 2904.025;  152.125;    0.000
837.275; 2868.025;  143.125;    0.000
837.460; 2843.025;  125.125;    0.000
837.646; 2850.025;  137.125;    0.000
837.831; 2823.025;  153.125;    0.000
838.017; 2896.025;  171.125;    0.000
838.202; 2842.025;  111.125;    0.000
838.388; 2876.025;  140.125;    0.000
838.573; 2839.025;  158.125;    0.000
838.759; 2878.025;  188.125;    0.000
838.944; 2846.025;  125.125;    0.000
839.129; 2913.025;  123.125;    0.000
839.315; 2900.025;  181.125;    0.000
839.500; 2824.025;  150.125;    0.000
839.685; 2845.025;  109.125;    0.000
839.870; 2909.025;  202.125;    0.000
840.056; 2865.025;  101.125;    0.000
840.241; 2884.025;  184.125;    0.000
840.426; 2972.025;  192.125;    0.000
840.611; 2885.025;  180.125;    0.000
840.796; 2943.025;  156.125;    0.000
840.981; 2977.025;  142.125;    0.000
841.166; 2986.025;  161.125;    0.000
841.352; 2964.025;  185.125;    0.000
841.537; 3005.025;  139.125;    0.000
841.722; 3082.025;  143.125;    0.000
841.907; 3099.025;  140.125;    0.000
842.092; 3159.025;  176.125;    0.000
842.277; 3076.025;  136.125;    0.000
842.461; 3303.025;  155.125;    0.000
842.646; 3179.025;  163.125;    0.000
842.831; 3272.025;  153.125;    0.000
843.016; 3398.025;  187.125;    0.000
843.201; 3414.025;  179.125;    0.000
843.386; 3626.025;  167.125;    0.000
843.571; 3690.025;  129.125;    0.000
843.755; 3900.025;  136.125;    0.000
843.940; 4141.025;  121.125;    0.000
844.125; 4573.025;  157.125;    0.000
844.310; 5377.025;  175.125;    0.000
844.494; 6665.025;  164.125;    0.000
844.679; 9100.025;  167.125;    0.000
844.864; 8803.025;  166.125;    0.000
845.048; 7373.025;  132.125;    0.000
845.233; 6235.025;  175.125;    0.000
845.418; 5607.025;  159.125;    0.000
845.602; 5064.025;  147.125;    0.000
845.787; 4656.025;  132.125;    0.000
845.971; 4443.025;  187.125;    0.000
846.156; 3998.025;  141.125;    0.000
846.340; 3962.025;  153.125;    0.000
846.525; 3744.025;  157.125;    0.000
846.709; 3600.025;  117.125;    0.000
846.893; 3500.025;  147.125;    0.000
847.078; 3381.025;  170.125;    0.000
847.262; 3253.025;  150.125;    0.000
847.447; 3142.025;  132.125;    0.000
847.631; 3188.025;  144.125;    0.000
847.815; 3078.025;  157.125;    0.000
848.000; 3039.025;  164.125;    0.000
848.184; 2991.025;  174.125;    0.000
848.368; 2977.025;  149.125;    0.000
848.552; 2972.025;  143.125;    0.000
848.736; 2933.025;  132.125;    0.000
848.921; 2850.025;  147.125;    0.000
849.105; 2836.025;  150.125;    0.000
849.289; 2803.025;  146.125;    0.000
849.473; 2696.025;  167.125;    0.000
849.657; 2857.025;  149.125;    0.000
849.841; 2683.025;  181.125;    0.000
850.025; 2720.025;  154.125;    0.000
850.209; 2698.025;  152.125;    0.000
850.393; 2690.025;  139.125;    0.000
850.577; 2611.025;  128.125;    0.000
850.761; 2678.025;  194.125;    0.000
850.945; 2602.025;  152.125;    0.000
851.129; 2749.025;  157.125;    0.000
851.313; 2565.025;  181.125;    0.000
851.497; 2582.025;  145.125;    0.000
851.680; 2645.025;  168.125;    0.000
851.864; 2583.025;  185.125;    0.000
852.048; 2601.025;  170.125;    0.000
852.232; 2619.025;  192.125;    0.000
852.416; 2547.025;  182.125;    0.000
852.599; 2539.025;  169.125;    0.000
852.783; 2510.025;  168.125;    0.000
852.967; 2555.025;  184.125;    0.000
853.150; 2560.025;  163.125;    0.000
853.334; 2590.025;  164.125;    0.000
853.518; 2506.025;  190.125;    0.000
853.701; 2429.025;  137.125;    0.000
853.885; 2468.025;  177.125;    0.000
854.068; 2552.025;  163.125;    0.000
854.252; 2491.025;  139.125;    0.000
854.435; 2593.025;  152.125;    0.000
854.619; 2555.025;  148.125;    0.000
854.802; 2528.025;  168.125;    0.000
854.986; 2496.025;  157.125;    0.000
855.169; 2494.025;  147.125;    0.000
855.353; 2503.025;  173.125;    0.000
855.536; 2556.025;  127.125;    0.000
855.719; 2556.025;  191.125;    0.000
855.903; 2586.025;  186.125;    0.000
856.086; 2471.025;  145.125;    0.000
856.269; 2538.025;  130.125;    0.000
856.452; 2568.025;  153.125;    0.000
856.636; 2594.025;  129.125;    0.000
856.819; 2837.025;  134.125;    0.000
857.002; 2872.025;  152.125;    0.000
857.185; 2811.025;  140.125;    0.000
857.368; 2724.025;  170.125;    0.000
857.552; 2705.025;  132.125;    0.000
857.735; 2713.025;  160.125;    0.000
857.918; 2706.025;  139.125;    0.000
858.101; 2610.025;  159.125;    0.000
858.284; 2670.025;  136.125;    0.000
858.467; 2761.025;  147.125;    0.000
858.650; 2663.025;  153.125;    0.000
858.833; 2871.025;  113.125;    0.000
859.016; 2833.025;  167.125;    0.000
859.199; 2913.025;  141.125;    0.000
859.382; 3067.025;  155.125;    0.000
859.564; 3384.025;  136.125;    0.000
859.747; 3194.025;  142.125;    0.000
859.930; 3101.025;  141.125;    0.000
860.113; 3071.025;  156.125;    0.000
860.296; 3010.025;  167.125;    0.000
860.478; 2998.025;  121.125;    0.000
860.661; 2897.025;  230.125;    0.000
860.844; 2931.025;  186.125;    0.000
861.027; 2924.025;  155.125;    0.000
861.209; 2841.025;  151.125;    0.000
861.392; 2921.025;  162.125;    0.000
861.575; 2969.025;  150.125;    0.000
861.757; 3014.025;  162.125;    0.000
861.940; 2970.025;  207.125;    0.000
862.122; 3031.025;  113.125;    0.000
862.305; 2979.025;  114.125;    0.000
862.487; 3203.025;  162.125;    0.000
862.670; 3441.025;  148.125;    0.000
862.852; 3889.025;  131.125;    0.000
863.035; 4556.025;  174.125;    0.000
863.217; 4366.025;  170.125;    0.000
863.400; 4080.025;  148.125;    0.000
863.582; 3973.025;  129.125;    0.000
863.764; 3719.025;  181.125;    0.000
863.947; 3522.025;  152.125;    0.000
864.129; 3439.025;  178.125;    0.000
864.311; 3400.025;  139.125;    0.000
864.493; 3379.025;  166.125;    0.000
864.676; 3394.025;  148.125;    0.000
864.858; 3329.025;  123.125;    0.000
865.040; 3286.025;  180.125;    0.000
865.222; 3292.025;  131.125;    0.000
865.404; 3386.025;  146.125;    0.000
865.587; 3549.025;  175.125;    0.000
865.769; 3575.025;  183.125;    0.000
865.951; 3531.025;  171.125;    0.000
866.133; 3586.025;  165.125;    0.000
866.315; 3513.025;  138.125;    0.000
866.497; 3637.025;  139.125;    0.000
866.679; 3726.025;  167.125;    0.000
866.861; 3790.025;  151.125;    0.000
867.043; 3967.025;  190.125;    0.000
867.225; 4179.025;  140.125;    0.000
867.407; 4557.025;  125.125;    0.000
867.589; 5073.025;  141.125;    0.000
867.770; 5953.025;  149.125;    0.000
867.952; 7878.025;  138.125;    0.000
868.134;10206.025;  153.125;    0.000
868.316;10311.025;  148.125;    0.000
868.498; 9881.025;  180.125;    0.000
868.679; 8557.025;  152.125;    0.000
868.861; 7425.025;  174.125;    0.000
869.043; 6345.025;  152.125;    0.000
869.224; 5590.025;  177.125;    0.000
869.406; 5159.025;  171.125;    0.000
869.588; 4899.025;  177.125;    0.000
869.769; 4663.025;  174.125;    0.000
869.951; 4609.025;  167.125;    0.000
870.132; 4623.025;  144.125;    0.000
870.314; 5010.025;  143.125;    0.000
870.495; 5106.025;  162.125;    0.000
870.677; 4792.025;  136.125;    0.000
870.858; 4511.025;  155.125;    0.000
871.040; 4814.025;  179.125;    0.000
871.221; 5145.025;  177.125;    0.000
871.403; 4983.025;  180.125;    0.000
871.584; 4698.025;  157.125;    0.000
871.765; 4846.025;  183.125;    0.000
871.947; 5175.025;  169.125;    0.000
872.128; 4547.025;  162.125;    0.000
872.309; 4118.025;  159.125;    0.000
872.491; 3791.025;  148.125;    0.000
872.672; 3643.025;  163.125;    0.000
872.853; 3490.025;  152.125;    0.000
873.034; 3408.025;  166.125;    0.000
873.215; 3299.025;  155.125;    0.000
873.396; 3142.025;  147.125;    0.000
873.578; 3126.025;  147.125;    0.000
873.759; 3049.025;  153.125;    0.000
873.940; 2902.025;  194.125;    0.000
874.121; 2796.025;  179.125;    0.000
874.302; 2793.025;  155.125;    0.000
874.483; 2791.025;  131.125;    0.000
874.664; 2695.025;  106.125;    0.000
874.845; 2737.025;  122.125;    0.000
875.026; 2744.025;  127.125;    0.000
875.207; 2697.025;  151.125;    0.000
875.388; 2612.025;  149.125;    0.000
875.568; 2592.025;  164.125;    0.000
875.749; 2511.025;  176.125;    0.000
875.930; 2564.025;  207.125;    0.000
876.111; 2585.025;  177.125;    0.000
876.292; 2388.025;  178.125;    0.000
876.472; 2444.025;  163.125;    0.000
876.653; 2488.025;  159.125;    0.000
876.834; 2368.025;  177.125;    0.000
877.015; 2503.025;  212.125;    0.000
877.195; 2444.025;  166.125;    0.000
877.376; 2440.025;  157.125;    0.000
877.556; 2446.025;  175.125;    0.000
877.737; 2402.025;  220.125;    0.000
877.918; 2256.025;  163.125;    0.000
878.098; 2322.025;  166.125;    0.000
878.279; 2312.025;  136.125;    0.000
878.459; 2369.025;  167.125;    0.000
878.640; 2327.025;  167.125;    0.000
878.820; 2236.025;  155.125;    0.000
879.000; 2335.025;  158.125;    0.000
879.181; 2338.025;  155.125;    0.000
879.361; 2265.025;  181.125;    0.000
879.542; 2308.025;  181.125;    0.000
879.722; 2250.025;  117.125;    0.000
879.902; 2268.025;  180.125;    0.000
880.083; 2329.025;  139.125;    0.000
880.263; 2299.025;  168.125;    0.000
880.443; 2444.025;  206.125;    0.000
880.623; 2809.025;  132.125;    0.000
880.803; 3124.025;  149.125;    0.000
880.984; 2663.025;  189.125;    0.000
881.164; 2428.025;  171.125;    0.000
881.344; 2412.025;  150.125;    0.000
881.524; 2421.025;  185.125;    0.000
881.704; 2478.025;  152.125;    0.000
881.884; 2416.025;  188.125;    0.000
882.064; 2628.025;  155.125;    0.000
882.244; 2682.025;  182.125;    0.000
882.424; 2521.025;  154.125;    0.000
882.604; 2465.025;  175.125;    0.000
882.784; 2396.025;  137.125;    0.000
882.964; 2358.025;  135.125;    0.000
883.144; 2329.025;  142.125;    0.000
883.324; 2373.025;  192.125;    0.000
883.504; 2323.025;  193.125;    0.000
883.683; 2276.025;  208.125;    0.000
883.863; 2233.025;  127.125;    0.000
884.043; 2205.025;  140.125;    0.000
884.223; 2173.025;  167.125;    0.000
884.402; 2172.025;  156.125;    0.000
884.582; 2136.025;  185.125;    0.000
884.762; 2183.025;  187.125;    0.000
884.941; 2095.025;  201.125;    0.000
885.121; 2209.025;  157.125;    0.000
885.301; 2088.025;  173.125;    0.000
885.480; 2170.025;  158.125;    0.000
885.660; 2090.025;  153.125;    0.000
885.839; 2168.025;  144.125;    0.000
886.019; 2153.025;  184.125;    0.000
886.198; 2088.025;  132.125;    0.000
886.378; 2089.025;  124.125;    0.000
886.557; 2149.025;  146.125;    0.000
886.737; 2086.025;  157.125;    0.000
886.916; 2043.025;  203.125;    0.000
887.095; 2128.025;  151.125;    0.000
887.275; 2089.025;  143.125;    0.000
887.454; 2065.025;  140.125;    0.000
887.633; 2045.025;  196.125;    0.000
887.813; 2120.025;  161.125;    0.000
887.992; 2070.025;  183.125;    0.000
888.171; 1965.025;  153.125;    0.000
888.350; 2029.025;  185.125;    0.000
888.530; 2005.025;  163.125;    0.000
888.709; 1938.025;  174.125;    0.000
888.888; 2035.025;  179.125;    0.000
889.067; 2033.025;  178.125;    0.000
889.246; 2115.025;  184.125;    0.000
889.425; 2053.025;  169.125;    0.000
889.604; 2023.025;  210.125;    0.000
889.783; 2080.025;  183.125;    0.000
889.962; 2027.025;  116.125;    0.000
890.141; 2082.025;  179.125;    0.000
890.320; 1989.025;  182.125;    0.000
890.499; 2012.025;  188.125;    0.000
890.678; 2026.025;  167.125;    0.000
890.857; 1926.025;  141.125;    0.000
891.036; 2017.025;  179.125;    0.000
891.214; 2007.025;  156.125;    0.000
891.393; 1998.025;  209.125;    0.000
891.572; 2121.025;  181.125;    0.000
891.751; 2053.025;  172.125;    0.000
891.930; 1963.025;  169.125;    0.000
892.108; 1936.025;  131.125;    0.000
892.287; 2013.025;  162.125;    0.000
892.466; 1995.025;  178.125;    0.000
892.644; 2007.025;  161.125;    0.000
892.823; 1990.025;  180.125;    0.000
893.001; 2024.025;  179.125;    0.000
893.180; 2073.025;  152.125;    0.000
893.359; 2006.025;  184.125;    0.000
893.537; 2014.025;  178.125;    0.000
893.716; 2083.025;  169.125;    0.000
893.894; 2002.025;  159.125;    0.000
894.073; 1985.025;  179.125;    0.000
894.251; 1993.025;  167.125;    0.000
894.429; 2027.025;  142.125;    0.000
894.608; 1988.025;  166.125;    0.000
894.786; 1983.025;  153.125;    0.000
894.964; 2061.025;  181.125;    0.000
895.143; 1917.025;  161.125;    0.000
895.321; 2072.025;  198.125;    0.000
895.499; 2032.025;  184.125;    0.000
895.677; 2114.025;  178.125;    0.000
895.856; 2065.025;  226.125;    0.000
896.034; 2073.025;  180.125;    0.000
896.212; 2076.025;  200.125;    0.000
896.390; 2048.025;  161.125;    0.000
896.568; 2075.025;  204.125;    0.000
896.746; 2055.025;  136.125;    0.000
896.924; 2039.025;  171.125;    0.000
897.102; 2142.025;  203.125;    0.000
897.280; 2100.025;  142.125;    0.000
897.458; 2134.025;  159.125;    0.000
897.636; 2014.025;  163.125;    0.000
897.814; 2032.025;  137.125;    0.000
897.992; 2139.025;  199.125;    0.000
898.170; 2118.025;  176.125;    0.000
898.348; 2089.025;  195.125;    0.000
898.526; 2053.025;  199.125;    0.000
898.704; 2130.025;  260.125;    0.000
898.882; 1958.025;  185.125;    0.000
899.059; 2101.025;  169.125;    0.000
899.237; 2071.025;  197.125;    0.000
899.415; 2093.025;  207.125;    0.000
899.593; 2139.025;  169.125;    0.000
899.770; 2061.025;  182.125;    0.000
899.948; 2093.025;  198.125;    0.000
900.125; 2158.025;  200.125;    0.000
900.303; 2061.025;  165.125;    0.000
900.481; 2142.025;  182.125;    0.000
900.658; 2187.025;  206.125;    0.000
900.836; 2075.025;  188.125;    0.000
901.013; 2201.025;  169.125;    0.000
901.191; 2187.025;  172.125;    0.000
901.368; 2137.025;  170.125;    0.000
901.546; 2220.025;  234.125;    0.000
901.723; 2152.025;  173.125;    0.000
901.901; 2345.025;  190.125;    0.000
902.078; 2368.025;  145.125;    0.000
902.255; 2313.025;  204.125;    0.000
902.433; 2354.025;  198.125;    0.000
902.610; 2332.025;  190.125;    0.000
902.787; 2379.025;  204.125;    0.000
902.964; 2520.025;  208.125;    0.000
903.142; 2465.025;  187.125;    0.000
903.319; 2459.025;  216.125;    0.000
903.496; 2470.025;  186.125;    0.000
903.673; 2606.025;  201.125;    0.000
903.850; 2540.025;  195.125;    0.000
904.027; 2621.025;  211.125;    0.000
904.204; 2752.025;  197.125;    0.000
904.381; 2955.025;  198.125;    0.000
904.558; 3321.025;  188.125;    0.000
904.735; 3570.025;  207.125;    0.000
904.912; 3543.025;  217.125;    0.000
905.089; 3536.025;  188.125;    0.000
905.266; 3378.025;  160.125;    0.000
905.443; 3161.025;  221.125;    0.000
905.620; 3011.025;  163.125;    0.000
905.797; 2944.025;  186.125;    0.000
905.974; 2928.025;  205.125;    0.000
906.151; 2801.025;  159.125;    0.000
906.327; 2799.025;  206.125;    0.000
906.504; 2824.025;  201.125;    0.000
906.681; 2638.025;  202.125;    0.000
906.858; 2606.025;  188.125;    0.000
907.034; 2537.025;  207.125;    0.000
907.211; 2532.025;  182.125;    0.000
907.388; 2494.025;  184.125;    0.000
907.564; 2527.025;  148.125;    0.000
907.741; 2407.025;  181.125;    0.000
907.917; 2411.025;  191.125;    0.000
908.094; 2418.025;  210.125;    0.000
908.271; 2399.025;  171.125;    0.000
908.447; 2444.025;  241.125;    0.000
908.623; 2314.025;  188.125;    0.000
908.800; 2268.025;  205.125;    0.000
908.976; 2329.025;  210.125;    0.000
909.153; 2320.025;  193.125;    0.000
909.329; 2318.025;  206.125;    0.000
909.505; 2271.025;  181.125;    0.000
909.682; 2226.025;  192.125;    0.000
909.858; 2161.025;  134.125;    0.000
910.034; 2166.025;  214.125;    0.000
910.211; 2255.025;  182.125;    0.000
910.387; 2248.025;  194.125;    0.000
910.563; 2207.025;  199.125;    0.000
910.739; 2245.025;  188.125;    0.000
910.915; 2217.025;  192.125;    0.000
911.091; 2230.025;  198.125;    0.000
911.268; 2196.025;  178.125;    0.000
911.444; 2174.025;  201.125;    0.000
911.620; 2175.025;  181.125;    0.000
911.796; 2121.025;  185.125;    0.000
911.972; 2181.025;  176.125;    0.000
912.148; 2136.025;  196.125;    0.000
912.324; 2215.025;  192.125;    0.000
912.500; 2148.025;  204.125;    0.000
912.676; 2159.025;  164.125;    0.000
912.851; 2101.025;  193.125;    0.000
913.027; 2170.025;  175.125;    0.000
913.203; 2154.025;  193.125;    0.000
913.379; 2166.025;  213.125;    0.000
913.555; 2094.025;  211.125;    0.000
913.730; 2155.025;  194.125;    0.000
913.906; 2089.025;  153.125;    0.000
914.082; 2169.025;  212.125;    0.000
914.258; 2133.025;  194.125;    0.000
914.433; 2117.025;  191.125;    0.000
914.609; 2142.025;  208.125;    0.000
914.784; 2149.025;  176.125;    0.000
914.960; 2169.025;  227.125;    0.000
915.136; 2093.025;  152.125;    0.000
915.311; 2151.025;  171.125;    0.000
915.487; 2081.025;  173.125;    0.000
915.662; 2177.025;  189.125;    0.000
915.838; 2171.025;  179.125;    0.000
916.013; 2195.025;  191.125;    0.000
916.189; 2158.025;  207.125;    0.000
916.364; 2121.025;  194.125;    0.000
916.539; 2203.025;  174.125;    0.000
916.715; 2142.025;  207.125;    0.000
916.890; 2138.025;  193.125;    0.000
917.065; 2185.025;  199.125;    0.000
917.240; 2127.025;  214.125;    0.000
917.416; 2196.025;  194.125;    0.000
917.591; 2089.025;  213.125;    0.000
917.766; 2191.025;  194.125;    0.000
917.941; 2087.025;  201.125;    0.000
918.116; 2142.025;  198.125;    0.000
918.292; 2160.025;  176.125;    0.000
918.467; 2195.025;  190.125;    0.000
918.642; 2140.025;  200.125;    0.000
918.817; 2204.025;  186.125;    0.000
918.992; 2171.025;  174.125;    0.000
919.167; 2270.025;  197.125;    0.000
919.342; 2232.025;  188.125;    0.000
919.517; 2288.025;  179.125;    0.000
919.692; 2232.025;  182.125;    0.000
919.867; 2262.025;  216.125;    0.000
920.041; 2279.025;  208.125;    0.000
920.216; 2242.025;  223.125;    0.000
920.391; 2364.025;  203.125;    0.000
920.566; 2364.025;  202.125;    0.000
920.741; 2439.025;  197.125;    0.000
920.915; 2538.025;  223.125;    0.000
921.090; 2605.025;  183.125;    0.000
921.265; 2762.025;  169.125;    0.000
921.439; 3000.025;  212.125;    0.000
921.614; 2732.025;  190.125;    0.000
921.789; 2691.025;  177.125;    0.000
921.963; 2659.025;  233.125;    0.000
922.138; 2595.025;  156.125;    0.000
922.312; 2592.025;  193.125;    0.000
922.487; 2514.025;  208.125;    0.000
922.661; 2636.025;  212.125;    0.000
922.836; 2768.025;  210.125;    0.000
923.010; 2710.025;  183.125;    0.000
923.185; 2608.025;  228.125;    0.000
923.359; 2639.025;  227.125;    0.000
923.534; 2530.025;  189.125;    0.000
923.708; 2634.025;  210.125;    0.000
923.882; 2659.025;  217.125;    0.000
924.057; 2666.025;  195.125;    0.000
924.231; 2550.025;  201.125;    0.000
924.405; 2559.025;  188.125;    0.000
924.579; 2509.025;  188.125;    0.000
924.753; 2530.025;  174.125;    0.000
924.928; 2529.025;  179.125;    0.000
925.102; 2493.025;  186.125;    0.000
925.276; 2450.025;  201.125;    0.000
925.450; 2545.025;  211.125;    0.000
925.624; 2505.025;  238.125;    0.000
925.798; 2539.025;  191.125;    0.000
925.972; 2619.025;  192.125;    0.000
926.146; 2851.025;  198.125;    0.000
926.320; 2921.025;  151.125;    0.000
926.494; 3095.025;  202.125;    0.000
926.668; 3260.025;  197.125;    0.000
926.842; 3388.025;  177.125;    0.000
927.016; 3280.025;  202.125;    0.000
927.190; 3211.025;  207.125;    0.000
927.363; 3216.025;  180.125;    0.000
927.537; 3070.025;  212.125;    0.000
927.711; 2964.025;  148.125;    0.000
927.885; 3000.025;  196.125;    0.000
928.058; 2852.025;  173.125;    0.000
928.232; 2964.025;  219.125;    0.000
928.406; 2903.025;  141.125;    0.000
928.579; 2864.025;  157.125;    0.000
928.753; 2850.025;  205.125;    0.000
928.927; 2736.025;  196.125;    0.000
929.100; 2764.025;  237.125;    0.000
929.274; 2688.025;  166.125;    0.000
929.447; 2620.025;  150.125;    0.000
929.621; 2629.025;  188.125;    0.000
929.794; 2498.025;  169.125;    0.000
929.968; 2546.025;  194.125;    0.000
930.141; 2506.025;  226.125;    0.000
930.315; 2528.025;  196.125;    0.000
930.488; 2483.025;  233.125;    0.000
930.661; 2417.025;  188.125;    0.000
930.835; 2419.025;  170.125;    0.000
931.008; 2443.025;  176.125;    0.000
931.181; 2480.025;  175.125;    0.000
931.354; 2438.025;  212.125;    0.000
931.528; 2419.025;  177.125;    0.000
931.701; 2400.025;  218.125;    0.000
931.874; 2342.025;  175.125;    0.000
932.047; 2280.025;  157.125;    0.000
932.220; 2291.025;  187.125;    0.000
932.393; 2336.025;  166.125;    0.000
932.566; 2198.025;  168.125;    0.000
932.739; 2323.025;  203.125;    0.000
932.912; 2292.025;  202.125;    0.000
933.085; 2218.025;  209.125;    0.000
933.258; 2244.025;  196.125;    0.000
933.431; 2193.025;  207.125;    0.000
933.604; 2226.025;  201.125;    0.000
933.777; 2234.025;  202.125;    0.000
933.950; 2279.025;  184.125;    0.000
934.123; 2226.025;  167.125;    0.000
934.296; 2209.025;  209.125;    0.000
934.468; 2155.025;  216.125;    0.000
934.641; 2079.025;  156.125;    0.000
934.814; 2224.025;  215.125;    0.000
934.987; 2173.025;  201.125;    0.000
935.159; 2169.025;  176.125;    0.000
935.332; 2176.025;  203.125;    0.000
935.505; 2220.025;  163.125;    0.000
935.677; 2180.025;  169.125;    0.000
935.850; 2147.025;  178.125;    0.000
936.022; 2171.025;  187.125;    0.000
936.195; 2138.025;  207.125;    0.000
936.367; 2218.025;  191.125;    0.000
936.540; 2176.025;  214.125;    0.000
936.712; 2164.025;  202.125;    0.000
936.885; 2236.025;  195.125;    0.000
937.057; 2235.025;  173.125;    0.000
937.229; 2265.025;  179.125;    0.000
937.402; 2224.025;  174.125;    0.000
937.574; 2242.025;  140.125;    0.000
937.746; 2310.025;  153.125;    0.000
937.919; 2436.025;  196.125;    0.000
938.091; 2387.025;  173.125;    0.000
938.263; 2564.025;  206.125;    0.000
938.435; 2737.025;  213.125;    0.000
938.608; 2997.025;  204.125;    0.000
938.780; 3394.025;  199.125;    0.000
938.952; 3418.025;  190.125;    0.000
939.124; 3496.025;  182.125;    0.000
939.296; 3881.025;  188.125;    0.000
939.468; 3993.025;  119.125;    0.000
939.640; 3599.025;  171.125;    0.000
939.812; 3403.025;  222.125;    0.000
939.984; 3038.025;  172.125;    0.000
940.156; 3033.025;  171.125;    0.000
940.328; 2835.025;  215.125;    0.000
940.500; 2610.025;  179.125;    0.000
940.672; 2630.025;  178.125;    0.000
940.843; 2599.025;  193.125;    0.000
941.015; 2641.025;  207.125;    0.000
941.187; 2456.025;  179.125;    0.000
941.359; 2321.025;  191.125;    0.000
941.531; 2387.025;  160.125;    0.000
941.702; 2320.025;  208.125;    0.000
941.874; 2349.025;  143.125;    0.000
942.046; 2294.025;  189.125;    0.000
942.217; 2237.025;  167.125;    0.000
942.389; 2358.025;  199.125;    0.000
942.560; 2190.025;  179.125;    0.000
942.732; 2155.025;  209.125;    0.000
942.904; 2265.025;  180.125;    0.000
943.075; 2107.025;  197.125;    0.000
943.247; 2111.025;  207.125;    0.000
943.418; 2119.025;  183.125;    0.000
943.589; 1998.025;  176.125;    0.000
943.761; 2047.025;  165.125;    0.000
943.932; 2126.025;  170.125;    0.000
944.104; 2120.025;  147.125;    0.000
944.275; 2028.025;  149.125;    0.000
944.446; 2059.025;  191.125;    0.000
944.617; 2016.025;  128.125;    0.000
944.789; 2051.025;  166.125;    0.000
944.960; 2002.025;  195.125;    0.000
945.131; 2046.025;  164.125;    0.000
945.302; 2142.025;  229.125;    0.000
945.473; 2072.025;  153.125;    0.000
945.645; 2052.025;  166.125;    0.000
945.816; 2101.025;  187.125;    0.000
945.987; 2093.025;  193.125;    0.000
946.158; 2179.025;  166.125;    0.000
946.329; 2128.025;  196.125;    0.000
946.500; 2158.025;  152.125;    0.000
946.671; 2019.025;  161.125;    0.000
946.842; 2065.025;  176.125;    0.000
947.013; 2032.025;  188.125;    0.000
947.183; 2094.025;  213.125;    0.000
947.354; 1953.025;  163.125;    0.000
947.525; 2032.025;  204.125;    0.000
947.696; 1881.025;  159.125;    0.000
947.867; 2030.025;  197.125;    0.000
948.037; 1959.025;  174.125;    0.000
948.208; 2001.025;  163.125;    0.000
948.379; 2004.025;  189.125;    0.000
948.550; 1967.025;  173.125;    0.000
948.720; 1989.025;  186.125;    0.000
948.891; 1974.025;  166.125;    0.000
949.061; 1925.025;  197.125;    0.000
949.232; 1974.025;  168.125;    0.000
949.403; 1906.025;  188.125;    0.000
949.573; 1959.025;  164.125;    0.000
949.744; 1997.025;  194.125;    0.000
949.914; 1895.025;  154.125;    0.000
950.085; 1917.025;  197.125;    0.000
950.255; 1891.025;  187.125;    0.000
950.425; 1980.025;  193.125;    0.000
950.596; 1933.025;  182.125;    0.000
950.766; 1886.025;  202.125;    0.000
950.936; 1829.025;  230.125;    0.000
951.107; 1876.025;  133.125;    0.000
951.277; 1932.025;  234.125;    0.000
951.447; 1963.025;  200.125;    0.000
951.617; 1899.025;  212.125;    0.000
951.788; 1891.025;  176.125;    0.000
951.958; 1896.025;  218.125;    0.000
952.128; 1906.025;  198.125;    0.000
952.298; 1820.025;  185.125;    0.000
952.468; 1876.025;  231.125;    0.000
952.638; 1898.025;  213.125;    0.000
952.808; 1894.025;  218.125;    0.000
952.978; 1831.025;  252.125;    0.000
953.148; 1876.025;  200.125;    0.000
953.318; 1834.025;  243.125;    0.000
953.488; 1967.025;  140.125;    0.000
953.658; 1917.025;  208.125;    0.000
953.828; 1946.025;  179.125;    0.000
953.998; 1846.025;  211.125;    0.000
954.167; 1831.025;  197.125;    0.000
954.337; 1916.025;  217.125;    0.000
954.507; 1821.025;  219.125;    0.000
954.677; 1817.025;  201.125;    0.000
954.846; 1845.025;  241.125;    0.000
955.016; 1870.025;  222.125;    0.000
955.186; 1850.025;  200.125;    0.000
955.355; 1899.025;  247.125;    0.000
955.525; 1875.025;  212.125;    0.000
955.695; 1843.025;  200.125;    0.000
955.864; 1845.025;  196.125;    0.000
956.034; 1823.025;  195.125;    0.000
956.203; 1816.025;  243.125;    0.000
956.373; 1820.025;  197.125;    0.000
956.542; 1818.025;  237.125;    0.000
956.711; 1783.025;  249.125;    0.000
956.881; 1834.025;  235.125;    0.000
957.050; 1864.025;  259.125;    0.000
957.220; 1896.025;  234.125;    0.000
957.389; 1805.025;  250.125;    0.000
957.558; 1796.025;  214.125;    0.000
957.727; 1853.025;  225.125;    0.000
957.897; 1798.025;  211.125;    0.000
958.066; 1794.025;  200.125;    0.000
958.235; 1783.025;  202.125;    0.000
958.404; 1782.025;  242.125;    0.000
958.573; 1853.025;  222.125;    0.000
958.743; 1783.025;  191.125;    0.000
958.912; 1803.025;  183.125;    0.000
959.081; 1754.025;  212.125;    0.000
959.250; 1733.025;  192.125;    0.000
959.419; 1753.025;  238.125;    0.000
959.588; 1858.025;  205.125;    0.000
959.757; 1776.025;  213.125;    0.000
959.926; 1747.025;  217.125;    0.000
960.094; 1789.025;  215.125;    0.000
960.263; 1729.025;  220.125;    0.000
960.432; 1715.025;  164.125;    0.000
960.601; 1734.025;  228.125;    0.000
960.770; 1694.025;  176.125;    0.000
960.939; 1719.025;  201.125;    0.000
961.107; 1711.025;  183.125;    0.000
961.276; 1784.025;  199.125;    0.000
961.445; 1681.025;  205.125;    0.000
961.613; 1727.025;  183.125;    0.000
961.782; 1758.025;  216.125;    0.000
961.951; 1738.025;  169.125;    0.000
962.119; 1720.025;  211.125;    0.000
962.288; 1695.025;  204.125;    0.000
962.456; 1792.025;  187.125;    0.000
962.625; 1729.025;  223.125;    0.000
962.793; 1791.025;  200.125;    0.000
962.962; 1738.025;  185.125;    0.000
963.130; 1694.025;  195.125;    0.000
963.298; 1696.025;  187.125;    0.000
963.467; 1749.025;  247.125;    0.000
963.635; 1690.025;  165.125;    0.000
963.803; 1759.025;  192.125;    0.000
963.972; 1725.025;  191.125;    0.000
964.140; 1716.025;  163.125;    0.000
964.308; 1759.025;  161.125;    0.000
964.477; 1687.025;  182.125;    0.000
964.645; 1716.025;  195.125;    0.000
964.813; 1705.025;  165.125;    0.000
964.981; 1774.025;  193.125;    0.000
965.149; 1806.025;  174.125;    0.000
965.317; 1756.025;  194.125;    0.000
965.485; 1742.025;  209.125;    0.000
965.653; 1739.025;  210.125;    0.000
965.821; 1659.025;  194.125;    0.000
965.989; 1765.025;  182.125;    0.000
966.157; 1722.025;  180.125;    0.000
966.325; 1693.025;  198.125;    0.000
966.493; 1644.025;  182.125;    0.000
966.661; 1754.025;  200.125;    0.000
966.829; 1719.025;  190.125;    0.000
966.996; 1727.025;  221.125;    0.000
967.164; 1703.025;  176.125;    0.000
967.332; 1732.025;  228.125;    0.000
967.500; 1723.025;  177.125;    0.000
967.667; 1708.025;  202.125;    0.000
967.835; 1798.025;  220.125;    0.000
968.003; 1720.025;  183.125;    0.000
968.170; 1710.025;  163.125;    0.000
968.338; 1720.025;  162.125;    0.000
968.505; 1706.025;  198.125;    0.000
968.673; 1765.025;  213.125;    0.000
968.841; 1738.025;  131.125;    0.000
969.008; 1805.025;  225.125;    0.000
969.175; 1704.025;  202.125;    0.000
969.343; 1753.025;  222.125;    0.000
969.510; 1759.025;  230.125;    0.000
969.678; 1711.025;  161.125;    0.000
969.845; 1769.025;  208.125;    0.000
970.012; 1762.025;  186.125;    0.000
970.180; 1789.025;  226.125;    0.000
970.347; 1712.025;  222.125;    0.000
970.514; 1714.025;  206.125;    0.000
970.681; 1711.025;  173.125;    0.000
970.849; 1729.025;  190.125;    0.000
971.016; 1759.025;  220.125;    0.000
971.183; 1796.025;  202.125;    0.000
971.350; 1775.025;  196.125;    0.000
971.517; 1830.025;  218.125;    0.000
971.684; 1763.025;  228.125;    0.000
971.851; 1802.025;  235.125;    0.000
972.018; 1826.025;  200.125;    0.000
972.185; 1826.025;  183.125;    0.000
972.352; 1739.025;  216.125;    0.000
972.519; 1802.025;  227.125;    0.000
972.686; 1907.025;  209.125;    0.000
972.853; 1837.025;  157.125;    0.000
973.020; 1791.025;  179.125;    0.000
973.186; 1822.025;  173.125;    0.000
973.353; 1791.025;  189.125;    0.000
973.520; 1812.025;  228.125;    0.000
973.687; 1853.025;  190.125;    0.000
973.853; 1766.025;  197.125;    0.000
974.020; 1793.025;  208.125;    0.000
974.187; 1712.025;  158.125;    0.000
974.353; 1754.025;  201.125;    0.000
974.520; 1717.025;  158.125;    0.000
974.687; 1817.025;  192.125;    0.000
974.853; 1791.025;  177.125;    0.000
975.020; 1674.025;  212.125;    0.000
975.186; 1717.025;  200.125;    0.000
975.353; 1703.025;  208.125;    0.000
975.519; 1761.025;  169.125;    0.000
975.685; 1768.025;  176.125;    0.000
975.852; 1745.025;  201.125;    0.000
976.018; 1793.025;  209.125;    0.000
976.184; 1820.025;  197.125;    0.000
976.351; 1657.025;  196.125;    0.000
976.517; 1782.025;  243.125;    0.000
976.683; 1693.025;  210.125;    0.000
976.849; 1733.025;  226.125;    0.000
977.016; 1662.025;  218.125;    0.000
977.182; 1719.025;  213.125;    0.000
977.348; 1611.025;  205.125;    0.000
977.514; 1793.025;  210.125;    0.000
977.680; 1677.025;  226.125;    0.000
977.846; 1673.025;  206.125;    0.000
978.012; 1660.025;  222.125;    0.000
978.178; 1632.025;  216.125;    0.000
978.344; 1673.025;  172.125;    0.000
978.510; 1629.025;  210.125;    0.000
978.676; 1631.025;  184.125;    0.000
978.842; 1648.025;  190.125;    0.000
979.008; 1708.025;  203.125;    0.000
979.174; 1707.025;  211.125;    0.000
979.340; 1661.025;  190.125;    0.000
979.505; 1714.025;  235.125;    0.000
979.671; 1648.025;  182.125;    0.000
979.837; 1632.025;  235.125;    0.000
980.003; 1700.025;  183.125;    0.000
980.168; 1743.025;  220.125;    0.000
980.334; 1685.025;  161.125;    0.000
980.499; 1728.025;  212.125;    0.000
980.665; 1792.025;  219.125;    0.000
980.831; 1758.025;  201.125;    0.000
980.996; 1710.025;  189.125;    0.000
981.162; 1727.025;  222.125;    0.000
981.327; 1678.025;  173.125;    0.000
981.493; 1738.025;  197.125;    0.000
981.658; 1713.025;  178.125;    0.000
981.823; 1685.025;  196.125;    0.000
981.989; 1740.025;  248.125;    0.000
982.154; 1801.025;  222.125;    0.000
982.319; 1727.025;  226.125;    0.000
982.485; 1769.025;  188.125;    0.000
982.650; 1757.025;  203.125;    0.000
982.815; 1752.025;  237.125;    0.000
982.980; 1765.025;  210.125;    0.000
983.146; 1714.025;  202.125;    0.000
983.311; 1643.025;  195.125;    0.000
983.476; 1697.025;  207.125;    0.000
983.641; 1662.025;  198.125;    0.000
983.806; 1735.025;  136.125;    0.000
983.971; 1749.025;  248.125;    0.000
984.136; 1716.025;  213.125;    0.000
984.301; 1679.025;  181.125;    0.000
984.466; 1759.025;  210.125;    0.000
984.631; 1742.025;  219.125;    0.000
984.796; 1787.025;  207.125;    0.000
984.961; 1680.025;  214.125;    0.000
985.126; 1680.025;  218.125;    0.000
985.291; 1722.025;  214.125;    0.000
985.455; 1715.025;  187.125;    0.000
985.620; 1750.025;  191.125;    0.000
985.785; 1684.025;  190.125;    0.000
985.950; 1658.025;  184.125;    0.000
986.114; 1657.025;  242.125;    0.000
986.279; 1760.025;  251.125;    0.000
986.444; 1727.025;  177.125;    0.000
986.608; 1752.025;  216.125;    0.000
986.773; 1743.025;  211.125;    0.000
986.937; 1875.025;  244.125;    0.000
987.102; 1788.025;  187.125;    0.000
987.266; 1720.025;  178.125;    0.000
987.431; 1684.025;  205.125;    0.000
987.595; 1720.025;  221.125;    0.000
987.760; 1774.025;  205.125;    0.000
987.924; 1784.025;  195.125;    0.000
988.088; 1826.025;  184.125;    0.000
988.253; 1778.025;  188.125;    0.000
988.417; 1708.025;  196.125;    0.000
988.581; 1759.025;  218.125;    0.000
988.746; 1710.025;  203.125;    0.000
988.910; 1785.025;  195.125;    0.000
989.074; 1727.025;  187.125;    0.000
989.238; 1742.025;  243.125;    0.000
989.402; 1786.025;  242.125;    0.000
989.566; 1729.025;  205.125;    0.000
989.731; 1723.025;  195.125;    0.000
989.895; 1692.025;  211.125;    0.000
990.059; 1653.025;  175.125;    0.000
990.223; 1673.025;  176.125;    0.000
990.387; 1799.025;  234.125;    0.000
990.551; 1768.025;  231.125;    0.000
990.714; 1736.025;  209.125;    0.000
990.878; 1663.025;  187.125;    0.000
991.042; 1759.025;  183.125;    0.000
991.206; 1780.025;  216.125;    0.000
991.370; 1738.025;  257.125;    0.000
991.534; 1724.025;  188.125;    0.000
991.697; 1722.025;  203.125;    0.000
991.861; 1736.025;  219.125;    0.000
992.025; 1716.025;  221.125;    0.000
992.188; 1781.025;  188.125;    0.000
992.352; 1708.025;  205.125;    0.000
992.516; 1621.025;  189.125;    0.000
992.679; 1716.025;  207.125;    0.000
992.843; 1712.025;  210.125;    0.000
993.006; 1767.025;  191.125;    0.000
993.170; 1806.025;  228.125;    0.000
993.333; 1677.025;  142.125;    0.000
993.497; 1678.025;  175.125;    0.000
993.660; 1752.025;  220.125;    0.000
993.824; 1698.025;  193.125;    0.000
993.987; 1779.025;  219.125;    0.000
994.150; 1665.025;  166.125;    0.000
994.314; 1761.025;  207.125;    0.000
994.477; 1756.025;  227.125;    0.000
994.640; 1747.025;  210.125;    0.000
994.803; 1744.025;  219.125;    0.000
994.967; 1781.025;  192.125;    0.000
995.130; 1767.025;  197.125;    0.000
995.293; 1794.025;  189.125;    0.000
995.456; 1702.025;  180.125;    0.000
995.619; 1784.025;  239.125;    0.000
995.782; 1631.025;  209.125;    0.000
995.945; 1716.025;  216.125;    0.000
996.108; 1749.025;  198.125;    0.000
996.271; 1737.025;  205.125;    0.000
996.434; 1708.025;  205.125;    0.000
996.597; 1754.025;  208.125;    0.000
996.760; 1686.025;  205.125;    0.000
996.923; 1757.025;  174.125;    0.000
997.086; 1721.025;  198.125;    0.000
997.248; 1814.025;  214.125;    0.000
997.411; 1755.025;  237.125;    0.000
997.574; 1705.025;  182.125;    0.000
997.737; 1749.025;  188.125;    0.000
997.899; 1683.025;  216.125;    0.000
998.062; 1583.025;  210.125;    0.000
998.225; 1682.025;  202.125;    0.000
998.387; 1653.025;  202.125;    0.000
998.550; 1657.025;  193.125;    0.000
998.712; 1684.025;  225.125;    0.000
998.875; 1746.025;  228.125;    0.000
999.037; 1647.025;  186.125;    0.000
999.200; 1715.025;  212.125;    0.000
999.362; 1753.025;  234.125;    0.000
999.525; 1698.025;  170.125;    0.000
999.687; 1785.025;  191.125;    0.000
999.849; 1722.025;  218.125;    0.000
1000.012; 1684.025;  187.125;    0.000
1000.174; 1787.025;  216.125;    0.000
1000.336; 1803.025;  194.125;    0.000
1000.499; 1813.025;  209.125;    0.000
1000.661; 1747.025;  208.125;    0.000
1000.823; 1752.025;  197.125;    0.000
1000.985; 1718.025;  201.125;    0.000
1001.147; 1808.025;  234.125;    0.000
1001.309; 1783.025;  180.125;    0.000
1001.471; 1836.025;  223.125;    0.000
1001.633; 1734.025;  198.125;    0.000
1001.796; 1827.025;  200.125;    0.000
1001.958; 1910.025;  204.125;    0.000
1002.119; 1862.025;  193.125;    0.000
1002.281; 1950.025;  205.125;    0.000
1002.443; 1935.025;  236.125;    0.000
1002.605; 2082.025;  197.125;    0.000
1002.767; 2147.025;  223.125;    0.000
1002.929; 2319.025;  220.125;    0.000
1003.091; 2425.025;  214.125;    0.000
1003.252; 2598.025;  233.125;    0.000
1003.414; 2635.025;  230.125;    0.000
1003.576; 2802.025;  203.125;    0.000
1003.738; 2958.025;  201.125;    0.000
1003.899; 3081.025;  222.125;    0.000
1004.061; 3241.025;  208.125;    0.000
1004.222; 3380.025;  194.125;    0.000
1004.384; 3551.025;  205.125;    0.000
1004.546; 3623.025;  162.125;    0.000
1004.707; 3667.025;  232.125;    0.000
1004.869; 3695.025;  223.125;    0.000
1005.030; 3646.025;  204.125;    0.000
1005.191; 3514.025;  214.125;    0.000
1005.353; 3520.025;  226.125;    0.000
1005.514; 3262.025;  201.125;    0.000
1005.675; 3188.025;  205.125;    0.000
1005.837; 3057.025;  235.125;    0.000
1005.998; 2901.025;  210.125;    0.000
1006.159; 2872.025;  214.125;    0.000
1006.321; 3025.025;  236.125;    0.000
1006.482; 3052.025;  214.125;    0.000
1006.643; 3195.025;  213.125;    0.000
1006.804; 3313.025;  204.125;    0.000
1006.965; 3488.025;  212.125;    0.000
1007.126; 3527.025;  251.125;    0.000
1007.287; 3572.025;  238.125;    0.000
1007.448; 3470.025;  198.125;    0.000
1007.609; 3311.025;  241.125;    0.000
1007.770; 3210.025;  213.125;    0.000
1007.931; 3302.025;  225.125;    0.000
1008.092; 3426.025;  204.125;    0.000
1008.253; 3479.025;  220.125;    0.000
1008.414; 3480.025;  180.125;    0.000
1008.575; 3589.025;  224.125;    0.000
1008.736; 3477.025;  164.125;    0.000
1008.896; 3511.025;  247.125;    0.000
1009.057; 3348.025;  263.125;    0.000
1009.218; 3438.025;  233.125;    0.000
1009.379; 3477.025;  207.125;    0.000
1009.539; 3451.025;  221.125;    0.000
1009.700; 3568.025;  209.125;    0.000
1009.860; 3508.025;  217.125;    0.000
1010.021; 3493.025;  182.125;    0.000
1010.182; 3551.025;  233.125;    0.000
1010.342; 3508.025;  210.125;    0.000
1010.503; 3560.025;  232.125;    0.000
1010.663; 3732.025;  228.125;    0.000
1010.823; 3605.025;  212.125;    0.000
1010.984; 3730.025;  244.125;    0.000
1011.144; 3800.025;  200.125;    0.000
1011.305; 3890.025;  237.125;    0.000
1011.465; 4076.025;  225.125;    0.000
1011.625; 3909.025;  215.125;    0.000
1011.785; 4021.025;  235.125;    0.000
1011.946; 4046.025;  231.125;    0.000
1012.106; 3979.025;  206.125;    0.000
1012.266; 4050.025;  218.125;    0.000
1012.426; 4023.025;  249.125;    0.000
1012.586; 4037.025;  217.125;    0.000
1012.746; 4047.025;  231.125;    0.000
1012.906; 4066.025;  230.125;    0.000
1013.066; 4031.025;  260.125;    0.000
1013.226; 4078.025;  206.125;    0.000
1013.386; 3965.025;  220.125;    0.000
1013.546; 4022.025;  233.125;    0.000
1013.706; 3971.025;  194.125;    0.000
1013.866; 3992.025;  209.125;    0.000
1014.026; 4085.025;  204.125;    0.000
1014.186; 4075.025;  203.125;    0.000
1014.346; 3985.025;  244.125;    0.000
1014.505; 4190.025;  206.125;    0.000
1014.665; 4216.025;  210.125;    0.000
1014.825; 4143.025;  235.125;    0.000
1014.985; 4146.025;  227.125;    0.000
1015.144; 4501.025;  237.125;    0.000
1015.304; 4727.025;  196.125;    0.000
1015.464; 4498.025;  228.125;    0.000
1015.623; 4526.025;  235.125;    0.000
1015.783; 4851.025;  187.125;    0.000
1015.942; 5465.025;  184.125;    0.000
1016.102; 5194.025;  245.125;    0.000
1016.261; 4921.025;  203.125;    0.000
1016.420; 5697.025;  209.125;    0.000
1016.580; 6494.025;  235.125;    0.000
1016.739; 6049.025;  175.125;    0.000
1016.899; 5715.025;  220.125;    0.000
1017.058; 6069.025;  219.125;    0.000
1017.217; 6845.025;  238.125;    0.000
1017.376; 6065.025;  235.125;    0.000
1017.536; 5415.025;  195.125;    0.000
1017.695; 5732.025;  215.125;    0.000
1017.854; 5989.025;  231.125;    0.000
1018.013; 5635.025;  184.125;    0.000
1018.172; 5203.025;  179.125;    0.000
1018.331; 5286.025;  205.125;    0.000
1018.490; 5732.025;  203.125;    0.000
1018.649; 6025.025;  261.125;    0.000
1018.808; 6052.025;  253.125;    0.000
1018.967; 6052.025;  201.125;    0.000
1019.126; 6191.025;  216.125;    0.000
1019.285; 6364.025;  169.125;    0.000
1019.444; 6291.025;  226.125;    0.000
1019.603; 5796.025;  252.125;    0.000
1019.762; 5738.025;  206.125;    0.000
1019.921; 5756.025;  235.125;    0.000
1020.079; 6144.025;  192.125;    0.000
1020.238; 6480.025;  226.125;    0.000
1020.397; 6166.025;  231.125;    0.000
1020.555; 5831.025;  218.125;    0.000
1020.714; 6128.025;  235.125;    0.000
1020.873; 6694.025;  229.125;    0.000
1021.031; 6614.025;  234.125;    0.000
1021.190; 6161.025;  223.125;    0.000
1021.348; 6024.025;  186.125;    0.000
1021.507; 6776.025;  201.125;    0.000
1021.665; 7363.025;  222.125;    0.000
1021.824; 6627.025;  208.125;    0.000
1021.982; 6363.025;  209.125;    0.000
1022.141; 6270.025;  224.125;    0.000
1022.299; 7142.025;  214.125;    0.000
1022.457; 7400.025;  176.125;    0.000
1022.616; 6818.025;  211.125;    0.000
1022.774; 6084.025;  218.125;    0.000
1022.932; 6531.025;  205.125;    0.000
1023.090; 7531.025;  246.125;    0.000
1023.249; 7730.025;  249.125;    0.000
1023.407; 6771.025;  235.125;    0.000
1023.565; 6104.025;  202.125;    0.000
1023.723; 6678.025;  210.125;    0.000
1023.881; 7546.025;  206.125;    0.000
1024.039; 7739.025;  240.125;    0.000
1024.197; 7008.025;  275.125;    0.000
1024.355; 6512.025;  228.125;    0.000
1024.513; 6733.025;  234.125;    0.000
1024.671; 7665.025;  222.125;    0.000
1024.829; 7774.025;  241.125;    0.000
1024.987; 7098.025;  209.125;    0.000
1025.145; 6526.025;  227.125;    0.000
1025.302; 6799.025;  208.125;    0.000
1025.460; 7439.025;  210.125;    0.000
1025.618; 7957.025;  192.125;    0.000
1025.776; 7613.025;  220.125;    0.000
1025.933; 6755.025;  223.125;    0.000
1026.091; 7044.025;  189.125;    0.000
1026.249; 7610.025;  210.125;    0.000
1026.406; 8267.025;  231.125;    0.000
1026.564; 7745.025;  247.125;    0.000
1026.721; 7334.025;  213.125;    0.000
1026.879; 7060.025;  208.125;    0.000
1027.036; 7775.025;  222.125;    0.000
1027.194; 8088.025;  253.125;    0.000
1027.351; 8213.025;  239.125;    0.000
1027.509; 7651.025;  232.125;    0.000
1027.666; 7282.025;  251.125;    0.000
1027.823; 7862.025;  212.125;    0.000
1027.981; 8270.025;  260.125;    0.000
1028.138; 8473.025;  263.125;    0.000
1028.295; 7702.025;  251.125;    0.000
1028.452; 7215.025;  249.125;    0.000
1028.609; 7463.025;  259.125;    0.000
1028.767; 8333.025;  255.125;    0.000
1028.924; 8545.025;  201.125;    0.000
1029.081; 8095.025;  217.125;    0.000
1029.238; 8246.025;  230.125;    0.000
1029.395; 7396.025;  263.125;    0.000
1029.552; 7869.025;  207.125;    0.000
1029.709; 8599.025;  220.125;    0.000
1029.866; 8856.025;  214.125;    0.000
1030.023; 8413.025;  224.125;    0.000
1030.180; 7452.025;  209.125;    0.000
1030.337; 7511.025;  269.125;    0.000
1030.494; 8382.025;  207.125;    0.000
1030.650; 8830.025;  230.125;    0.000
1030.807; 9333.025;  217.125;    0.000
1030.964; 8252.025;  212.125;    0.000
1031.121; 7622.025;  220.125;    0.000
1031.277; 7811.025;  233.125;    0.000
1031.434; 8301.025;  266.125;    0.000
1031.591; 9295.025;  270.125;    0.000
1031.747; 9436.025;  229.125;    0.000
1031.904; 9341.025;  227.125;    0.000
1032.060; 8706.025;  210.125;    0.000
1032.217; 8035.025;  218.125;    0.000
1032.373; 9206.025;  190.125;    0.000
1032.530; 9500.025;  236.125;    0.000
1032.686;10447.025;  199.125;    0.000
1032.843;10505.025;  216.125;    0.000
1032.999; 9714.025;  204.125;    0.000
1033.155; 9561.025;  208.125;    0.000
1033.312; 9760.025;  231.125;    0.000
1033.468;11272.025;  213.125;    0.000
1033.624;12631.025;  235.125;    0.000
1033.780;13255.025;  233.125;    0.000
1033.937;13199.025;  201.125;    0.000
1034.093;11482.025;  233.125;    0.000
1034.249;11918.025;  214.125;    0.000
1034.405;11710.025;  245.125;    0.000
1034.561;12748.025;  228.125;    0.000
1034.717;14142.025;  234.125;    0.000
1034.873;13569.025;  248.125;    0.000
1035.029;14585.025;  220.125;    0.000
1035.185;13031.025;  294.125;    0.000
1035.341;12464.025;  231.125;    0.000
1035.497;13501.025;  254.125;    0.000
1035.653;13811.025;  225.125;    0.000
1035.809;15483.025;  243.125;    0.000
1035.964;17206.025;  216.125;    0.000
1036.120;15400.025;  199.125;    0.000
1036.276;15891.025;  220.125;    0.000
1036.432;14778.025;  210.125;    0.000
1036.587;13666.025;  225.125;    0.000
1036.743;14437.025;  245.125;    0.000
1036.899;15506.025;  219.125;    0.000
1037.054;16518.025;  157.125;    0.000
1037.210;18783.025;  208.125;    0.000
1037.365;19351.025;  230.125;    0.000
1037.521;17557.025;  236.125;    0.000
1037.676;16885.025;  193.125;    0.000
1037.832;15281.025;  246.125;    0.000
1037.987;15670.025;  231.125;    0.000
1038.143;16184.025;  234.125;    0.000
1038.298;18531.025;  219.125;    0.000
1038.453;18325.025;  230.125;    0.000
1038.609;20257.025;  254.125;    0.000
1038.764;20857.025;  249.125;    0.000
1038.919;18316.025;  224.125;    0.000
1039.074;18912.025;  209.125;    0.000
1039.229;16827.025;  214.125;    0.000
1039.385;16927.025;  268.125;    0.000
1039.540;17051.025;  268.125;    0.000
1039.695;19524.025;  229.125;    0.000
1039.850;21272.025;  252.125;    0.000
1040.005;22302.025;  248.125;    0.000
1040.160;24746.025;  215.125;    0.000
1040.315;22912.025;  239.125;    0.000
1040.470;22192.025;  210.125;    0.000
1040.625;21290.025;  239.125;    0.000
1040.780;20329.025;  251.125;    0.000
1040.935;19835.025;  247.125;    0.000
1041.089;21298.025;  215.125;    0.000
1041.244;24286.025;  210.125;    0.000
1041.399;25203.025;  237.125;    0.000
1041.554;25997.025;  253.125;    0.000
1041.708;28910.025;  227.125;    0.000
1041.863;27675.025;  219.125;    0.000
1042.018;27309.025;  246.125;    0.000
1042.172;26350.025;  236.125;    0.000
1042.327;25485.025;  272.125;    0.000
1042.481;25721.025;  197.125;    0.000
1042.636;26110.025;  213.125;    0.000
1042.791;26127.025;  250.125;    0.000
1042.945;31255.025;  267.125;    0.000
1043.099;32783.023;  257.125;    0.000
1043.254;32431.025;  206.125;    0.000
1043.408;33997.023;  266.125;    0.000
1043.563;36162.023;  232.125;    0.000
1043.717;34704.023;  241.125;    0.000
1043.871;32558.025;  248.125;    0.000
1044.025;32696.025;  234.125;    0.000
1044.180;32393.025;  222.125;    0.000
1044.334;32383.025;  235.125;    0.000
1044.488;33636.023;  270.125;    0.000
1044.642;34455.023;  215.125;    0.000
1044.796;37628.023;  212.125;    0.000
1044.950;42803.023;  228.125;    0.000
1045.104;46564.023;  223.125;    0.000
1045.258;45868.023;  236.125;    0.000
1045.412;45124.023;  225.125;    0.000
1045.566;43144.023;  245.125;    0.000
1045.720;42494.023;  201.125;    0.000
1045.874;38920.023;  229.125;    0.000
1046.028;37280.023;  243.125;    0.000
1046.182;38302.023;  212.125;    0.000
1046.336;39050.023;  256.125;    0.000
1046.489;39857.023;  234.125;    0.000
1046.643;41112.023;  246.125;    0.000
1046.797;44262.023;  219.125;    0.000
1046.951;46753.023;  231.125;    0.000
1047.104;47099.023;  285.125;    0.000
1047.258;49895.023;  256.125;    0.000
1047.411;50194.023;  232.125;    0.000
1047.565;48853.023;  269.125;    0.000
1047.719;48493.023;  213.125;    0.000
1047.872;45500.023;  210.125;    0.000
1048.026;45634.023;  251.125;    0.000
1048.179;44747.023;  213.125;    0.000
1048.332;44263.023;  212.125;    0.000
1048.486;44571.023;  218.125;    0.000
1048.639;44728.023;  218.125;    0.000
1048.792;45191.023;  247.125;    0.000
1048.946;51096.023;  208.125;    0.000
1049.099;54530.023;  247.125;    0.000
1049.252;55808.023;  274.125;    0.000
1049.406;51876.023;  232.125;    0.000
1049.559;54772.023;  251.125;    0.000
1049.712;59470.023;  243.125;    0.000
1049.865;62581.023;  219.125;    0.000
1050.018;61146.023;  216.125;    0.000
1050.171;55000.023;  237.125;    0.000
1050.324;53780.023;  291.125;    0.000
1050.477;56875.023;  241.125;    0.000
1050.630;58801.023;  245.125;    0.000
1050.783;58391.023;  213.125;    0.000
1050.936;56246.023;  246.125;    0.000
1051.089;55798.023;  255.125;    0.000
1051.242;58406.023;  228.125;    0.000
1051.394;62807.023;  276.125;    0.000
1051.547;64686.023;  246.125;    0.000
1051.700;59651.023;  252.125;    0.000
1051.853;57697.023;  267.125;    0.000
1052.005;61779.023;  261.125;    0.000
1052.158;65064.023;  313.125;    0.000
1052.311;65064.023;  264.125;    0.000
1052.463;65064.023;  271.125;    0.000
1052.616;65064.023;  291.125;    0.000
1052.768;61084.023;  298.125;    0.000
1052.921;60042.023;  262.125;    0.000
1053.073;64638.023;  307.125;    0.000
1053.226;65064.023;  301.125;    0.000
1053.378;65064.023;  309.125;    0.000
1053.531;65064.023;  280.125;    0.000
1053.683;65064.023;  258.125;    0.000
1053.835;65064.023;  267.125;    0.000
1053.988;53081.023;  294.125;    0.000
1054.140; 9627.025;  292.125;    0.000
1054.292; 2197.025;  249.125;    0.000
1054.444; 1671.025;  288.125;    0.000
1054.596; 1613.025;  275.125;    0.000
1054.749; 1453.025;  284.125;    0.000
1054.901; 1320.025;  291.125;    0.000
1055.053; 1193.025;  274.125;    0.000
1055.205; 1146.025;  313.125;    0.000
1055.357; 1145.025;  309.125;    0.000
1055.509; 1003.025;  283.125;    0.000
1055.661; 1054.025;  341.125;    0.000
1055.813;  965.025;  288.125;    0.000
1055.965;  903.025;  300.125;    0.000
1056.116;  939.025;  296.125;    0.000
1056.268;  996.025;  319.125;    0.000
1056.420;  925.025;  298.125;    0.000

