
Integration time [ms]:   1.000
Averaging Nr. [scans]: 1
Smoothing Nr. [pixels]: 0
Data measured with spectrometer [name]: NIR
Wave   ;Sample   ;Dark     ;Reference
[nm]   ;[counts] ;[counts] ;[counts] 

691.496;  -88.375;  163.125;    0.000
691.696;  -98.375;  208.125;    0.000
691.896; -126.375;  111.125;    0.000
692.096;  -57.375;  178.125;    0.000
692.296; -124.375;   93.125;    0.000
692.496;  -52.375;  161.125;    0.000
692.695; -129.375;  135.125;    0.000
692.895;  -55.375;  179.125;    0.000
693.095; -120.375;  158.125;    0.000
693.295;  -36.375;  168.125;    0.000
693.495;  -44.375;  170.125;    0.000
693.695; -106.375;  155.125;    0.000
693.894;  -99.375;  151.125;    0.000
694.094; -100.375;  164.125;    0.000
694.294;  -68.375;  129.125;    0.000
694.494;  155.625;  170.125;    0.000
694.693; 2338.625;  137.125;    0.000
694.893; 2656.625;  163.125;    0.000
695.093; 2713.625;  121.125;    0.000
695.293; 2689.625;  144.125;    0.000
695.492; 2613.625;   88.125;    0.000
695.692; 2623.625;  148.125;    0.000
695.891; 2650.625;  125.125;    0.000
696.091; 2710.625;  184.125;    0.000
696.291; 2700.625;  153.125;    0.000
696.490; 2734.625;  131.125;    0.000
696.690; 2697.625;  123.125;    0.000
696.889; 2821.625;  180.125;    0.000
697.089; 2855.625;  147.125;    0.000
697.288; 2716.625;  164.125;    0.000
697.488; 2815.625;  133.125;    0.000
697.687; 2698.625;  153.125;    0.000
697.887; 2788.625;  119.125;    0.000
698.086; 2801.625;  143.125;    0.000
698.286; 2792.625;  125.125;    0.000
698.485; 2807.625;  120.125;    0.000
698.684; 2709.625;  116.125;    0.000
698.884; 2836.625;  131.125;    0.000
699.083; 2794.625;  115.125;    0.000
699.282; 2768.625;  144.125;    0.000
699.482; 2729.625;  109.125;    0.000
699.681; 2860.625;  115.125;    0.000
699.880; 2874.625;  125.125;    0.000
700.080; 2881.625;  139.125;    0.000
700.279; 2776.625;  111.125;    0.000
700.478; 2812.625;  146.125;    0.000
700.677; 2748.625;  131.125;    0.000
700.877; 2839.625;  156.125;    0.000
701.076; 2904.625;  153.125;    0.000
701.275; 2818.625;  123.125;    0.000
701.474; 2802.625;  150.125;    0.000
701.673; 2866.625;   97.125;    0.000
701.872; 2865.625;  139.125;    0.000
702.071; 2866.625;  108.125;    0.000
702.271; 2875.625;  125.125;    0.000
702.470; 2877.625;  108.125;    0.000
702.669; 2909.625;  102.125;    0.000
702.868; 2916.625;  153.125;    0.000
703.067; 2975.625;  145.125;    0.000
703.266; 2847.625;   96.125;    0.000
703.465; 2890.625;  165.125;    0.000
703.664; 2878.625;  106.125;    0.000
703.863; 2830.625;  144.125;    0.000
704.062; 2933.625;   86.125;    0.000
704.260; 2873.625;   99.125;    0.000
704.459; 2899.625;  112.125;    0.000
704.658; 2951.625;  106.125;    0.000
704.857; 2853.625;  129.125;    0.000
705.056; 2938.625;   98.125;    0.000
705.255; 2956.625;   97.125;    0.000
705.454; 2795.625;  101.125;    0.000
705.652; 2913.625;  142.125;    0.000
705.851; 2890.625;  100.125;    0.000
706.050; 2965.625;  162.125;    0.000
706.249; 2900.625;  146.125;    0.000
706.447; 3059.625;  120.125;    0.000
706.646; 2966.625;  114.125;    0.000
706.845; 2923.625;  117.125;    0.000
707.043; 3020.625;  136.125;    0.000
707.242; 2880.625;   90.125;    0.000
707.441; 3041.625;  131.125;    0.000
707.639; 2949.625;  120.125;    0.000
707.838; 2977.625;  122.125;    0.000
708.037; 2982.625;  109.125;    0.000
708.235; 2934.625;  122.125;    0.000
708.434; 2900.625;  109.125;    0.000
708.632; 3052.625;   47.125;    0.000
708.831; 2978.625;  122.125;    0.000
709.029; 3033.625;  130.125;    0.000
709.228; 3039.625;  112.125;    0.000
709.426; 3002.625;  128.125;    0.000
709.625; 3052.625;  129.125;    0.000
709.823; 2901.625;  130.125;    0.000
710.022; 3072.625;   90.125;    0.000
710.220; 3005.625;  131.125;    0.000
710.418; 3105.625;  133.125;    0.000
710.617; 3062.625;   82.125;    0.000
710.815; 3118.625;   90.125;    0.000
711.013; 3100.625;   86.125;    0.000
711.212; 3096.625;  117.125;    0.000
711.410; 3052.625;  106.125;    0.000
711.608; 3081.625;  138.125;    0.000
711.807; 3117.625;  116.125;    0.000
712.005; 3058.625;   82.125;    0.000
712.203; 3126.625;   90.125;    0.000
712.401; 3080.625;  124.125;    0.000
712.599; 3132.625;   64.125;    0.000
712.798; 3214.625;  113.125;    0.000
712.996; 3113.625;  100.125;    0.000
713.194; 3207.625;  130.125;    0.000
713.392; 3086.625;   89.125;    0.000
713.590; 3192.625;  105.125;    0.000
713.788; 3179.625;  100.125;    0.000
713.986; 3254.625;  117.125;    0.000
714.184; 3233.625;   72.125;    0.000
714.382; 3313.625;   88.125;    0.000
714.580; 3358.625;   88.125;    0.000
714.778; 3319.625;  129.125;    0.000
714.976; 3337.625;   90.125;    0.000
715.174; 3376.625;  119.125;    0.000
715.372; 3442.625;  117.125;    0.000
715.570; 3561.625;  101.125;    0.000
715.768; 3873.625;  122.125;    0.000
715.966; 3970.625;  114.125;    0.000
716.164; 3822.625;  135.125;    0.000
716.362; 3761.625;  126.125;    0.000
716.560; 3708.625;  126.125;    0.000
716.758; 3658.625;   98.125;    0.000
716.955; 3645.625;   76.125;    0.000
717.153; 3507.625;   45.125;    0.000
717.351; 3602.625;  106.125;    0.000
717.549; 3556.625;  108.125;    0.000
717.746; 3467.625;   66.125;    0.000
717.944; 3566.625;  127.125;    0.000
718.142; 3455.625;  148.125;    0.000
718.340; 3515.625;   94.125;    0.000
718.537; 3618.625;  107.125;    0.000
718.735; 3489.625;  130.125;    0.000
718.933; 3531.625;  111.125;    0.000
719.130; 3489.625;  107.125;    0.000
719.328; 3487.625;  128.125;    0.000
719.525; 3429.625;  141.125;    0.000
719.723; 3402.625;  122.125;    0.000
719.920; 3447.625;   85.125;    0.000
720.118; 3514.625;  115.125;    0.000
720.316; 3495.625;  153.125;    0.000
720.513; 3472.625;  120.125;    0.000
720.711; 3615.625;  134.125;    0.000
720.908; 3545.625;  126.125;    0.000
721.105; 3551.625;  119.125;    0.000
721.303; 3379.625;  112.125;    0.000
721.500; 3556.625;  125.125;    0.000
721.698; 3463.625;   94.125;    0.000
721.895; 3438.625;  118.125;    0.000
722.092; 3499.625;   77.125;    0.000
722.290; 3551.625;  135.125;    0.000
722.487; 3564.625;  154.125;    0.000
722.684; 3491.625;  122.125;    0.000
722.882; 3443.625;   90.125;    0.000
723.079; 3537.625;  132.125;    0.000
723.276; 3423.625;   95.125;    0.000
723.473; 3452.625;  106.125;    0.000
723.671; 3509.625;   80.125;    0.000
723.868; 3501.625;  112.125;    0.000
724.065; 3548.625;  107.125;    0.000
724.262; 3563.625;  119.125;    0.000
724.459; 3556.625;   80.125;    0.000
724.656; 3586.625;  109.125;    0.000
724.854; 3596.625;  107.125;    0.000
725.051; 3566.625;  103.125;    0.000
725.248; 3537.625;  101.125;    0.000
725.445; 3612.625;   93.125;    0.000
725.642; 3587.625;   92.125;    0.000
725.839; 3674.625;  157.125;    0.000
726.036; 3575.625;   71.125;    0.000
726.233; 3622.625;   80.125;    0.000
726.430; 3480.625;  146.125;    0.000
726.627; 3519.625;  103.125;    0.000
726.824; 3493.625;   46.125;    0.000
727.021; 3679.625;  149.125;    0.000
727.218; 3719.625;   87.125;    0.000
727.414; 3614.625;  112.125;    0.000
727.611; 3655.625;  111.125;    0.000
727.808; 3644.625;  122.125;    0.000
728.005; 3671.625;   58.125;    0.000
728.202; 3681.625;  129.125;    0.000
728.399; 3695.625;  111.125;    0.000
728.595; 3633.625;   93.125;    0.000
728.792; 3590.625;   78.125;    0.000
728.989; 3689.625;  104.125;    0.000
729.186; 3588.625;  110.125;    0.000
729.382; 3677.625;   93.125;    0.000
729.579; 3596.625;  102.125;    0.000
729.776; 3699.625;  112.125;    0.000
729.972; 3698.625;  101.125;    0.000
730.169; 3752.625;  150.125;    0.000
730.366; 3600.625;   92.125;    0.000
730.562; 3562.625;   74.125;    0.000
730.759; 3681.625;   97.125;    0.000
730.955; 3735.625;   86.125;    0.000
731.152; 3748.625;   88.125;    0.000
731.348; 3620.625;  117.125;    0.000
731.545; 3635.625;   62.125;    0.000
731.741; 3708.625;   84.125;    0.000
731.938; 3763.625;  108.125;    0.000
732.134; 3620.625;  115.125;    0.000
732.331; 3646.625;   88.125;    0.000
732.527; 3653.625;   96.125;    0.000
732.724; 3608.625;  103.125;    0.000
732.920; 3669.625;   93.125;    0.000
733.116; 3712.625;  109.125;    0.000
733.313; 3733.625;   77.125;    0.000
733.509; 3758.625;   81.125;    0.000
733.705; 3708.625;  141.125;    0.000
733.902; 3702.625;   88.125;    0.000
734.098; 3760.625;   56.125;    0.000
734.294; 3776.625;  122.125;    0.000
734.490; 3875.625;  102.125;    0.000
734.687; 3764.625;   70.125;    0.000
734.883; 3743.625;   73.125;    0.000
735.079; 3874.625;   65.125;    0.000
735.275; 3748.625;  112.125;    0.000
735.471; 3757.625;  124.125;    0.000
735.667; 3814.625;   94.125;    0.000
735.863; 3767.625;  106.125;    0.000
736.060; 3843.625;  106.125;    0.000
736.256; 3692.625;   95.125;    0.000
736.452; 3816.625;  103.125;    0.000
736.648; 3745.625;  106.125;    0.000
736.844; 3889.625;   98.125;    0.000
737.040; 3871.625;  118.125;    0.000
737.236; 3804.625;   95.125;    0.000
737.432; 3838.625;   59.125;    0.000
737.628; 3874.625;  120.125;    0.000
737.824; 3840.625;   78.125;    0.000
738.019; 3835.625;   98.125;    0.000
738.215; 3824.625;  127.125;    0.000
738.411; 3937.625;  111.125;    0.000
738.607; 3795.625;   69.125;    0.000
738.803; 3798.625;   40.125;    0.000
738.999; 4055.625;  128.125;    0.000
739.195; 3928.625;   81.125;    0.000
739.390; 4030.625;   97.125;    0.000
739.586; 3983.625;  100.125;    0.000
739.782; 4029.625;  135.125;    0.000
739.978; 4079.625;  121.125;    0.000
740.173; 4032.625;   92.125;    0.000
740.369; 4009.625;   92.125;    0.000
740.565; 4089.625;  119.125;    0.000
740.760; 4228.625;  139.125;    0.000
740.956; 4149.625;  134.125;    0.000
741.152; 4086.625;  107.125;    0.000
741.347; 4028.625;   63.125;    0.000
741.543; 4166.625;   99.125;    0.000
741.738; 4220.625;  119.125;    0.000
741.934; 4370.625;  156.125;    0.000
742.129; 4643.625;   87.125;    0.000
742.325; 5078.625;  143.125;    0.000
742.520; 5485.625;  109.125;    0.000
742.716; 5158.625;  135.125;    0.000
742.911; 4967.625;   77.125;    0.000
743.107; 4725.625;  117.125;    0.000
743.302; 4797.625;   93.125;    0.000
743.498; 4956.625;  118.125;    0.000
743.693; 4963.625;   95.125;    0.000
743.888; 5299.625;  122.125;    0.000
744.084; 5742.625;  104.125;    0.000
744.279; 6854.625;   94.125;    0.000
744.474; 6800.625;  138.125;    0.000
744.670; 6263.625;  113.125;    0.000
744.865; 5781.625;  116.125;    0.000
745.060; 5543.625;   89.125;    0.000
745.255; 5503.625;  144.125;    0.000
745.451; 5380.625;   98.125;    0.000
745.646; 5135.625;  110.125;    0.000
745.841; 5212.625;   87.125;    0.000
746.036; 5337.625;   98.125;    0.000
746.231; 5425.625;  153.125;    0.000
746.426; 5654.625;   90.125;    0.000
746.622; 6393.625;  154.125;    0.000
746.817; 8024.625;  111.125;    0.000
747.012; 8842.625;  110.125;    0.000
747.207; 7934.625;   76.125;    0.000
747.402; 7203.625;   94.125;    0.000
747.597; 6752.625;   68.125;    0.000
747.792; 6512.625;  125.125;    0.000
747.987; 6297.625;   92.125;    0.000
748.182; 5993.625;  113.125;    0.000
748.377; 5841.625;   72.125;    0.000
748.572; 5566.625;  135.125;    0.000
748.767; 5424.625;   98.125;    0.000
748.961; 5414.625;  123.125;    0.000
749.156; 5172.625;   96.125;    0.000
749.351; 5236.625;  121.125;    0.000
749.546; 4999.625;   95.125;    0.000
749.741; 4970.625;  144.125;    0.000
749.936; 5007.625;  105.125;    0.000
750.130; 4760.625;  101.125;    0.000
750.325; 4674.625;  126.125;    0.000
750.520; 4793.625;  113.125;    0.000
750.715; 4657.625;  135.125;    0.000
750.909; 4655.625;  138.125;    0.000
751.104; 4610.625;   96.125;    0.000
751.299; 4619.625;  118.125;    0.000
751.493; 4536.625;  124.125;    0.000
751.688; 4456.625;  131.125;    0.000
751.882; 4501.625;   96.125;    0.000
752.077; 4641.625;  123.125;    0.000
752.272; 4429.625;  112.125;    0.000
752.466; 4486.625;  143.125;    0.000
752.661; 4478.625;  107.125;    0.000
752.855; 4304.625;   97.125;    0.000
753.050; 4350.625;  125.125;    0.000
753.244; 4404.625;  161.125;    0.000
753.439; 4337.625;  101.125;    0.000
753.633; 4243.625;  129.125;    0.000
753.828; 4278.625;  114.125;    0.000
754.022; 4233.625;  118.125;    0.000
754.216; 4316.625;  126.125;    0.000
754.411; 4360.625;  148.125;    0.000
754.605; 4335.625;  100.125;    0.000
754.799; 4253.625;  146.125;    0.000
754.994; 4174.625;  116.125;    0.000
755.188; 4118.625;  146.125;    0.000
755.382; 4256.625;  103.125;    0.000
755.576; 4361.625;  119.125;    0.000
755.771; 4312.625;  100.125;    0.000
755.965; 4161.625;  129.125;    0.000
756.159; 4293.625;  100.125;    0.000
756.353; 4290.625;  153.125;    0.000
756.547; 4174.625;  113.125;    0.000
756.742; 4240.625;  129.125;    0.000
756.936; 4236.625;   70.125;    0.000
757.130; 4074.625;   91.125;    0.000
757.324; 4263.625;   92.125;    0.000
757.518; 4261.625;  128.125;    0.000
757.712; 4330.625;  146.125;    0.000
757.906; 4318.625;  114.125;    0.000
758.100; 4269.625;  153.125;    0.000
758.294; 4331.625;  133.125;    0.000
758.488; 4276.625;  149.125;    0.000
758.682; 4237.625;  132.125;    0.000
758.876; 4201.625;  128.125;    0.000
759.070; 4154.625;  178.125;    0.000
759.264; 4029.625;   98.125;    0.000
759.458; 4158.625;  168.125;    0.000
759.651; 4210.625;  131.125;    0.000
759.845; 4120.625;  133.125;    0.000
760.039; 4169.625;  120.125;    0.000
760.233; 4174.625;  116.125;    0.000
760.427; 4347.625;  121.125;    0.000
760.620; 4269.625;  163.125;    0.000
760.814; 4136.625;  106.125;    0.000
761.008; 4178.625;  119.125;    0.000
761.202; 4257.625;  121.125;    0.000
761.395; 4151.625;  136.125;    0.000
761.589; 4184.625;  111.125;    0.000
761.783; 4350.625;  116.125;    0.000
761.976; 4195.625;  139.125;    0.000
762.170; 4226.625;  140.125;    0.000
762.363; 4231.625;  115.125;    0.000
762.557; 4206.625;  129.125;    0.000
762.750; 4141.625;   85.125;    0.000
762.944; 4171.625;  107.125;    0.000
763.138; 4185.625;   99.125;    0.000
763.331; 4245.625;   97.125;    0.000
763.524; 4275.625;  100.125;    0.000
763.718; 4320.625;  130.125;    0.000
763.911; 4219.625;  127.125;    0.000
764.105; 4138.625;   69.125;    0.000
764.298; 4232.625;   94.125;    0.000
764.492; 4219.625;  129.125;    0.000
764.685; 4264.625;  114.125;    0.000
764.878; 4275.625;  145.125;    0.000
765.072; 4177.625;  124.125;    0.000
765.265; 4310.625;  124.125;    0.000
765.458; 4327.625;  108.125;    0.000
765.651; 4416.625;  132.125;    0.000
765.845; 4337.625;  106.125;    0.000
766.038; 4392.625;  155.125;    0.000
766.231; 5087.625;  153.125;    0.000
766.424; 7937.625;  165.125;    0.000
766.617; 8350.625;   85.125;    0.000
766.811; 5042.625;  140.125;    0.000
767.004; 4500.625;  151.125;    0.000
767.197; 4395.625;  178.125;    0.000
767.390; 4444.625;  112.125;    0.000
767.583; 4447.625;  134.125;    0.000
767.776; 4447.625;  101.125;    0.000
767.969; 4398.625;   99.125;    0.000
768.162; 4441.625;  152.125;    0.000
768.355; 4362.625;  115.125;    0.000
768.548; 4507.625;  154.125;    0.000
768.741; 4395.625;  124.125;    0.000
768.934; 4581.625;  129.125;    0.000
769.127; 4560.625;  137.125;    0.000
769.320; 4545.625;  115.125;    0.000
769.513; 4649.625;  144.125;    0.000
769.706; 5495.625;  107.125;    0.000
769.898; 7938.625;  134.125;    0.000
770.091; 6048.625;  128.125;    0.000
770.284; 4720.625;   97.125;    0.000
770.477; 4744.625;  135.125;    0.000
770.670; 4823.625;  137.125;    0.000
770.862; 4749.625;  112.125;    0.000
771.055; 4790.625;  127.125;    0.000
771.248; 4710.625;  116.125;    0.000
771.441; 4882.625;  101.125;    0.000
771.633; 4725.625;  130.125;    0.000
771.826; 4860.625;  147.125;    0.000
772.018; 4879.625;  117.125;    0.000
772.211; 4829.625;  141.125;    0.000
772.404; 4965.625;  104.125;    0.000
772.596; 5058.625;  128.125;    0.000
772.789; 5062.625;  131.125;    0.000
772.981; 5045.625;  134.125;    0.000
773.174; 5040.625;  108.125;    0.000
773.366; 5212.625;  153.125;    0.000
773.559; 5289.625;  137.125;    0.000
773.751; 5311.625;  119.125;    0.000
773.944; 5564.625;  148.125;    0.000
774.136; 5500.625;  155.125;    0.000
774.329; 5638.625;  126.125;    0.000
774.521; 5752.625;  116.125;    0.000
774.713; 5837.625;  119.125;    0.000
774.906; 6140.625;  179.125;    0.000
775.098; 6346.625;  127.125;    0.000
775.290; 6657.625;  146.125;    0.000
775.483; 6858.625;  123.125;    0.000
775.675; 7404.625;  119.125;    0.000
775.867; 7800.625;  119.125;    0.000
776.059; 8433.625;  137.125;    0.000
776.251; 9070.625;  154.125;    0.000
776.444;10287.625;  101.125;    0.000
776.636;11770.625;  153.125;    0.000
776.828;14758.625;  127.125;    0.000
777.020;20192.625;  140.125;    0.000
777.212;29591.625;  160.125;    0.000
777.404;33237.625;  170.125;    0.000
777.596;30761.625;  136.125;    0.000
777.788;22895.625;  137.125;    0.000
777.980;17656.625;  129.125;    0.000
778.172;14867.625;  139.125;    0.000
778.364;12670.625;  124.125;    0.000
778.556;11270.625;  163.125;    0.000
778.748;10091.625;  142.125;    0.000
778.940; 9366.625;  178.125;    0.000
779.132; 8773.625;  159.125;    0.000
779.324; 7969.625;  109.125;    0.000
779.516; 7639.625;  143.125;    0.000
779.708; 7181.625;  158.125;    0.000
779.900; 6781.625;  142.125;    0.000
780.091; 6562.625;  131.125;    0.000
780.283; 6344.625;  176.125;    0.000
780.475; 6145.625;  151.125;    0.000
780.667; 6088.625;  120.125;    0.000
780.859; 5852.625;  134.125;    0.000
781.050; 5699.625;  183.125;    0.000
781.242; 5540.625;   95.125;    0.000
781.434; 5518.625;  127.125;    0.000
781.625; 5416.625;  163.125;    0.000
781.817; 5362.625;  170.125;    0.000
782.008; 5195.625;  123.125;    0.000
782.200; 5070.625;  141.125;    0.000
782.392; 4885.625;  149.125;    0.000
782.583; 5082.625;  155.125;    0.000
782.775; 4961.625;  140.125;    0.000
782.966; 4875.625;  167.125;    0.000
783.158; 4787.625;  164.125;    0.000
783.349; 4744.625;  174.125;    0.000
783.541; 4733.625;  141.125;    0.000
783.732; 4670.625;  115.125;    0.000
783.924; 4815.625;  135.125;    0.000
784.115; 4595.625;  157.125;    0.000
784.306; 4530.625;  102.125;    0.000
784.498; 4554.625;  124.125;    0.000
784.689; 4611.625;  171.125;    0.000
784.880; 4477.625;  165.125;    0.000
785.072; 4511.625;  152.125;    0.000
785.263; 4497.625;  146.125;    0.000
785.454; 4439.625;  145.125;    0.000
785.645; 4421.625;  127.125;    0.000
785.837; 4468.625;  138.125;    0.000
786.028; 4497.625;  151.125;    0.000
786.219; 4310.625;  142.125;    0.000
786.410; 4373.625;  140.125;    0.000
786.601; 4428.625;  137.125;    0.000
786.792; 4430.625;  158.125;    0.000
786.984; 4324.625;  139.125;    0.000
787.175; 4417.625;  140.125;    0.000
787.366; 4350.625;  145.125;    0.000
787.557; 4342.625;  156.125;    0.000
787.748; 4457.625;  148.125;    0.000
787.939; 4506.625;  157.125;    0.000
788.130; 4380.625;  179.125;    0.000
788.321; 4397.625;  142.125;    0.000
788.512; 4467.625;  167.125;    0.000
788.703; 4494.625;  145.125;    0.000
788.894; 4479.625;  132.125;    0.000
789.084; 4548.625;  113.125;    0.000
789.275; 4442.625;  134.125;    0.000
789.466; 4641.625;  151.125;    0.000
789.657; 4481.625;  138.125;    0.000
789.848; 4661.625;  145.125;    0.000
790.039; 4534.625;  130.125;    0.000
790.229; 4529.625;  140.125;    0.000
790.420; 4600.625;  135.125;    0.000
790.611; 4578.625;  156.125;    0.000
790.801; 4482.625;   64.125;    0.000
790.992; 4507.625;  150.125;    0.000
791.183; 4562.625;  177.125;    0.000
791.373; 4454.625;   91.125;    0.000
791.564; 4479.625;   85.125;    0.000
791.755; 4485.625;  125.125;    0.000
791.945; 4495.625;   94.125;    0.000
792.136; 4415.625;   98.125;    0.000
792.326; 4333.625;  105.125;    0.000
792.517; 4403.625;  136.125;    0.000
792.707; 4646.625;  140.125;    0.000
792.898; 4489.625;  164.125;    0.000
793.088; 4529.625;  116.125;    0.000
793.279; 4556.625;  112.125;    0.000
793.469; 4583.625;  105.125;    0.000
793.660; 4649.625;  161.125;    0.000
793.850; 4814.625;  133.125;    0.000
794.040; 4896.625;  121.125;    0.000
794.231; 5044.625;  115.125;    0.000
794.421; 5363.625;  152.125;    0.000
794.611; 5990.625;  132.125;    0.000
794.802; 6643.625;  144.125;    0.000
794.992; 6964.625;  142.125;    0.000
795.182; 7076.625;  179.125;    0.000
795.372; 6807.625;  167.125;    0.000
795.563; 6147.625;  149.125;    0.000
795.753; 5755.625;  117.125;    0.000
795.943; 5420.625;  146.125;    0.000
796.133; 5158.625;  119.125;    0.000
796.323; 4975.625;  141.125;    0.000
796.513; 4823.625;  134.125;    0.000
796.703; 4807.625;  116.125;    0.000
796.893; 4654.625;  120.125;    0.000
797.083; 4575.625;  131.125;    0.000
797.273; 4537.625;  118.125;    0.000
797.463; 4493.625;  130.125;    0.000
797.653; 4393.625;   87.125;    0.000
797.843; 4375.625;  123.125;    0.000
798.033; 4313.625;  115.125;    0.000
798.223; 4144.625;  142.125;    0.000
798.413; 4198.625;  148.125;    0.000
798.603; 4210.625;  147.125;    0.000
798.793; 4041.625;  107.125;    0.000
798.983; 4084.625;  121.125;    0.000
799.172; 3976.625;  120.125;    0.000
799.362; 4057.625;  145.125;    0.000
799.552; 3959.625;  101.125;    0.000
799.742; 3976.625;  149.125;    0.000
799.932; 3836.625;  104.125;    0.000
800.121; 3976.625;  175.125;    0.000
800.311; 3858.625;  132.125;    0.000
800.501; 3867.625;  118.125;    0.000
800.690; 3836.625;  162.125;    0.000
800.880; 3834.625;  141.125;    0.000
801.070; 3702.625;  151.125;    0.000
801.259; 3723.625;  167.125;    0.000
801.449; 3641.625;  108.125;    0.000
801.638; 3700.625;  176.125;    0.000
801.828; 3717.625;  118.125;    0.000
802.017; 3689.625;  179.125;    0.000
802.207; 3735.625;  127.125;    0.000
802.396; 3810.625;  167.125;    0.000
802.586; 3694.625;  129.125;    0.000
802.775; 3588.625;  142.125;    0.000
802.965; 3578.625;  147.125;    0.000
803.154; 3597.625;  179.125;    0.000
803.343; 3633.625;  117.125;    0.000
803.533; 3635.625;  120.125;    0.000
803.722; 3584.625;  122.125;    0.000
803.911; 3563.625;  155.125;    0.000
804.101; 3626.625;  147.125;    0.000
804.290; 3716.625;  160.125;    0.000
804.479; 3605.625;  139.125;    0.000
804.668; 3492.625;  180.125;    0.000
804.857; 3575.625;  131.125;    0.000
805.047; 3475.625;  119.125;    0.000
805.236; 3582.625;  139.125;    0.000
805.425; 3496.625;  163.125;    0.000
805.614; 3496.625;  103.125;    0.000
805.803; 3565.625;  133.125;    0.000
805.992; 3541.625;  147.125;    0.000
806.181; 3539.625;  109.125;    0.000
806.370; 3500.625;  133.125;    0.000
806.559; 3464.625;  119.125;    0.000
806.748; 3612.625;  144.125;    0.000
806.937; 3504.625;  147.125;    0.000
807.126; 3559.625;  134.125;    0.000
807.315; 3468.625;  132.125;    0.000
807.504; 3482.625;  141.125;    0.000
807.693; 3486.625;  145.125;    0.000
807.882; 3454.625;   91.125;    0.000
808.071; 3521.625;  116.125;    0.000
808.260; 3426.625;  105.125;    0.000
808.448; 3467.625;  184.125;    0.000
808.637; 3577.625;  146.125;    0.000
808.826; 3461.625;  153.125;    0.000
809.015; 3492.625;  113.125;    0.000
809.203; 3537.625;  166.125;    0.000
809.392; 3481.625;  117.125;    0.000
809.581; 3520.625;  186.125;    0.000
809.770; 3480.625;  122.125;    0.000
809.958; 3480.625;  140.125;    0.000
810.147; 3502.625;  130.125;    0.000
810.335; 3500.625;  112.125;    0.000
810.524; 3598.625;  106.125;    0.000
810.713; 3562.625;  154.125;    0.000
810.901; 3528.625;  131.125;    0.000
811.090; 3631.625;  164.125;    0.000
811.278; 3736.625;  159.125;    0.000
811.467; 3667.625;  194.125;    0.000
811.655; 3701.625;  164.125;    0.000
811.844; 3582.625;  149.125;    0.000
812.032; 3709.625;  169.125;    0.000
812.220; 3596.625;  163.125;    0.000
812.409; 3563.625;  134.125;    0.000
812.597; 3638.625;  165.125;    0.000
812.785; 3639.625;  180.125;    0.000
812.974; 3688.625;  166.125;    0.000
813.162; 3692.625;  171.125;    0.000
813.350; 3687.625;  142.125;    0.000
813.539; 3715.625;  126.125;    0.000
813.727; 3703.625;  153.125;    0.000
813.915; 3678.625;  138.125;    0.000
814.103; 3578.625;  191.125;    0.000
814.291; 3649.625;  142.125;    0.000
814.479; 3675.625;  156.125;    0.000
814.668; 3713.625;  152.125;    0.000
814.856; 3919.625;  150.125;    0.000
815.044; 3835.625;  165.125;    0.000
815.232; 3962.625;  172.125;    0.000
815.420; 3921.625;  147.125;    0.000
815.608; 3812.625;  143.125;    0.000
815.796; 3929.625;  126.125;    0.000
815.984; 3925.625;  152.125;    0.000
816.172; 3981.625;  129.125;    0.000
816.360; 4086.625;  177.125;    0.000
816.548; 4006.625;  141.125;    0.000
816.736; 4108.625;  142.125;    0.000
816.924; 4408.625;  161.125;    0.000
817.111; 4464.625;  138.125;    0.000
817.299; 4641.625;  112.125;    0.000
817.487; 4847.625;  180.125;    0.000
817.675; 5148.625;  138.125;    0.000
817.863; 5764.625;  172.125;    0.000
818.050; 7246.625;  142.125;    0.000
818.238;12806.625;  151.125;    0.000
818.426;18237.625;  129.125;    0.000
818.613;12698.625;  124.125;    0.000
818.801;10940.625;  209.125;    0.000
818.989;10553.625;  178.125;    0.000
819.176;10483.625;  155.125;    0.000
819.364;15520.625;  174.125;    0.000
819.552;23669.625;  131.125;    0.000
819.739;15480.625;  184.125;    0.000
819.927;10880.625;  132.125;    0.000
820.114; 9367.625;  173.125;    0.000
820.302; 8534.625;  140.125;    0.000
820.489; 7888.625;  133.125;    0.000
820.677; 7500.625;  167.125;    0.000
820.864; 7378.625;  161.125;    0.000
821.052; 7889.625;  134.125;    0.000
821.239; 8173.625;  149.125;    0.000
821.426; 8870.625;  160.125;    0.000
821.614;10920.625;  143.125;    0.000
821.801;11791.625;  118.125;    0.000
821.988;10546.625;  154.125;    0.000
822.176;10070.625;  112.125;    0.000
822.363;10233.625;  131.125;    0.000
822.550; 9478.625;  131.125;    0.000
822.737; 8531.625;  104.125;    0.000
822.924; 8029.625;  160.125;    0.000
823.112; 7591.625;  161.125;    0.000
823.299; 7238.625;  169.125;    0.000
823.486; 6827.625;  129.125;    0.000
823.673; 6687.625;  135.125;    0.000
823.860; 6340.625;  169.125;    0.000
824.047; 6363.625;  124.125;    0.000
824.234; 7233.625;  160.125;    0.000
824.421; 7073.625;  114.125;    0.000
824.608; 6595.625;  191.125;    0.000
824.795; 5884.625;  160.125;    0.000
824.982; 5615.625;  139.125;    0.000
825.169; 5262.625;  121.125;    0.000
825.356; 5026.625;  148.125;    0.000
825.543; 4767.625;  167.125;    0.000
825.730; 4638.625;  103.125;    0.000
825.917; 4481.625;  113.125;    0.000
826.104; 4451.625;  188.125;    0.000
826.290; 4229.625;  193.125;    0.000
826.477; 4089.625;  175.125;    0.000
826.664; 4147.625;  151.125;    0.000
826.851; 4002.625;  122.125;    0.000
827.038; 3879.625;  121.125;    0.000
827.224; 3766.625;  124.125;    0.000
827.411; 3826.625;  155.125;    0.000
827.598; 3725.625;  127.125;    0.000
827.784; 3719.625;  140.125;    0.000
827.971; 3645.625;  114.125;    0.000
828.157; 3559.625;  135.125;    0.000
828.344; 3577.625;  173.125;    0.000
828.531; 3518.625;  113.125;    0.000
828.717; 3431.625;  137.125;    0.000
828.904; 3470.625;  158.125;    0.000
829.090; 3381.625;  199.125;    0.000
829.277; 3414.625;  156.125;    0.000
829.463; 3241.625;  154.125;    0.000
829.650; 3435.625;  174.125;    0.000
829.836; 3283.625;  136.125;    0.000
830.022; 3292.625;  143.125;    0.000
830.209; 3235.625;  157.125;    0.000
830.395; 3228.625;  156.125;    0.000
830.581; 3127.625;  148.125;    0.000
830.768; 3163.625;  169.125;    0.000
830.954; 2964.625;  169.125;    0.000
831.140; 3125.625;  124.125;    0.000
831.327; 3114.625;  157.125;    0.000
831.513; 3171.625;  163.125;    0.000
831.699; 3057.625;  176.125;    0.000
831.885; 3094.625;  154.125;    0.000
832.071; 3024.625;  159.125;    0.000
832.257; 3049.625;  142.125;    0.000
832.444; 3053.625;  159.125;    0.000
832.630; 3036.625;  129.125;    0.000
832.816; 2959.625;  132.125;    0.000
833.002; 3060.625;  125.125;    0.000
833.188; 3032.625;  144.125;    0.000
833.374; 2882.625;  131.125;    0.000
833.560; 3056.625;  154.125;    0.000
833.746; 2897.625;  171.125;    0.000
833.932; 2970.625;  162.125;    0.000
834.118; 2794.625;  131.125;    0.000
834.303; 2883.625;  113.125;    0.000
834.489; 2864.625;  170.125;    0.000
834.675; 2816.625;  177.125;    0.000
834.861; 2787.625;  154.125;    0.000
835.047; 2915.625;  171.125;    0.000
835.233; 2813.625;   98.125;    0.000
835.418; 2874.625;  138.125;    0.000
835.604; 2704.625;  140.125;    0.000
835.790; 2771.625;  130.125;    0.000
835.976; 2835.625;  129.125;    0.000
836.161; 2836.625;  142.125;    0.000
836.347; 2751.625;  128.125;    0.000
836.533; 2860.625;  143.125;    0.000
836.718; 2899.625;  164.125;    0.000
836.904; 2733.625;  172.125;    0.000
837.089; 2758.625;  152.125;    0.000
837.275; 2831.625;  143.125;    0.000
837.460; 2758.625;  125.125;    0.000
837.646; 2791.625;  137.125;    0.000
837.831; 2790.625;  153.125;    0.000
838.017; 2875.625;  171.125;    0.000
838.202; 2813.625;  111.125;    0.000
838.388; 2829.625;  140.125;    0.000
838.573; 2785.625;  158.125;    0.000
838.759; 2777.625;  188.125;    0.000
838.944; 2695.625;  125.125;    0.000
839.129; 2724.625;  123.125;    0.000
839.315; 2822.625;  181.125;    0.000
839.500; 2778.625;  150.125;    0.000
839.685; 2776.625;  109.125;    0.000
839.870; 2789.625;  202.125;    0.000
840.056; 2806.625;  101.125;    0.000
840.241; 2771.625;  184.125;    0.000
840.426; 2811.625;  192.125;    0.000
840.611; 2936.625;  180.125;    0.000
840.796; 2876.625;  156.125;    0.000
840.981; 2841.625;  142.125;    0.000
841.166; 2925.625;  161.125;    0.000
841.352; 2927.625;  185.125;    0.000
841.537; 2948.625;  139.125;    0.000
841.722; 2958.625;  143.125;    0.000
841.907; 3010.625;  140.125;    0.000
842.092; 3038.625;  176.125;    0.000
842.277; 3069.625;  136.125;    0.000
842.461; 3044.625;  155.125;    0.000
842.646; 3117.625;  163.125;    0.000
842.831; 3287.625;  153.125;    0.000
843.016; 3301.625;  187.125;    0.000
843.201; 3482.625;  179.125;    0.000
843.386; 3516.625;  167.125;    0.000
843.571; 3578.625;  129.125;    0.000
843.755; 3855.625;  136.125;    0.000
843.940; 4048.625;  121.125;    0.000
844.125; 4539.625;  157.125;    0.000
844.310; 5360.625;  175.125;    0.000
844.494; 6989.625;  164.125;    0.000
844.679; 9337.625;  167.125;    0.000
844.864; 9108.625;  166.125;    0.000
845.048; 7361.625;  132.125;    0.000
845.233; 6350.625;  175.125;    0.000
845.418; 5716.625;  159.125;    0.000
845.602; 4946.625;  147.125;    0.000
845.787; 4580.625;  132.125;    0.000
845.971; 4242.625;  187.125;    0.000
846.156; 4081.625;  141.125;    0.000
846.340; 3908.625;  153.125;    0.000
846.525; 3793.625;  157.125;    0.000
846.709; 3580.625;  117.125;    0.000
846.893; 3489.625;  147.125;    0.000
847.078; 3398.625;  170.125;    0.000
847.262; 3244.625;  150.125;    0.000
847.447; 3128.625;  132.125;    0.000
847.631; 3132.625;  144.125;    0.000
847.815; 3046.625;  157.125;    0.000
848.000; 2955.625;  164.125;    0.000
848.184; 2862.625;  174.125;    0.000
848.368; 2928.625;  149.125;    0.000
848.552; 2822.625;  143.125;    0.000
848.736; 2853.625;  132.125;    0.000
848.921; 2811.625;  147.125;    0.000
849.105; 2823.625;  150.125;    0.000
849.289; 2696.625;  146.125;    0.000
849.473; 2703.625;  167.125;    0.000
849.657; 2752.625;  149.125;    0.000
849.841; 2665.625;  181.125;    0.000
850.025; 2713.625;  154.125;    0.000
850.209; 2624.625;  152.125;    0.000
850.393; 2567.625;  139.125;    0.000
850.577; 2568.625;  128.125;    0.000
850.761; 2594.625;  194.125;    0.000
850.945; 2454.625;  152.125;    0.000
851.129; 2572.625;  157.125;    0.000
851.313; 2595.625;  181.125;    0.000
851.497; 2626.625;  145.125;    0.000
851.680; 2629.625;  168.125;    0.000
851.864; 2541.625;  185.125;    0.000
852.048; 2528.625;  170.125;    0.000
852.232; 2521.625;  192.125;    0.000
852.416; 2565.625;  182.125;    0.000
852.599; 2502.625;  169.125;    0.000
852.783; 2524.625;  168.125;    0.000
852.967; 2488.625;  184.125;    0.000
853.150; 2538.625;  163.125;    0.000
853.334; 2570.625;  164.125;    0.000
853.518; 2591.625;  190.125;    0.000
853.701; 2508.625;  137.125;    0.000
853.885; 2526.625;  177.125;    0.000
854.068; 2497.625;  163.125;    0.000
854.252; 2551.625;  139.125;    0.000
854.435; 2433.625;  152.125;    0.000
854.619; 2494.625;  148.125;    0.000
854.802; 2433.625;  168.125;    0.000
854.986; 2422.625;  157.125;    0.000
855.169; 2419.625;  147.125;    0.000
855.353; 2474.625;  173.125;    0.000
855.536; 2459.625;  127.125;    0.000
855.719; 2486.625;  191.125;    0.000
855.903; 2497.625;  186.125;    0.000
856.086; 2549.625;  145.125;    0.000
856.269; 2451.625;  130.125;    0.000
856.452; 2607.625;  153.125;    0.000
856.636; 2649.625;  129.125;    0.000
856.819; 2810.625;  134.125;    0.000
857.002; 2826.625;  152.125;    0.000
857.185; 2791.625;  140.125;    0.000
857.368; 2697.625;  170.125;    0.000
857.552; 2684.625;  132.125;    0.000
857.735; 2633.625;  160.125;    0.000
857.918; 2707.625;  139.125;    0.000
858.101; 2629.625;  159.125;    0.000
858.284; 2624.625;  136.125;    0.000
858.467; 2644.625;  147.125;    0.000
858.650; 2752.625;  153.125;    0.000
858.833; 2777.625;  113.125;    0.000
859.016; 2728.625;  167.125;    0.000
859.199; 2902.625;  141.125;    0.000
859.382; 3136.625;  155.125;    0.000
859.564; 3282.625;  136.125;    0.000
859.747; 3282.625;  142.125;    0.000
859.930; 3016.625;  141.125;    0.000
860.113; 2961.625;  156.125;    0.000
860.296; 3034.625;  167.125;    0.000
860.478; 2865.625;  121.125;    0.000
860.661; 2915.625;  230.125;    0.000
860.844; 2870.625;  186.125;    0.000
861.027; 2742.625;  155.125;    0.000
861.209; 2825.625;  151.125;    0.000
861.392; 2728.625;  162.125;    0.000
861.575; 2873.625;  150.125;    0.000
861.757; 2913.625;  162.125;    0.000
861.940; 2953.625;  207.125;    0.000
862.122; 2994.625;  113.125;    0.000
862.305; 2962.625;  114.125;    0.000
862.487; 3100.625;  162.125;    0.000
862.670; 3390.625;  148.125;    0.000
862.852; 3790.625;  131.125;    0.000
863.035; 4527.625;  174.125;    0.000
863.217; 4397.625;  170.125;    0.000
863.400; 4078.625;  148.125;    0.000
863.582; 3885.625;  129.125;    0.000
863.764; 3683.625;  181.125;    0.000
863.947; 3555.625;  152.125;    0.000
864.129; 3408.625;  178.125;    0.000
864.311; 3415.625;  139.125;    0.000
864.493; 3366.625;  166.125;    0.000
864.676; 3357.625;  148.125;    0.000
864.858; 3183.625;  123.125;    0.000
865.040; 3248.625;  180.125;    0.000
865.222; 3245.625;  131.125;    0.000
865.404; 3293.625;  146.125;    0.000
865.587; 3392.625;  175.125;    0.000
865.769; 3523.625;  183.125;    0.000
865.951; 3490.625;  171.125;    0.000
866.133; 3564.625;  165.125;    0.000
866.315; 3660.625;  138.125;    0.000
866.497; 3526.625;  139.125;    0.000
866.679; 3759.625;  167.125;    0.000
866.861; 3723.625;  151.125;    0.000
867.043; 3940.625;  190.125;    0.000
867.225; 4184.625;  140.125;    0.000
867.407; 4475.625;  125.125;    0.000
867.589; 5053.625;  141.125;    0.000
867.770; 5933.625;  149.125;    0.000
867.952; 7994.625;  138.125;    0.000
868.134;10522.625;  153.125;    0.000
868.316;10239.625;  148.125;    0.000
868.498;10030.625;  180.125;    0.000
868.679; 8562.625;  152.125;    0.000
868.861; 7403.625;  174.125;    0.000
869.043; 6377.625;  152.125;    0.000
869.224; 5791.625;  177.125;    0.000
869.406; 5277.625;  171.125;    0.000
869.588; 4871.625;  177.125;    0.000
869.769; 4729.625;  174.125;    0.000
869.951; 4604.625;  167.125;    0.000
870.132; 4583.625;  144.125;    0.000
870.314; 4944.625;  143.125;    0.000
870.495; 5155.625;  162.125;    0.000
870.677; 4652.625;  136.125;    0.000
870.858; 4652.625;  155.125;    0.000
871.040; 4753.625;  179.125;    0.000
871.221; 5228.625;  177.125;    0.000
871.403; 4995.625;  180.125;    0.000
871.584; 4670.625;  157.125;    0.000
871.765; 4770.625;  183.125;    0.000
871.947; 5050.625;  169.125;    0.000
872.128; 4516.625;  162.125;    0.000
872.309; 4137.625;  159.125;    0.000
872.491; 3711.625;  148.125;    0.000
872.672; 3739.625;  163.125;    0.000
872.853; 3511.625;  152.125;    0.000
873.034; 3348.625;  166.125;    0.000
873.215; 3262.625;  155.125;    0.000
873.396; 3105.625;  147.125;    0.000
873.578; 2941.625;  147.125;    0.000
873.759; 2937.625;  153.125;    0.000
873.940; 2842.625;  194.125;    0.000
874.121; 2759.625;  179.125;    0.000
874.302; 2770.625;  155.125;    0.000
874.483; 2728.625;  131.125;    0.000
874.664; 2640.625;  106.125;    0.000
874.845; 2623.625;  122.125;    0.000
875.026; 2637.625;  127.125;    0.000
875.207; 2559.625;  151.125;    0.000
875.388; 2584.625;  149.125;    0.000
875.568; 2572.625;  164.125;    0.000
875.749; 2457.625;  176.125;    0.000
875.930; 2570.625;  207.125;    0.000
876.111; 2481.625;  177.125;    0.000
876.292; 2444.625;  178.125;    0.000
876.472; 2370.625;  163.125;    0.000
876.653; 2400.625;  159.125;    0.000
876.834; 2293.625;  177.125;    0.000
877.015; 2372.625;  212.125;    0.000
877.195; 2294.625;  166.125;    0.000
877.376; 2321.625;  157.125;    0.000
877.556; 2402.625;  175.125;    0.000
877.737; 2288.625;  220.125;    0.000
877.918; 2348.625;  163.125;    0.000
878.098; 2285.625;  166.125;    0.000
878.279; 2304.625;  136.125;    0.000
878.459; 2329.625;  167.125;    0.000
878.640; 2332.625;  167.125;    0.000
878.820; 2246.625;  155.125;    0.000
879.000; 2270.625;  158.125;    0.000
879.181; 2188.625;  155.125;    0.000
879.361; 2232.625;  181.125;    0.000
879.542; 2246.625;  181.125;    0.000
879.722; 2277.625;  117.125;    0.000
879.902; 2221.625;  180.125;    0.000
880.083; 2214.625;  139.125;    0.000
880.263; 2302.625;  168.125;    0.000
880.443; 2415.625;  206.125;    0.000
880.623; 2978.625;  132.125;    0.000
880.803; 3362.625;  149.125;    0.000
880.984; 2797.625;  189.125;    0.000
881.164; 2509.625;  171.125;    0.000
881.344; 2515.625;  150.125;    0.000
881.524; 2389.625;  185.125;    0.000
881.704; 2405.625;  152.125;    0.000
881.884; 2510.625;  188.125;    0.000
882.064; 2632.625;  155.125;    0.000
882.244; 2615.625;  182.125;    0.000
882.424; 2466.625;  154.125;    0.000
882.604; 2498.625;  175.125;    0.000
882.784; 2349.625;  137.125;    0.000
882.964; 2344.625;  135.125;    0.000
883.144; 2247.625;  142.125;    0.000
883.324; 2333.625;  192.125;    0.000
883.504; 2295.625;  193.125;    0.000
883.683; 2254.625;  208.125;    0.000
883.863; 2138.625;  127.125;    0.000
884.043; 2143.625;  140.125;    0.000
884.223; 2244.625;  167.125;    0.000
884.402; 2185.625;  156.125;    0.000
884.582; 2079.625;  185.125;    0.000
884.762; 2195.625;  187.125;    0.000
884.941; 2161.625;  201.125;    0.000
885.121; 2116.625;  157.125;    0.000
885.301; 2094.625;  173.125;    0.000
885.480; 2103.625;  158.125;    0.000
885.660; 2087.625;  153.125;    0.000
885.839; 2150.625;  144.125;    0.000
886.019; 2146.625;  184.125;    0.000
886.198; 2021.625;  132.125;    0.000
886.378; 2007.625;  124.125;    0.000
886.557; 2093.625;  146.125;    0.000
886.737; 2057.625;  157.125;    0.000
886.916; 2041.625;  203.125;    0.000
887.095; 2114.625;  151.125;    0.000
887.275; 2059.625;  143.125;    0.000
887.454; 2084.625;  140.125;    0.000
887.633; 2074.625;  196.125;    0.000
887.813; 2084.625;  161.125;    0.000
887.992; 2051.625;  183.125;    0.000
888.171; 2049.625;  153.125;    0.000
888.350; 2052.625;  185.125;    0.000
888.530; 2031.625;  163.125;    0.000
888.709; 2040.625;  174.125;    0.000
888.888; 2039.625;  179.125;    0.000
889.067; 2024.625;  178.125;    0.000
889.246; 2038.625;  184.125;    0.000
889.425; 2065.625;  169.125;    0.000
889.604; 2088.625;  210.125;    0.000
889.783; 2019.625;  183.125;    0.000
889.962; 2054.625;  116.125;    0.000
890.141; 2057.625;  179.125;    0.000
890.320; 2066.625;  182.125;    0.000
890.499; 2124.625;  188.125;    0.000
890.678; 2047.625;  167.125;    0.000
890.857; 1989.625;  141.125;    0.000
891.036; 2028.625;  179.125;    0.000
891.214; 1973.625;  156.125;    0.000
891.393; 1962.625;  209.125;    0.000
891.572; 2063.625;  181.125;    0.000
891.751; 2104.625;  172.125;    0.000
891.930; 2040.625;  169.125;    0.000
892.108; 1984.625;  131.125;    0.000
892.287; 2007.625;  162.125;    0.000
892.466; 2039.625;  178.125;    0.000
892.644; 1994.625;  161.125;    0.000
892.823; 2064.625;  180.125;    0.000
893.001; 1972.625;  179.125;    0.000
893.180; 1977.625;  152.125;    0.000
893.359; 2037.625;  184.125;    0.000
893.537; 2003.625;  178.125;    0.000
893.716; 1994.625;  169.125;    0.000
893.894; 2000.625;  159.125;    0.000
894.073; 2026.625;  179.125;    0.000
894.251; 2018.625;  167.125;    0.000
894.429; 2049.625;  142.125;    0.000
894.608; 2069.625;  166.125;    0.000
894.786; 1988.625;  153.125;    0.000
894.964; 1967.625;  181.125;    0.000
895.143; 1997.625;  161.125;    0.000
895.321; 1976.625;  198.125;    0.000
895.499; 2020.625;  184.125;    0.000
895.677; 2066.625;  178.125;    0.000
895.856; 1985.625;  226.125;    0.000
896.034; 2052.625;  180.125;    0.000
896.212; 2080.625;  200.125;    0.000
896.390; 2068.625;  161.125;    0.000
896.568; 2089.625;  204.125;    0.000
896.746; 2044.625;  136.125;    0.000
896.924; 1976.625;  171.125;    0.000
897.102; 2160.625;  203.125;    0.000
897.280; 1954.625;  142.125;    0.000
897.458; 2072.625;  159.125;    0.000
897.636; 1992.625;  163.125;    0.000
897.814; 2038.625;  137.125;    0.000
897.992; 2106.625;  199.125;    0.000
898.170; 2071.625;  176.125;    0.000
898.348; 2102.625;  195.125;    0.000
898.526; 2036.625;  199.125;    0.000
898.704; 2009.625;  260.125;    0.000
898.882; 2061.625;  185.125;    0.000
899.059; 2155.625;  169.125;    0.000
899.237; 2043.625;  197.125;    0.000
899.415; 2108.625;  207.125;    0.000
899.593; 2108.625;  169.125;    0.000
899.770; 2118.625;  182.125;    0.000
899.948; 2191.625;  198.125;    0.000
900.125; 2125.625;  200.125;    0.000
900.303; 2098.625;  165.125;    0.000
900.481; 2126.625;  182.125;    0.000
900.658; 2155.625;  206.125;    0.000
900.836; 2151.625;  188.125;    0.000
901.013; 2194.625;  169.125;    0.000
901.191; 2185.625;  172.125;    0.000
901.368; 2151.625;  170.125;    0.000
901.546; 2267.625;  234.125;    0.000
901.723; 2279.625;  173.125;    0.000
901.901; 2353.625;  190.125;    0.000
902.078; 2300.625;  145.125;    0.000
902.255; 2355.625;  204.125;    0.000
902.433; 2305.625;  198.125;    0.000
902.610; 2417.625;  190.125;    0.000
902.787; 2304.625;  204.125;    0.000
902.964; 2532.625;  208.125;    0.000
903.142; 2397.625;  187.125;    0.000
903.319; 2534.625;  216.125;    0.000
903.496; 2488.625;  186.125;    0.000
903.673; 2522.625;  201.125;    0.000
903.850; 2464.625;  195.125;    0.000
904.027; 2554.625;  211.125;    0.000
904.204; 2795.625;  197.125;    0.000
904.381; 2870.625;  198.125;    0.000
904.558; 3257.625;  188.125;    0.000
904.735; 3590.625;  207.125;    0.000
904.912; 3519.625;  217.125;    0.000
905.089; 3509.625;  188.125;    0.000
905.266; 3351.625;  160.125;    0.000
905.443; 3210.625;  221.125;    0.000
905.620; 2917.625;  163.125;    0.000
905.797; 2861.625;  186.125;    0.000
905.974; 2816.625;  205.125;    0.000
906.151; 2759.625;  159.125;    0.000
906.327; 2783.625;  206.125;    0.000
906.504; 2870.625;  201.125;    0.000
906.681; 2676.625;  202.125;    0.000
906.858; 2618.625;  188.125;    0.000
907.034; 2583.625;  207.125;    0.000
907.211; 2525.625;  182.125;    0.000
907.388; 2455.625;  184.125;    0.000
907.564; 2492.625;  148.125;    0.000
907.741; 2461.625;  181.125;    0.000
907.917; 2521.625;  191.125;    0.000
908.094; 2406.625;  210.125;    0.000
908.271; 2297.625;  171.125;    0.000
908.447; 2440.625;  241.125;    0.000
908.623; 2330.625;  188.125;    0.000
908.800; 2246.625;  205.125;    0.000
908.976; 2283.625;  210.125;    0.000
909.153; 2158.625;  193.125;    0.000
909.329; 2338.625;  206.125;    0.000
909.505; 2295.625;  181.125;    0.000
909.682; 2169.625;  192.125;    0.000
909.858; 2129.625;  134.125;    0.000
910.034; 2157.625;  214.125;    0.000
910.211; 2161.625;  182.125;    0.000
910.387; 2209.625;  194.125;    0.000
910.563; 2204.625;  199.125;    0.000
910.739; 2174.625;  188.125;    0.000
910.915; 2114.625;  192.125;    0.000
911.091; 2246.625;  198.125;    0.000
911.268; 2194.625;  178.125;    0.000
911.444; 2184.625;  201.125;    0.000
911.620; 2115.625;  181.125;    0.000
911.796; 2173.625;  185.125;    0.000
911.972; 2169.625;  176.125;    0.000
912.148; 2167.625;  196.125;    0.000
912.324; 2234.625;  192.125;    0.000
912.500; 2247.625;  204.125;    0.000
912.676; 2136.625;  164.125;    0.000
912.851; 2156.625;  193.125;    0.000
913.027; 2099.625;  175.125;    0.000
913.203; 2127.625;  193.125;    0.000
913.379; 2131.625;  213.125;    0.000
913.555; 2112.625;  211.125;    0.000
913.730; 2180.625;  194.125;    0.000
913.906; 2145.625;  153.125;    0.000
914.082; 2263.625;  212.125;    0.000
914.258; 2055.625;  194.125;    0.000
914.433; 2114.625;  191.125;    0.000
914.609; 2112.625;  208.125;    0.000
914.784; 2120.625;  176.125;    0.000
914.960; 2169.625;  227.125;    0.000
915.136; 2151.625;  152.125;    0.000
915.311; 2189.625;  171.125;    0.000
915.487; 2138.625;  173.125;    0.000
915.662; 2188.625;  189.125;    0.000
915.838; 2206.625;  179.125;    0.000
916.013; 2171.625;  191.125;    0.000
916.189; 2244.625;  207.125;    0.000
916.364; 2177.625;  194.125;    0.000
916.539; 2184.625;  174.125;    0.000
916.715; 2225.625;  207.125;    0.000
916.890; 2227.625;  193.125;    0.000
917.065; 2136.625;  199.125;    0.000
917.240; 2212.625;  214.125;    0.000
917.416; 2252.625;  194.125;    0.000
917.591; 2244.625;  213.125;    0.000
917.766; 2269.625;  194.125;    0.000
917.941; 2132.625;  201.125;    0.000
918.116; 2168.625;  198.125;    0.000
918.292; 2200.625;  176.125;    0.000
918.467; 2264.625;  190.125;    0.000
918.642; 2116.625;  200.125;    0.000
918.817; 2208.625;  186.125;    0.000
918.992; 2204.625;  174.125;    0.000
919.167; 2202.625;  197.125;    0.000
919.342; 2228.625;  188.125;    0.000
919.517; 2224.625;  179.125;    0.000
919.692; 2288.625;  182.125;    0.000
919.867; 2286.625;  216.125;    0.000
920.041; 2279.625;  208.125;    0.000
920.216; 2324.625;  223.125;    0.000
920.391; 2328.625;  203.125;    0.000
920.566; 2314.625;  202.125;    0.000
920.741; 2433.625;  197.125;    0.000
920.915; 2523.625;  223.125;    0.000
921.090; 2518.625;  183.125;    0.000
921.265; 2860.625;  169.125;    0.000
921.439; 3115.625;  212.125;    0.000
921.614; 2910.625;  190.125;    0.000
921.789; 2827.625;  177.125;    0.000
921.963; 2687.625;  233.125;    0.000
922.138; 2578.625;  156.125;    0.000
922.312; 2543.625;  193.125;    0.000
922.487; 2535.625;  208.125;    0.000
922.661; 2603.625;  212.125;    0.000
922.836; 2779.625;  210.125;    0.000
923.010; 2785.625;  183.125;    0.000
923.185; 2671.625;  228.125;    0.000
923.359; 2611.625;  227.125;    0.000
923.534; 2609.625;  189.125;    0.000
923.708; 2593.625;  210.125;    0.000
923.882; 2840.625;  217.125;    0.000
924.057; 2683.625;  195.125;    0.000
924.231; 2653.625;  201.125;    0.000
924.405; 2666.625;  188.125;    0.000
924.579; 2550.625;  188.125;    0.000
924.753; 2544.625;  174.125;    0.000
924.928; 2487.625;  179.125;    0.000
925.102; 2518.625;  186.125;    0.000
925.276; 2555.625;  201.125;    0.000
925.450; 2515.625;  211.125;    0.000
925.624; 2592.625;  238.125;    0.000
925.798; 2699.625;  191.125;    0.000
925.972; 2779.625;  192.125;    0.000
926.146; 2843.625;  198.125;    0.000
926.320; 2991.625;  151.125;    0.000
926.494; 3266.625;  202.125;    0.000
926.668; 3383.625;  197.125;    0.000
926.842; 3477.625;  177.125;    0.000
927.016; 3451.625;  202.125;    0.000
927.190; 3327.625;  207.125;    0.000
927.363; 3259.625;  180.125;    0.000
927.537; 3129.625;  212.125;    0.000
927.711; 3004.625;  148.125;    0.000
927.885; 3081.625;  196.125;    0.000
928.058; 3055.625;  173.125;    0.000
928.232; 3001.625;  219.125;    0.000
928.406; 2854.625;  141.125;    0.000
928.579; 2798.625;  157.125;    0.000
928.753; 2734.625;  205.125;    0.000
928.927; 2775.625;  196.125;    0.000
929.100; 2740.625;  237.125;    0.000
929.274; 2627.625;  166.125;    0.000
929.447; 2557.625;  150.125;    0.000
929.621; 2659.625;  188.125;    0.000
929.794; 2695.625;  169.125;    0.000
929.968; 2520.625;  194.125;    0.000
930.141; 2611.625;  226.125;    0.000
930.315; 2546.625;  196.125;    0.000
930.488; 2575.625;  233.125;    0.000
930.661; 2557.625;  188.125;    0.000
930.835; 2402.625;  170.125;    0.000
931.008; 2475.625;  176.125;    0.000
931.181; 2473.625;  175.125;    0.000
931.354; 2349.625;  212.125;    0.000
931.528; 2408.625;  177.125;    0.000
931.701; 2381.625;  218.125;    0.000
931.874; 2281.625;  175.125;    0.000
932.047; 2318.625;  157.125;    0.000
932.220; 2324.625;  187.125;    0.000
932.393; 2214.625;  166.125;    0.000
932.566; 2252.625;  168.125;    0.000
932.739; 2310.625;  203.125;    0.000
932.912; 2329.625;  202.125;    0.000
933.085; 2238.625;  209.125;    0.000
933.258; 2337.625;  196.125;    0.000
933.431; 2176.625;  207.125;    0.000
933.604; 2227.625;  201.125;    0.000
933.777; 2254.625;  202.125;    0.000
933.950; 2227.625;  184.125;    0.000
934.123; 2146.625;  167.125;    0.000
934.296; 2172.625;  209.125;    0.000
934.468; 2221.625;  216.125;    0.000
934.641; 2147.625;  156.125;    0.000
934.814; 2187.625;  215.125;    0.000
934.987; 2199.625;  201.125;    0.000
935.159; 2220.625;  176.125;    0.000
935.332; 2244.625;  203.125;    0.000
935.505; 2139.625;  163.125;    0.000
935.677; 2143.625;  169.125;    0.000
935.850; 2125.625;  178.125;    0.000
936.022; 2198.625;  187.125;    0.000
936.195; 2236.625;  207.125;    0.000
936.367; 2181.625;  191.125;    0.000
936.540; 2233.625;  214.125;    0.000
936.712; 2232.625;  202.125;    0.000
936.885; 2245.625;  195.125;    0.000
937.057; 2216.625;  173.125;    0.000
937.229; 2318.625;  179.125;    0.000
937.402; 2334.625;  174.125;    0.000
937.574; 2300.625;  140.125;    0.000
937.746; 2376.625;  153.125;    0.000
937.919; 2394.625;  196.125;    0.000
938.091; 2533.625;  173.125;    0.000
938.263; 2621.625;  206.125;    0.000
938.435; 2874.625;  213.125;    0.000
938.608; 3056.625;  204.125;    0.000
938.780; 3461.625;  199.125;    0.000
938.952; 3568.625;  190.125;    0.000
939.124; 3600.625;  182.125;    0.000
939.296; 3975.625;  188.125;    0.000
939.468; 4044.625;  119.125;    0.000
939.640; 3722.625;  171.125;    0.000
939.812; 3506.625;  222.125;    0.000
939.984; 3156.625;  172.125;    0.000
940.156; 3051.625;  171.125;    0.000
940.328; 2880.625;  215.125;    0.000
940.500; 2691.625;  179.125;    0.000
940.672; 2683.625;  178.125;    0.000
940.843; 2478.625;  193.125;    0.000
941.015; 2589.625;  207.125;    0.000
941.187; 2508.625;  179.125;    0.000
941.359; 2519.625;  191.125;    0.000
941.531; 2501.625;  160.125;    0.000
941.702; 2459.625;  208.125;    0.000
941.874; 2366.625;  143.125;    0.000
942.046; 2270.625;  189.125;    0.000
942.217; 2287.625;  167.125;    0.000
942.389; 2314.625;  199.125;    0.000
942.560; 2215.625;  179.125;    0.000
942.732; 2217.625;  209.125;    0.000
942.904; 2183.625;  180.125;    0.000
943.075; 2209.625;  197.125;    0.000
943.247; 2111.625;  207.125;    0.000
943.418; 2073.625;  183.125;    0.000
943.589; 2142.625;  176.125;    0.000
943.761; 2107.625;  165.125;    0.000
943.932; 2174.625;  170.125;    0.000
944.104; 2133.625;  147.125;    0.000
944.275; 2024.625;  149.125;    0.000
944.446; 2103.625;  191.125;    0.000
944.617; 2069.625;  128.125;    0.000
944.789; 1965.625;  166.125;    0.000
944.960; 2092.625;  195.125;    0.000
945.131; 2046.625;  164.125;    0.000
945.302; 2095.625;  229.125;    0.000
945.473; 2008.625;  153.125;    0.000
945.645; 2094.625;  166.125;    0.000
945.816; 2152.625;  187.125;    0.000
945.987; 2151.625;  193.125;    0.000
946.158; 2147.625;  166.125;    0.000
946.329; 2178.625;  196.125;    0.000
946.500; 2097.625;  152.125;    0.000
946.671; 2090.625;  161.125;    0.000
946.842; 2117.625;  176.125;    0.000
947.013; 2085.625;  188.125;    0.000
947.183; 2061.625;  213.125;    0.000
947.354; 2032.625;  163.125;    0.000
947.525; 2043.625;  204.125;    0.000
947.696; 2032.625;  159.125;    0.000
947.867; 2004.625;  197.125;    0.000
948.037; 2032.625;  174.125;    0.000
948.208; 2046.625;  163.125;    0.000
948.379; 2035.625;  189.125;    0.000
948.550; 1982.625;  173.125;    0.000
948.720; 2064.625;  186.125;    0.000
948.891; 1984.625;  166.125;    0.000
949.061; 2033.625;  197.125;    0.000
949.232; 2007.625;  168.125;    0.000
949.403; 1935.625;  188.125;    0.000
949.573; 1900.625;  164.125;    0.000
949.744; 1944.625;  194.125;    0.000
949.914; 1946.625;  154.125;    0.000
950.085; 1881.625;  197.125;    0.000
950.255; 1965.625;  187.125;    0.000
950.425; 1894.625;  193.125;    0.000
950.596; 1880.625;  182.125;    0.000
950.766; 2031.625;  202.125;    0.000
950.936; 1936.625;  230.125;    0.000
951.107; 1902.625;  133.125;    0.000
951.277; 1909.625;  234.125;    0.000
951.447; 1858.625;  200.125;    0.000
951.617; 1971.625;  212.125;    0.000
951.788; 1896.625;  176.125;    0.000
951.958; 1941.625;  218.125;    0.000
952.128; 1944.625;  198.125;    0.000
952.298; 1965.625;  185.125;    0.000
952.468; 1921.625;  231.125;    0.000
952.638; 1932.625;  213.125;    0.000
952.808; 1952.625;  218.125;    0.000
952.978; 1924.625;  252.125;    0.000
953.148; 1952.625;  200.125;    0.000
953.318; 1978.625;  243.125;    0.000
953.488; 1916.625;  140.125;    0.000
953.658; 1818.625;  208.125;    0.000
953.828; 1886.625;  179.125;    0.000
953.998; 1990.625;  211.125;    0.000
954.167; 1907.625;  197.125;    0.000
954.337; 1914.625;  217.125;    0.000
954.507; 1897.625;  219.125;    0.000
954.677; 1885.625;  201.125;    0.000
954.846; 1989.625;  241.125;    0.000
955.016; 1873.625;  222.125;    0.000
955.186; 1841.625;  200.125;    0.000
955.355; 1862.625;  247.125;    0.000
955.525; 1906.625;  212.125;    0.000
955.695; 1872.625;  200.125;    0.000
955.864; 1860.625;  196.125;    0.000
956.034; 1906.625;  195.125;    0.000
956.203; 1911.625;  243.125;    0.000
956.373; 1847.625;  197.125;    0.000
956.542; 1850.625;  237.125;    0.000
956.711; 1934.625;  249.125;    0.000
956.881; 1839.625;  235.125;    0.000
957.050; 1929.625;  259.125;    0.000
957.220; 1843.625;  234.125;    0.000
957.389; 1785.625;  250.125;    0.000
957.558; 1871.625;  214.125;    0.000
957.727; 1825.625;  225.125;    0.000
957.897; 1850.625;  211.125;    0.000
958.066; 1839.625;  200.125;    0.000
958.235; 1840.625;  202.125;    0.000
958.404; 1845.625;  242.125;    0.000
958.573; 1824.625;  222.125;    0.000
958.743; 1735.625;  191.125;    0.000
958.912; 1771.625;  183.125;    0.000
959.081; 1844.625;  212.125;    0.000
959.250; 1796.625;  192.125;    0.000
959.419; 1854.625;  238.125;    0.000
959.588; 1813.625;  205.125;    0.000
959.757; 1779.625;  213.125;    0.000
959.926; 1768.625;  217.125;    0.000
960.094; 1764.625;  215.125;    0.000
960.263; 1823.625;  220.125;    0.000
960.432; 1722.625;  164.125;    0.000
960.601; 1703.625;  228.125;    0.000
960.770; 1748.625;  176.125;    0.000
960.939; 1770.625;  201.125;    0.000
961.107; 1789.625;  183.125;    0.000
961.276; 1765.625;  199.125;    0.000
961.445; 1761.625;  205.125;    0.000
961.613; 1720.625;  183.125;    0.000
961.782; 1779.625;  216.125;    0.000
961.951; 1770.625;  169.125;    0.000
962.119; 1728.625;  211.125;    0.000
962.288; 1772.625;  204.125;    0.000
962.456; 1724.625;  187.125;    0.000
962.625; 1753.625;  223.125;    0.000
962.793; 1815.625;  200.125;    0.000
962.962; 1816.625;  185.125;    0.000
963.130; 1778.625;  195.125;    0.000
963.298; 1770.625;  187.125;    0.000
963.467; 1792.625;  247.125;    0.000
963.635; 1677.625;  165.125;    0.000
963.803; 1782.625;  192.125;    0.000
963.972; 1731.625;  191.125;    0.000
964.140; 1741.625;  163.125;    0.000
964.308; 1692.625;  161.125;    0.000
964.477; 1764.625;  182.125;    0.000
964.645; 1795.625;  195.125;    0.000
964.813; 1781.625;  165.125;    0.000
964.981; 1846.625;  193.125;    0.000
965.149; 1820.625;  174.125;    0.000
965.317; 1766.625;  194.125;    0.000
965.485; 1765.625;  209.125;    0.000
965.653; 1812.625;  210.125;    0.000
965.821; 1787.625;  194.125;    0.000
965.989; 1732.625;  182.125;    0.000
966.157; 1681.625;  180.125;    0.000
966.325; 1778.625;  198.125;    0.000
966.493; 1748.625;  182.125;    0.000
966.661; 1767.625;  200.125;    0.000
966.829; 1720.625;  190.125;    0.000
966.996; 1778.625;  221.125;    0.000
967.164; 1771.625;  176.125;    0.000
967.332; 1788.625;  228.125;    0.000
967.500; 1831.625;  177.125;    0.000
967.667; 1752.625;  202.125;    0.000
967.835; 1699.625;  220.125;    0.000
968.003; 1693.625;  183.125;    0.000
968.170; 1744.625;  163.125;    0.000
968.338; 1741.625;  162.125;    0.000
968.505; 1758.625;  198.125;    0.000
968.673; 1789.625;  213.125;    0.000
968.841; 1764.625;  131.125;    0.000
969.008; 1824.625;  225.125;    0.000
969.175; 1776.625;  202.125;    0.000
969.343; 1771.625;  222.125;    0.000
969.510; 1806.625;  230.125;    0.000
969.678; 1738.625;  161.125;    0.000
969.845; 1830.625;  208.125;    0.000
970.012; 1794.625;  186.125;    0.000
970.180; 1787.625;  226.125;    0.000
970.347; 1737.625;  222.125;    0.000
970.514; 1713.625;  206.125;    0.000
970.681; 1745.625;  173.125;    0.000
970.849; 1747.625;  190.125;    0.000
971.016; 1799.625;  220.125;    0.000
971.183; 1822.625;  202.125;    0.000
971.350; 1740.625;  196.125;    0.000
971.517; 1776.625;  218.125;    0.000
971.684; 1833.625;  228.125;    0.000
971.851; 1787.625;  235.125;    0.000
972.018; 1833.625;  200.125;    0.000
972.185; 1756.625;  183.125;    0.000
972.352; 1830.625;  216.125;    0.000
972.519; 1834.625;  227.125;    0.000
972.686; 1833.625;  209.125;    0.000
972.853; 1838.625;  157.125;    0.000
973.020; 1804.625;  179.125;    0.000
973.186; 1805.625;  173.125;    0.000
973.353; 1781.625;  189.125;    0.000
973.520; 1718.625;  228.125;    0.000
973.687; 1815.625;  190.125;    0.000
973.853; 1830.625;  197.125;    0.000
974.020; 1924.625;  208.125;    0.000
974.187; 1784.625;  158.125;    0.000
974.353; 1833.625;  201.125;    0.000
974.520; 1765.625;  158.125;    0.000
974.687; 1785.625;  192.125;    0.000
974.853; 1720.625;  177.125;    0.000
975.020; 1788.625;  212.125;    0.000
975.186; 1792.625;  200.125;    0.000
975.353; 1716.625;  208.125;    0.000
975.519; 1788.625;  169.125;    0.000
975.685; 1794.625;  176.125;    0.000
975.852; 1826.625;  201.125;    0.000
976.018; 1814.625;  209.125;    0.000
976.184; 1816.625;  197.125;    0.000
976.351; 1794.625;  196.125;    0.000
976.517; 1795.625;  243.125;    0.000
976.683; 1801.625;  210.125;    0.000
976.849; 1811.625;  226.125;    0.000
977.016; 1748.625;  218.125;    0.000
977.182; 1773.625;  213.125;    0.000
977.348; 1693.625;  205.125;    0.000
977.514; 1736.625;  210.125;    0.000
977.680; 1725.625;  226.125;    0.000
977.846; 1708.625;  206.125;    0.000
978.012; 1800.625;  222.125;    0.000
978.178; 1774.625;  216.125;    0.000
978.344; 1698.625;  172.125;    0.000
978.510; 1654.625;  210.125;    0.000
978.676; 1694.625;  184.125;    0.000
978.842; 1738.625;  190.125;    0.000
979.008; 1755.625;  203.125;    0.000
979.174; 1835.625;  211.125;    0.000
979.340; 1813.625;  190.125;    0.000
979.505; 1761.625;  235.125;    0.000
979.671; 1693.625;  182.125;    0.000
979.837; 1729.625;  235.125;    0.000
980.003; 1755.625;  183.125;    0.000
980.168; 1814.625;  220.125;    0.000
980.334; 1714.625;  161.125;    0.000
980.499; 1822.625;  212.125;    0.000
980.665; 1804.625;  219.125;    0.000
980.831; 1755.625;  201.125;    0.000
980.996; 1721.625;  189.125;    0.000
981.162; 1759.625;  222.125;    0.000
981.327; 1731.625;  173.125;    0.000
981.493; 1818.625;  197.125;    0.000
981.658; 1759.625;  178.125;    0.000
981.823; 1856.625;  196.125;    0.000
981.989; 1749.625;  248.125;    0.000
982.154; 1813.625;  222.125;    0.000
982.319; 1783.625;  226.125;    0.000
982.485; 1763.625;  188.125;    0.000
982.650; 1894.625;  203.125;    0.000
982.815; 1822.625;  237.125;    0.000
982.980; 1752.625;  210.125;    0.000
983.146; 1777.625;  202.125;    0.000
983.311; 1821.625;  195.125;    0.000
983.476; 1807.625;  207.125;    0.000
983.641; 1733.625;  198.125;    0.000
983.806; 1836.625;  136.125;    0.000
983.971; 1768.625;  248.125;    0.000
984.136; 1754.625;  213.125;    0.000
984.301; 1805.625;  181.125;    0.000
984.466; 1758.625;  210.125;    0.000
984.631; 1824.625;  219.125;    0.000
984.796; 1788.625;  207.125;    0.000
984.961; 1803.625;  214.125;    0.000
985.126; 1788.625;  218.125;    0.000
985.291; 1855.625;  214.125;    0.000
985.455; 1804.625;  187.125;    0.000
985.620; 1752.625;  191.125;    0.000
985.785; 1741.625;  190.125;    0.000
985.950; 1716.625;  184.125;    0.000
986.114; 1749.625;  242.125;    0.000
986.279; 1772.625;  251.125;    0.000
986.444; 1810.625;  177.125;    0.000
986.608; 1808.625;  216.125;    0.000
986.773; 1836.625;  211.125;    0.000
986.937; 1876.625;  244.125;    0.000
987.102; 1856.625;  187.125;    0.000
987.266; 1763.625;  178.125;    0.000
987.431; 1866.625;  205.125;    0.000
987.595; 1784.625;  221.125;    0.000
987.760; 1860.625;  205.125;    0.000
987.924; 1878.625;  195.125;    0.000
988.088; 1749.625;  184.125;    0.000
988.253; 1845.625;  188.125;    0.000
988.417; 1770.625;  196.125;    0.000
988.581; 1814.625;  218.125;    0.000
988.746; 1807.625;  203.125;    0.000
988.910; 1796.625;  195.125;    0.000
989.074; 1812.625;  187.125;    0.000
989.238; 1739.625;  243.125;    0.000
989.402; 1737.625;  242.125;    0.000
989.566; 1859.625;  205.125;    0.000
989.731; 1710.625;  195.125;    0.000
989.895; 1782.625;  211.125;    0.000
990.059; 1745.625;  175.125;    0.000
990.223; 1662.625;  176.125;    0.000
990.387; 1791.625;  234.125;    0.000
990.551; 1861.625;  231.125;    0.000
990.714; 1799.625;  209.125;    0.000
990.878; 1804.625;  187.125;    0.000
991.042; 1685.625;  183.125;    0.000
991.206; 1823.625;  216.125;    0.000
991.370; 1844.625;  257.125;    0.000
991.534; 1675.625;  188.125;    0.000
991.697; 1818.625;  203.125;    0.000
991.861; 1742.625;  219.125;    0.000
992.025; 1827.625;  221.125;    0.000
992.188; 1804.625;  188.125;    0.000
992.352; 1793.625;  205.125;    0.000
992.516; 1805.625;  189.125;    0.000
992.679; 1785.625;  207.125;    0.000
992.843; 1763.625;  210.125;    0.000
993.006; 1766.625;  191.125;    0.000
993.170; 1788.625;  228.125;    0.000
993.333; 1726.625;  142.125;    0.000
993.497; 1764.625;  175.125;    0.000
993.660; 1809.625;  220.125;    0.000
993.824; 1823.625;  193.125;    0.000
993.987; 1846.625;  219.125;    0.000
994.150; 1731.625;  166.125;    0.000
994.314; 1746.625;  207.125;    0.000
994.477; 1792.625;  227.125;    0.000
994.640; 1747.625;  210.125;    0.000
994.803; 1775.625;  219.125;    0.000
994.967; 1771.625;  192.125;    0.000
995.130; 1809.625;  197.125;    0.000
995.293; 1802.625;  189.125;    0.000
995.456; 1825.625;  180.125;    0.000
995.619; 1771.625;  239.125;    0.000
995.782; 1849.625;  209.125;    0.000
995.945; 1720.625;  216.125;    0.000
996.108; 1793.625;  198.125;    0.000
996.271; 1774.625;  205.125;    0.000
996.434; 1797.625;  205.125;    0.000
996.597; 1724.625;  208.125;    0.000
996.760; 1726.625;  205.125;    0.000
996.923; 1698.625;  174.125;    0.000
997.086; 1685.625;  198.125;    0.000
997.248; 1794.625;  214.125;    0.000
997.411; 1742.625;  237.125;    0.000
997.574; 1689.625;  182.125;    0.000
997.737; 1849.625;  188.125;    0.000
997.899; 1766.625;  216.125;    0.000
998.062; 1733.625;  210.125;    0.000
998.225; 1751.625;  202.125;    0.000
998.387; 1738.625;  202.125;    0.000
998.550; 1708.625;  193.125;    0.000
998.712; 1713.625;  225.125;    0.000
998.875; 1830.625;  228.125;    0.000
999.037; 1705.625;  186.125;    0.000
999.200; 1713.625;  212.125;    0.000
999.362; 1760.625;  234.125;    0.000
999.525; 1702.625;  170.125;    0.000
999.687; 1721.625;  191.125;    0.000
999.849; 1804.625;  218.125;    0.000
1000.012; 1758.625;  187.125;    0.000
1000.174; 1702.625;  216.125;    0.000
1000.336; 1775.625;  194.125;    0.000
1000.499; 1864.625;  209.125;    0.000
1000.661; 1806.625;  208.125;    0.000
1000.823; 1747.625;  197.125;    0.000
1000.985; 1883.625;  201.125;    0.000
1001.147; 1835.625;  234.125;    0.000
1001.309; 1764.625;  180.125;    0.000
1001.471; 1863.625;  223.125;    0.000
1001.633; 1835.625;  198.125;    0.000
1001.796; 1841.625;  200.125;    0.000
1001.958; 1871.625;  204.125;    0.000
1002.119; 1958.625;  193.125;    0.000
1002.281; 1973.625;  205.125;    0.000
1002.443; 2075.625;  236.125;    0.000
1002.605; 2090.625;  197.125;    0.000
1002.767; 2239.625;  223.125;    0.000
1002.929; 2321.625;  220.125;    0.000
1003.091; 2404.625;  214.125;    0.000
1003.252; 2579.625;  233.125;    0.000
1003.414; 2715.625;  230.125;    0.000
1003.576; 2691.625;  203.125;    0.000
1003.738; 2820.625;  201.125;    0.000
1003.899; 3116.625;  222.125;    0.000
1004.061; 3269.625;  208.125;    0.000
1004.222; 3323.625;  194.125;    0.000
1004.384; 3371.625;  205.125;    0.000
1004.546; 3412.625;  162.125;    0.000
1004.707; 3538.625;  232.125;    0.000
1004.869; 3640.625;  223.125;    0.000
1005.030; 3503.625;  204.125;    0.000
1005.191; 3367.625;  214.125;    0.000
1005.353; 3298.625;  226.125;    0.000
1005.514; 3183.625;  201.125;    0.000
1005.675; 3078.625;  205.125;    0.000
1005.837; 2943.625;  235.125;    0.000
1005.998; 2863.625;  210.125;    0.000
1006.159; 2791.625;  214.125;    0.000
1006.321; 2897.625;  236.125;    0.000
1006.482; 2937.625;  214.125;    0.000
1006.643; 3029.625;  213.125;    0.000
1006.804; 3179.625;  204.125;    0.000
1006.965; 3297.625;  212.125;    0.000
1007.126; 3360.625;  251.125;    0.000
1007.287; 3356.625;  238.125;    0.000
1007.448; 3296.625;  198.125;    0.000
1007.609; 3265.625;  241.125;    0.000
1007.770; 3052.625;  213.125;    0.000
1007.931; 3192.625;  225.125;    0.000
1008.092; 3078.625;  204.125;    0.000
1008.253; 3222.625;  220.125;    0.000
1008.414; 3248.625;  180.125;    0.000
1008.575; 3252.625;  224.125;    0.000
1008.736; 3310.625;  164.125;    0.000
1008.896; 3289.625;  247.125;    0.000
1009.057; 3303.625;  263.125;    0.000
1009.218; 3262.625;  233.125;    0.000
1009.379; 3290.625;  207.125;    0.000
1009.539; 3315.625;  221.125;    0.000
1009.700; 3558.625;  209.125;    0.000
1009.860; 3421.625;  217.125;    0.000
1010.021; 3401.625;  182.125;    0.000
1010.182; 3521.625;  233.125;    0.000
1010.342; 3277.625;  210.125;    0.000
1010.503; 3423.625;  232.125;    0.000
1010.663; 3702.625;  228.125;    0.000
1010.823; 3632.625;  212.125;    0.000
1010.984; 3602.625;  244.125;    0.000
1011.144; 3642.625;  200.125;    0.000
1011.305; 3719.625;  237.125;    0.000
1011.465; 3839.625;  225.125;    0.000
1011.625; 3952.625;  215.125;    0.000
1011.785; 4013.625;  235.125;    0.000
1011.946; 3843.625;  231.125;    0.000
1012.106; 3949.625;  206.125;    0.000
1012.266; 3835.625;  218.125;    0.000
1012.426; 3986.625;  249.125;    0.000
1012.586; 3944.625;  217.125;    0.000
1012.746; 3723.625;  231.125;    0.000
1012.906; 3728.625;  230.125;    0.000
1013.066; 3867.625;  260.125;    0.000
1013.226; 3899.625;  206.125;    0.000
1013.386; 3872.625;  220.125;    0.000
1013.546; 3841.625;  233.125;    0.000
1013.706; 3792.625;  194.125;    0.000
1013.866; 3935.625;  209.125;    0.000
1014.026; 3849.625;  204.125;    0.000
1014.186; 3892.625;  203.125;    0.000
1014.346; 3926.625;  244.125;    0.000
1014.505; 3926.625;  206.125;    0.000
1014.665; 4039.625;  210.125;    0.000
1014.825; 3988.625;  235.125;    0.000
1014.985; 3918.625;  227.125;    0.000
1015.144; 4305.625;  237.125;    0.000
1015.304; 4545.625;  196.125;    0.000
1015.464; 4423.625;  228.125;    0.000
1015.623; 4182.625;  235.125;    0.000
1015.783; 4781.625;  187.125;    0.000
1015.942; 5090.625;  184.125;    0.000
1016.102; 4914.625;  245.125;    0.000
1016.261; 4747.625;  203.125;    0.000
1016.420; 5349.625;  209.125;    0.000
1016.580; 5960.625;  235.125;    0.000
1016.739; 5811.625;  175.125;    0.000
1016.899; 5443.625;  220.125;    0.000
1017.058; 5805.625;  219.125;    0.000
1017.217; 6304.625;  238.125;    0.000
1017.376; 5916.625;  235.125;    0.000
1017.536; 5195.625;  195.125;    0.000
1017.695; 5487.625;  215.125;    0.000
1017.854; 5534.625;  231.125;    0.000
1018.013; 5308.625;  184.125;    0.000
1018.172; 4840.625;  179.125;    0.000
1018.331; 5077.625;  205.125;    0.000
1018.490; 5519.625;  203.125;    0.000
1018.649; 5785.625;  261.125;    0.000
1018.808; 5694.625;  253.125;    0.000
1018.967; 5654.625;  201.125;    0.000
1019.126; 5864.625;  216.125;    0.000
1019.285; 6219.625;  169.125;    0.000
1019.444; 5966.625;  226.125;    0.000
1019.603; 5563.625;  252.125;    0.000
1019.762; 5501.625;  206.125;    0.000
1019.921; 5744.625;  235.125;    0.000
1020.079; 5993.625;  192.125;    0.000
1020.238; 6115.625;  226.125;    0.000
1020.397; 5861.625;  231.125;    0.000
1020.555; 5698.625;  218.125;    0.000
1020.714; 5968.625;  235.125;    0.000
1020.873; 6172.625;  229.125;    0.000
1021.031; 6137.625;  234.125;    0.000
1021.190; 5824.625;  223.125;    0.000
1021.348; 5861.625;  186.125;    0.000
1021.507; 6328.625;  201.125;    0.000
1021.665; 6808.625;  222.125;    0.000
1021.824; 6164.625;  208.125;    0.000
1021.982; 5768.625;  209.125;    0.000
1022.141; 5870.625;  224.125;    0.000
1022.299; 6728.625;  214.125;    0.000
1022.457; 6874.625;  176.125;    0.000
1022.616; 6178.625;  211.125;    0.000
1022.774; 5718.625;  218.125;    0.000
1022.932; 6051.625;  205.125;    0.000
1023.090; 7152.625;  246.125;    0.000
1023.249; 6981.625;  249.125;    0.000
1023.407; 6405.625;  235.125;    0.000
1023.565; 5849.625;  202.125;    0.000
1023.723; 6385.625;  210.125;    0.000
1023.881; 7166.625;  206.125;    0.000
1024.039; 6964.625;  240.125;    0.000
1024.197; 6488.625;  275.125;    0.000
1024.355; 6158.625;  228.125;    0.000
1024.513; 6276.625;  234.125;    0.000
1024.671; 7363.625;  222.125;    0.000
1024.829; 7282.625;  241.125;    0.000
1024.987; 6646.625;  209.125;    0.000
1025.145; 5963.625;  227.125;    0.000
1025.302; 6382.625;  208.125;    0.000
1025.460; 6947.625;  210.125;    0.000
1025.618; 7485.625;  192.125;    0.000
1025.776; 6983.625;  220.125;    0.000
1025.933; 6201.625;  223.125;    0.000
1026.091; 6383.625;  189.125;    0.000
1026.249; 7205.625;  210.125;    0.000
1026.406; 7578.625;  231.125;    0.000
1026.564; 7205.625;  247.125;    0.000
1026.721; 6580.625;  213.125;    0.000
1026.879; 6281.625;  208.125;    0.000
1027.036; 7190.625;  222.125;    0.000
1027.194; 7715.625;  253.125;    0.000
1027.351; 7924.625;  239.125;    0.000
1027.509; 6962.625;  232.125;    0.000
1027.666; 6514.625;  251.125;    0.000
1027.823; 6939.625;  212.125;    0.000
1027.981; 7539.625;  260.125;    0.000
1028.138; 7868.625;  263.125;    0.000
1028.295; 7435.625;  251.125;    0.000
1028.452; 6793.625;  249.125;    0.000
1028.609; 6935.625;  259.125;    0.000
1028.767; 7547.625;  255.125;    0.000
1028.924; 7802.625;  201.125;    0.000
1029.081; 7757.625;  217.125;    0.000
1029.238; 7530.625;  230.125;    0.000
1029.395; 7173.625;  263.125;    0.000
1029.552; 7169.625;  207.125;    0.000
1029.709; 7805.625;  220.125;    0.000
1029.866; 8064.625;  214.125;    0.000
1030.023; 7909.625;  224.125;    0.000
1030.180; 7394.625;  209.125;    0.000
1030.337; 7264.625;  269.125;    0.000
1030.494; 7584.625;  207.125;    0.000
1030.650; 8136.625;  230.125;    0.000
1030.807; 8494.625;  217.125;    0.000
1030.964; 7659.625;  212.125;    0.000
1031.121; 7322.625;  220.125;    0.000
1031.277; 7288.625;  233.125;    0.000
1031.434; 7954.625;  266.125;    0.000
1031.591; 8409.625;  270.125;    0.000
1031.747; 8511.625;  229.125;    0.000
1031.904; 8425.625;  227.125;    0.000
1032.060; 7796.625;  210.125;    0.000
1032.217; 7803.625;  218.125;    0.000
1032.373; 8732.625;  190.125;    0.000
1032.530; 8701.625;  236.125;    0.000
1032.686; 9806.625;  199.125;    0.000
1032.843; 9604.625;  216.125;    0.000
1032.999; 9239.625;  204.125;    0.000
1033.155; 9316.625;  208.125;    0.000
1033.312; 9158.625;  231.125;    0.000
1033.468;11075.625;  213.125;    0.000
1033.624;11568.625;  235.125;    0.000
1033.780;12407.625;  233.125;    0.000
1033.937;12166.625;  201.125;    0.000
1034.093;11253.625;  233.125;    0.000
1034.249;11193.625;  214.125;    0.000
1034.405;11720.625;  245.125;    0.000
1034.561;12329.625;  228.125;    0.000
1034.717;12969.625;  234.125;    0.000
1034.873;13098.625;  248.125;    0.000
1035.029;13108.625;  220.125;    0.000
1035.185;12532.625;  294.125;    0.000
1035.341;12248.625;  231.125;    0.000
1035.497;13158.625;  254.125;    0.000
1035.653;13495.625;  225.125;    0.000
1035.809;14642.625;  243.125;    0.000
1035.964;15626.625;  216.125;    0.000
1036.120;14530.625;  199.125;    0.000
1036.276;15011.625;  220.125;    0.000
1036.432;15025.625;  210.125;    0.000
1036.587;14437.625;  225.125;    0.000
1036.743;15585.625;  245.125;    0.000
1036.899;16667.625;  219.125;    0.000
1037.054;16031.625;  157.125;    0.000
1037.210;17826.625;  208.125;    0.000
1037.365;17578.625;  230.125;    0.000
1037.521;16666.625;  236.125;    0.000
1037.676;16329.625;  193.125;    0.000
1037.832;15341.625;  246.125;    0.000
1037.987;15047.625;  231.125;    0.000
1038.143;15863.625;  234.125;    0.000
1038.298;18253.625;  219.125;    0.000
1038.453;18174.625;  230.125;    0.000
1038.609;19390.625;  254.125;    0.000
1038.764;20501.625;  249.125;    0.000
1038.919;18645.625;  224.125;    0.000
1039.074;18312.625;  209.125;    0.000
1039.229;16849.625;  214.125;    0.000
1039.385;16739.625;  268.125;    0.000
1039.540;17598.625;  268.125;    0.000
1039.695;19518.625;  229.125;    0.000
1039.850;20724.625;  252.125;    0.000
1040.005;21912.625;  248.125;    0.000
1040.160;23313.625;  215.125;    0.000
1040.315;22593.625;  239.125;    0.000
1040.470;20661.625;  210.125;    0.000
1040.625;20176.625;  239.125;    0.000
1040.780;19486.625;  251.125;    0.000
1040.935;19602.625;  247.125;    0.000
1041.089;20616.625;  215.125;    0.000
1041.244;24148.625;  210.125;    0.000
1041.399;24854.625;  237.125;    0.000
1041.554;25593.625;  253.125;    0.000
1041.708;28719.625;  227.125;    0.000
1041.863;28574.625;  219.125;    0.000
1042.018;27706.625;  246.125;    0.000
1042.172;27239.625;  236.125;    0.000
1042.327;25656.625;  272.125;    0.000
1042.481;25777.625;  197.125;    0.000
1042.636;25991.625;  213.125;    0.000
1042.791;25861.625;  250.125;    0.000
1042.945;29985.625;  267.125;    0.000
1043.099;33132.625;  257.125;    0.000
1043.254;33296.625;  206.125;    0.000
1043.408;34129.625;  266.125;    0.000
1043.563;36136.625;  232.125;    0.000
1043.717;34790.625;  241.125;    0.000
1043.871;32838.625;  248.125;    0.000
1044.025;31778.625;  234.125;    0.000
1044.180;31488.625;  222.125;    0.000
1044.334;32700.625;  235.125;    0.000
1044.488;33139.625;  270.125;    0.000
1044.642;34345.625;  215.125;    0.000
1044.796;38543.625;  212.125;    0.000
1044.950;43770.625;  228.125;    0.000
1045.104;46876.625;  223.125;    0.000
1045.258;45739.625;  236.125;    0.000
1045.412;44340.625;  225.125;    0.000
1045.566;43691.625;  245.125;    0.000
1045.720;41217.625;  201.125;    0.000
1045.874;40020.625;  229.125;    0.000
1046.028;37695.625;  243.125;    0.000
1046.182;37590.625;  212.125;    0.000
1046.336;38627.625;  256.125;    0.000
1046.489;39712.625;  234.125;    0.000
1046.643;41854.625;  246.125;    0.000
1046.797;44887.625;  219.125;    0.000
1046.951;45287.625;  231.125;    0.000
1047.104;46301.625;  285.125;    0.000
1047.258;49996.625;  256.125;    0.000
1047.411;49709.625;  232.125;    0.000
1047.565;48849.625;  269.125;    0.000
1047.719;48109.625;  213.125;    0.000
1047.872;46726.625;  210.125;    0.000
1048.026;44778.625;  251.125;    0.000
1048.179;42708.625;  213.125;    0.000
1048.332;42858.625;  212.125;    0.000
1048.486;42738.625;  218.125;    0.000
1048.639;42571.625;  218.125;    0.000
1048.792;44429.625;  247.125;    0.000
1048.946;49792.625;  208.125;    0.000
1049.099;53213.625;  247.125;    0.000
1049.252;51883.625;  274.125;    0.000
1049.406;48863.625;  232.125;    0.000
1049.559;50732.625;  251.125;    0.000
1049.712;57384.625;  243.125;    0.000
1049.865;62348.625;  219.125;    0.000
1050.018;60359.625;  216.125;    0.000
1050.171;53147.625;  237.125;    0.000
1050.324;50560.625;  291.125;    0.000
1050.477;53776.625;  241.125;    0.000
1050.630;57968.625;  245.125;    0.000
1050.783;58901.625;  213.125;    0.000
1050.936;56419.625;  246.125;    0.000
1051.089;51678.625;  255.125;    0.000
1051.242;54368.625;  228.125;    0.000
1051.394;59900.625;  276.125;    0.000
1051.547;61398.625;  246.125;    0.000
1051.700;60443.625;  252.125;    0.000
1051.853;58331.625;  267.125;    0.000
1052.005;60532.625;  261.125;    0.000
1052.158;65063.625;  313.125;    0.000
1052.311;65063.625;  264.125;    0.000
1052.463;65063.625;  271.125;    0.000
1052.616;63529.625;  291.125;    0.000
1052.768;56488.625;  298.125;    0.000
1052.921;54530.625;  262.125;    0.000
1053.073;59916.625;  307.125;    0.000
1053.226;65063.625;  301.125;    0.000
1053.378;65063.625;  309.125;    0.000
1053.531;65063.625;  280.125;    0.000
1053.683;65063.625;  258.125;    0.000
1053.835;61268.625;  267.125;    0.000
1053.988;50500.625;  294.125;    0.000
1054.140; 9514.625;  292.125;    0.000
1054.292; 2172.625;  249.125;    0.000
1054.444; 1721.625;  288.125;    0.000
1054.596; 1506.625;  275.125;    0.000
1054.749; 1368.625;  284.125;    0.000
1054.901; 1239.625;  291.125;    0.000
1055.053; 1232.625;  274.125;    0.000
1055.205; 1120.625;  313.125;    0.000
1055.357; 1161.625;  309.125;    0.000
1055.509; 1044.625;  283.125;    0.000
1055.661; 1029.625;  341.125;    0.000
1055.813;  922.625;  288.125;    0.000
1055.965;  950.625;  300.125;    0.000
1056.116;  914.625;  296.125;    0.000
1056.268;  972.625;  319.125;    0.000
1056.420;  966.625;  298.125;    0.000

