
Integration time [ms]:   1.000
Averaging Nr. [scans]: 1
Smoothing Nr. [pixels]: 0
Data measured with spectrometer [name]: UV2
Wave   ;Sample   ;Dark     ;Reference
[nm]   ;[counts] ;[counts] ;[counts] 

353.533;  211.925;  216.475;    0.000
353.597;  233.925;  244.475;    0.000
353.660;  178.925;  181.475;    0.000
353.723;  213.925;  203.475;    0.000
353.786;  184.925;  180.475;    0.000
353.850;  228.925;  213.475;    0.000
353.913;  167.925;  191.475;    0.000
353.976;  182.925;  195.475;    0.000
354.039;  185.925;  158.475;    0.000
354.102;  235.925;  199.475;    0.000
354.166;  235.925;  185.475;    0.000
354.229;  170.925;  188.475;    0.000
354.292;  194.925;  188.475;    0.000
354.355;  203.925;  226.475;    0.000
354.418;  160.925;  158.475;    0.000
354.481;  188.925;  185.475;    0.000
354.545;  670.925;  191.475;    0.000
354.608;  664.925;  247.475;    0.000
354.671;  712.925;  176.475;    0.000
354.734;  693.925;  198.475;    0.000
354.797;  773.925;  195.475;    0.000
354.860;  706.925;  212.475;    0.000
354.923;  769.925;  184.475;    0.000
354.986;  733.925;  169.475;    0.000
355.050;  765.925;  206.475;    0.000
355.113;  747.925;  210.475;    0.000
355.176;  804.925;  217.475;    0.000
355.239;  815.925;  201.475;    0.000
355.302;  827.925;  193.475;    0.000
355.365;  811.925;  234.475;    0.000
355.428;  812.925;  182.475;    0.000
355.491;  873.925;  233.475;    0.000
355.554;  804.925;  167.475;    0.000
355.617;  818.925;  195.475;    0.000
355.680;  852.925;  198.475;    0.000
355.743;  869.925;  186.475;    0.000
355.806;  879.925;  171.475;    0.000
355.869;  943.925;  244.475;    0.000
355.932;  848.925;  164.475;    0.000
355.995;  917.925;  220.475;    0.000
356.058;  941.925;  172.475;    0.000
356.121;  910.925;  228.475;    0.000
356.184;  992.925;  225.475;    0.000
356.247;  991.925;  161.475;    0.000
356.310;  973.925;  195.475;    0.000
356.373; 1001.925;  191.475;    0.000
356.436;  994.925;  147.475;    0.000
356.498; 1015.925;  183.475;    0.000
356.561;  968.925;  137.475;    0.000
356.624;  971.925;  186.475;    0.000
356.687;  937.925;  158.475;    0.000
356.750;  974.925;  194.475;    0.000
356.813;  938.925;  186.475;    0.000
356.876;  943.925;  161.475;    0.000
356.939;  978.925;  188.475;    0.000
357.001; 1051.925;  200.475;    0.000
357.064; 1080.925;  182.475;    0.000
357.127; 1036.925;  168.475;    0.000
357.190; 1016.925;  157.475;    0.000
357.253;  970.925;  199.475;    0.000
357.316; 1020.925;  187.475;    0.000
357.378; 1035.925;  174.475;    0.000
357.441; 1019.925;  165.475;    0.000
357.504; 1011.925;  189.475;    0.000
357.567;  984.925;  116.475;    0.000
357.629; 1067.925;  176.475;    0.000
357.692; 1010.925;  134.475;    0.000
357.755; 1040.925;  175.475;    0.000
357.818; 1036.925;  159.475;    0.000
357.880; 1079.925;  185.475;    0.000
357.943; 1056.925;  159.475;    0.000
358.006; 1016.925;  176.475;    0.000
358.069; 1103.925;  156.475;    0.000
358.131; 1083.925;  170.475;    0.000
358.194;  980.925;  125.475;    0.000
358.257; 1035.925;  186.475;    0.000
358.319; 1033.925;  139.475;    0.000
358.382; 1036.925;  175.475;    0.000
358.445; 1034.925;  170.475;    0.000
358.507; 1099.925;  129.475;    0.000
358.570; 1126.925;  168.475;    0.000
358.633; 1047.925;  152.475;    0.000
358.695; 1093.925;  194.475;    0.000
358.758; 1050.925;  154.475;    0.000
358.821; 1068.925;  147.475;    0.000
358.883; 1054.925;  163.475;    0.000
358.946; 1070.925;  155.475;    0.000
359.008; 1193.925;  208.475;    0.000
359.071; 1076.925;  182.475;    0.000
359.134; 1069.925;  126.475;    0.000
359.196; 1054.925;  142.475;    0.000
359.259; 1092.925;  138.475;    0.000
359.321; 1129.925;  153.475;    0.000
359.384; 1137.925;  186.475;    0.000
359.446; 1089.925;  152.475;    0.000
359.509; 1070.925;  144.475;    0.000
359.571; 1085.925;  164.475;    0.000
359.634; 1121.925;  171.475;    0.000
359.696;  999.925;  144.475;    0.000
359.759; 1121.925;  171.475;    0.000
359.821; 1088.925;  161.475;    0.000
359.884; 1067.925;  159.475;    0.000
359.946; 1131.925;  186.475;    0.000
360.009; 1140.925;  171.475;    0.000
360.071; 1063.925;  166.475;    0.000
360.134; 1129.925;  215.475;    0.000
360.196; 1154.925;  138.475;    0.000
360.259; 1110.925;  196.475;    0.000
360.321; 1157.925;  148.475;    0.000
360.384; 1156.925;  150.475;    0.000
360.446; 1095.925;  148.475;    0.000
360.508; 1214.925;  172.475;    0.000
360.571; 1206.925;  155.475;    0.000
360.633; 1133.925;  153.475;    0.000
360.696; 1085.925;  142.475;    0.000
360.758; 1098.925;  165.475;    0.000
360.820; 1152.925;  155.475;    0.000
360.883; 1138.925;  156.475;    0.000
360.945; 1185.925;  171.475;    0.000
361.007; 1169.925;  138.475;    0.000
361.070; 1120.925;  129.475;    0.000
361.132; 1189.925;  166.475;    0.000
361.194; 1172.925;  143.475;    0.000
361.257; 1105.925;  154.475;    0.000
361.319; 1119.925;  176.475;    0.000
361.381; 1213.925;  143.475;    0.000
361.443; 1205.925;  136.475;    0.000
361.506; 1199.925;  160.475;    0.000
361.568; 1135.925;  140.475;    0.000
361.630; 1192.925;  159.475;    0.000
361.693; 1229.925;  162.475;    0.000
361.755; 1183.925;  185.475;    0.000
361.817; 1252.925;  209.475;    0.000
361.879; 1182.925;  161.475;    0.000
361.941; 1175.925;  152.475;    0.000
362.004; 1207.925;  132.475;    0.000
362.066; 1230.925;  159.475;    0.000
362.128; 1213.925;  143.475;    0.000
362.190; 1196.925;  131.475;    0.000
362.252; 1226.925;  131.475;    0.000
362.315; 1250.925;  175.475;    0.000
362.377; 1208.925;  140.475;    0.000
362.439; 1243.925;  140.475;    0.000
362.501; 1245.925;  140.475;    0.000
362.563; 1164.925;  152.475;    0.000
362.625; 1192.925;  174.475;    0.000
362.688; 1215.925;  195.475;    0.000
362.750; 1316.925;  221.475;    0.000
362.812; 1209.925;  171.475;    0.000
362.874; 1241.925;  117.475;    0.000
362.936; 1271.925;  162.475;    0.000
362.998; 1252.925;  142.475;    0.000
363.060; 1275.925;  143.475;    0.000
363.122; 1237.925;  148.475;    0.000
363.184; 1269.925;  179.475;    0.000
363.246; 1198.925;  186.475;    0.000
363.308; 1237.925;  180.475;    0.000
363.370; 1242.925;  200.475;    0.000
363.432; 1229.925;  139.475;    0.000
363.494; 1287.925;  138.475;    0.000
363.556; 1230.925;  114.475;    0.000
363.618; 1253.925;  153.475;    0.000
363.680; 1262.925;  153.475;    0.000
363.742; 1293.925;  178.475;    0.000
363.804; 1272.925;  214.475;    0.000
363.866; 1262.925;  170.475;    0.000
363.928; 1277.925;  145.475;    0.000
363.990; 1250.925;  215.475;    0.000
364.052; 1291.925;  166.475;    0.000
364.114; 1297.925;  168.475;    0.000
364.176; 1288.925;  176.475;    0.000
364.238; 1283.925;  203.475;    0.000
364.300; 1258.925;  158.475;    0.000
364.362; 1268.925;  152.475;    0.000
364.424; 1207.925;  119.475;    0.000
364.486; 1287.925;  187.475;    0.000
364.548; 1256.925;  180.475;    0.000
364.609; 1320.925;  212.475;    0.000
364.671; 1309.925;  165.475;    0.000
364.733; 1322.925;  190.475;    0.000
364.795; 1246.925;  148.475;    0.000
364.857; 1287.925;  159.475;    0.000
364.919; 1225.925;  159.475;    0.000
364.981; 1273.925;  191.475;    0.000
365.042; 1276.925;  170.475;    0.000
365.104; 1322.925;  145.475;    0.000
365.166; 1220.925;  134.475;    0.000
365.228; 1325.925;  150.475;    0.000
365.290; 1273.925;  158.475;    0.000
365.351; 1319.925;  168.475;    0.000
365.413; 1296.925;  173.475;    0.000
365.475; 1301.925;  172.475;    0.000
365.537; 1307.925;  126.475;    0.000
365.598; 1241.925;  160.475;    0.000
365.660; 1206.925;  127.475;    0.000
365.722; 1349.925;  189.475;    0.000
365.784; 1285.925;  161.475;    0.000
365.845; 1364.925;  152.475;    0.000
365.907; 1221.925;  117.475;    0.000
365.969; 1294.925;  146.475;    0.000
366.030; 1383.925;  171.475;    0.000
366.092; 1299.925;  155.475;    0.000
366.154; 1327.925;  137.475;    0.000
366.215; 1355.925;  147.475;    0.000
366.277; 1302.925;  148.475;    0.000
366.339; 1278.925;  158.475;    0.000
366.400; 1334.925;  140.475;    0.000
366.462; 1366.925;  159.475;    0.000
366.524; 1352.925;  160.475;    0.000
366.585; 1292.925;  157.475;    0.000
366.647; 1346.925;  170.475;    0.000
366.708; 1282.925;  123.475;    0.000
366.770; 1376.925;  194.475;    0.000
366.832; 1325.925;  191.475;    0.000
366.893; 1333.925;  155.475;    0.000
366.955; 1372.925;  132.475;    0.000
367.016; 1402.925;  126.475;    0.000
367.078; 1343.925;  202.475;    0.000
367.139; 1357.925;  116.475;    0.000
367.201; 1307.925;  134.475;    0.000
367.262; 1373.925;  157.475;    0.000
367.324; 1370.925;  202.475;    0.000
367.385; 1354.925;  118.475;    0.000
367.447; 1363.925;  155.475;    0.000
367.508; 1240.925;  134.475;    0.000
367.570; 1277.925;  165.475;    0.000
367.631; 1304.925;  118.475;    0.000
367.693; 1376.925;  170.475;    0.000
367.754; 1320.925;  154.475;    0.000
367.816; 1313.925;  146.475;    0.000
367.877; 1399.925;  175.475;    0.000
367.939; 1383.925;  200.475;    0.000
368.000; 1313.925;  168.475;    0.000
368.062; 1367.925;  138.475;    0.000
368.123; 1401.925;  170.475;    0.000
368.184; 1362.925;  188.475;    0.000
368.246; 1322.925;  145.475;    0.000
368.307; 1325.925;  163.475;    0.000
368.369; 1306.925;  144.475;    0.000
368.430; 1295.925;  140.475;    0.000
368.491; 1384.925;  133.475;    0.000
368.553; 1388.925;  145.475;    0.000
368.614; 1375.925;  158.475;    0.000
368.675; 1318.925;  147.475;    0.000
368.737; 1352.925;  157.475;    0.000
368.798; 1383.925;  163.475;    0.000
368.859; 1411.925;  173.475;    0.000
368.921; 1378.925;  122.475;    0.000
368.982; 1458.925;  184.475;    0.000
369.043; 1405.925;  169.475;    0.000
369.104; 1380.925;  142.475;    0.000
369.166; 1360.925;  169.475;    0.000
369.227; 1350.925;  156.475;    0.000
369.288; 1406.925;  151.475;    0.000
369.349; 1393.925;  191.475;    0.000
369.411; 1429.925;  168.475;    0.000
369.472; 1395.925;  155.475;    0.000
369.533; 1418.925;  149.475;    0.000
369.594; 1440.925;  174.475;    0.000
369.656; 1441.925;  188.475;    0.000
369.717; 1289.925;  113.475;    0.000
369.778; 1400.925;  184.475;    0.000
369.839; 1428.925;  151.475;    0.000
369.900; 1455.925;  180.475;    0.000
369.961; 1409.925;  171.475;    0.000
370.023; 1403.925;  143.475;    0.000
370.084; 1437.925;  137.475;    0.000
370.145; 1369.925;  152.475;    0.000
370.206; 1384.925;  151.475;    0.000
370.267; 1403.925;  134.475;    0.000
370.328; 1428.925;  178.475;    0.000
370.389; 1439.925;  181.475;    0.000
370.451; 1427.925;  169.475;    0.000
370.512; 1439.925;  172.475;    0.000
370.573; 1434.925;  148.475;    0.000
370.634; 1475.925;  156.475;    0.000
370.695; 1484.925;  151.475;    0.000
370.756; 1430.925;  185.475;    0.000
370.817; 1428.925;  185.475;    0.000
370.878; 1462.925;  191.475;    0.000
370.939; 1384.925;  147.475;    0.000
371.000; 1443.925;  162.475;    0.000
371.061; 1386.925;  145.475;    0.000
371.122; 1449.925;  179.475;    0.000
371.183; 1420.925;  114.475;    0.000
371.244; 1483.925;  180.475;    0.000
371.305; 1436.925;  138.475;    0.000
371.366; 1438.925;  157.475;    0.000
371.427; 1415.925;  148.475;    0.000
371.488; 1477.925;  138.475;    0.000
371.549; 1454.925;  193.475;    0.000
371.610; 1479.925;  158.475;    0.000
371.671; 1440.925;  119.475;    0.000
371.732; 1470.925;  159.475;    0.000
371.793; 1513.925;  178.475;    0.000
371.853; 1474.925;  155.475;    0.000
371.914; 1456.925;  148.475;    0.000
371.975; 1401.925;  124.475;    0.000
372.036; 1430.925;  158.475;    0.000
372.097; 1393.925;  136.475;    0.000
372.158; 1482.925;  116.475;    0.000
372.219; 1479.925;  157.475;    0.000
372.280; 1407.925;  151.475;    0.000
372.340; 1498.925;  190.475;    0.000
372.401; 1493.925;  151.475;    0.000
372.462; 1428.925;  129.475;    0.000
372.523; 1474.925;  121.475;    0.000
372.584; 1456.925;  152.475;    0.000
372.645; 1420.925;  132.475;    0.000
372.705; 1487.925;  190.475;    0.000
372.766; 1465.925;  153.475;    0.000
372.827; 1496.925;  133.475;    0.000
372.888; 1461.925;  161.475;    0.000
372.948; 1509.925;  159.475;    0.000
373.009; 1448.925;  164.475;    0.000
373.070; 1501.925;  139.475;    0.000
373.131; 1503.925;  137.475;    0.000
373.191; 1599.925;  181.475;    0.000
373.252; 1467.925;  154.475;    0.000
373.313; 1529.925;  179.475;    0.000
373.373; 1421.925;  136.475;    0.000
373.434; 1516.925;  169.475;    0.000
373.495; 1550.925;   97.475;    0.000
373.555; 1580.925;  142.475;    0.000
373.616; 1411.925;  178.475;    0.000
373.677; 1545.925;  167.475;    0.000
373.737; 1555.925;  139.475;    0.000
373.798; 1482.925;  155.475;    0.000
373.859; 1465.925;  162.475;    0.000
373.919; 1480.925;  174.475;    0.000
373.980; 1481.925;  172.475;    0.000
374.041; 1492.925;  166.475;    0.000
374.101; 1492.925;  172.475;    0.000
374.162; 1569.925;  188.475;    0.000
374.222; 1539.925;  186.475;    0.000
374.283; 1517.925;  195.475;    0.000
374.343; 1581.925;  204.475;    0.000
374.404; 1545.925;  187.475;    0.000
374.465; 1543.925;  183.475;    0.000
374.525; 1550.925;  136.475;    0.000
374.586; 1611.925;  140.475;    0.000
374.646; 1635.925;  191.475;    0.000
374.707; 1587.925;  208.475;    0.000
374.767; 1590.925;  178.475;    0.000
374.828; 1538.925;  159.475;    0.000
374.888; 1580.925;  143.475;    0.000
374.949; 1638.925;  202.475;    0.000
375.009; 1606.925;  151.475;    0.000
375.070; 1570.925;  160.475;    0.000
375.130; 1608.925;  160.475;    0.000
375.190; 1521.925;  164.475;    0.000
375.251; 1606.925;  196.475;    0.000
375.311; 1546.925;  154.475;    0.000
375.372; 1608.925;  197.475;    0.000
375.432; 1617.925;  159.475;    0.000
375.493; 1589.925;  197.475;    0.000
375.553; 1550.925;  165.475;    0.000
375.613; 1600.925;  174.475;    0.000
375.674; 1613.925;  165.475;    0.000
375.734; 1535.925;  128.475;    0.000
375.794; 1563.925;  169.475;    0.000
375.855; 1530.925;  193.475;    0.000
375.915; 1591.925;  162.475;    0.000
375.975; 1593.925;  181.475;    0.000
376.036; 1568.925;  161.475;    0.000
376.096; 1480.925;  131.475;    0.000
376.156; 1532.925;  165.475;    0.000
376.217; 1546.925;  182.475;    0.000
376.277; 1577.925;  185.475;    0.000
376.337; 1569.925;  177.475;    0.000
376.398; 1571.925;  162.475;    0.000
376.458; 1567.925;  179.475;    0.000
376.518; 1522.925;  150.475;    0.000
376.578; 1593.925;  165.475;    0.000
376.639; 1575.925;  159.475;    0.000
376.699; 1560.925;  180.475;    0.000
376.759; 1670.925;  206.475;    0.000
376.819; 1522.925;  146.475;    0.000
376.880; 1551.925;  177.475;    0.000
376.940; 1568.925;  160.475;    0.000
377.000; 1633.925;  149.475;    0.000
377.060; 1592.925;  180.475;    0.000
377.120; 1682.925;  146.475;    0.000
377.180; 1578.925;  137.475;    0.000
377.241; 1605.925;  163.475;    0.000
377.301; 1647.925;  169.475;    0.000
377.361; 1575.925;  137.475;    0.000
377.421; 1626.925;  184.475;    0.000
377.481; 1604.925;  185.475;    0.000
377.541; 1571.925;  146.475;    0.000
377.601; 1636.925;  179.475;    0.000
377.661; 1684.925;  181.475;    0.000
377.722; 1620.925;  185.475;    0.000
377.782; 1639.925;  147.475;    0.000
377.842; 1682.925;  190.475;    0.000
377.902; 1631.925;  166.475;    0.000
377.962; 1597.925;  153.475;    0.000
378.022; 1659.925;  163.475;    0.000
378.082; 1682.925;  146.475;    0.000
378.142; 1564.925;  152.475;    0.000
378.202; 1598.925;  164.475;    0.000
378.262; 1679.925;  195.475;    0.000
378.322; 1566.925;  190.475;    0.000
378.382; 1626.925;  152.475;    0.000
378.442; 1659.925;  175.475;    0.000
378.502; 1674.925;  153.475;    0.000
378.562; 1680.925;  142.475;    0.000
378.622; 1712.925;  166.475;    0.000
378.682; 1760.925;  173.475;    0.000
378.742; 1694.925;  182.475;    0.000
378.802; 1642.925;  145.475;    0.000
378.862; 1797.925;  210.475;    0.000
378.921; 1739.925;  182.475;    0.000
378.981; 1733.925;  185.475;    0.000
379.041; 1742.925;  130.475;    0.000
379.101; 1790.925;  177.475;    0.000
379.161; 1755.925;  166.475;    0.000
379.221; 1826.925;  162.475;    0.000
379.281; 1735.925;  167.475;    0.000
379.341; 1732.925;  136.475;    0.000
379.401; 1780.925;  145.475;    0.000
379.460; 1752.925;  176.475;    0.000
379.520; 1764.925;  162.475;    0.000
379.580; 1812.925;  144.475;    0.000
379.640; 1783.925;  163.475;    0.000
379.700; 1789.925;  157.475;    0.000
379.759; 1853.925;  165.475;    0.000
379.819; 1805.925;  190.475;    0.000
379.879; 1755.925;  143.475;    0.000
379.939; 1806.925;  188.475;    0.000
379.999; 1887.925;  141.475;    0.000
380.058; 1747.925;  169.475;    0.000
380.118; 1851.925;  158.475;    0.000
380.178; 1840.925;  114.475;    0.000
380.237; 1864.925;  157.475;    0.000
380.297; 1858.925;  177.475;    0.000
380.357; 1850.925;  189.475;    0.000
380.417; 1884.925;  182.475;    0.000
380.476; 1835.925;  178.475;    0.000
380.536; 1821.925;  189.475;    0.000
380.596; 1852.925;  183.475;    0.000
380.655; 1890.925;  195.475;    0.000
380.715; 1871.925;  170.475;    0.000
380.775; 1898.925;  170.475;    0.000
380.834; 1913.925;  179.475;    0.000
380.894; 1913.925;  188.475;    0.000
380.954; 1854.925;  142.475;    0.000
381.013; 1936.925;  178.475;    0.000
381.073; 1876.925;  164.475;    0.000
381.132; 1899.925;  192.475;    0.000
381.192; 1911.925;  187.475;    0.000
381.252; 1926.925;  176.475;    0.000
381.311; 1975.925;  206.475;    0.000
381.371; 1933.925;  167.475;    0.000
381.430; 1872.925;  131.475;    0.000
381.490; 1986.925;  150.475;    0.000
381.549; 1898.925;  129.475;    0.000
381.609; 2076.925;  178.475;    0.000
381.668; 2027.925;  194.475;    0.000
381.728; 2021.925;  210.475;    0.000
381.787; 2036.925;  190.475;    0.000
381.847; 2086.925;  181.475;    0.000
381.906; 2049.925;  156.475;    0.000
381.966; 2080.925;  176.475;    0.000
382.025; 2203.925;  186.475;    0.000
382.085; 2227.925;  192.475;    0.000
382.144; 2198.925;  173.475;    0.000
382.204; 2211.925;  207.475;    0.000
382.263; 2129.925;  193.475;    0.000
382.323; 2216.925;  164.475;    0.000
382.382; 2232.925;  161.475;    0.000
382.441; 2284.925;  199.475;    0.000
382.501; 2346.925;  208.475;    0.000
382.560; 2503.925;  173.475;    0.000
382.619; 2449.925;  179.475;    0.000
382.679; 2591.925;  177.475;    0.000
382.738; 2627.925;  190.475;    0.000
382.798; 2820.925;  213.475;    0.000
382.857; 3202.925;  195.475;    0.000
382.916; 3365.925;  184.475;    0.000
382.976; 3576.925;  169.475;    0.000
383.035; 3282.925;  194.475;    0.000
383.094; 3285.925;  185.475;    0.000
383.154; 3716.925;  198.475;    0.000
383.213; 4397.925;  147.475;    0.000
383.272; 4305.925;  175.475;    0.000
383.331; 3508.925;  122.475;    0.000
383.391; 3131.925;  185.475;    0.000
383.450; 3067.925;  160.475;    0.000
383.509; 3065.925;  168.475;    0.000
383.568; 3179.925;  196.475;    0.000
383.628; 3407.925;  156.475;    0.000
383.687; 3662.925;  171.475;    0.000
383.746; 4128.925;  155.475;    0.000
383.805; 4983.925;  201.475;    0.000
383.864; 4970.925;  125.475;    0.000
383.924; 3836.925;  213.475;    0.000
383.983; 3112.925;  188.475;    0.000
384.042; 2885.925;  162.475;    0.000
384.101; 2808.925;  183.475;    0.000
384.160; 2548.925;  155.475;    0.000
384.219; 2503.925;  155.475;    0.000
384.279; 2413.925;  189.475;    0.000
384.338; 2405.925;  156.475;    0.000
384.397; 2285.925;  148.475;    0.000
384.456; 2301.925;  154.475;    0.000
384.515; 2278.925;  160.475;    0.000
384.574; 2317.925;  223.475;    0.000
384.633; 2197.925;  133.475;    0.000
384.692; 2311.925;  163.475;    0.000
384.751; 2247.925;  186.475;    0.000
384.810; 2156.925;  187.475;    0.000
384.869; 2233.925;  172.475;    0.000
384.929; 2221.925;  153.475;    0.000
384.988; 2126.925;  174.475;    0.000
385.047; 2174.925;  154.475;    0.000
385.106; 2209.925;  164.475;    0.000
385.165; 2173.925;  151.475;    0.000
385.224; 2145.925;  147.475;    0.000
385.283; 2154.925;  176.475;    0.000
385.342; 2090.925;  142.475;    0.000
385.401; 2233.925;  175.475;    0.000
385.459; 2173.925;  150.475;    0.000
385.518; 2063.925;  124.475;    0.000
385.577; 2148.925;  115.475;    0.000
385.636; 2188.925;  174.475;    0.000
385.695; 2183.925;  158.475;    0.000
385.754; 2145.925;  150.475;    0.000
385.813; 2186.925;  129.475;    0.000
385.872; 2209.925;  146.475;    0.000
385.931; 2161.925;  194.475;    0.000
385.990; 2240.925;  174.475;    0.000
386.049; 2171.925;  176.475;    0.000
386.107; 2172.925;  151.475;    0.000
386.166; 2183.925;  178.475;    0.000
386.225; 2207.925;  162.475;    0.000
386.284; 2139.925;  180.475;    0.000
386.343; 2174.925;  171.475;    0.000
386.402; 2173.925;  176.475;    0.000
386.460; 2070.925;  144.475;    0.000
386.519; 2114.925;  140.475;    0.000
386.578; 2214.925;  145.475;    0.000
386.637; 2258.925;  164.475;    0.000
386.696; 2125.925;  189.475;    0.000
386.754; 2138.925;  135.475;    0.000
386.813; 2160.925;  139.475;    0.000
386.872; 2072.925;  121.475;    0.000
386.931; 2116.925;  153.475;    0.000
386.989; 2213.925;  211.475;    0.000
387.048; 2152.925;  156.475;    0.000
387.107; 2179.925;  210.475;    0.000
387.165; 2143.925;  129.475;    0.000
387.224; 2141.925;  205.475;    0.000
387.283; 2059.925;  130.475;    0.000
387.342; 2227.925;  171.475;    0.000
387.400; 2124.925;  156.475;    0.000
387.459; 2122.925;  141.475;    0.000
387.517; 2109.925;  219.475;    0.000
387.576; 2042.925;  166.475;    0.000
387.635; 2072.925;  136.475;    0.000
387.693; 2179.925;  191.475;    0.000
387.752; 2140.925;  165.475;    0.000
387.811; 2141.925;  158.475;    0.000
387.869; 2174.925;  204.475;    0.000
387.928; 2109.925;  149.475;    0.000
387.986; 2130.925;  156.475;    0.000
388.045; 2097.925;  123.475;    0.000
388.103; 2083.925;  150.475;    0.000
388.162; 2184.925;  173.475;    0.000
388.221; 2023.925;  143.475;    0.000
388.279; 2008.925;  129.475;    0.000
388.338; 2129.925;  212.475;    0.000
388.396; 2142.925;  150.475;    0.000
388.455; 2031.925;  167.475;    0.000
388.513; 2068.925;  116.475;    0.000
388.572; 2109.925;  181.475;    0.000
388.630; 2169.925;  187.475;    0.000
388.689; 2048.925;  180.475;    0.000
388.747; 2120.925;  154.475;    0.000
388.806; 2007.925;  161.475;    0.000
388.864; 2075.925;  167.475;    0.000
388.922; 2059.925;  184.475;    0.000
388.981; 2115.925;  169.475;    0.000
389.039; 2127.925;  102.475;    0.000
389.098; 2076.925;  183.475;    0.000
389.156; 2188.925;  182.475;    0.000
389.214; 2196.925;  173.475;    0.000
389.273; 2142.925;  167.475;    0.000
389.331; 2126.925;  170.475;    0.000
389.390; 2111.925;  150.475;    0.000
389.448; 2035.925;  156.475;    0.000
389.506; 2091.925;  149.475;    0.000
389.565; 2082.925;  162.475;    0.000
389.623; 2076.925;  188.475;    0.000
389.681; 2140.925;  204.475;    0.000
389.740; 2178.925;  187.475;    0.000
389.798; 2096.925;  153.475;    0.000
389.856; 2074.925;  214.475;    0.000
389.914; 2115.925;  177.475;    0.000
389.973; 2125.925;  189.475;    0.000
390.031; 2056.925;  178.475;    0.000
390.089; 2083.925;  163.475;    0.000
390.147; 2090.925;  170.475;    0.000
390.206; 2162.925;  183.475;    0.000
390.264; 2109.925;  161.475;    0.000
390.322; 1989.925;  148.475;    0.000
390.380; 2094.925;  138.475;    0.000
390.439; 2078.925;  194.475;    0.000
390.497; 2158.925;  170.475;    0.000
390.555; 2031.925;  165.475;    0.000
390.613; 2135.925;  177.475;    0.000
390.671; 2150.925;  170.475;    0.000
390.729; 2080.925;  158.475;    0.000
390.788; 2112.925;  162.475;    0.000
390.846; 2100.925;  161.475;    0.000
390.904; 2098.925;  197.475;    0.000
390.962; 2202.925;  212.475;    0.000
391.020; 2105.925;  224.475;    0.000
391.078; 2185.925;  184.475;    0.000
391.136; 2127.925;  191.475;    0.000
391.194; 2148.925;  187.475;    0.000
391.253; 2212.925;  197.475;    0.000
391.311; 2127.925;  185.475;    0.000
391.369; 2177.925;  207.475;    0.000
391.427; 2186.925;  222.475;    0.000
391.485; 2167.925;  184.475;    0.000
391.543; 2211.925;  203.475;    0.000
391.601; 2198.925;  151.475;    0.000
391.659; 2149.925;  176.475;    0.000
391.717; 2166.925;  190.475;    0.000
391.775; 2242.925;  159.475;    0.000
391.833; 2208.925;  186.475;    0.000
391.891; 2224.925;  154.475;    0.000
391.949; 2241.925;  181.475;    0.000
392.007; 2202.925;  190.475;    0.000
392.065; 2166.925;  182.475;    0.000
392.123; 2155.925;  158.475;    0.000
392.180; 2275.925;  198.475;    0.000
392.238; 2259.925;  191.475;    0.000
392.296; 2196.925;  164.475;    0.000
392.354; 2218.925;  172.475;    0.000
392.412; 2136.925;  194.475;    0.000
392.470; 2188.925;  154.475;    0.000
392.528; 2248.925;  172.475;    0.000
392.586; 2221.925;  179.475;    0.000
392.644; 2228.925;  173.475;    0.000
392.701; 2171.925;  202.475;    0.000
392.759; 2201.925;  180.475;    0.000
392.817; 2219.925;  181.475;    0.000
392.875; 2269.925;  168.475;    0.000
392.933; 2303.925;  161.475;    0.000
392.991; 2276.925;  216.475;    0.000
393.048; 2269.925;  197.475;    0.000
393.106; 2328.925;  199.475;    0.000
393.164; 2195.925;  173.475;    0.000
393.222; 2250.925;  179.475;    0.000
393.279; 2295.925;  209.475;    0.000
393.337; 2315.925;  185.475;    0.000
393.395; 2375.925;  174.475;    0.000
393.453; 2256.925;  181.475;    0.000
393.510; 2308.925;  188.475;    0.000
393.568; 2258.925;  191.475;    0.000
393.626; 2320.925;  151.475;    0.000
393.684; 2358.925;  208.475;    0.000
393.741; 2297.925;  179.475;    0.000
393.799; 2191.925;  149.475;    0.000
393.857; 2140.925;  136.475;    0.000
393.914; 2301.925;  190.475;    0.000
393.972; 2174.925;  155.475;    0.000
394.030; 2297.925;  170.475;    0.000
394.087; 2342.925;  213.475;    0.000
394.145; 2271.925;  191.475;    0.000
394.202; 2279.925;  188.475;    0.000
394.260; 2258.925;  168.475;    0.000
394.318; 2305.925;  176.475;    0.000
394.375; 2218.925;  159.475;    0.000
394.433; 2270.925;  168.475;    0.000
394.490; 2338.925;  163.475;    0.000
394.548; 2286.925;  163.475;    0.000
394.605; 2385.925;  181.475;    0.000
394.663; 2364.925;  180.475;    0.000
394.720; 2370.925;  193.475;    0.000
394.778; 2362.925;  168.475;    0.000
394.836; 2272.925;  128.475;    0.000
394.893; 2341.925;  151.475;    0.000
394.951; 2271.925;  173.475;    0.000
395.008; 2430.925;  201.475;    0.000
395.065; 2354.925;  139.475;    0.000
395.123; 2299.925;  173.475;    0.000
395.180; 2369.925;  144.475;    0.000
395.238; 2292.925;  135.475;    0.000
395.295; 2348.925;  167.475;    0.000
395.353; 2414.925;  150.475;    0.000
395.410; 2384.925;  165.475;    0.000
395.468; 2347.925;  223.475;    0.000
395.525; 2321.925;  156.475;    0.000
395.582; 2355.925;  178.475;    0.000
395.640; 2468.925;  178.475;    0.000
395.697; 2377.925;  173.475;    0.000
395.754; 2398.925;  154.475;    0.000
395.812; 2433.925;  169.475;    0.000
395.869; 2450.925;  196.475;    0.000
395.927; 2479.925;  190.475;    0.000
395.984; 2453.925;  195.475;    0.000
396.041; 2390.925;  160.475;    0.000
396.098; 2385.925;  161.475;    0.000
396.156; 2450.925;  187.475;    0.000
396.213; 2444.925;  200.475;    0.000
396.270; 2519.925;  160.475;    0.000
396.328; 2402.925;  113.475;    0.000
396.385; 2389.925;  165.475;    0.000
396.442; 2426.925;  168.475;    0.000
396.499; 2483.925;  117.475;    0.000
396.557; 2462.925;  203.475;    0.000
396.614; 2430.925;  155.475;    0.000
396.671; 2421.925;  187.475;    0.000
396.728; 2550.925;  169.475;    0.000
396.785; 2494.925;  167.475;    0.000
396.843; 2482.925;  154.475;    0.000
396.900; 2498.925;  172.475;    0.000
396.957; 2509.925;  176.475;    0.000
397.014; 2552.925;  193.475;    0.000
397.071; 2568.925;  170.475;    0.000
397.128; 2610.925;  172.475;    0.000
397.186; 2532.925;  205.475;    0.000
397.243; 2589.925;  163.475;    0.000
397.300; 2477.925;  193.475;    0.000
397.357; 2515.925;  166.475;    0.000
397.414; 2526.925;  149.475;    0.000
397.471; 2583.925;  157.475;    0.000
397.528; 2587.925;  180.475;    0.000
397.585; 2585.925;  203.475;    0.000
397.642; 2556.925;  156.475;    0.000
397.699; 2580.925;  229.475;    0.000
397.756; 2448.925;  185.475;    0.000
397.814; 2646.925;  191.475;    0.000
397.871; 2525.925;  170.475;    0.000
397.928; 2551.925;  191.475;    0.000
397.985; 2609.925;  183.475;    0.000
398.042; 2581.925;  161.475;    0.000
398.099; 2562.925;  192.475;    0.000
398.156; 2705.925;  176.475;    0.000
398.212; 2538.925;  170.475;    0.000
398.269; 2591.925;  158.475;    0.000
398.326; 2631.925;  175.475;    0.000
398.383; 2638.925;  177.475;    0.000
398.440; 2621.925;  169.475;    0.000
398.497; 2640.925;  184.475;    0.000
398.554; 2598.925;  196.475;    0.000
398.611; 2674.925;  198.475;    0.000
398.668; 2658.925;  135.475;    0.000
398.725; 2679.925;  181.475;    0.000
398.782; 2709.925;  195.475;    0.000
398.839; 2742.925;  179.475;    0.000
398.895; 2786.925;  188.475;    0.000
398.952; 2770.925;  176.475;    0.000
399.009; 2856.925;  183.475;    0.000
399.066; 2883.925;  190.475;    0.000
399.123; 2804.925;  174.475;    0.000
399.180; 2894.925;  191.475;    0.000
399.236; 2878.925;  217.475;    0.000
399.293; 2877.925;  154.475;    0.000
399.350; 2892.925;  210.475;    0.000
399.407; 2993.925;  202.475;    0.000
399.463; 2982.925;  162.475;    0.000
399.520; 3052.925;  207.475;    0.000
399.577; 3043.925;  174.475;    0.000
399.634; 3137.925;  170.475;    0.000
399.690; 3139.925;  186.475;    0.000
399.747; 3102.925;  218.475;    0.000
399.804; 3069.925;  200.475;    0.000
399.861; 3082.925;  190.475;    0.000
399.917; 3099.925;  218.475;    0.000
399.974; 3068.925;  200.475;    0.000
400.031; 3082.925;  200.475;    0.000
400.087; 3017.925;  153.475;    0.000
400.144; 2920.925;  188.475;    0.000
400.201; 2946.925;  198.475;    0.000
400.257; 2955.925;  205.475;    0.000
400.314; 2972.925;  183.475;    0.000
400.370; 2967.925;  227.475;    0.000
400.427; 2935.925;  177.475;    0.000
400.484; 2936.925;  202.475;    0.000
400.540; 2928.925;  173.475;    0.000
400.597; 2823.925;  212.475;    0.000
400.653; 2902.925;  182.475;    0.000
400.710; 2918.925;  201.475;    0.000
400.766; 2805.925;  188.475;    0.000
400.823; 2879.925;  205.475;    0.000
400.879; 2894.925;  165.475;    0.000
400.936; 2842.925;  180.475;    0.000
400.993; 2860.925;  181.475;    0.000
401.049; 2869.925;  147.475;    0.000
401.105; 2980.925;  205.475;    0.000
401.162; 2896.925;  197.475;    0.000
401.218; 2780.925;  177.475;    0.000
401.275; 2757.925;  183.475;    0.000
401.331; 2907.925;  198.475;    0.000
401.388; 2857.925;  209.475;    0.000
401.444; 2861.925;  211.475;    0.000
401.501; 2847.925;  185.475;    0.000
401.557; 2773.925;  190.475;    0.000
401.614; 2820.925;  172.475;    0.000
401.670; 2905.925;  185.475;    0.000
401.726; 2945.925;  196.475;    0.000
401.783; 2794.925;  187.475;    0.000
401.839; 2905.925;  192.475;    0.000
401.895; 2807.925;  173.475;    0.000
401.952; 2891.925;  145.475;    0.000
402.008; 2783.925;  197.475;    0.000
402.064; 2788.925;  146.475;    0.000
402.121; 3001.925;  197.475;    0.000
402.177; 2858.925;  173.475;    0.000
402.233; 2910.925;  185.475;    0.000
402.290; 2874.925;  175.475;    0.000
402.346; 2831.925;  164.475;    0.000
402.402; 2769.925;  173.475;    0.000
402.458; 2860.925;  183.475;    0.000
402.515; 2916.925;  147.475;    0.000
402.571; 2866.925;  210.475;    0.000
402.627; 2856.925;  181.475;    0.000
402.683; 2965.925;  177.475;    0.000
402.740; 2857.925;  162.475;    0.000
402.796; 2873.925;  178.475;    0.000
402.852; 2904.925;  138.475;    0.000
402.908; 2935.925;  181.475;    0.000
402.964; 2881.925;  151.475;    0.000
403.021; 2919.925;  170.475;    0.000
403.077; 3049.925;  204.475;    0.000
403.133; 3019.925;  144.475;    0.000
403.189; 2940.925;  207.475;    0.000
403.245; 2943.925;  184.475;    0.000
403.301; 3006.925;  170.475;    0.000
403.357; 3131.925;  201.475;    0.000
403.414; 3016.925;  205.475;    0.000
403.470; 2971.925;  170.475;    0.000
403.526; 3018.925;  135.475;    0.000
403.582; 2992.925;  180.475;    0.000
403.638; 3038.925;  185.475;    0.000
403.694; 3035.925;  169.475;    0.000
403.750; 3098.925;  210.475;    0.000
403.806; 3058.925;  210.475;    0.000
403.862; 3045.925;  219.475;    0.000
403.918; 3060.925;  191.475;    0.000
403.974; 3038.925;  193.475;    0.000
404.030; 3016.925;  154.475;    0.000
404.086; 3020.925;  170.475;    0.000
404.142; 3163.925;  194.475;    0.000
404.198; 3093.925;  224.475;    0.000
404.254; 3130.925;  177.475;    0.000
404.310; 3003.925;  204.475;    0.000
404.366; 3091.925;  170.475;    0.000
404.422; 3034.925;  172.475;    0.000
404.478; 3103.925;  153.475;    0.000
404.534; 3080.925;  159.475;    0.000
404.590; 3086.925;  203.475;    0.000
404.646; 3042.925;  164.475;    0.000
404.701; 3064.925;  141.475;    0.000
404.757; 3096.925;  195.475;    0.000
404.813; 3041.925;  152.475;    0.000
404.869; 3068.925;  174.475;    0.000
404.925; 3064.925;  167.475;    0.000
404.981; 2987.925;  175.475;    0.000
405.037; 3001.925;  170.475;    0.000
405.092; 3007.925;  155.475;    0.000
405.148; 3135.925;  160.475;    0.000
405.204; 2961.925;  158.475;    0.000
405.260; 3096.925;  128.475;    0.000
405.316; 3025.925;  168.475;    0.000
405.371; 3124.925;  162.475;    0.000
405.427; 3128.925;  187.475;    0.000
405.483; 3135.925;  214.475;    0.000
405.539; 3169.925;  163.475;    0.000
405.594; 3155.925;  191.475;    0.000
405.650; 3137.925;  124.475;    0.000
405.706; 3157.925;  188.475;    0.000
405.761; 3062.925;  204.475;    0.000
405.817; 3117.925;  150.475;    0.000
405.873; 3132.925;  152.475;    0.000
405.928; 3269.925;  135.475;    0.000
405.984; 3283.925;  209.475;    0.000
406.040; 3118.925;  165.475;    0.000
406.095; 3101.925;  146.475;    0.000
406.151; 3129.925;  169.475;    0.000
406.207; 3195.925;  174.475;    0.000
406.262; 3160.925;  189.475;    0.000
406.318; 3214.925;  141.475;    0.000
406.374; 3193.925;  178.475;    0.000
406.429; 3257.925;  197.475;    0.000
406.485; 3282.925;  194.475;    0.000
406.540; 3219.925;  149.475;    0.000
406.596; 3276.925;  173.475;    0.000
406.651; 3401.925;  154.475;    0.000
406.707; 3271.925;  183.475;    0.000
406.763; 3300.925;  156.475;    0.000
406.818; 3378.925;  181.475;    0.000
406.874; 3323.925;  135.475;    0.000
406.929; 3329.925;  194.475;    0.000
406.985; 3456.925;  166.475;    0.000
407.040; 3433.925;  207.475;    0.000
407.095; 3456.925;  213.475;    0.000
407.151; 3450.925;  198.475;    0.000
407.206; 3551.925;  186.475;    0.000
407.262; 3491.925;  148.475;    0.000
407.317; 3501.925;  212.475;    0.000
407.373; 3567.925;  209.475;    0.000
407.428; 3572.925;  218.475;    0.000
407.484; 3548.925;  158.475;    0.000
407.539; 3614.925;  165.475;    0.000
407.594; 3635.925;  197.475;    0.000
407.650; 3524.925;  177.475;    0.000
407.705; 3577.925;  154.475;    0.000
407.760; 3539.925;  198.475;    0.000
407.816; 3640.925;  181.475;    0.000
407.871; 3518.925;  185.475;    0.000
407.926; 3577.925;  167.475;    0.000
407.982; 3501.925;  172.475;    0.000
408.037; 3518.925;  202.475;    0.000
408.092; 3505.925;  201.475;    0.000
408.148; 3504.925;  199.475;    0.000
408.203; 3419.925;  174.475;    0.000
408.258; 3471.925;  157.475;    0.000
408.314; 3384.925;  194.475;    0.000
408.369; 3467.925;  189.475;    0.000
408.424; 3411.925;  204.475;    0.000
408.479; 3454.925;  192.475;    0.000
408.534; 3422.925;  215.475;    0.000
408.590; 3525.925;  190.475;    0.000
408.645; 3398.925;  159.475;    0.000
408.700; 3428.925;  191.475;    0.000
408.755; 3444.925;  217.475;    0.000
408.810; 3422.925;  158.475;    0.000
408.866; 3365.925;  166.475;    0.000
408.921; 3414.925;  214.475;    0.000
408.976; 3417.925;  158.475;    0.000
409.031; 3437.925;  185.475;    0.000
409.086; 3510.925;  158.475;    0.000
409.141; 3447.925;  180.475;    0.000
409.196; 3448.925;  188.475;    0.000
409.252; 3397.925;  186.475;    0.000
409.307; 3341.925;  135.475;    0.000
409.362; 3444.925;  162.475;    0.000
409.417; 3344.925;  149.475;    0.000
409.472; 3487.925;  205.475;    0.000
409.527; 3373.925;  184.475;    0.000
409.582; 3541.925;  174.475;    0.000
409.637; 3421.925;  188.475;    0.000
409.692; 3323.925;  211.475;    0.000
409.747; 3436.925;  159.475;    0.000
409.802; 3323.925;  199.475;    0.000
409.857; 3437.925;  118.475;    0.000
409.912; 3399.925;  177.475;    0.000
409.967; 3408.925;  182.475;    0.000
410.022; 3397.925;  188.475;    0.000
410.077; 3360.925;  204.475;    0.000
410.132; 3403.925;  174.475;    0.000
410.187; 3422.925;  169.475;    0.000
410.242; 3349.925;  178.475;    0.000
410.297; 3421.925;  185.475;    0.000
410.351; 3335.925;  203.475;    0.000
410.406; 3408.925;  180.475;    0.000
410.461; 3366.925;  213.475;    0.000
410.516; 3379.925;  198.475;    0.000
410.571; 3329.925;  171.475;    0.000
410.626; 3420.925;  186.475;    0.000
410.681; 3367.925;  187.475;    0.000
410.736; 3448.925;  147.475;    0.000
410.790; 3472.925;  186.475;    0.000
410.845; 3487.925;  152.475;    0.000
410.900; 3463.925;  202.475;    0.000
410.955; 3304.925;  196.475;    0.000
411.010; 3419.925;  150.475;    0.000
411.064; 3399.925;  200.475;    0.000
411.119; 3334.925;  203.475;    0.000
411.174; 3458.925;  176.475;    0.000
411.229; 3365.925;  203.475;    0.000
411.283; 3366.925;  176.475;    0.000
411.338; 3342.925;  153.475;    0.000
411.393; 3358.925;  168.475;    0.000
411.447; 3496.925;  223.475;    0.000
411.502; 3435.925;  238.475;    0.000
411.557; 3412.925;  179.475;    0.000
411.612; 3368.925;  159.475;    0.000
411.666; 3530.925;  189.475;    0.000
411.721; 3369.925;  212.475;    0.000
411.776; 3448.925;  242.475;    0.000
411.830; 3435.925;  194.475;    0.000
411.885; 3489.925;  188.475;    0.000
411.939; 3352.925;  245.475;    0.000
411.994; 3421.925;  177.475;    0.000
412.049; 3385.925;  170.475;    0.000
412.103; 3490.925;  196.475;    0.000
412.158; 3473.925;  215.475;    0.000
412.212; 3437.925;  199.475;    0.000
412.267; 3445.925;  191.475;    0.000
412.322; 3495.925;  238.475;    0.000
412.376; 3460.925;  243.475;    0.000
412.431; 3507.925;  214.475;    0.000
412.485; 3341.925;  210.475;    0.000
412.540; 3517.925;  200.475;    0.000
412.594; 3402.925;  174.475;    0.000
412.649; 3407.925;  246.475;    0.000
412.703; 3372.925;  182.475;    0.000
412.758; 3391.925;  222.475;    0.000
412.812; 3325.925;  201.475;    0.000
412.866; 3460.925;  162.475;    0.000
412.921; 3352.925;  202.475;    0.000
412.975; 3373.925;  212.475;    0.000
413.030; 3440.925;  238.475;    0.000
413.084; 3309.925;  201.475;    0.000
413.139; 3381.925;  210.475;    0.000
413.193; 3319.925;  218.475;    0.000
413.247; 3437.925;  203.475;    0.000
413.302; 3395.925;  176.475;    0.000
413.356; 3357.925;  215.475;    0.000
413.410; 3369.925;  204.475;    0.000
413.465; 3326.925;  186.475;    0.000
413.519; 3435.925;  196.475;    0.000
413.573; 3328.925;  181.475;    0.000
413.628; 3343.925;  200.475;    0.000
413.682; 3355.925;  157.475;    0.000
413.736; 3344.925;  194.475;    0.000
413.791; 3356.925;  193.475;    0.000
413.845; 3315.925;  225.475;    0.000
413.899; 3372.925;  195.475;    0.000
413.953; 3380.925;  173.475;    0.000
414.008; 3343.925;  186.475;    0.000
414.062; 3313.925;  217.475;    0.000
414.116; 3342.925;  169.475;    0.000
414.170; 3345.925;  228.475;    0.000
414.225; 3337.925;  177.475;    0.000
414.279; 3356.925;  210.475;    0.000
414.333; 3377.925;  207.475;    0.000
414.387; 3418.925;  217.475;    0.000
414.441; 3513.925;  187.475;    0.000
414.496; 3419.925;  215.475;    0.000
414.550; 3415.925;  204.475;    0.000
414.604; 3401.925;  206.475;    0.000
414.658; 3372.925;  139.475;    0.000
414.712; 3427.925;  198.475;    0.000
414.766; 3444.925;  208.475;    0.000
414.820; 3412.925;  199.475;    0.000
414.874; 3317.925;  216.475;    0.000
414.928; 3341.925;  186.475;    0.000
414.982; 3398.925;  176.475;    0.000
415.037; 3433.925;  181.475;    0.000
415.091; 3373.925;  208.475;    0.000
415.145; 3381.925;  209.475;    0.000
415.199; 3273.925;  186.475;    0.000
415.253; 3304.925;  203.475;    0.000
415.307; 3299.925;  197.475;    0.000
415.361; 3331.925;  223.475;    0.000
415.415; 3393.925;  213.475;    0.000
415.469; 3459.925;  226.475;    0.000
415.523; 3353.925;  222.475;    0.000
415.577; 3370.925;  205.475;    0.000
415.631; 3400.925;  224.475;    0.000
415.684; 3351.925;  193.475;    0.000
415.738; 3372.925;  224.475;    0.000
415.792; 3301.925;  204.475;    0.000
415.846; 3382.925;  189.475;    0.000
415.900; 3285.925;  223.475;    0.000
415.954; 3416.925;  187.475;    0.000
416.008; 3301.925;  237.475;    0.000
416.062; 3367.925;  195.475;    0.000
416.116; 3336.925;  223.475;    0.000
416.169; 3319.925;  210.475;    0.000
416.223; 3345.925;  232.475;    0.000
416.277; 3317.925;  227.475;    0.000
416.331; 3298.925;  216.475;    0.000
416.385; 3277.925;  186.475;    0.000
416.439; 3328.925;  226.475;    0.000
416.492; 3375.925;  229.475;    0.000
416.546; 3387.925;  216.475;    0.000
416.600; 3300.925;  211.475;    0.000
416.654; 3285.925;  226.475;    0.000
416.707; 3427.925;  248.475;    0.000
416.761; 3322.925;  217.475;    0.000
416.815; 3246.925;  207.475;    0.000
416.869; 3331.925;  226.475;    0.000
416.922; 3327.925;  192.475;    0.000
416.976; 3296.925;  205.475;    0.000
417.030; 3308.925;  233.475;    0.000
417.083; 3376.925;  226.475;    0.000
417.137; 3376.925;  222.475;    0.000
417.191; 3286.925;  217.475;    0.000
417.244; 3323.925;  221.475;    0.000
417.298; 3245.925;  201.475;    0.000
417.352; 3311.925;  170.475;    0.000
417.405; 3371.925;  234.475;    0.000
417.459; 3320.925;  241.475;    0.000
417.512; 3376.925;  247.475;    0.000
417.566; 3317.925;  219.475;    0.000
417.620; 3412.925;  228.475;    0.000
417.673; 3396.925;  192.475;    0.000
417.727; 3371.925;  203.475;    0.000
417.780; 3333.925;  204.475;    0.000
417.834; 3331.925;  234.475;    0.000
417.887; 3313.925;  245.475;    0.000
417.941; 3347.925;  211.475;    0.000
417.994; 3270.925;  244.475;    0.000
418.048; 3385.925;  203.475;    0.000
418.101; 3284.925;  212.475;    0.000
418.155; 3283.925;  251.475;    0.000
418.208; 3322.925;  286.475;    0.000
418.262; 3318.925;  243.475;    0.000
418.315; 3313.925;  214.475;    0.000
418.369; 3311.925;  269.475;    0.000
418.422; 3334.925;  222.475;    0.000
418.476; 3368.925;  226.475;    0.000
418.529; 3380.925;  238.475;    0.000
418.582; 3365.925;  210.475;    0.000
418.636; 3344.925;  221.475;    0.000
418.689; 3338.925;  224.475;    0.000
418.743; 3383.925;  228.475;    0.000
418.796; 3369.925;  192.475;    0.000
418.849; 3401.925;  230.475;    0.000
418.903; 3311.925;  257.475;    0.000
418.956; 3400.925;  241.475;    0.000
419.009; 3466.925;  247.475;    0.000
419.063; 3355.925;  235.475;    0.000
419.116; 3411.925;  218.475;    0.000
419.169; 3356.925;  219.475;    0.000
419.222; 3357.925;  215.475;    0.000
419.276; 3346.925;  202.475;    0.000
419.329; 3384.925;  210.475;    0.000
419.382; 3350.925;  188.475;    0.000
419.435; 3347.925;  222.475;    0.000
419.489; 3359.925;  232.475;    0.000
419.542; 3320.925;  250.475;    0.000
419.595; 3381.925;  240.475;    0.000
419.648; 3268.925;  261.475;    0.000
419.701; 3270.925;  222.475;    0.000
419.755; 3230.925;  233.475;    0.000
419.808; 3365.925;  178.475;    0.000
419.861; 3291.925;  207.475;    0.000
419.914; 3367.925;  223.475;    0.000
419.967; 3300.925;  216.475;    0.000
420.020; 3262.925;  211.475;    0.000
420.073; 3229.925;  200.475;    0.000
420.127; 3276.925;  248.475;    0.000
420.180; 3350.925;  220.475;    0.000
420.233; 3241.925;  215.475;    0.000
420.286; 3142.925;  222.475;    0.000
420.339; 3219.925;  229.475;    0.000
420.392; 3315.925;  245.475;    0.000
420.445; 3248.925;  221.475;    0.000
420.498; 3273.925;  224.475;    0.000
420.551; 3222.925;  170.475;    0.000
420.604; 3228.925;  237.475;    0.000
420.657; 3250.925;  235.475;    0.000
420.710; 3235.925;  223.475;    0.000
420.763; 3215.925;  219.475;    0.000
420.816; 3270.925;  200.475;    0.000
420.869; 3143.925;  197.475;    0.000
420.922; 3130.925;  212.475;    0.000
420.975; 3268.925;  274.475;    0.000
421.028; 3152.925;  228.475;    0.000
421.081; 3148.925;  243.475;    0.000
421.134; 3260.925;  227.475;    0.000
421.187; 3084.925;  245.475;    0.000
421.239; 3195.925;  210.475;    0.000
421.292; 3137.925;  193.475;    0.000
421.345; 3169.925;  226.475;    0.000
421.398; 3213.925;  226.475;    0.000
421.451; 3311.925;  259.475;    0.000
421.504; 3140.925;  204.475;    0.000
421.557; 3067.925;  215.475;    0.000
421.609; 3099.925;  194.475;    0.000
421.662; 3159.925;  216.475;    0.000
421.715; 3084.925;  226.475;    0.000
421.768; 3241.925;  177.475;    0.000
421.821; 3178.925;  210.475;    0.000
421.873; 3188.925;  208.475;    0.000
421.926; 3106.925;  223.475;    0.000
421.979; 3233.925;  230.475;    0.000
422.032; 3169.925;  227.475;    0.000
422.084; 3240.925;  234.475;    0.000
422.137; 3159.925;  207.475;    0.000
422.190; 3138.925;  228.475;    0.000
422.243; 3155.925;  206.475;    0.000
422.295; 3241.925;  236.475;    0.000
422.348; 3169.925;  232.475;    0.000
422.401; 3102.925;  228.475;    0.000
422.453; 3176.925;  239.475;    0.000
422.506; 3044.925;  226.475;    0.000
422.559; 3127.925;  205.475;    0.000
422.611; 3119.925;  235.475;    0.000
422.664; 3144.925;  231.475;    0.000
422.716; 3255.925;  228.475;    0.000
422.769; 3117.925;  204.475;    0.000
422.822; 3222.925;  205.475;    0.000
422.874; 3066.925;  228.475;    0.000
422.927; 3123.925;  266.475;    0.000
422.979; 3100.925;  223.475;    0.000
423.032; 3089.925;  207.475;    0.000
423.084; 3114.925;  211.475;    0.000
423.137; 3006.925;  205.475;    0.000
423.189; 3084.925;  254.475;    0.000
423.242; 3111.925;  208.475;    0.000
423.294; 3091.925;  240.475;    0.000
423.347; 3082.925;  218.475;    0.000
423.399; 3114.925;  237.475;    0.000
423.452; 3087.925;  242.475;    0.000
423.504; 3078.925;  225.475;    0.000
423.557; 3100.925;  195.475;    0.000
423.609; 3036.925;  206.475;    0.000
423.662; 3072.925;  211.475;    0.000
423.714; 3012.925;  252.475;    0.000
423.766; 3006.925;  181.475;    0.000
423.819; 3093.925;  216.475;    0.000
423.871; 3109.925;  216.475;    0.000
423.923; 3023.925;  222.475;    0.000
423.976; 3099.925;  223.475;    0.000
424.028; 2984.925;  229.475;    0.000
424.081; 3023.925;  267.475;    0.000
424.133; 3095.925;  251.475;    0.000
424.185; 3078.925;  238.475;    0.000
424.238; 3088.925;  220.475;    0.000
424.290; 2995.925;  259.475;    0.000
424.342; 3008.925;  248.475;    0.000
424.394; 2976.925;  234.475;    0.000
424.447; 3024.925;  248.475;    0.000
424.499; 3131.925;  233.475;    0.000
424.551; 3028.925;  236.475;    0.000
424.603; 3041.925;  207.475;    0.000
424.656; 2965.925;  210.475;    0.000
424.708; 2931.925;  251.475;    0.000
424.760; 3062.925;  221.475;    0.000
424.812; 3103.925;  275.475;    0.000
424.864; 3033.925;  206.475;    0.000
424.917; 3015.925;  198.475;    0.000
424.969; 3128.925;  246.475;    0.000
425.021; 3044.925;  209.475;    0.000
425.073; 3120.925;  242.475;    0.000
425.125; 3011.925;  254.475;    0.000
425.177; 3020.925;  224.475;    0.000
425.229; 3001.925;  256.475;    0.000
425.282; 2893.925;  265.475;    0.000
425.334; 3047.925;  266.475;    0.000
425.386; 3054.925;  242.475;    0.000
425.438; 3185.925;  205.475;    0.000
425.490; 3039.925;  227.475;    0.000
425.542; 2949.925;  235.475;    0.000
425.594; 2998.925;  210.475;    0.000
425.646; 3066.925;  232.475;    0.000
425.698; 2961.925;  243.475;    0.000
425.750; 2984.925;  230.475;    0.000
425.802; 2859.925;  218.475;    0.000
425.854; 2938.925;  222.475;    0.000
425.906; 2938.925;  235.475;    0.000
425.958; 2895.925;  220.475;    0.000
426.010; 2895.925;  236.475;    0.000
426.062; 2976.925;  230.475;    0.000
426.114; 2898.925;  216.475;    0.000
426.166; 2924.925;  230.475;    0.000
426.218; 2942.925;  237.475;    0.000
426.270; 2914.925;  217.475;    0.000
426.321; 2917.925;  224.475;    0.000
426.373; 2888.925;  207.475;    0.000
426.425; 2847.925;  278.475;    0.000
426.477; 2990.925;  243.475;    0.000
426.529; 2850.925;  247.475;    0.000
426.581; 2917.925;  229.475;    0.000
426.633; 2837.925;  212.475;    0.000
426.684; 2894.925;  244.475;    0.000
426.736; 2846.925;  250.475;    0.000
426.788; 2864.925;  210.475;    0.000
426.840; 2913.925;  201.475;    0.000
426.892; 2899.925;  225.475;    0.000
426.943; 2808.925;  215.475;    0.000
426.995; 2990.925;  216.475;    0.000
427.047; 2863.925;  216.475;    0.000
427.099; 2841.925;  203.475;    0.000
427.150; 2920.925;  195.475;    0.000
427.202; 2867.925;  212.475;    0.000
427.254; 2824.925;  233.475;    0.000
427.306; 2826.925;  211.475;    0.000
427.357; 2919.925;  210.475;    0.000
427.409; 2813.925;  244.475;    0.000
427.461; 2880.925;  187.475;    0.000
427.512; 2999.925;  227.475;    0.000
427.564; 2852.925;  210.475;    0.000
427.616; 2830.925;  202.475;    0.000
427.667; 2783.925;  185.475;    0.000
427.719; 2811.925;  222.475;    0.000
427.770; 2770.925;  230.475;    0.000
427.822; 2745.925;  254.475;    0.000
427.874; 2794.925;  222.475;    0.000
427.925; 2900.925;  199.475;    0.000
427.977; 2730.925;  228.475;    0.000
428.028; 2864.925;  226.475;    0.000
428.080; 2853.925;  236.475;    0.000
428.131; 2730.925;  220.475;    0.000
428.183; 2849.925;  256.475;    0.000
428.234; 2716.925;  217.475;    0.000
428.286; 2847.925;  234.475;    0.000
428.337; 2781.925;  209.475;    0.000
428.389; 2800.925;  219.475;    0.000
428.440; 2763.925;  249.475;    0.000
428.492; 2821.925;  255.475;    0.000
428.543; 2680.925;  224.475;    0.000
428.595; 2763.925;  225.475;    0.000
428.646; 2785.925;  240.475;    0.000
428.697; 2724.925;  211.475;    0.000
428.749; 2763.925;  200.475;    0.000
428.800; 2777.925;  235.475;    0.000
428.852; 2854.925;  265.475;    0.000
428.903; 2801.925;  201.475;    0.000
428.954; 2819.925;  242.475;    0.000
429.006; 2828.925;  245.475;    0.000
429.057; 2771.925;  252.475;    0.000
429.108; 2666.925;  211.475;    0.000
429.160; 2703.925;  217.475;    0.000
429.211; 2768.925;  234.475;    0.000
429.262; 2757.925;  205.475;    0.000
429.314; 2728.925;  211.475;    0.000
429.365; 2712.925;  240.475;    0.000
429.416; 2732.925;  263.475;    0.000
429.467; 2741.925;  244.475;    0.000
429.519; 2649.925;  223.475;    0.000
429.570; 2741.925;  214.475;    0.000
429.621; 2685.925;  235.475;    0.000
429.672; 2653.925;  202.475;    0.000
429.724; 2793.925;  189.475;    0.000
429.775; 2657.925;  214.475;    0.000
429.826; 2741.925;  178.475;    0.000
429.877; 2721.925;  224.475;    0.000
429.928; 2629.925;  230.475;    0.000
429.980; 2727.925;  199.475;    0.000
430.031; 2683.925;  208.475;    0.000
430.082; 2751.925;  224.475;    0.000
430.133; 2623.925;  193.475;    0.000
430.184; 2723.925;  220.475;    0.000
430.235; 2708.925;  184.475;    0.000
430.286; 2674.925;  197.475;    0.000
430.337; 2682.925;  199.475;    0.000
430.388; 2574.925;  207.475;    0.000
430.439; 2746.925;  227.475;    0.000
430.490; 2629.925;  215.475;    0.000
430.542; 2676.925;  211.475;    0.000
430.593; 2728.925;  230.475;    0.000
430.644; 2720.925;  186.475;    0.000
430.695; 2684.925;  232.475;    0.000
430.746; 2693.925;  214.475;    0.000
430.797; 2801.925;  260.475;    0.000
430.848; 2741.925;  214.475;    0.000
430.898; 2613.925;  204.475;    0.000
430.949; 2709.925;  189.475;    0.000
431.000; 2689.925;  240.475;    0.000
431.051; 2577.925;  201.475;    0.000
431.102; 2675.925;  188.475;    0.000
431.153; 2707.925;  209.475;    0.000
431.204; 2727.925;  187.475;    0.000
431.255; 2665.925;  171.475;    0.000
431.306; 2625.925;  181.475;    0.000
431.357; 2674.925;  221.475;    0.000
431.408; 2684.925;  217.475;    0.000
431.458; 2584.925;  206.475;    0.000
431.509; 2695.925;  194.475;    0.000
431.560; 2673.925;  235.475;    0.000
431.611; 2666.925;  213.475;    0.000
431.662; 2671.925;  237.475;    0.000
431.713; 2727.925;  220.475;    0.000
431.763; 2692.925;  212.475;    0.000
431.814; 2661.925;  238.475;    0.000
431.865; 2684.925;  213.475;    0.000
431.916; 2660.925;  191.475;    0.000
431.966; 2680.925;  171.475;    0.000
432.017; 2697.925;  263.475;    0.000
432.068; 2693.925;  240.475;    0.000
432.118; 2797.925;  235.475;    0.000
432.169; 2709.925;  212.475;    0.000
432.220; 2723.925;  188.475;    0.000
432.271; 2595.925;  216.475;    0.000
432.321; 2659.925;  223.475;    0.000
432.372; 2707.925;  254.475;    0.000
432.423; 2639.925;  193.475;    0.000
432.473; 2564.925;  219.475;    0.000
432.524; 2712.925;  215.475;    0.000
432.574; 2636.925;  234.475;    0.000
432.625; 2676.925;  226.475;    0.000
432.676; 2660.925;  219.475;    0.000
432.726; 2691.925;  254.475;    0.000
432.777; 2593.925;  210.475;    0.000
432.827; 2623.925;  234.475;    0.000
432.878; 2619.925;  212.475;    0.000
432.928; 2515.925;  238.475;    0.000
432.979; 2618.925;  252.475;    0.000
433.029; 2601.925;  222.475;    0.000
433.080; 2612.925;  188.475;    0.000
433.130; 2688.925;  223.475;    0.000
433.181; 2684.925;  254.475;    0.000
433.231; 2596.925;  237.475;    0.000
433.282; 2649.925;  242.475;    0.000
433.332; 2667.925;  261.475;    0.000
433.383; 2603.925;  266.475;    0.000
433.433; 2667.925;  286.475;    0.000
433.484; 2717.925;  231.475;    0.000
433.534; 2661.925;  256.475;    0.000
433.585; 2682.925;  253.475;    0.000
433.635; 2650.925;  228.475;    0.000
433.685; 2726.925;  226.475;    0.000
433.736; 2645.925;  276.475;    0.000
433.786; 2653.925;  253.475;    0.000
433.836; 2638.925;  289.475;    0.000
433.887; 2648.925;  241.475;    0.000
433.937; 2690.925;  252.475;    0.000
433.987; 2629.925;  223.475;    0.000
434.038; 2679.925;  241.475;    0.000
434.088; 2692.925;  231.475;    0.000
434.138; 2675.925;  259.475;    0.000
434.189; 2702.925;  263.475;    0.000
434.239; 2743.925;  194.475;    0.000
434.289; 2672.925;  273.475;    0.000
434.339; 2693.925;  212.475;    0.000
434.389; 2716.925;  248.475;    0.000
434.440; 2634.925;  250.475;    0.000
434.490; 2786.925;  278.475;    0.000
434.540; 2723.925;  241.475;    0.000
434.590; 2699.925;  251.475;    0.000
434.640; 2675.925;  207.475;    0.000
434.691; 2744.925;  242.475;    0.000
434.741; 2738.925;  218.475;    0.000
434.791; 2794.925;  267.475;    0.000
434.841; 2802.925;  272.475;    0.000
434.891; 2846.925;  260.475;    0.000
434.941; 2709.925;  258.475;    0.000
434.991; 2808.925;  264.475;    0.000
435.042; 2758.925;  264.475;    0.000
435.092; 2786.925;  271.475;    0.000
435.142; 2714.925;  229.475;    0.000
435.192; 2663.925;  226.475;    0.000
435.242; 2707.925;  253.475;    0.000
435.292; 2648.925;  215.475;    0.000
435.342; 2674.925;  240.475;    0.000
435.392; 2602.925;  235.475;    0.000
435.442; 2674.925;  230.475;    0.000
435.492; 2670.925;  235.475;    0.000
435.542; 2583.925;  230.475;    0.000
435.592; 2594.925;  239.475;    0.000
435.642; 2578.925;  244.475;    0.000
435.692; 2600.925;  236.475;    0.000
435.742; 2608.925;  236.475;    0.000
435.792; 2542.925;  230.475;    0.000
435.842; 2704.925;  248.475;    0.000
435.891; 2600.925;  233.475;    0.000
435.941; 2539.925;  243.475;    0.000
435.991; 2517.925;  279.475;    0.000
436.041; 2566.925;  204.475;    0.000
436.091; 2595.925;  217.475;    0.000
436.141; 2545.925;  205.475;    0.000
436.191; 2450.925;  220.475;    0.000
436.241; 2583.925;  248.475;    0.000
436.290; 2560.925;  255.475;    0.000
436.340; 2556.925;  235.475;    0.000
436.390; 2595.925;  207.475;    0.000
436.440; 2492.925;  207.475;    0.000
436.490; 2452.925;  251.475;    0.000
436.539; 2499.925;  240.475;    0.000
436.589; 2497.925;  198.475;    0.000
436.639; 2568.925;  240.475;    0.000
436.689; 2505.925;  216.475;    0.000
436.738; 2561.925;  246.475;    0.000
436.788; 2494.925;  203.475;    0.000
436.838; 2567.925;  230.475;    0.000
436.887; 2541.925;  235.475;    0.000
436.937; 2509.925;  249.475;    0.000
436.987; 2469.925;  208.475;    0.000
437.036; 2496.925;  232.475;    0.000
437.086; 2468.925;  238.475;    0.000
437.136; 2515.925;  228.475;    0.000
437.185; 2421.925;  219.475;    0.000
437.235; 2509.925;  227.475;    0.000
437.285; 2505.925;  241.475;    0.000
437.334; 2425.925;  216.475;    0.000
437.384; 2492.925;  243.475;    0.000
437.433; 2459.925;  214.475;    0.000
437.483; 2505.925;  246.475;    0.000
437.532; 2425.925;  261.475;    0.000
437.582; 2461.925;  205.475;    0.000
437.631; 2469.925;  218.475;    0.000
437.681; 2416.925;  240.475;    0.000
437.730; 2449.925;  258.475;    0.000
437.780; 2423.925;  237.475;    0.000
437.829; 2453.925;  209.475;    0.000
437.879; 2407.925;  214.475;    0.000
437.928; 2491.925;  223.475;    0.000
437.978; 2465.925;  220.475;    0.000
438.027; 2450.925;  239.475;    0.000
438.077; 2471.925;  231.475;    0.000
438.126; 2492.925;  266.475;    0.000
438.176; 2392.925;  234.475;    0.000
438.225; 2419.925;  237.475;    0.000
438.274; 2444.925;  234.475;    0.000
438.324; 2508.925;  244.475;    0.000
438.373; 2395.925;  232.475;    0.000
438.422; 2465.925;  218.475;    0.000
438.472; 2404.925;  221.475;    0.000
438.521; 2339.925;  190.475;    0.000
438.570; 2361.925;  243.475;    0.000
438.620; 2416.925;  255.475;    0.000
438.669; 2439.925;  210.475;    0.000
438.718; 2361.925;  237.475;    0.000
438.768; 2428.925;  220.475;    0.000
438.817; 2405.925;  218.475;    0.000
438.866; 2427.925;  198.475;    0.000
438.915; 2376.925;  256.475;    0.000
438.965; 2387.925;  221.475;    0.000
439.014; 2413.925;  255.475;    0.000
439.063; 2381.925;  276.475;    0.000
439.112; 2376.925;  220.475;    0.000
439.162; 2445.925;  253.475;    0.000
439.211; 2440.925;  247.475;    0.000
439.260; 2403.925;  220.475;    0.000
439.309; 2433.925;  235.475;    0.000
439.358; 2501.925;  205.475;    0.000
439.407; 2381.925;  207.475;    0.000
439.456; 2501.925;  216.475;    0.000
439.506; 2404.925;  245.475;    0.000
439.555; 2457.925;  264.475;    0.000
439.604; 2377.925;  227.475;    0.000
439.653; 2461.925;  220.475;    0.000
439.702; 2453.925;  223.475;    0.000
439.751; 2393.925;  197.475;    0.000
439.800; 2481.925;  207.475;    0.000
439.849; 2525.925;  238.475;    0.000
439.898; 2443.925;  209.475;    0.000
439.947; 2431.925;  170.475;    0.000
439.996; 2517.925;  233.475;    0.000
440.045; 2415.925;  222.475;    0.000
440.094; 2463.925;  240.475;    0.000
440.143; 2460.925;  249.475;    0.000
440.192; 2470.925;  252.475;    0.000
440.241; 2485.925;  239.475;    0.000
440.290; 2464.925;  234.475;    0.000
440.339; 2426.925;  241.475;    0.000
440.388; 2549.925;  239.475;    0.000
440.437; 2452.925;  231.475;    0.000
440.486; 2543.925;  254.475;    0.000
440.535; 2557.925;  266.475;    0.000
440.583; 2436.925;  205.475;    0.000
440.632; 2561.925;  234.475;    0.000
440.681; 2501.925;  218.475;    0.000
440.730; 2480.925;  248.475;    0.000
440.779; 2493.925;  246.475;    0.000
440.828; 2489.925;  235.475;    0.000
440.876; 2465.925;  218.475;    0.000
440.925; 2533.925;  228.475;    0.000
440.974; 2487.925;  249.475;    0.000
441.023; 2547.925;  192.475;    0.000
441.072; 2413.925;  226.475;    0.000
441.120; 2577.925;  238.475;    0.000
441.169; 2565.925;  255.475;    0.000
441.218; 2488.925;  233.475;    0.000
441.267; 2600.925;  231.475;    0.000
441.315; 2587.925;  214.475;    0.000
441.364; 2521.925;  250.475;    0.000
441.413; 2597.925;  228.475;    0.000
441.461; 2573.925;  209.475;    0.000
441.510; 2581.925;  260.475;    0.000
441.559; 2664.925;  230.475;    0.000
441.607; 2677.925;  220.475;    0.000
441.656; 2561.925;  251.475;    0.000
441.705; 2691.925;  237.475;    0.000
441.753; 2645.925;  257.475;    0.000
441.802; 2597.925;  256.475;    0.000
441.850; 2637.925;  253.475;    0.000
441.899; 2557.925;  212.475;    0.000
441.948; 2628.925;  251.475;    0.000
441.996; 2549.925;  239.475;    0.000
442.045; 2515.925;  223.475;    0.000
442.093; 2611.925;  211.475;    0.000
442.142; 2585.925;  235.475;    0.000
442.190; 2655.925;  254.475;    0.000
442.239; 2519.925;  226.475;    0.000
442.287; 2660.925;  242.475;    0.000
442.336; 2608.925;  256.475;    0.000
442.384; 2571.925;  252.475;    0.000
442.433; 2600.925;  262.475;    0.000
442.481; 2580.925;  246.475;    0.000
442.529; 2611.925;  290.475;    0.000
442.578; 2533.925;  247.475;    0.000
442.626; 2480.925;  247.475;    0.000
442.675; 2625.925;  272.475;    0.000
442.723; 2573.925;  230.475;    0.000
442.771; 2538.925;  234.475;    0.000
442.820; 2557.925;  224.475;    0.000
442.868; 2505.925;  246.475;    0.000
442.917; 2571.925;  249.475;    0.000
442.965; 2617.925;  260.475;    0.000
443.013; 2480.925;  258.475;    0.000
443.062; 2581.925;  259.475;    0.000
443.110; 2651.925;  226.475;    0.000
443.158; 2542.925;  213.475;    0.000
443.206; 2529.925;  201.475;    0.000
443.255; 2709.925;  280.475;    0.000
443.303; 2665.925;  292.475;    0.000
443.351; 2680.925;  256.475;    0.000
443.399; 2678.925;  215.475;    0.000
443.448; 2517.925;  243.475;    0.000
443.496; 2613.925;  249.475;    0.000
443.544; 2605.925;  231.475;    0.000
443.592; 2645.925;  243.475;    0.000
443.640; 2688.925;  252.475;    0.000
443.689; 2577.925;  220.475;    0.000
443.737; 2675.925;  231.475;    0.000
443.785; 2629.925;  256.475;    0.000
443.833; 2595.925;  268.475;    0.000
443.881; 2573.925;  181.475;    0.000
443.929; 2733.925;  245.475;    0.000
443.977; 2652.925;  278.475;    0.000
444.025; 2661.925;  245.475;    0.000
444.074; 2728.925;  233.475;    0.000
444.122; 2711.925;  267.475;    0.000
444.170; 2715.925;  247.475;    0.000
444.218; 2735.925;  246.475;    0.000
444.266; 2733.925;  275.475;    0.000
444.314; 2683.925;  263.475;    0.000
444.362; 2846.925;  240.475;    0.000
444.410; 2740.925;  220.475;    0.000
444.458; 2802.925;  258.475;    0.000
444.506; 2733.925;  258.475;    0.000
444.554; 2704.925;  224.475;    0.000
444.602; 2714.925;  245.475;    0.000
444.650; 2773.925;  261.475;    0.000
444.698; 2848.925;  232.475;    0.000
444.746; 2749.925;  206.475;    0.000
444.793; 2847.925;  249.475;    0.000
444.841; 2804.925;  261.475;    0.000
444.889; 2883.925;  221.475;    0.000
444.937; 2743.925;  215.475;    0.000
444.985; 2841.925;  244.475;    0.000
445.033; 2706.925;  211.475;    0.000
445.081; 2801.925;  225.475;    0.000
445.129; 2752.925;  217.475;    0.000
445.176; 2758.925;  196.475;    0.000
445.224; 2763.925;  211.475;    0.000
445.272; 2778.925;  242.475;    0.000
445.320; 2695.925;  225.475;    0.000
445.368; 2821.925;  249.475;    0.000
445.415; 2888.925;  243.475;    0.000
445.463; 2732.925;  242.475;    0.000
445.511; 2856.925;  248.475;    0.000
445.559; 2850.925;  219.475;    0.000
445.606; 2681.925;  221.475;    0.000
445.654; 2821.925;  202.475;    0.000
445.702; 2765.925;  210.475;    0.000
445.749; 2881.925;  249.475;    0.000
445.797; 2722.925;  206.475;    0.000
445.845; 2679.925;  213.475;    0.000
445.892; 2769.925;  224.475;    0.000
445.940; 2743.925;  214.475;    0.000
445.988; 2709.925;  247.475;    0.000
446.035; 2752.925;  204.475;    0.000
446.083; 2828.925;  235.475;    0.000
446.130; 2751.925;  195.475;    0.000
446.178; 2812.925;  236.475;    0.000
446.226; 2841.925;  218.475;    0.000
446.273; 2955.925;  215.475;    0.000
446.321; 2915.925;  222.475;    0.000
446.368; 2828.925;  228.475;    0.000
446.416; 2731.925;  223.475;    0.000
446.463; 2799.925;  220.475;    0.000
446.511; 2898.925;  198.475;    0.000
446.558; 2828.925;  208.475;    0.000
446.606; 2879.925;  253.475;    0.000
446.653; 2864.925;  198.475;    0.000
446.701; 3000.925;  231.475;    0.000
446.748; 2870.925;  224.475;    0.000
446.796; 2857.925;  201.475;    0.000
446.843; 2978.925;  257.475;    0.000
446.891; 2975.925;  218.475;    0.000
446.938; 2957.925;  232.475;    0.000
446.985; 2892.925;  229.475;    0.000
447.033; 2955.925;  251.475;    0.000
447.080; 2888.925;  257.475;    0.000
447.128; 2914.925;  232.475;    0.000
447.175; 3031.925;  269.475;    0.000
447.222; 3117.925;  185.475;    0.000
447.270; 3072.925;  264.475;    0.000
447.317; 3149.925;  225.475;    0.000
447.364; 3086.925;  243.475;    0.000
447.411; 3252.925;  263.475;    0.000
447.459; 3193.925;  257.475;    0.000
447.506; 3249.925;  175.475;    0.000
447.553; 3343.925;  203.475;    0.000
447.601; 3350.925;  238.475;    0.000
447.648; 3369.925;  244.475;    0.000
447.695; 3363.925;  249.475;    0.000
447.742; 3481.925;  234.475;    0.000
447.789; 3364.925;  228.475;    0.000
447.837; 3572.925;  258.475;    0.000
447.884; 3571.925;  243.475;    0.000
447.931; 3612.925;  235.475;    0.000
447.978; 3633.925;  224.475;    0.000
448.025; 3739.925;  245.475;    0.000
448.072; 3641.925;  212.475;    0.000
448.120; 3856.925;  256.475;    0.000
448.167; 3787.925;  240.475;    0.000
448.214; 3653.925;  247.475;    0.000
448.261; 3632.925;  245.475;    0.000
448.308; 3455.925;  273.475;    0.000
448.355; 3575.925;  257.475;    0.000
448.402; 3502.925;  259.475;    0.000
448.449; 3345.925;  238.475;    0.000
448.496; 3333.925;  245.475;    0.000
448.543; 3338.925;  217.475;    0.000
448.590; 3338.925;  269.475;    0.000
448.637; 3166.925;  250.475;    0.000
448.684; 3029.925;  250.475;    0.000
448.731; 3157.925;  235.475;    0.000
448.778; 3210.925;  265.475;    0.000
448.825; 3012.925;  257.475;    0.000
448.872; 2974.925;  234.475;    0.000
448.919; 2959.925;  216.475;    0.000
448.966; 3081.925;  274.475;    0.000
449.013; 2936.925;  263.475;    0.000
449.060; 2909.925;  247.475;    0.000
449.107; 2932.925;  218.475;    0.000
449.154; 2808.925;  225.475;    0.000
449.200; 2841.925;  212.475;    0.000
449.247; 2885.925;  242.475;    0.000
449.294; 2873.925;  228.475;    0.000
449.341; 2745.925;  232.475;    0.000
449.388; 2723.925;  247.475;    0.000
449.435; 2791.925;  227.475;    0.000
449.481; 2763.925;  270.475;    0.000
449.528; 2855.925;  265.475;    0.000
449.575; 2653.925;  255.475;    0.000
449.622; 2694.925;  210.475;    0.000
449.668; 2678.925;  234.475;    0.000
449.715; 2654.925;  262.475;    0.000
449.762; 2626.925;  247.475;    0.000
449.809; 2797.925;  286.475;    0.000
449.855; 2664.925;  246.475;    0.000
449.902; 2694.925;  224.475;    0.000
449.949; 2668.925;  244.475;    0.000
449.995; 2632.925;  274.475;    0.000
450.042; 2607.925;  272.475;    0.000
450.089; 2627.925;  274.475;    0.000
450.135; 2664.925;  285.475;    0.000
450.182; 2621.925;  251.475;    0.000
450.229; 2601.925;  242.475;    0.000
450.275; 2564.925;  277.475;    0.000
450.322; 2608.925;  260.475;    0.000
450.368; 2605.925;  257.475;    0.000
450.415; 2531.925;  276.475;    0.000
450.462; 2575.925;  298.475;    0.000
450.508; 2523.925;  255.475;    0.000
450.555; 2609.925;  271.475;    0.000
450.601; 2543.925;  281.475;    0.000
450.648; 2516.925;  249.475;    0.000
450.694; 2576.925;  270.475;    0.000
450.741; 2590.925;  256.475;    0.000
450.787; 2525.925;  292.475;    0.000
450.834; 2466.925;  221.475;    0.000
450.880; 2423.925;  265.475;    0.000
450.927; 2493.925;  242.475;    0.000
450.973; 2472.925;  259.475;    0.000
451.019; 2485.925;  221.475;    0.000
451.066; 2476.925;  257.475;    0.000
451.112; 2522.925;  251.475;    0.000
451.159; 2441.925;  278.475;    0.000
451.205; 2539.925;  274.475;    0.000
451.251; 2579.925;  281.475;    0.000
451.298; 2393.925;  273.475;    0.000
451.344; 2480.925;  246.475;    0.000
451.390; 2449.925;  286.475;    0.000
451.437; 2526.925;  268.475;    0.000
451.483; 2454.925;  315.475;    0.000
451.529; 2403.925;  251.475;    0.000
451.576; 2499.925;  306.475;    0.000
451.622; 2433.925;  234.475;    0.000
451.668; 2414.925;  243.475;    0.000
451.714; 2416.925;  256.475;    0.000
451.761; 2460.925;  264.475;    0.000
451.807; 2440.925;  284.475;    0.000
451.853; 2443.925;  282.475;    0.000
451.899; 2444.925;  240.475;    0.000
451.945; 2537.925;  263.475;    0.000
451.992; 2391.925;  255.475;    0.000
452.038; 2367.925;  273.475;    0.000
452.084; 2444.925;  274.475;    0.000
452.130; 2423.925;  261.475;    0.000
452.176; 2433.925;  246.475;    0.000
452.222; 2318.925;  238.475;    0.000
452.268; 2372.925;  267.475;    0.000
452.315; 2381.925;  274.475;    0.000
452.361; 2446.925;  241.475;    0.000
452.407; 2451.925;  274.475;    0.000
452.453; 2386.925;  260.475;    0.000
452.499; 2375.925;  232.475;    0.000
452.545; 2403.925;  252.475;    0.000
452.591; 2356.925;  263.475;    0.000
452.637; 2378.925;  208.475;    0.000
452.683; 2356.925;  237.475;    0.000
452.729; 2338.925;  263.475;    0.000
452.775; 2316.925;  291.475;    0.000
452.821; 2455.925;  238.475;    0.000
452.867; 2298.925;  223.475;    0.000
452.913; 2297.925;  257.475;    0.000
452.959; 2340.925;  238.475;    0.000
453.005; 2321.925;  252.475;    0.000
453.051; 2450.925;  260.475;    0.000
453.097; 2308.925;  268.475;    0.000
453.142; 2313.925;  231.475;    0.000
453.188; 2339.925;  266.475;    0.000
453.234; 2199.925;  233.475;    0.000
453.280; 2242.925;  219.475;    0.000
453.326; 2385.925;  265.475;    0.000
453.372; 2329.925;  238.475;    0.000
453.418; 2290.925;  240.475;    0.000
453.463; 2310.925;  219.475;    0.000
453.509; 2320.925;  264.475;    0.000
453.555; 2325.925;  247.475;    0.000
453.601; 2239.925;  230.475;    0.000
453.647; 2264.925;  285.475;    0.000
453.692; 2374.925;  240.475;    0.000
453.738; 2375.925;  233.475;    0.000
453.784; 2363.925;  230.475;    0.000
453.829; 2254.925;  246.475;    0.000
453.875; 2317.925;  261.475;    0.000
453.921; 2304.925;  203.475;    0.000
453.967; 2294.925;  241.475;    0.000
454.012; 2378.925;  250.475;    0.000
454.058; 2282.925;  252.475;    0.000
454.104; 2349.925;  239.475;    0.000
454.149; 2305.925;  250.475;    0.000
454.195; 2128.925;  243.475;    0.000
454.240; 2334.925;  252.475;    0.000
454.286; 2298.925;  245.475;    0.000
454.332; 2359.925;  286.475;    0.000
454.377; 2271.925;  254.475;    0.000
454.423; 2273.925;  246.475;    0.000
454.468; 2302.925;  235.475;    0.000
454.514; 2324.925;  231.475;    0.000
454.559; 2338.925;  246.475;    0.000
454.605; 2280.925;  204.475;    0.000
454.650; 2253.925;  272.475;    0.000
454.696; 2334.925;  222.475;    0.000
454.741; 2325.925;  290.475;    0.000
454.787; 2294.925;  262.475;    0.000
454.832; 2285.925;  227.475;    0.000
454.878; 2259.925;  241.475;    0.000
454.923; 2278.925;  272.475;    0.000
454.969; 2369.925;  290.475;    0.000
455.014; 2170.925;  278.475;    0.000
455.060; 2215.925;  246.475;    0.000
455.105; 2354.925;  231.475;    0.000
455.150; 2278.925;  265.475;    0.000
455.196; 2279.925;  266.475;    0.000
455.241; 2282.925;  258.475;    0.000
455.286; 2290.925;  266.475;    0.000
455.332; 2366.925;  252.475;    0.000
455.377; 2216.925;  219.475;    0.000
455.422; 2250.925;  262.475;    0.000
455.468; 2312.925;  260.475;    0.000
455.513; 2274.925;  212.475;    0.000
455.558; 2234.925;  197.475;    0.000
455.604; 2291.925;  262.475;    0.000
455.649; 2284.925;  238.475;    0.000
455.694; 2173.925;  221.475;    0.000
455.739; 2240.925;  251.475;    0.000
455.785; 2350.925;  287.475;    0.000
455.830; 2318.925;  284.475;    0.000
455.875; 2223.925;  234.475;    0.000
455.920; 2205.925;  215.475;    0.000
455.965; 2237.925;  256.475;    0.000
456.010; 2308.925;  266.475;    0.000
456.056; 2240.925;  263.475;    0.000
456.101; 2318.925;  240.475;    0.000
456.146; 2253.925;  258.475;    0.000
456.191; 2249.925;  241.475;    0.000
456.236; 2173.925;  252.475;    0.000
456.281; 2209.925;  218.475;    0.000
456.326; 2256.925;  251.475;    0.000
456.371; 2259.925;  256.475;    0.000
456.416; 2289.925;  301.475;    0.000
456.461; 2291.925;  233.475;    0.000
456.507; 2271.925;  218.475;    0.000
456.552; 2333.925;  278.475;    0.000
456.597; 2258.925;  223.475;    0.000
456.642; 2263.925;  203.475;    0.000
456.687; 2338.925;  245.475;    0.000
456.732; 2250.925;  256.475;    0.000
456.776; 2243.925;  244.475;    0.000
456.821; 2254.925;  276.475;    0.000
456.866; 2194.925;  232.475;    0.000
456.911; 2222.925;  225.475;    0.000
456.956; 2282.925;  237.475;    0.000
457.001; 2234.925;  261.475;    0.000
457.046; 2288.925;  205.475;    0.000
457.091; 2226.925;  241.475;    0.000
457.136; 2296.925;  217.475;    0.000
457.181; 2216.925;  251.475;    0.000
457.225; 2222.925;  241.475;    0.000
457.270; 2265.925;  237.475;    0.000
457.315; 2300.925;  279.475;    0.000
457.360; 2239.925;  245.475;    0.000
457.405; 2313.925;  202.475;    0.000
457.450; 2266.925;  247.475;    0.000
457.494; 2225.925;  243.475;    0.000
457.539; 2241.925;  222.475;    0.000
457.584; 2280.925;  239.475;    0.000
457.629; 2289.925;  236.475;    0.000
457.673; 2250.925;  234.475;    0.000
457.718; 2277.925;  202.475;    0.000
457.763; 2337.925;  274.475;    0.000
457.807; 2253.925;  236.475;    0.000
457.852; 2437.925;  265.475;    0.000
457.897; 2332.925;  252.475;    0.000
457.941; 2389.925;  264.475;    0.000
457.986; 2329.925;  280.475;    0.000
458.031; 2347.925;  217.475;    0.000
458.075; 2381.925;  249.475;    0.000
458.120; 2327.925;  257.475;    0.000
458.165; 2349.925;  183.475;    0.000
458.209; 2305.925;  245.475;    0.000
458.254; 2316.925;  245.475;    0.000
458.298; 2337.925;  265.475;    0.000
458.343; 2336.925;  241.475;    0.000
458.387; 2385.925;  262.475;    0.000
458.432; 2331.925;  245.475;    0.000
458.476; 2447.925;  255.475;    0.000
458.521; 2253.925;  269.475;    0.000
458.565; 2371.925;  265.475;    0.000
458.610; 2409.925;  222.475;    0.000
458.654; 2362.925;  257.475;    0.000
458.699; 2452.925;  296.475;    0.000
458.743; 2325.925;  203.475;    0.000
458.788; 2450.925;  267.475;    0.000
458.832; 2473.925;  274.475;    0.000
458.877; 2416.925;  251.475;    0.000
458.921; 2321.925;  237.475;    0.000
458.965; 2549.925;  264.475;    0.000
459.010; 2486.925;  256.475;    0.000
459.054; 2501.925;  280.475;    0.000
459.099; 2435.925;  240.475;    0.000
459.143; 2467.925;  287.475;    0.000
459.187; 2465.925;  257.475;    0.000
459.231; 2506.925;  273.475;    0.000
459.276; 2497.925;  231.475;    0.000
459.320; 2468.925;  261.475;    0.000
459.364; 2488.925;  278.475;    0.000
459.409; 2463.925;  249.475;    0.000
459.453; 2514.925;  235.475;    0.000
459.497; 2465.925;  262.475;    0.000
459.541; 2573.925;  269.475;    0.000
459.586; 2491.925;  240.475;    0.000
459.630; 2594.925;  261.475;    0.000
459.674; 2514.925;  276.475;    0.000
459.718; 2589.925;  236.475;    0.000
459.762; 2545.925;  263.475;    0.000
459.807; 2556.925;  263.475;    0.000
459.851; 2600.925;  225.475;    0.000
459.895; 2530.925;  247.475;    0.000
459.939; 2525.925;  231.475;    0.000
459.983; 2539.925;  242.475;    0.000
460.027; 2661.925;  248.475;    0.000
460.071; 2635.925;  273.475;    0.000
460.115; 2608.925;  282.475;    0.000
460.159; 2685.925;  264.475;    0.000
460.204; 2600.925;  288.475;    0.000
460.248; 2679.925;  293.475;    0.000
460.292; 2656.925;  277.475;    0.000
460.336; 2627.925;  250.475;    0.000
460.380; 2575.925;  275.475;    0.000
460.424; 2675.925;  243.475;    0.000
460.468; 2696.925;  277.475;    0.000
460.512; 2699.925;  261.475;    0.000
460.556; 2664.925;  266.475;    0.000
460.599; 2630.925;  246.475;    0.000
460.643; 2562.925;  256.475;    0.000
460.687; 2623.925;  257.475;    0.000
460.731; 2718.925;  235.475;    0.000
460.775; 2603.925;  278.475;    0.000
460.819; 2664.925;  268.475;    0.000
460.863; 2594.925;  257.475;    0.000
460.907; 2668.925;  213.475;    0.000
460.951; 2622.925;  274.475;    0.000
460.995; 2654.925;  258.475;    0.000
461.038; 2627.925;  219.475;    0.000
461.082; 2622.925;  253.475;    0.000
461.126; 2701.925;  281.475;    0.000
461.170; 2602.925;  244.475;    0.000
461.214; 2626.925;  262.475;    0.000
461.257; 2688.925;  284.475;    0.000
461.301; 2638.925;  275.475;    0.000
461.345; 2645.925;  267.475;    0.000
461.389; 2694.925;  255.475;    0.000
461.432; 2706.925;  282.475;    0.000
461.476; 2673.925;  263.475;    0.000
461.520; 2658.925;  260.475;    0.000
461.563; 2671.925;  278.475;    0.000
461.607; 2732.925;  236.475;    0.000
461.651; 2646.925;  262.475;    0.000
461.694; 2661.925;  236.475;    0.000
461.738; 2680.925;  295.475;    0.000
461.782; 2626.925;  252.475;    0.000
461.825; 2641.925;  271.475;    0.000
461.869; 2738.925;  278.475;    0.000
461.913; 2803.925;  255.475;    0.000
461.956; 2705.925;  254.475;    0.000
462.000; 2726.925;  299.475;    0.000
462.043; 2681.925;  282.475;    0.000
462.087; 2770.925;  274.475;    0.000
462.130; 2784.925;  270.475;    0.000
462.174; 2781.925;  274.475;    0.000
462.217; 2796.925;  272.475;    0.000
462.261; 2801.925;  286.475;    0.000
462.304; 2830.925;  236.475;    0.000
462.348; 2747.925;  262.475;    0.000
462.391; 2805.925;  244.475;    0.000
462.435; 2737.925;  321.475;    0.000
462.478; 2789.925;  230.475;    0.000
462.522; 2740.925;  245.475;    0.000
462.565; 2796.925;  278.475;    0.000
462.608; 2893.925;  303.475;    0.000
462.652; 2827.925;  275.475;    0.000
462.695; 2861.925;  314.475;    0.000
462.739; 2817.925;  307.475;    0.000
462.782; 2833.925;  286.475;    0.000
462.825; 2967.925;  312.475;    0.000
462.869; 3016.925;  338.475;    0.000
462.912; 2961.925;  304.475;    0.000
462.955; 2921.925;  288.475;    0.000
462.998; 2895.925;  292.475;    0.000
463.042; 2982.925;  309.475;    0.000
463.085; 2947.925;  292.475;    0.000
463.128; 2921.925;  317.475;    0.000
463.172; 2955.925;  287.475;    0.000
463.215;  428.925;  313.475;    0.000
463.258;  330.925;  295.475;    0.000
463.301;  302.925;  275.475;    0.000
463.344;  317.925;  311.475;    0.000
463.388;  302.925;  296.475;    0.000
463.431;  279.925;  277.475;    0.000
463.474;  300.925;  364.475;    0.000
463.517;  296.925;  306.475;    0.000
463.560;  317.925;  308.475;    0.000
463.603;  330.925;  343.475;    0.000
463.646;  340.925;  309.475;    0.000
463.690;  333.925;  309.475;    0.000
463.733;  295.925;  320.475;    0.000
463.776;  323.925;  299.475;    0.000
463.819;  352.925;  320.475;    0.000
463.862;  301.925;  283.475;    0.000

