
Integration time [ms]:   1.000
Averaging Nr. [scans]: 1
Smoothing Nr. [pixels]: 0
Data measured with spectrometer [name]: UV2
Wave   ;Sample   ;Dark     ;Reference
[nm]   ;[counts] ;[counts] ;[counts] 

353.533;  214.825;  216.475;    0.000
353.597;  238.825;  244.475;    0.000
353.660;  190.825;  181.475;    0.000
353.723;  205.825;  203.475;    0.000
353.786;  165.825;  180.475;    0.000
353.850;  194.825;  213.475;    0.000
353.913;  154.825;  191.475;    0.000
353.976;  214.825;  195.475;    0.000
354.039;  186.825;  158.475;    0.000
354.102;  166.825;  199.475;    0.000
354.166;  184.825;  185.475;    0.000
354.229;  202.825;  188.475;    0.000
354.292;  180.825;  188.475;    0.000
354.355;  198.825;  226.475;    0.000
354.418;  184.825;  158.475;    0.000
354.481;  231.825;  185.475;    0.000
354.545;  580.825;  191.475;    0.000
354.608;  631.825;  247.475;    0.000
354.671;  578.825;  176.475;    0.000
354.734;  651.825;  198.475;    0.000
354.797;  639.825;  195.475;    0.000
354.860;  683.825;  212.475;    0.000
354.923;  617.825;  184.475;    0.000
354.986;  656.825;  169.475;    0.000
355.050;  663.825;  206.475;    0.000
355.113;  637.825;  210.475;    0.000
355.176;  733.825;  217.475;    0.000
355.239;  690.825;  201.475;    0.000
355.302;  673.825;  193.475;    0.000
355.365;  769.825;  234.475;    0.000
355.428;  718.825;  182.475;    0.000
355.491;  742.825;  233.475;    0.000
355.554;  784.825;  167.475;    0.000
355.617;  814.825;  195.475;    0.000
355.680;  756.825;  198.475;    0.000
355.743;  768.825;  186.475;    0.000
355.806;  720.825;  171.475;    0.000
355.869;  825.825;  244.475;    0.000
355.932;  788.825;  164.475;    0.000
355.995;  837.825;  220.475;    0.000
356.058;  763.825;  172.475;    0.000
356.121;  889.825;  228.475;    0.000
356.184;  846.825;  225.475;    0.000
356.247;  795.825;  161.475;    0.000
356.310;  840.825;  195.475;    0.000
356.373;  833.825;  191.475;    0.000
356.436;  826.825;  147.475;    0.000
356.498;  890.825;  183.475;    0.000
356.561;  811.825;  137.475;    0.000
356.624;  811.825;  186.475;    0.000
356.687;  826.825;  158.475;    0.000
356.750;  806.825;  194.475;    0.000
356.813;  850.825;  186.475;    0.000
356.876;  865.825;  161.475;    0.000
356.939;  851.825;  188.475;    0.000
357.001;  874.825;  200.475;    0.000
357.064;  836.825;  182.475;    0.000
357.127;  798.825;  168.475;    0.000
357.190;  824.825;  157.475;    0.000
357.253;  879.825;  199.475;    0.000
357.316;  870.825;  187.475;    0.000
357.378;  843.825;  174.475;    0.000
357.441;  908.825;  165.475;    0.000
357.504;  847.825;  189.475;    0.000
357.567;  781.825;  116.475;    0.000
357.629;  926.825;  176.475;    0.000
357.692;  891.825;  134.475;    0.000
357.755;  909.825;  175.475;    0.000
357.818;  819.825;  159.475;    0.000
357.880;  880.825;  185.475;    0.000
357.943;  884.825;  159.475;    0.000
358.006;  879.825;  176.475;    0.000
358.069;  906.825;  156.475;    0.000
358.131;  839.825;  170.475;    0.000
358.194;  843.825;  125.475;    0.000
358.257;  877.825;  186.475;    0.000
358.319;  863.825;  139.475;    0.000
358.382;  942.825;  175.475;    0.000
358.445;  899.825;  170.475;    0.000
358.507;  867.825;  129.475;    0.000
358.570;  928.825;  168.475;    0.000
358.633;  925.825;  152.475;    0.000
358.695;  934.825;  194.475;    0.000
358.758;  869.825;  154.475;    0.000
358.821;  889.825;  147.475;    0.000
358.883;  951.825;  163.475;    0.000
358.946;  876.825;  155.475;    0.000
359.008;  904.825;  208.475;    0.000
359.071;  950.825;  182.475;    0.000
359.134;  906.825;  126.475;    0.000
359.196;  947.825;  142.475;    0.000
359.259;  921.825;  138.475;    0.000
359.321;  903.825;  153.475;    0.000
359.384;  970.825;  186.475;    0.000
359.446;  908.825;  152.475;    0.000
359.509;  965.825;  144.475;    0.000
359.571;  970.825;  164.475;    0.000
359.634;  921.825;  171.475;    0.000
359.696;  894.825;  144.475;    0.000
359.759;  947.825;  171.475;    0.000
359.821;  920.825;  161.475;    0.000
359.884;  922.825;  159.475;    0.000
359.946;  904.825;  186.475;    0.000
360.009;  984.825;  171.475;    0.000
360.071;  947.825;  166.475;    0.000
360.134;  971.825;  215.475;    0.000
360.196;  958.825;  138.475;    0.000
360.259;  987.825;  196.475;    0.000
360.321;  899.825;  148.475;    0.000
360.384;  911.825;  150.475;    0.000
360.446;  943.825;  148.475;    0.000
360.508; 1036.825;  172.475;    0.000
360.571;  961.825;  155.475;    0.000
360.633;  969.825;  153.475;    0.000
360.696;  903.825;  142.475;    0.000
360.758;  971.825;  165.475;    0.000
360.820; 1015.825;  155.475;    0.000
360.883;  920.825;  156.475;    0.000
360.945;  970.825;  171.475;    0.000
361.007;  955.825;  138.475;    0.000
361.070;  957.825;  129.475;    0.000
361.132;  971.825;  166.475;    0.000
361.194;  943.825;  143.475;    0.000
361.257;  962.825;  154.475;    0.000
361.319;  977.825;  176.475;    0.000
361.381; 1026.825;  143.475;    0.000
361.443;  975.825;  136.475;    0.000
361.506; 1045.825;  160.475;    0.000
361.568; 1004.825;  140.475;    0.000
361.630; 1018.825;  159.475;    0.000
361.693; 1014.825;  162.475;    0.000
361.755; 1019.825;  185.475;    0.000
361.817; 1018.825;  209.475;    0.000
361.879; 1069.825;  161.475;    0.000
361.941;  992.825;  152.475;    0.000
362.004;  968.825;  132.475;    0.000
362.066;  993.825;  159.475;    0.000
362.128;  968.825;  143.475;    0.000
362.190; 1064.825;  131.475;    0.000
362.252; 1041.825;  131.475;    0.000
362.315;  995.825;  175.475;    0.000
362.377; 1034.825;  140.475;    0.000
362.439; 1063.825;  140.475;    0.000
362.501;  999.825;  140.475;    0.000
362.563; 1090.825;  152.475;    0.000
362.625; 1065.825;  174.475;    0.000
362.688; 1024.825;  195.475;    0.000
362.750; 1059.825;  221.475;    0.000
362.812; 1091.825;  171.475;    0.000
362.874; 1010.825;  117.475;    0.000
362.936; 1032.825;  162.475;    0.000
362.998;  959.825;  142.475;    0.000
363.060;  989.825;  143.475;    0.000
363.122;  985.825;  148.475;    0.000
363.184; 1050.825;  179.475;    0.000
363.246; 1049.825;  186.475;    0.000
363.308; 1045.825;  180.475;    0.000
363.370; 1016.825;  200.475;    0.000
363.432; 1050.825;  139.475;    0.000
363.494; 1006.825;  138.475;    0.000
363.556; 1046.825;  114.475;    0.000
363.618; 1042.825;  153.475;    0.000
363.680; 1061.825;  153.475;    0.000
363.742; 1076.825;  178.475;    0.000
363.804; 1004.825;  214.475;    0.000
363.866; 1074.825;  170.475;    0.000
363.928; 1070.825;  145.475;    0.000
363.990; 1088.825;  215.475;    0.000
364.052; 1057.825;  166.475;    0.000
364.114; 1027.825;  168.475;    0.000
364.176; 1104.825;  176.475;    0.000
364.238; 1132.825;  203.475;    0.000
364.300; 1121.825;  158.475;    0.000
364.362; 1050.825;  152.475;    0.000
364.424; 1053.825;  119.475;    0.000
364.486; 1139.825;  187.475;    0.000
364.548; 1175.825;  180.475;    0.000
364.609; 1058.825;  212.475;    0.000
364.671; 1102.825;  165.475;    0.000
364.733; 1112.825;  190.475;    0.000
364.795; 1017.825;  148.475;    0.000
364.857; 1165.825;  159.475;    0.000
364.919; 1080.825;  159.475;    0.000
364.981; 1118.825;  191.475;    0.000
365.042; 1149.825;  170.475;    0.000
365.104; 1096.825;  145.475;    0.000
365.166; 1036.825;  134.475;    0.000
365.228; 1137.825;  150.475;    0.000
365.290; 1108.825;  158.475;    0.000
365.351; 1062.825;  168.475;    0.000
365.413; 1053.825;  173.475;    0.000
365.475; 1075.825;  172.475;    0.000
365.537; 1062.825;  126.475;    0.000
365.598; 1119.825;  160.475;    0.000
365.660; 1116.825;  127.475;    0.000
365.722; 1080.825;  189.475;    0.000
365.784; 1111.825;  161.475;    0.000
365.845; 1096.825;  152.475;    0.000
365.907; 1119.825;  117.475;    0.000
365.969; 1101.825;  146.475;    0.000
366.030; 1151.825;  171.475;    0.000
366.092; 1153.825;  155.475;    0.000
366.154; 1121.825;  137.475;    0.000
366.215; 1105.825;  147.475;    0.000
366.277; 1078.825;  148.475;    0.000
366.339; 1113.825;  158.475;    0.000
366.400; 1054.825;  140.475;    0.000
366.462; 1082.825;  159.475;    0.000
366.524; 1092.825;  160.475;    0.000
366.585; 1086.825;  157.475;    0.000
366.647; 1170.825;  170.475;    0.000
366.708; 1108.825;  123.475;    0.000
366.770; 1162.825;  194.475;    0.000
366.832; 1141.825;  191.475;    0.000
366.893; 1138.825;  155.475;    0.000
366.955; 1136.825;  132.475;    0.000
367.016; 1161.825;  126.475;    0.000
367.078; 1124.825;  202.475;    0.000
367.139; 1082.825;  116.475;    0.000
367.201; 1130.825;  134.475;    0.000
367.262; 1081.825;  157.475;    0.000
367.324; 1068.825;  202.475;    0.000
367.385; 1101.825;  118.475;    0.000
367.447; 1200.825;  155.475;    0.000
367.508; 1134.825;  134.475;    0.000
367.570; 1084.825;  165.475;    0.000
367.631; 1085.825;  118.475;    0.000
367.693; 1134.825;  170.475;    0.000
367.754; 1149.825;  154.475;    0.000
367.816; 1154.825;  146.475;    0.000
367.877; 1171.825;  175.475;    0.000
367.939; 1194.825;  200.475;    0.000
368.000; 1138.825;  168.475;    0.000
368.062; 1122.825;  138.475;    0.000
368.123; 1122.825;  170.475;    0.000
368.184; 1133.825;  188.475;    0.000
368.246; 1100.825;  145.475;    0.000
368.307; 1140.825;  163.475;    0.000
368.369; 1182.825;  144.475;    0.000
368.430; 1112.825;  140.475;    0.000
368.491; 1140.825;  133.475;    0.000
368.553; 1165.825;  145.475;    0.000
368.614; 1159.825;  158.475;    0.000
368.675; 1112.825;  147.475;    0.000
368.737; 1101.825;  157.475;    0.000
368.798; 1143.825;  163.475;    0.000
368.859; 1168.825;  173.475;    0.000
368.921; 1127.825;  122.475;    0.000
368.982; 1119.825;  184.475;    0.000
369.043; 1134.825;  169.475;    0.000
369.104; 1143.825;  142.475;    0.000
369.166; 1161.825;  169.475;    0.000
369.227; 1211.825;  156.475;    0.000
369.288; 1109.825;  151.475;    0.000
369.349; 1138.825;  191.475;    0.000
369.411; 1183.825;  168.475;    0.000
369.472; 1146.825;  155.475;    0.000
369.533; 1145.825;  149.475;    0.000
369.594; 1092.825;  174.475;    0.000
369.656; 1204.825;  188.475;    0.000
369.717; 1121.825;  113.475;    0.000
369.778; 1222.825;  184.475;    0.000
369.839; 1150.825;  151.475;    0.000
369.900; 1097.825;  180.475;    0.000
369.961; 1245.825;  171.475;    0.000
370.023; 1214.825;  143.475;    0.000
370.084; 1178.825;  137.475;    0.000
370.145; 1158.825;  152.475;    0.000
370.206; 1202.825;  151.475;    0.000
370.267; 1136.825;  134.475;    0.000
370.328; 1150.825;  178.475;    0.000
370.389; 1204.825;  181.475;    0.000
370.451; 1186.825;  169.475;    0.000
370.512; 1180.825;  172.475;    0.000
370.573; 1147.825;  148.475;    0.000
370.634; 1236.825;  156.475;    0.000
370.695; 1197.825;  151.475;    0.000
370.756; 1206.825;  185.475;    0.000
370.817; 1241.825;  185.475;    0.000
370.878; 1193.825;  191.475;    0.000
370.939; 1161.825;  147.475;    0.000
371.000; 1192.825;  162.475;    0.000
371.061; 1194.825;  145.475;    0.000
371.122; 1168.825;  179.475;    0.000
371.183; 1160.825;  114.475;    0.000
371.244; 1218.825;  180.475;    0.000
371.305; 1241.825;  138.475;    0.000
371.366; 1186.825;  157.475;    0.000
371.427; 1229.825;  148.475;    0.000
371.488; 1289.825;  138.475;    0.000
371.549; 1206.825;  193.475;    0.000
371.610; 1212.825;  158.475;    0.000
371.671; 1178.825;  119.475;    0.000
371.732; 1192.825;  159.475;    0.000
371.793; 1196.825;  178.475;    0.000
371.853; 1192.825;  155.475;    0.000
371.914; 1193.825;  148.475;    0.000
371.975; 1212.825;  124.475;    0.000
372.036; 1247.825;  158.475;    0.000
372.097; 1175.825;  136.475;    0.000
372.158; 1199.825;  116.475;    0.000
372.219; 1246.825;  157.475;    0.000
372.280; 1229.825;  151.475;    0.000
372.340; 1319.825;  190.475;    0.000
372.401; 1153.825;  151.475;    0.000
372.462; 1219.825;  129.475;    0.000
372.523; 1162.825;  121.475;    0.000
372.584; 1254.825;  152.475;    0.000
372.645; 1219.825;  132.475;    0.000
372.705; 1244.825;  190.475;    0.000
372.766; 1221.825;  153.475;    0.000
372.827; 1182.825;  133.475;    0.000
372.888; 1254.825;  161.475;    0.000
372.948; 1215.825;  159.475;    0.000
373.009; 1233.825;  164.475;    0.000
373.070; 1208.825;  139.475;    0.000
373.131; 1254.825;  137.475;    0.000
373.191; 1336.825;  181.475;    0.000
373.252; 1211.825;  154.475;    0.000
373.313; 1222.825;  179.475;    0.000
373.373; 1197.825;  136.475;    0.000
373.434; 1312.825;  169.475;    0.000
373.495; 1245.825;   97.475;    0.000
373.555; 1247.825;  142.475;    0.000
373.616; 1220.825;  178.475;    0.000
373.677; 1234.825;  167.475;    0.000
373.737; 1225.825;  139.475;    0.000
373.798; 1300.825;  155.475;    0.000
373.859; 1315.825;  162.475;    0.000
373.919; 1261.825;  174.475;    0.000
373.980; 1282.825;  172.475;    0.000
374.041; 1200.825;  166.475;    0.000
374.101; 1289.825;  172.475;    0.000
374.162; 1259.825;  188.475;    0.000
374.222; 1280.825;  186.475;    0.000
374.283; 1272.825;  195.475;    0.000
374.343; 1373.825;  204.475;    0.000
374.404; 1272.825;  187.475;    0.000
374.465; 1331.825;  183.475;    0.000
374.525; 1271.825;  136.475;    0.000
374.586; 1209.825;  140.475;    0.000
374.646; 1310.825;  191.475;    0.000
374.707; 1319.825;  208.475;    0.000
374.767; 1269.825;  178.475;    0.000
374.828; 1277.825;  159.475;    0.000
374.888; 1332.825;  143.475;    0.000
374.949; 1262.825;  202.475;    0.000
375.009; 1373.825;  151.475;    0.000
375.070; 1316.825;  160.475;    0.000
375.130; 1306.825;  160.475;    0.000
375.190; 1343.825;  164.475;    0.000
375.251; 1302.825;  196.475;    0.000
375.311; 1296.825;  154.475;    0.000
375.372; 1361.825;  197.475;    0.000
375.432; 1326.825;  159.475;    0.000
375.493; 1311.825;  197.475;    0.000
375.553; 1278.825;  165.475;    0.000
375.613; 1315.825;  174.475;    0.000
375.674; 1312.825;  165.475;    0.000
375.734; 1338.825;  128.475;    0.000
375.794; 1317.825;  169.475;    0.000
375.855; 1268.825;  193.475;    0.000
375.915; 1363.825;  162.475;    0.000
375.975; 1303.825;  181.475;    0.000
376.036; 1334.825;  161.475;    0.000
376.096; 1314.825;  131.475;    0.000
376.156; 1257.825;  165.475;    0.000
376.217; 1301.825;  182.475;    0.000
376.277; 1313.825;  185.475;    0.000
376.337; 1350.825;  177.475;    0.000
376.398; 1274.825;  162.475;    0.000
376.458; 1326.825;  179.475;    0.000
376.518; 1276.825;  150.475;    0.000
376.578; 1316.825;  165.475;    0.000
376.639; 1324.825;  159.475;    0.000
376.699; 1328.825;  180.475;    0.000
376.759; 1302.825;  206.475;    0.000
376.819; 1285.825;  146.475;    0.000
376.880; 1301.825;  177.475;    0.000
376.940; 1311.825;  160.475;    0.000
377.000; 1297.825;  149.475;    0.000
377.060; 1322.825;  180.475;    0.000
377.120; 1316.825;  146.475;    0.000
377.180; 1386.825;  137.475;    0.000
377.241; 1343.825;  163.475;    0.000
377.301; 1400.825;  169.475;    0.000
377.361; 1368.825;  137.475;    0.000
377.421; 1343.825;  184.475;    0.000
377.481; 1392.825;  185.475;    0.000
377.541; 1377.825;  146.475;    0.000
377.601; 1301.825;  179.475;    0.000
377.661; 1361.825;  181.475;    0.000
377.722; 1425.825;  185.475;    0.000
377.782; 1445.825;  147.475;    0.000
377.842; 1384.825;  190.475;    0.000
377.902; 1348.825;  166.475;    0.000
377.962; 1368.825;  153.475;    0.000
378.022; 1370.825;  163.475;    0.000
378.082; 1432.825;  146.475;    0.000
378.142; 1455.825;  152.475;    0.000
378.202; 1395.825;  164.475;    0.000
378.262; 1447.825;  195.475;    0.000
378.322; 1362.825;  190.475;    0.000
378.382; 1401.825;  152.475;    0.000
378.442; 1477.825;  175.475;    0.000
378.502; 1393.825;  153.475;    0.000
378.562; 1439.825;  142.475;    0.000
378.622; 1402.825;  166.475;    0.000
378.682; 1408.825;  173.475;    0.000
378.742; 1446.825;  182.475;    0.000
378.802; 1394.825;  145.475;    0.000
378.862; 1527.825;  210.475;    0.000
378.921; 1524.825;  182.475;    0.000
378.981; 1467.825;  185.475;    0.000
379.041; 1454.825;  130.475;    0.000
379.101; 1510.825;  177.475;    0.000
379.161; 1487.825;  166.475;    0.000
379.221; 1491.825;  162.475;    0.000
379.281; 1459.825;  167.475;    0.000
379.341; 1460.825;  136.475;    0.000
379.401; 1482.825;  145.475;    0.000
379.460; 1493.825;  176.475;    0.000
379.520; 1527.825;  162.475;    0.000
379.580; 1557.825;  144.475;    0.000
379.640; 1475.825;  163.475;    0.000
379.700; 1524.825;  157.475;    0.000
379.759; 1524.825;  165.475;    0.000
379.819; 1541.825;  190.475;    0.000
379.879; 1528.825;  143.475;    0.000
379.939; 1537.825;  188.475;    0.000
379.999; 1543.825;  141.475;    0.000
380.058; 1463.825;  169.475;    0.000
380.118; 1518.825;  158.475;    0.000
380.178; 1557.825;  114.475;    0.000
380.237; 1632.825;  157.475;    0.000
380.297; 1583.825;  177.475;    0.000
380.357; 1547.825;  189.475;    0.000
380.417; 1564.825;  182.475;    0.000
380.476; 1558.825;  178.475;    0.000
380.536; 1571.825;  189.475;    0.000
380.596; 1615.825;  183.475;    0.000
380.655; 1605.825;  195.475;    0.000
380.715; 1523.825;  170.475;    0.000
380.775; 1636.825;  170.475;    0.000
380.834; 1657.825;  179.475;    0.000
380.894; 1553.825;  188.475;    0.000
380.954; 1596.825;  142.475;    0.000
381.013; 1653.825;  178.475;    0.000
381.073; 1599.825;  164.475;    0.000
381.132; 1700.825;  192.475;    0.000
381.192; 1590.825;  187.475;    0.000
381.252; 1675.825;  176.475;    0.000
381.311; 1660.825;  206.475;    0.000
381.371; 1685.825;  167.475;    0.000
381.430; 1693.825;  131.475;    0.000
381.490; 1660.825;  150.475;    0.000
381.549; 1653.825;  129.475;    0.000
381.609; 1759.825;  178.475;    0.000
381.668; 1764.825;  194.475;    0.000
381.728; 1750.825;  210.475;    0.000
381.787; 1699.825;  190.475;    0.000
381.847; 1762.825;  181.475;    0.000
381.906; 1685.825;  156.475;    0.000
381.966; 1761.825;  176.475;    0.000
382.025; 1746.825;  186.475;    0.000
382.085; 1761.825;  192.475;    0.000
382.144; 1814.825;  173.475;    0.000
382.204; 1804.825;  207.475;    0.000
382.263; 1866.825;  193.475;    0.000
382.323; 1870.825;  164.475;    0.000
382.382; 1892.825;  161.475;    0.000
382.441; 1938.825;  199.475;    0.000
382.501; 2029.825;  208.475;    0.000
382.560; 2010.825;  173.475;    0.000
382.619; 2006.825;  179.475;    0.000
382.679; 2209.825;  177.475;    0.000
382.738; 2224.825;  190.475;    0.000
382.798; 2370.825;  213.475;    0.000
382.857; 2554.825;  195.475;    0.000
382.916; 2728.825;  184.475;    0.000
382.976; 2814.825;  169.475;    0.000
383.035; 2625.825;  194.475;    0.000
383.094; 2742.825;  185.475;    0.000
383.154; 3056.825;  198.475;    0.000
383.213; 3445.825;  147.475;    0.000
383.272; 3276.825;  175.475;    0.000
383.331; 2766.825;  122.475;    0.000
383.391; 2646.825;  185.475;    0.000
383.450; 2605.825;  160.475;    0.000
383.509; 2556.825;  168.475;    0.000
383.568; 2561.825;  196.475;    0.000
383.628; 2698.825;  156.475;    0.000
383.687; 2926.825;  171.475;    0.000
383.746; 3342.825;  155.475;    0.000
383.805; 3829.825;  201.475;    0.000
383.864; 3828.825;  125.475;    0.000
383.924; 3094.825;  213.475;    0.000
383.983; 2506.825;  188.475;    0.000
384.042; 2396.825;  162.475;    0.000
384.101; 2306.825;  183.475;    0.000
384.160; 2125.825;  155.475;    0.000
384.219; 2090.825;  155.475;    0.000
384.279; 1954.825;  189.475;    0.000
384.338; 1965.825;  156.475;    0.000
384.397; 1904.825;  148.475;    0.000
384.456; 1972.825;  154.475;    0.000
384.515; 1982.825;  160.475;    0.000
384.574; 1948.825;  223.475;    0.000
384.633; 1912.825;  133.475;    0.000
384.692; 1925.825;  163.475;    0.000
384.751; 1851.825;  186.475;    0.000
384.810; 1916.825;  187.475;    0.000
384.869; 1865.825;  172.475;    0.000
384.929; 1813.825;  153.475;    0.000
384.988; 1732.825;  174.475;    0.000
385.047; 1889.825;  154.475;    0.000
385.106; 1817.825;  164.475;    0.000
385.165; 1768.825;  151.475;    0.000
385.224; 1782.825;  147.475;    0.000
385.283; 1857.825;  176.475;    0.000
385.342; 1746.825;  142.475;    0.000
385.401; 1834.825;  175.475;    0.000
385.459; 1777.825;  150.475;    0.000
385.518; 1756.825;  124.475;    0.000
385.577; 1822.825;  115.475;    0.000
385.636; 1850.825;  174.475;    0.000
385.695; 1884.825;  158.475;    0.000
385.754; 1812.825;  150.475;    0.000
385.813; 1805.825;  129.475;    0.000
385.872; 1790.825;  146.475;    0.000
385.931; 1874.825;  194.475;    0.000
385.990; 1749.825;  174.475;    0.000
386.049; 1777.825;  176.475;    0.000
386.107; 1794.825;  151.475;    0.000
386.166; 1822.825;  178.475;    0.000
386.225; 1760.825;  162.475;    0.000
386.284; 1730.825;  180.475;    0.000
386.343; 1690.825;  171.475;    0.000
386.402; 1746.825;  176.475;    0.000
386.460; 1778.825;  144.475;    0.000
386.519; 1793.825;  140.475;    0.000
386.578; 1682.825;  145.475;    0.000
386.637; 1852.825;  164.475;    0.000
386.696; 1786.825;  189.475;    0.000
386.754; 1742.825;  135.475;    0.000
386.813; 1800.825;  139.475;    0.000
386.872; 1718.825;  121.475;    0.000
386.931; 1797.825;  153.475;    0.000
386.989; 1830.825;  211.475;    0.000
387.048; 1824.825;  156.475;    0.000
387.107; 1857.825;  210.475;    0.000
387.165; 1780.825;  129.475;    0.000
387.224; 1792.825;  205.475;    0.000
387.283; 1770.825;  130.475;    0.000
387.342; 1805.825;  171.475;    0.000
387.400; 1794.825;  156.475;    0.000
387.459; 1733.825;  141.475;    0.000
387.517; 1843.825;  219.475;    0.000
387.576; 1714.825;  166.475;    0.000
387.635; 1774.825;  136.475;    0.000
387.693; 1792.825;  191.475;    0.000
387.752; 1746.825;  165.475;    0.000
387.811; 1713.825;  158.475;    0.000
387.869; 1758.825;  204.475;    0.000
387.928; 1736.825;  149.475;    0.000
387.986; 1781.825;  156.475;    0.000
388.045; 1710.825;  123.475;    0.000
388.103; 1750.825;  150.475;    0.000
388.162; 1726.825;  173.475;    0.000
388.221; 1801.825;  143.475;    0.000
388.279; 1708.825;  129.475;    0.000
388.338; 1824.825;  212.475;    0.000
388.396; 1706.825;  150.475;    0.000
388.455; 1760.825;  167.475;    0.000
388.513; 1730.825;  116.475;    0.000
388.572; 1701.825;  181.475;    0.000
388.630; 1783.825;  187.475;    0.000
388.689; 1744.825;  180.475;    0.000
388.747; 1757.825;  154.475;    0.000
388.806; 1712.825;  161.475;    0.000
388.864; 1710.825;  167.475;    0.000
388.922; 1749.825;  184.475;    0.000
388.981; 1753.825;  169.475;    0.000
389.039; 1710.825;  102.475;    0.000
389.098; 1677.825;  183.475;    0.000
389.156; 1696.825;  182.475;    0.000
389.214; 1768.825;  173.475;    0.000
389.273; 1742.825;  167.475;    0.000
389.331; 1726.825;  170.475;    0.000
389.390; 1760.825;  150.475;    0.000
389.448; 1773.825;  156.475;    0.000
389.506; 1785.825;  149.475;    0.000
389.565; 1716.825;  162.475;    0.000
389.623; 1760.825;  188.475;    0.000
389.681; 1769.825;  204.475;    0.000
389.740; 1794.825;  187.475;    0.000
389.798; 1748.825;  153.475;    0.000
389.856; 1765.825;  214.475;    0.000
389.914; 1777.825;  177.475;    0.000
389.973; 1764.825;  189.475;    0.000
390.031; 1774.825;  178.475;    0.000
390.089; 1741.825;  163.475;    0.000
390.147; 1768.825;  170.475;    0.000
390.206; 1714.825;  183.475;    0.000
390.264; 1719.825;  161.475;    0.000
390.322; 1694.825;  148.475;    0.000
390.380; 1702.825;  138.475;    0.000
390.439; 1695.825;  194.475;    0.000
390.497; 1768.825;  170.475;    0.000
390.555; 1741.825;  165.475;    0.000
390.613; 1780.825;  177.475;    0.000
390.671; 1782.825;  170.475;    0.000
390.729; 1685.825;  158.475;    0.000
390.788; 1761.825;  162.475;    0.000
390.846; 1678.825;  161.475;    0.000
390.904; 1743.825;  197.475;    0.000
390.962; 1730.825;  212.475;    0.000
391.020; 1716.825;  224.475;    0.000
391.078; 1758.825;  184.475;    0.000
391.136; 1786.825;  191.475;    0.000
391.194; 1797.825;  187.475;    0.000
391.253; 1750.825;  197.475;    0.000
391.311; 1733.825;  185.475;    0.000
391.369; 1762.825;  207.475;    0.000
391.427; 1786.825;  222.475;    0.000
391.485; 1790.825;  184.475;    0.000
391.543; 1796.825;  203.475;    0.000
391.601; 1684.825;  151.475;    0.000
391.659; 1770.825;  176.475;    0.000
391.717; 1830.825;  190.475;    0.000
391.775; 1820.825;  159.475;    0.000
391.833; 1769.825;  186.475;    0.000
391.891; 1729.825;  154.475;    0.000
391.949; 1804.825;  181.475;    0.000
392.007; 1834.825;  190.475;    0.000
392.065; 1759.825;  182.475;    0.000
392.123; 1774.825;  158.475;    0.000
392.180; 1812.825;  198.475;    0.000
392.238; 1829.825;  191.475;    0.000
392.296; 1872.825;  164.475;    0.000
392.354; 1779.825;  172.475;    0.000
392.412; 1854.825;  194.475;    0.000
392.470; 1899.825;  154.475;    0.000
392.528; 1842.825;  172.475;    0.000
392.586; 1809.825;  179.475;    0.000
392.644; 1837.825;  173.475;    0.000
392.701; 1842.825;  202.475;    0.000
392.759; 1865.825;  180.475;    0.000
392.817; 1828.825;  181.475;    0.000
392.875; 1716.825;  168.475;    0.000
392.933; 1806.825;  161.475;    0.000
392.991; 1892.825;  216.475;    0.000
393.048; 1862.825;  197.475;    0.000
393.106; 1877.825;  199.475;    0.000
393.164; 1797.825;  173.475;    0.000
393.222; 1890.825;  179.475;    0.000
393.279; 1857.825;  209.475;    0.000
393.337; 1888.825;  185.475;    0.000
393.395; 1900.825;  174.475;    0.000
393.453; 1812.825;  181.475;    0.000
393.510; 1852.825;  188.475;    0.000
393.568; 1824.825;  191.475;    0.000
393.626; 1869.825;  151.475;    0.000
393.684; 1865.825;  208.475;    0.000
393.741; 1865.825;  179.475;    0.000
393.799; 1835.825;  149.475;    0.000
393.857; 1861.825;  136.475;    0.000
393.914; 1844.825;  190.475;    0.000
393.972; 1862.825;  155.475;    0.000
394.030; 1882.825;  170.475;    0.000
394.087; 1919.825;  213.475;    0.000
394.145; 1952.825;  191.475;    0.000
394.202; 1825.825;  188.475;    0.000
394.260; 1826.825;  168.475;    0.000
394.318; 1840.825;  176.475;    0.000
394.375; 1857.825;  159.475;    0.000
394.433; 1791.825;  168.475;    0.000
394.490; 1818.825;  163.475;    0.000
394.548; 1838.825;  163.475;    0.000
394.605; 1851.825;  181.475;    0.000
394.663; 1888.825;  180.475;    0.000
394.720; 1855.825;  193.475;    0.000
394.778; 1946.825;  168.475;    0.000
394.836; 1810.825;  128.475;    0.000
394.893; 1859.825;  151.475;    0.000
394.951; 1875.825;  173.475;    0.000
395.008; 1903.825;  201.475;    0.000
395.065; 1824.825;  139.475;    0.000
395.123; 1922.825;  173.475;    0.000
395.180; 1915.825;  144.475;    0.000
395.238; 1923.825;  135.475;    0.000
395.295; 2009.825;  167.475;    0.000
395.353; 1905.825;  150.475;    0.000
395.410; 2000.825;  165.475;    0.000
395.468; 1945.825;  223.475;    0.000
395.525; 1983.825;  156.475;    0.000
395.582; 1930.825;  178.475;    0.000
395.640; 1958.825;  178.475;    0.000
395.697; 2015.825;  173.475;    0.000
395.754; 1916.825;  154.475;    0.000
395.812; 1945.825;  169.475;    0.000
395.869; 1998.825;  196.475;    0.000
395.927; 1976.825;  190.475;    0.000
395.984; 1999.825;  195.475;    0.000
396.041; 1983.825;  160.475;    0.000
396.098; 2028.825;  161.475;    0.000
396.156; 2010.825;  187.475;    0.000
396.213; 1983.825;  200.475;    0.000
396.270; 1939.825;  160.475;    0.000
396.328; 1965.825;  113.475;    0.000
396.385; 1979.825;  165.475;    0.000
396.442; 2042.825;  168.475;    0.000
396.499; 1893.825;  117.475;    0.000
396.557; 1985.825;  203.475;    0.000
396.614; 1944.825;  155.475;    0.000
396.671; 1997.825;  187.475;    0.000
396.728; 2034.825;  169.475;    0.000
396.785; 1980.825;  167.475;    0.000
396.843; 2032.825;  154.475;    0.000
396.900; 1941.825;  172.475;    0.000
396.957; 1962.825;  176.475;    0.000
397.014; 1996.825;  193.475;    0.000
397.071; 2021.825;  170.475;    0.000
397.128; 1991.825;  172.475;    0.000
397.186; 2078.825;  205.475;    0.000
397.243; 2036.825;  163.475;    0.000
397.300; 2043.825;  193.475;    0.000
397.357; 2030.825;  166.475;    0.000
397.414; 1971.825;  149.475;    0.000
397.471; 1978.825;  157.475;    0.000
397.528; 1989.825;  180.475;    0.000
397.585; 2045.825;  203.475;    0.000
397.642; 2086.825;  156.475;    0.000
397.699; 2071.825;  229.475;    0.000
397.756; 2090.825;  185.475;    0.000
397.814; 2028.825;  191.475;    0.000
397.871; 2028.825;  170.475;    0.000
397.928; 2062.825;  191.475;    0.000
397.985; 2065.825;  183.475;    0.000
398.042; 2086.825;  161.475;    0.000
398.099; 2103.825;  192.475;    0.000
398.156; 2077.825;  176.475;    0.000
398.212; 2096.825;  170.475;    0.000
398.269; 2134.825;  158.475;    0.000
398.326; 2034.825;  175.475;    0.000
398.383; 2099.825;  177.475;    0.000
398.440; 2012.825;  169.475;    0.000
398.497; 2139.825;  184.475;    0.000
398.554; 2114.825;  196.475;    0.000
398.611; 2214.825;  198.475;    0.000
398.668; 2069.825;  135.475;    0.000
398.725; 2127.825;  181.475;    0.000
398.782; 2165.825;  195.475;    0.000
398.839; 2228.825;  179.475;    0.000
398.895; 2130.825;  188.475;    0.000
398.952; 2180.825;  176.475;    0.000
399.009; 2165.825;  183.475;    0.000
399.066; 2188.825;  190.475;    0.000
399.123; 2237.825;  174.475;    0.000
399.180; 2282.825;  191.475;    0.000
399.236; 2247.825;  217.475;    0.000
399.293; 2268.825;  154.475;    0.000
399.350; 2299.825;  210.475;    0.000
399.407; 2362.825;  202.475;    0.000
399.463; 2300.825;  162.475;    0.000
399.520; 2307.825;  207.475;    0.000
399.577; 2381.825;  174.475;    0.000
399.634; 2441.825;  170.475;    0.000
399.690; 2364.825;  186.475;    0.000
399.747; 2395.825;  218.475;    0.000
399.804; 2279.825;  200.475;    0.000
399.861; 2436.825;  190.475;    0.000
399.917; 2372.825;  218.475;    0.000
399.974; 2307.825;  200.475;    0.000
400.031; 2365.825;  200.475;    0.000
400.087; 2367.825;  153.475;    0.000
400.144; 2399.825;  188.475;    0.000
400.201; 2471.825;  198.475;    0.000
400.257; 2259.825;  205.475;    0.000
400.314; 2352.825;  183.475;    0.000
400.370; 2363.825;  227.475;    0.000
400.427; 2257.825;  177.475;    0.000
400.484; 2321.825;  202.475;    0.000
400.540; 2295.825;  173.475;    0.000
400.597; 2319.825;  212.475;    0.000
400.653; 2263.825;  182.475;    0.000
400.710; 2310.825;  201.475;    0.000
400.766; 2322.825;  188.475;    0.000
400.823; 2293.825;  205.475;    0.000
400.879; 2271.825;  165.475;    0.000
400.936; 2233.825;  180.475;    0.000
400.993; 2296.825;  181.475;    0.000
401.049; 2236.825;  147.475;    0.000
401.105; 2254.825;  205.475;    0.000
401.162; 2277.825;  197.475;    0.000
401.218; 2302.825;  177.475;    0.000
401.275; 2207.825;  183.475;    0.000
401.331; 2321.825;  198.475;    0.000
401.388; 2302.825;  209.475;    0.000
401.444; 2308.825;  211.475;    0.000
401.501; 2278.825;  185.475;    0.000
401.557; 2221.825;  190.475;    0.000
401.614; 2218.825;  172.475;    0.000
401.670; 2216.825;  185.475;    0.000
401.726; 2291.825;  196.475;    0.000
401.783; 2234.825;  187.475;    0.000
401.839; 2260.825;  192.475;    0.000
401.895; 2356.825;  173.475;    0.000
401.952; 2231.825;  145.475;    0.000
402.008; 2311.825;  197.475;    0.000
402.064; 2248.825;  146.475;    0.000
402.121; 2279.825;  197.475;    0.000
402.177; 2237.825;  173.475;    0.000
402.233; 2343.825;  185.475;    0.000
402.290; 2289.825;  175.475;    0.000
402.346; 2257.825;  164.475;    0.000
402.402; 2307.825;  173.475;    0.000
402.458; 2348.825;  183.475;    0.000
402.515; 2355.825;  147.475;    0.000
402.571; 2366.825;  210.475;    0.000
402.627; 2318.825;  181.475;    0.000
402.683; 2321.825;  177.475;    0.000
402.740; 2297.825;  162.475;    0.000
402.796; 2257.825;  178.475;    0.000
402.852; 2312.825;  138.475;    0.000
402.908; 2388.825;  181.475;    0.000
402.964; 2308.825;  151.475;    0.000
403.021; 2326.825;  170.475;    0.000
403.077; 2358.825;  204.475;    0.000
403.133; 2309.825;  144.475;    0.000
403.189; 2351.825;  207.475;    0.000
403.245; 2309.825;  184.475;    0.000
403.301; 2394.825;  170.475;    0.000
403.357; 2390.825;  201.475;    0.000
403.414; 2324.825;  205.475;    0.000
403.470; 2393.825;  170.475;    0.000
403.526; 2332.825;  135.475;    0.000
403.582; 2338.825;  180.475;    0.000
403.638; 2274.825;  185.475;    0.000
403.694; 2407.825;  169.475;    0.000
403.750; 2356.825;  210.475;    0.000
403.806; 2387.825;  210.475;    0.000
403.862; 2360.825;  219.475;    0.000
403.918; 2356.825;  191.475;    0.000
403.974; 2401.825;  193.475;    0.000
404.030; 2325.825;  154.475;    0.000
404.086; 2399.825;  170.475;    0.000
404.142; 2411.825;  194.475;    0.000
404.198; 2379.825;  224.475;    0.000
404.254; 2460.825;  177.475;    0.000
404.310; 2352.825;  204.475;    0.000
404.366; 2387.825;  170.475;    0.000
404.422; 2307.825;  172.475;    0.000
404.478; 2453.825;  153.475;    0.000
404.534; 2353.825;  159.475;    0.000
404.590; 2375.825;  203.475;    0.000
404.646; 2423.825;  164.475;    0.000
404.701; 2413.825;  141.475;    0.000
404.757; 2508.825;  195.475;    0.000
404.813; 2332.825;  152.475;    0.000
404.869; 2489.825;  174.475;    0.000
404.925; 2397.825;  167.475;    0.000
404.981; 2484.825;  175.475;    0.000
405.037; 2443.825;  170.475;    0.000
405.092; 2453.825;  155.475;    0.000
405.148; 2382.825;  160.475;    0.000
405.204; 2364.825;  158.475;    0.000
405.260; 2451.825;  128.475;    0.000
405.316; 2377.825;  168.475;    0.000
405.371; 2428.825;  162.475;    0.000
405.427; 2584.825;  187.475;    0.000
405.483; 2469.825;  214.475;    0.000
405.539; 2437.825;  163.475;    0.000
405.594; 2510.825;  191.475;    0.000
405.650; 2401.825;  124.475;    0.000
405.706; 2475.825;  188.475;    0.000
405.761; 2532.825;  204.475;    0.000
405.817; 2386.825;  150.475;    0.000
405.873; 2456.825;  152.475;    0.000
405.928; 2462.825;  135.475;    0.000
405.984; 2481.825;  209.475;    0.000
406.040; 2513.825;  165.475;    0.000
406.095; 2474.825;  146.475;    0.000
406.151; 2479.825;  169.475;    0.000
406.207; 2578.825;  174.475;    0.000
406.262; 2424.825;  189.475;    0.000
406.318; 2478.825;  141.475;    0.000
406.374; 2420.825;  178.475;    0.000
406.429; 2581.825;  197.475;    0.000
406.485; 2520.825;  194.475;    0.000
406.540; 2585.825;  149.475;    0.000
406.596; 2602.825;  173.475;    0.000
406.651; 2669.825;  154.475;    0.000
406.707; 2618.825;  183.475;    0.000
406.763; 2603.825;  156.475;    0.000
406.818; 2552.825;  181.475;    0.000
406.874; 2526.825;  135.475;    0.000
406.929; 2656.825;  194.475;    0.000
406.985; 2732.825;  166.475;    0.000
407.040; 2661.825;  207.475;    0.000
407.095; 2621.825;  213.475;    0.000
407.151; 2676.825;  198.475;    0.000
407.206; 2653.825;  186.475;    0.000
407.262; 2679.825;  148.475;    0.000
407.317; 2746.825;  212.475;    0.000
407.373; 2728.825;  209.475;    0.000
407.428; 2725.825;  218.475;    0.000
407.484; 2756.825;  158.475;    0.000
407.539; 2723.825;  165.475;    0.000
407.594; 2800.825;  197.475;    0.000
407.650; 2671.825;  177.475;    0.000
407.705; 2688.825;  154.475;    0.000
407.760; 2763.825;  198.475;    0.000
407.816; 2741.825;  181.475;    0.000
407.871; 2747.825;  185.475;    0.000
407.926; 2741.825;  167.475;    0.000
407.982; 2787.825;  172.475;    0.000
408.037; 2751.825;  202.475;    0.000
408.092; 2710.825;  201.475;    0.000
408.148; 2741.825;  199.475;    0.000
408.203; 2706.825;  174.475;    0.000
408.258; 2681.825;  157.475;    0.000
408.314; 2707.825;  194.475;    0.000
408.369; 2658.825;  189.475;    0.000
408.424; 2702.825;  204.475;    0.000
408.479; 2792.825;  192.475;    0.000
408.534; 2720.825;  215.475;    0.000
408.590; 2663.825;  190.475;    0.000
408.645; 2660.825;  159.475;    0.000
408.700; 2664.825;  191.475;    0.000
408.755; 2653.825;  217.475;    0.000
408.810; 2663.825;  158.475;    0.000
408.866; 2669.825;  166.475;    0.000
408.921; 2593.825;  214.475;    0.000
408.976; 2705.825;  158.475;    0.000
409.031; 2768.825;  185.475;    0.000
409.086; 2665.825;  158.475;    0.000
409.141; 2776.825;  180.475;    0.000
409.196; 2704.825;  188.475;    0.000
409.252; 2726.825;  186.475;    0.000
409.307; 2617.825;  135.475;    0.000
409.362; 2724.825;  162.475;    0.000
409.417; 2643.825;  149.475;    0.000
409.472; 2593.825;  205.475;    0.000
409.527; 2692.825;  184.475;    0.000
409.582; 2718.825;  174.475;    0.000
409.637; 2733.825;  188.475;    0.000
409.692; 2721.825;  211.475;    0.000
409.747; 2680.825;  159.475;    0.000
409.802; 2671.825;  199.475;    0.000
409.857; 2718.825;  118.475;    0.000
409.912; 2674.825;  177.475;    0.000
409.967; 2680.825;  182.475;    0.000
410.022; 2625.825;  188.475;    0.000
410.077; 2735.825;  204.475;    0.000
410.132; 2554.825;  174.475;    0.000
410.187; 2656.825;  169.475;    0.000
410.242; 2675.825;  178.475;    0.000
410.297; 2586.825;  185.475;    0.000
410.351; 2699.825;  203.475;    0.000
410.406; 2774.825;  180.475;    0.000
410.461; 2641.825;  213.475;    0.000
410.516; 2667.825;  198.475;    0.000
410.571; 2622.825;  171.475;    0.000
410.626; 2703.825;  186.475;    0.000
410.681; 2770.825;  187.475;    0.000
410.736; 2614.825;  147.475;    0.000
410.790; 2739.825;  186.475;    0.000
410.845; 2818.825;  152.475;    0.000
410.900; 2743.825;  202.475;    0.000
410.955; 2652.825;  196.475;    0.000
411.010; 2672.825;  150.475;    0.000
411.064; 2713.825;  200.475;    0.000
411.119; 2672.825;  203.475;    0.000
411.174; 2641.825;  176.475;    0.000
411.229; 2785.825;  203.475;    0.000
411.283; 2711.825;  176.475;    0.000
411.338; 2708.825;  153.475;    0.000
411.393; 2699.825;  168.475;    0.000
411.447; 2730.825;  223.475;    0.000
411.502; 2698.825;  238.475;    0.000
411.557; 2657.825;  179.475;    0.000
411.612; 2735.825;  159.475;    0.000
411.666; 2721.825;  189.475;    0.000
411.721; 2678.825;  212.475;    0.000
411.776; 2790.825;  242.475;    0.000
411.830; 2700.825;  194.475;    0.000
411.885; 2731.825;  188.475;    0.000
411.939; 2702.825;  245.475;    0.000
411.994; 2718.825;  177.475;    0.000
412.049; 2654.825;  170.475;    0.000
412.103; 2779.825;  196.475;    0.000
412.158; 2713.825;  215.475;    0.000
412.212; 2776.825;  199.475;    0.000
412.267; 2784.825;  191.475;    0.000
412.322; 2682.825;  238.475;    0.000
412.376; 2755.825;  243.475;    0.000
412.431; 2674.825;  214.475;    0.000
412.485; 2729.825;  210.475;    0.000
412.540; 2635.825;  200.475;    0.000
412.594; 2744.825;  174.475;    0.000
412.649; 2791.825;  246.475;    0.000
412.703; 2644.825;  182.475;    0.000
412.758; 2788.825;  222.475;    0.000
412.812; 2651.825;  201.475;    0.000
412.866; 2701.825;  162.475;    0.000
412.921; 2685.825;  202.475;    0.000
412.975; 2719.825;  212.475;    0.000
413.030; 2727.825;  238.475;    0.000
413.084; 2623.825;  201.475;    0.000
413.139; 2610.825;  210.475;    0.000
413.193; 2700.825;  218.475;    0.000
413.247; 2695.825;  203.475;    0.000
413.302; 2655.825;  176.475;    0.000
413.356; 2677.825;  215.475;    0.000
413.410; 2644.825;  204.475;    0.000
413.465; 2557.825;  186.475;    0.000
413.519; 2689.825;  196.475;    0.000
413.573; 2669.825;  181.475;    0.000
413.628; 2692.825;  200.475;    0.000
413.682; 2733.825;  157.475;    0.000
413.736; 2670.825;  194.475;    0.000
413.791; 2700.825;  193.475;    0.000
413.845; 2668.825;  225.475;    0.000
413.899; 2713.825;  195.475;    0.000
413.953; 2754.825;  173.475;    0.000
414.008; 2602.825;  186.475;    0.000
414.062; 2623.825;  217.475;    0.000
414.116; 2639.825;  169.475;    0.000
414.170; 2662.825;  228.475;    0.000
414.225; 2612.825;  177.475;    0.000
414.279; 2744.825;  210.475;    0.000
414.333; 2751.825;  207.475;    0.000
414.387; 2673.825;  217.475;    0.000
414.441; 2642.825;  187.475;    0.000
414.496; 2727.825;  215.475;    0.000
414.550; 2731.825;  204.475;    0.000
414.604; 2701.825;  206.475;    0.000
414.658; 2660.825;  139.475;    0.000
414.712; 2682.825;  198.475;    0.000
414.766; 2711.825;  208.475;    0.000
414.820; 2639.825;  199.475;    0.000
414.874; 2698.825;  216.475;    0.000
414.928; 2685.825;  186.475;    0.000
414.982; 2714.825;  176.475;    0.000
415.037; 2659.825;  181.475;    0.000
415.091; 2693.825;  208.475;    0.000
415.145; 2696.825;  209.475;    0.000
415.199; 2696.825;  186.475;    0.000
415.253; 2608.825;  203.475;    0.000
415.307; 2699.825;  197.475;    0.000
415.361; 2770.825;  223.475;    0.000
415.415; 2649.825;  213.475;    0.000
415.469; 2757.825;  226.475;    0.000
415.523; 2735.825;  222.475;    0.000
415.577; 2679.825;  205.475;    0.000
415.631; 2796.825;  224.475;    0.000
415.684; 2650.825;  193.475;    0.000
415.738; 2672.825;  224.475;    0.000
415.792; 2697.825;  204.475;    0.000
415.846; 2673.825;  189.475;    0.000
415.900; 2715.825;  223.475;    0.000
415.954; 2612.825;  187.475;    0.000
416.008; 2709.825;  237.475;    0.000
416.062; 2578.825;  195.475;    0.000
416.116; 2672.825;  223.475;    0.000
416.169; 2707.825;  210.475;    0.000
416.223; 2711.825;  232.475;    0.000
416.277; 2594.825;  227.475;    0.000
416.331; 2704.825;  216.475;    0.000
416.385; 2621.825;  186.475;    0.000
416.439; 2727.825;  226.475;    0.000
416.492; 2681.825;  229.475;    0.000
416.546; 2620.825;  216.475;    0.000
416.600; 2663.825;  211.475;    0.000
416.654; 2640.825;  226.475;    0.000
416.707; 2651.825;  248.475;    0.000
416.761; 2596.825;  217.475;    0.000
416.815; 2631.825;  207.475;    0.000
416.869; 2615.825;  226.475;    0.000
416.922; 2625.825;  192.475;    0.000
416.976; 2799.825;  205.475;    0.000
417.030; 2625.825;  233.475;    0.000
417.083; 2637.825;  226.475;    0.000
417.137; 2667.825;  222.475;    0.000
417.191; 2626.825;  217.475;    0.000
417.244; 2583.825;  221.475;    0.000
417.298; 2582.825;  201.475;    0.000
417.352; 2620.825;  170.475;    0.000
417.405; 2715.825;  234.475;    0.000
417.459; 2740.825;  241.475;    0.000
417.512; 2729.825;  247.475;    0.000
417.566; 2628.825;  219.475;    0.000
417.620; 2727.825;  228.475;    0.000
417.673; 2631.825;  192.475;    0.000
417.727; 2695.825;  203.475;    0.000
417.780; 2746.825;  204.475;    0.000
417.834; 2611.825;  234.475;    0.000
417.887; 2649.825;  245.475;    0.000
417.941; 2745.825;  211.475;    0.000
417.994; 2705.825;  244.475;    0.000
418.048; 2634.825;  203.475;    0.000
418.101; 2571.825;  212.475;    0.000
418.155; 2618.825;  251.475;    0.000
418.208; 2676.825;  286.475;    0.000
418.262; 2630.825;  243.475;    0.000
418.315; 2674.825;  214.475;    0.000
418.369; 2613.825;  269.475;    0.000
418.422; 2664.825;  222.475;    0.000
418.476; 2643.825;  226.475;    0.000
418.529; 2672.825;  238.475;    0.000
418.582; 2698.825;  210.475;    0.000
418.636; 2692.825;  221.475;    0.000
418.689; 2683.825;  224.475;    0.000
418.743; 2689.825;  228.475;    0.000
418.796; 2709.825;  192.475;    0.000
418.849; 2716.825;  230.475;    0.000
418.903; 2649.825;  257.475;    0.000
418.956; 2691.825;  241.475;    0.000
419.009; 2706.825;  247.475;    0.000
419.063; 2696.825;  235.475;    0.000
419.116; 2649.825;  218.475;    0.000
419.169; 2648.825;  219.475;    0.000
419.222; 2705.825;  215.475;    0.000
419.276; 2760.825;  202.475;    0.000
419.329; 2641.825;  210.475;    0.000
419.382; 2560.825;  188.475;    0.000
419.435; 2635.825;  222.475;    0.000
419.489; 2602.825;  232.475;    0.000
419.542; 2627.825;  250.475;    0.000
419.595; 2672.825;  240.475;    0.000
419.648; 2679.825;  261.475;    0.000
419.701; 2663.825;  222.475;    0.000
419.755; 2688.825;  233.475;    0.000
419.808; 2637.825;  178.475;    0.000
419.861; 2633.825;  207.475;    0.000
419.914; 2669.825;  223.475;    0.000
419.967; 2623.825;  216.475;    0.000
420.020; 2609.825;  211.475;    0.000
420.073; 2606.825;  200.475;    0.000
420.127; 2636.825;  248.475;    0.000
420.180; 2548.825;  220.475;    0.000
420.233; 2615.825;  215.475;    0.000
420.286; 2608.825;  222.475;    0.000
420.339; 2584.825;  229.475;    0.000
420.392; 2603.825;  245.475;    0.000
420.445; 2519.825;  221.475;    0.000
420.498; 2591.825;  224.475;    0.000
420.551; 2567.825;  170.475;    0.000
420.604; 2601.825;  237.475;    0.000
420.657; 2561.825;  235.475;    0.000
420.710; 2641.825;  223.475;    0.000
420.763; 2585.825;  219.475;    0.000
420.816; 2479.825;  200.475;    0.000
420.869; 2538.825;  197.475;    0.000
420.922; 2638.825;  212.475;    0.000
420.975; 2568.825;  274.475;    0.000
421.028; 2564.825;  228.475;    0.000
421.081; 2551.825;  243.475;    0.000
421.134; 2524.825;  227.475;    0.000
421.187; 2606.825;  245.475;    0.000
421.239; 2521.825;  210.475;    0.000
421.292; 2465.825;  193.475;    0.000
421.345; 2543.825;  226.475;    0.000
421.398; 2603.825;  226.475;    0.000
421.451; 2542.825;  259.475;    0.000
421.504; 2542.825;  204.475;    0.000
421.557; 2610.825;  215.475;    0.000
421.609; 2525.825;  194.475;    0.000
421.662; 2509.825;  216.475;    0.000
421.715; 2578.825;  226.475;    0.000
421.768; 2552.825;  177.475;    0.000
421.821; 2472.825;  210.475;    0.000
421.873; 2556.825;  208.475;    0.000
421.926; 2586.825;  223.475;    0.000
421.979; 2536.825;  230.475;    0.000
422.032; 2521.825;  227.475;    0.000
422.084; 2517.825;  234.475;    0.000
422.137; 2461.825;  207.475;    0.000
422.190; 2500.825;  228.475;    0.000
422.243; 2531.825;  206.475;    0.000
422.295; 2546.825;  236.475;    0.000
422.348; 2448.825;  232.475;    0.000
422.401; 2532.825;  228.475;    0.000
422.453; 2511.825;  239.475;    0.000
422.506; 2535.825;  226.475;    0.000
422.559; 2512.825;  205.475;    0.000
422.611; 2461.825;  235.475;    0.000
422.664; 2431.825;  231.475;    0.000
422.716; 2519.825;  228.475;    0.000
422.769; 2429.825;  204.475;    0.000
422.822; 2489.825;  205.475;    0.000
422.874; 2426.825;  228.475;    0.000
422.927; 2543.825;  266.475;    0.000
422.979; 2523.825;  223.475;    0.000
423.032; 2444.825;  207.475;    0.000
423.084; 2504.825;  211.475;    0.000
423.137; 2546.825;  205.475;    0.000
423.189; 2511.825;  254.475;    0.000
423.242; 2413.825;  208.475;    0.000
423.294; 2487.825;  240.475;    0.000
423.347; 2511.825;  218.475;    0.000
423.399; 2516.825;  237.475;    0.000
423.452; 2537.825;  242.475;    0.000
423.504; 2470.825;  225.475;    0.000
423.557; 2477.825;  195.475;    0.000
423.609; 2427.825;  206.475;    0.000
423.662; 2521.825;  211.475;    0.000
423.714; 2430.825;  252.475;    0.000
423.766; 2512.825;  181.475;    0.000
423.819; 2494.825;  216.475;    0.000
423.871; 2537.825;  216.475;    0.000
423.923; 2490.825;  222.475;    0.000
423.976; 2500.825;  223.475;    0.000
424.028; 2423.825;  229.475;    0.000
424.081; 2420.825;  267.475;    0.000
424.133; 2452.825;  251.475;    0.000
424.185; 2460.825;  238.475;    0.000
424.238; 2437.825;  220.475;    0.000
424.290; 2495.825;  259.475;    0.000
424.342; 2445.825;  248.475;    0.000
424.394; 2435.825;  234.475;    0.000
424.447; 2403.825;  248.475;    0.000
424.499; 2434.825;  233.475;    0.000
424.551; 2547.825;  236.475;    0.000
424.603; 2552.825;  207.475;    0.000
424.656; 2351.825;  210.475;    0.000
424.708; 2407.825;  251.475;    0.000
424.760; 2516.825;  221.475;    0.000
424.812; 2413.825;  275.475;    0.000
424.864; 2405.825;  206.475;    0.000
424.917; 2397.825;  198.475;    0.000
424.969; 2425.825;  246.475;    0.000
425.021; 2409.825;  209.475;    0.000
425.073; 2404.825;  242.475;    0.000
425.125; 2468.825;  254.475;    0.000
425.177; 2436.825;  224.475;    0.000
425.229; 2464.825;  256.475;    0.000
425.282; 2418.825;  265.475;    0.000
425.334; 2381.825;  266.475;    0.000
425.386; 2355.825;  242.475;    0.000
425.438; 2389.825;  205.475;    0.000
425.490; 2387.825;  227.475;    0.000
425.542; 2344.825;  235.475;    0.000
425.594; 2346.825;  210.475;    0.000
425.646; 2469.825;  232.475;    0.000
425.698; 2442.825;  243.475;    0.000
425.750; 2429.825;  230.475;    0.000
425.802; 2323.825;  218.475;    0.000
425.854; 2430.825;  222.475;    0.000
425.906; 2402.825;  235.475;    0.000
425.958; 2372.825;  220.475;    0.000
426.010; 2336.825;  236.475;    0.000
426.062; 2315.825;  230.475;    0.000
426.114; 2358.825;  216.475;    0.000
426.166; 2418.825;  230.475;    0.000
426.218; 2351.825;  237.475;    0.000
426.270; 2343.825;  217.475;    0.000
426.321; 2339.825;  224.475;    0.000
426.373; 2302.825;  207.475;    0.000
426.425; 2464.825;  278.475;    0.000
426.477; 2371.825;  243.475;    0.000
426.529; 2385.825;  247.475;    0.000
426.581; 2369.825;  229.475;    0.000
426.633; 2388.825;  212.475;    0.000
426.684; 2317.825;  244.475;    0.000
426.736; 2325.825;  250.475;    0.000
426.788; 2356.825;  210.475;    0.000
426.840; 2380.825;  201.475;    0.000
426.892; 2329.825;  225.475;    0.000
426.943; 2336.825;  215.475;    0.000
426.995; 2286.825;  216.475;    0.000
427.047; 2249.825;  216.475;    0.000
427.099; 2417.825;  203.475;    0.000
427.150; 2328.825;  195.475;    0.000
427.202; 2351.825;  212.475;    0.000
427.254; 2396.825;  233.475;    0.000
427.306; 2352.825;  211.475;    0.000
427.357; 2306.825;  210.475;    0.000
427.409; 2303.825;  244.475;    0.000
427.461; 2187.825;  187.475;    0.000
427.512; 2335.825;  227.475;    0.000
427.564; 2273.825;  210.475;    0.000
427.616; 2310.825;  202.475;    0.000
427.667; 2293.825;  185.475;    0.000
427.719; 2243.825;  222.475;    0.000
427.770; 2229.825;  230.475;    0.000
427.822; 2330.825;  254.475;    0.000
427.874; 2326.825;  222.475;    0.000
427.925; 2346.825;  199.475;    0.000
427.977; 2327.825;  228.475;    0.000
428.028; 2358.825;  226.475;    0.000
428.080; 2306.825;  236.475;    0.000
428.131; 2292.825;  220.475;    0.000
428.183; 2290.825;  256.475;    0.000
428.234; 2311.825;  217.475;    0.000
428.286; 2268.825;  234.475;    0.000
428.337; 2268.825;  209.475;    0.000
428.389; 2327.825;  219.475;    0.000
428.440; 2242.825;  249.475;    0.000
428.492; 2299.825;  255.475;    0.000
428.543; 2237.825;  224.475;    0.000
428.595; 2277.825;  225.475;    0.000
428.646; 2359.825;  240.475;    0.000
428.697; 2288.825;  211.475;    0.000
428.749; 2283.825;  200.475;    0.000
428.800; 2288.825;  235.475;    0.000
428.852; 2284.825;  265.475;    0.000
428.903; 2209.825;  201.475;    0.000
428.954; 2209.825;  242.475;    0.000
429.006; 2251.825;  245.475;    0.000
429.057; 2197.825;  252.475;    0.000
429.108; 2251.825;  211.475;    0.000
429.160; 2250.825;  217.475;    0.000
429.211; 2270.825;  234.475;    0.000
429.262; 2177.825;  205.475;    0.000
429.314; 2190.825;  211.475;    0.000
429.365; 2223.825;  240.475;    0.000
429.416; 2278.825;  263.475;    0.000
429.467; 2256.825;  244.475;    0.000
429.519; 2210.825;  223.475;    0.000
429.570; 2144.825;  214.475;    0.000
429.621; 2197.825;  235.475;    0.000
429.672; 2172.825;  202.475;    0.000
429.724; 2229.825;  189.475;    0.000
429.775; 2206.825;  214.475;    0.000
429.826; 2163.825;  178.475;    0.000
429.877; 2156.825;  224.475;    0.000
429.928; 2245.825;  230.475;    0.000
429.980; 2242.825;  199.475;    0.000
430.031; 2136.825;  208.475;    0.000
430.082; 2151.825;  224.475;    0.000
430.133; 2273.825;  193.475;    0.000
430.184; 2230.825;  220.475;    0.000
430.235; 2180.825;  184.475;    0.000
430.286; 2243.825;  197.475;    0.000
430.337; 2181.825;  199.475;    0.000
430.388; 2264.825;  207.475;    0.000
430.439; 2246.825;  227.475;    0.000
430.490; 2267.825;  215.475;    0.000
430.542; 2209.825;  211.475;    0.000
430.593; 2148.825;  230.475;    0.000
430.644; 2227.825;  186.475;    0.000
430.695; 2116.825;  232.475;    0.000
430.746; 2203.825;  214.475;    0.000
430.797; 2112.825;  260.475;    0.000
430.848; 2267.825;  214.475;    0.000
430.898; 2153.825;  204.475;    0.000
430.949; 2173.825;  189.475;    0.000
431.000; 2227.825;  240.475;    0.000
431.051; 2193.825;  201.475;    0.000
431.102; 2127.825;  188.475;    0.000
431.153; 2234.825;  209.475;    0.000
431.204; 2108.825;  187.475;    0.000
431.255; 2145.825;  171.475;    0.000
431.306; 2212.825;  181.475;    0.000
431.357; 2193.825;  221.475;    0.000
431.408; 2212.825;  217.475;    0.000
431.458; 2193.825;  206.475;    0.000
431.509; 2158.825;  194.475;    0.000
431.560; 2231.825;  235.475;    0.000
431.611; 2176.825;  213.475;    0.000
431.662; 2219.825;  237.475;    0.000
431.713; 2200.825;  220.475;    0.000
431.763; 2178.825;  212.475;    0.000
431.814; 2211.825;  238.475;    0.000
431.865; 2273.825;  213.475;    0.000
431.916; 2217.825;  191.475;    0.000
431.966; 2209.825;  171.475;    0.000
432.017; 2184.825;  263.475;    0.000
432.068; 2231.825;  240.475;    0.000
432.118; 2162.825;  235.475;    0.000
432.169; 2158.825;  212.475;    0.000
432.220; 2128.825;  188.475;    0.000
432.271; 2171.825;  216.475;    0.000
432.321; 2283.825;  223.475;    0.000
432.372; 2208.825;  254.475;    0.000
432.423; 2192.825;  193.475;    0.000
432.473; 2155.825;  219.475;    0.000
432.524; 2179.825;  215.475;    0.000
432.574; 2219.825;  234.475;    0.000
432.625; 2121.825;  226.475;    0.000
432.676; 2169.825;  219.475;    0.000
432.726; 2155.825;  254.475;    0.000
432.777; 2099.825;  210.475;    0.000
432.827; 2213.825;  234.475;    0.000
432.878; 2136.825;  212.475;    0.000
432.928; 2150.825;  238.475;    0.000
432.979; 2195.825;  252.475;    0.000
433.029; 2165.825;  222.475;    0.000
433.080; 2124.825;  188.475;    0.000
433.130; 2135.825;  223.475;    0.000
433.181; 2236.825;  254.475;    0.000
433.231; 2161.825;  237.475;    0.000
433.282; 2164.825;  242.475;    0.000
433.332; 2249.825;  261.475;    0.000
433.383; 2231.825;  266.475;    0.000
433.433; 2235.825;  286.475;    0.000
433.484; 2262.825;  231.475;    0.000
433.534; 2249.825;  256.475;    0.000
433.585; 2126.825;  253.475;    0.000
433.635; 2173.825;  228.475;    0.000
433.685; 2197.825;  226.475;    0.000
433.736; 2212.825;  276.475;    0.000
433.786; 2224.825;  253.475;    0.000
433.836; 2142.825;  289.475;    0.000
433.887; 2220.825;  241.475;    0.000
433.937; 2158.825;  252.475;    0.000
433.987; 2185.825;  223.475;    0.000
434.038; 2159.825;  241.475;    0.000
434.088; 2132.825;  231.475;    0.000
434.138; 2235.825;  259.475;    0.000
434.189; 2168.825;  263.475;    0.000
434.239; 2198.825;  194.475;    0.000
434.289; 2199.825;  273.475;    0.000
434.339; 2255.825;  212.475;    0.000
434.389; 2205.825;  248.475;    0.000
434.440; 2135.825;  250.475;    0.000
434.490; 2156.825;  278.475;    0.000
434.540; 2185.825;  241.475;    0.000
434.590; 2241.825;  251.475;    0.000
434.640; 2256.825;  207.475;    0.000
434.691; 2235.825;  242.475;    0.000
434.741; 2233.825;  218.475;    0.000
434.791; 2266.825;  267.475;    0.000
434.841; 2172.825;  272.475;    0.000
434.891; 2279.825;  260.475;    0.000
434.941; 2281.825;  258.475;    0.000
434.991; 2214.825;  264.475;    0.000
435.042; 2204.825;  264.475;    0.000
435.092; 2261.825;  271.475;    0.000
435.142; 2217.825;  229.475;    0.000
435.192; 2196.825;  226.475;    0.000
435.242; 2200.825;  253.475;    0.000
435.292; 2133.825;  215.475;    0.000
435.342; 2220.825;  240.475;    0.000
435.392; 2246.825;  235.475;    0.000
435.442; 2137.825;  230.475;    0.000
435.492; 2201.825;  235.475;    0.000
435.542; 2154.825;  230.475;    0.000
435.592; 2169.825;  239.475;    0.000
435.642; 2154.825;  244.475;    0.000
435.692; 2152.825;  236.475;    0.000
435.742; 2142.825;  236.475;    0.000
435.792; 2220.825;  230.475;    0.000
435.842; 2138.825;  248.475;    0.000
435.891; 2100.825;  233.475;    0.000
435.941; 2093.825;  243.475;    0.000
435.991; 2104.825;  279.475;    0.000
436.041; 2033.825;  204.475;    0.000
436.091; 2140.825;  217.475;    0.000
436.141; 2165.825;  205.475;    0.000
436.191; 2154.825;  220.475;    0.000
436.241; 2033.825;  248.475;    0.000
436.290; 2106.825;  255.475;    0.000
436.340; 2151.825;  235.475;    0.000
436.390; 2110.825;  207.475;    0.000
436.440; 2062.825;  207.475;    0.000
436.490; 2088.825;  251.475;    0.000
436.539; 2114.825;  240.475;    0.000
436.589; 2087.825;  198.475;    0.000
436.639; 2106.825;  240.475;    0.000
436.689; 2034.825;  216.475;    0.000
436.738; 2069.825;  246.475;    0.000
436.788; 2144.825;  203.475;    0.000
436.838; 2125.825;  230.475;    0.000
436.887; 2068.825;  235.475;    0.000
436.937; 2108.825;  249.475;    0.000
436.987; 2068.825;  208.475;    0.000
437.036; 2107.825;  232.475;    0.000
437.086; 2052.825;  238.475;    0.000
437.136; 2099.825;  228.475;    0.000
437.185; 2027.825;  219.475;    0.000
437.235; 2059.825;  227.475;    0.000
437.285; 2041.825;  241.475;    0.000
437.334; 2003.825;  216.475;    0.000
437.384; 2137.825;  243.475;    0.000
437.433; 2067.825;  214.475;    0.000
437.483; 2101.825;  246.475;    0.000
437.532; 2078.825;  261.475;    0.000
437.582; 2065.825;  205.475;    0.000
437.631; 2002.825;  218.475;    0.000
437.681; 1995.825;  240.475;    0.000
437.730; 2120.825;  258.475;    0.000
437.780; 2062.825;  237.475;    0.000
437.829; 2084.825;  209.475;    0.000
437.879; 2064.825;  214.475;    0.000
437.928; 2045.825;  223.475;    0.000
437.978; 1975.825;  220.475;    0.000
438.027; 2030.825;  239.475;    0.000
438.077; 2027.825;  231.475;    0.000
438.126; 2105.825;  266.475;    0.000
438.176; 2002.825;  234.475;    0.000
438.225; 2073.825;  237.475;    0.000
438.274; 2054.825;  234.475;    0.000
438.324; 2029.825;  244.475;    0.000
438.373; 2028.825;  232.475;    0.000
438.422; 2054.825;  218.475;    0.000
438.472; 1996.825;  221.475;    0.000
438.521; 1944.825;  190.475;    0.000
438.570; 1968.825;  243.475;    0.000
438.620; 2045.825;  255.475;    0.000
438.669; 2040.825;  210.475;    0.000
438.718; 2017.825;  237.475;    0.000
438.768; 1999.825;  220.475;    0.000
438.817; 1979.825;  218.475;    0.000
438.866; 1974.825;  198.475;    0.000
438.915; 2009.825;  256.475;    0.000
438.965; 2014.825;  221.475;    0.000
439.014; 2009.825;  255.475;    0.000
439.063; 2045.825;  276.475;    0.000
439.112; 2012.825;  220.475;    0.000
439.162; 2008.825;  253.475;    0.000
439.211; 2044.825;  247.475;    0.000
439.260; 1990.825;  220.475;    0.000
439.309; 2068.825;  235.475;    0.000
439.358; 2041.825;  205.475;    0.000
439.407; 1937.825;  207.475;    0.000
439.456; 2003.825;  216.475;    0.000
439.506; 2058.825;  245.475;    0.000
439.555; 2075.825;  264.475;    0.000
439.604; 2046.825;  227.475;    0.000
439.653; 2060.825;  220.475;    0.000
439.702; 2047.825;  223.475;    0.000
439.751; 1974.825;  197.475;    0.000
439.800; 2091.825;  207.475;    0.000
439.849; 2048.825;  238.475;    0.000
439.898; 2097.825;  209.475;    0.000
439.947; 2041.825;  170.475;    0.000
439.996; 1972.825;  233.475;    0.000
440.045; 2043.825;  222.475;    0.000
440.094; 2053.825;  240.475;    0.000
440.143; 2054.825;  249.475;    0.000
440.192; 2020.825;  252.475;    0.000
440.241; 2007.825;  239.475;    0.000
440.290; 2039.825;  234.475;    0.000
440.339; 2076.825;  241.475;    0.000
440.388; 2086.825;  239.475;    0.000
440.437; 2075.825;  231.475;    0.000
440.486; 2057.825;  254.475;    0.000
440.535; 2073.825;  266.475;    0.000
440.583; 2033.825;  205.475;    0.000
440.632; 2088.825;  234.475;    0.000
440.681; 1999.825;  218.475;    0.000
440.730; 2128.825;  248.475;    0.000
440.779; 2070.825;  246.475;    0.000
440.828; 1990.825;  235.475;    0.000
440.876; 2029.825;  218.475;    0.000
440.925; 1985.825;  228.475;    0.000
440.974; 2053.825;  249.475;    0.000
441.023; 2076.825;  192.475;    0.000
441.072; 2078.825;  226.475;    0.000
441.120; 2132.825;  238.475;    0.000
441.169; 2158.825;  255.475;    0.000
441.218; 2160.825;  233.475;    0.000
441.267; 2077.825;  231.475;    0.000
441.315; 2104.825;  214.475;    0.000
441.364; 2119.825;  250.475;    0.000
441.413; 2082.825;  228.475;    0.000
441.461; 2099.825;  209.475;    0.000
441.510; 2170.825;  260.475;    0.000
441.559; 2119.825;  230.475;    0.000
441.607; 2061.825;  220.475;    0.000
441.656; 2160.825;  251.475;    0.000
441.705; 2135.825;  237.475;    0.000
441.753; 2144.825;  257.475;    0.000
441.802; 2147.825;  256.475;    0.000
441.850; 2128.825;  253.475;    0.000
441.899; 2171.825;  212.475;    0.000
441.948; 2111.825;  251.475;    0.000
441.996; 2105.825;  239.475;    0.000
442.045; 2165.825;  223.475;    0.000
442.093; 2143.825;  211.475;    0.000
442.142; 2177.825;  235.475;    0.000
442.190; 2191.825;  254.475;    0.000
442.239; 2112.825;  226.475;    0.000
442.287; 2092.825;  242.475;    0.000
442.336; 2219.825;  256.475;    0.000
442.384; 2120.825;  252.475;    0.000
442.433; 2157.825;  262.475;    0.000
442.481; 2149.825;  246.475;    0.000
442.529; 2145.825;  290.475;    0.000
442.578; 2107.825;  247.475;    0.000
442.626; 2087.825;  247.475;    0.000
442.675; 2180.825;  272.475;    0.000
442.723; 2128.825;  230.475;    0.000
442.771; 2186.825;  234.475;    0.000
442.820; 2207.825;  224.475;    0.000
442.868; 2145.825;  246.475;    0.000
442.917; 2153.825;  249.475;    0.000
442.965; 2161.825;  260.475;    0.000
443.013; 2102.825;  258.475;    0.000
443.062; 2139.825;  259.475;    0.000
443.110; 2128.825;  226.475;    0.000
443.158; 2146.825;  213.475;    0.000
443.206; 2190.825;  201.475;    0.000
443.255; 2148.825;  280.475;    0.000
443.303; 2217.825;  292.475;    0.000
443.351; 2111.825;  256.475;    0.000
443.399; 2174.825;  215.475;    0.000
443.448; 2214.825;  243.475;    0.000
443.496; 2123.825;  249.475;    0.000
443.544; 2144.825;  231.475;    0.000
443.592; 2227.825;  243.475;    0.000
443.640; 2148.825;  252.475;    0.000
443.689; 2236.825;  220.475;    0.000
443.737; 2119.825;  231.475;    0.000
443.785; 2225.825;  256.475;    0.000
443.833; 2179.825;  268.475;    0.000
443.881; 2161.825;  181.475;    0.000
443.929; 2283.825;  245.475;    0.000
443.977; 2233.825;  278.475;    0.000
444.025; 2104.825;  245.475;    0.000
444.074; 2229.825;  233.475;    0.000
444.122; 2280.825;  267.475;    0.000
444.170; 2219.825;  247.475;    0.000
444.218; 2214.825;  246.475;    0.000
444.266; 2227.825;  275.475;    0.000
444.314; 2298.825;  263.475;    0.000
444.362; 2229.825;  240.475;    0.000
444.410; 2275.825;  220.475;    0.000
444.458; 2304.825;  258.475;    0.000
444.506; 2253.825;  258.475;    0.000
444.554; 2194.825;  224.475;    0.000
444.602; 2304.825;  245.475;    0.000
444.650; 2327.825;  261.475;    0.000
444.698; 2253.825;  232.475;    0.000
444.746; 2318.825;  206.475;    0.000
444.793; 2274.825;  249.475;    0.000
444.841; 2131.825;  261.475;    0.000
444.889; 2253.825;  221.475;    0.000
444.937; 2256.825;  215.475;    0.000
444.985; 2432.825;  244.475;    0.000
445.033; 2300.825;  211.475;    0.000
445.081; 2327.825;  225.475;    0.000
445.129; 2280.825;  217.475;    0.000
445.176; 2271.825;  196.475;    0.000
445.224; 2281.825;  211.475;    0.000
445.272; 2345.825;  242.475;    0.000
445.320; 2289.825;  225.475;    0.000
445.368; 2323.825;  249.475;    0.000
445.415; 2257.825;  243.475;    0.000
445.463; 2182.825;  242.475;    0.000
445.511; 2336.825;  248.475;    0.000
445.559; 2330.825;  219.475;    0.000
445.606; 2355.825;  221.475;    0.000
445.654; 2226.825;  202.475;    0.000
445.702; 2240.825;  210.475;    0.000
445.749; 2337.825;  249.475;    0.000
445.797; 2352.825;  206.475;    0.000
445.845; 2307.825;  213.475;    0.000
445.892; 2300.825;  224.475;    0.000
445.940; 2297.825;  214.475;    0.000
445.988; 2356.825;  247.475;    0.000
446.035; 2349.825;  204.475;    0.000
446.083; 2299.825;  235.475;    0.000
446.130; 2285.825;  195.475;    0.000
446.178; 2334.825;  236.475;    0.000
446.226; 2309.825;  218.475;    0.000
446.273; 2392.825;  215.475;    0.000
446.321; 2319.825;  222.475;    0.000
446.368; 2336.825;  228.475;    0.000
446.416; 2320.825;  223.475;    0.000
446.463; 2322.825;  220.475;    0.000
446.511; 2385.825;  198.475;    0.000
446.558; 2465.825;  208.475;    0.000
446.606; 2461.825;  253.475;    0.000
446.653; 2323.825;  198.475;    0.000
446.701; 2364.825;  231.475;    0.000
446.748; 2408.825;  224.475;    0.000
446.796; 2424.825;  201.475;    0.000
446.843; 2428.825;  257.475;    0.000
446.891; 2477.825;  218.475;    0.000
446.938; 2479.825;  232.475;    0.000
446.985; 2463.825;  229.475;    0.000
447.033; 2437.825;  251.475;    0.000
447.080; 2507.825;  257.475;    0.000
447.128; 2500.825;  232.475;    0.000
447.175; 2555.825;  269.475;    0.000
447.222; 2457.825;  185.475;    0.000
447.270; 2588.825;  264.475;    0.000
447.317; 2539.825;  225.475;    0.000
447.364; 2591.825;  243.475;    0.000
447.411; 2603.825;  263.475;    0.000
447.459; 2542.825;  257.475;    0.000
447.506; 2551.825;  175.475;    0.000
447.553; 2643.825;  203.475;    0.000
447.601; 2739.825;  238.475;    0.000
447.648; 2741.825;  244.475;    0.000
447.695; 2812.825;  249.475;    0.000
447.742; 2867.825;  234.475;    0.000
447.789; 2811.825;  228.475;    0.000
447.837; 2869.825;  258.475;    0.000
447.884; 2878.825;  243.475;    0.000
447.931; 2911.825;  235.475;    0.000
447.978; 2877.825;  224.475;    0.000
448.025; 2897.825;  245.475;    0.000
448.072; 2974.825;  212.475;    0.000
448.120; 2974.825;  256.475;    0.000
448.167; 3005.825;  240.475;    0.000
448.214; 2860.825;  247.475;    0.000
448.261; 2992.825;  245.475;    0.000
448.308; 2954.825;  273.475;    0.000
448.355; 2902.825;  257.475;    0.000
448.402; 2800.825;  259.475;    0.000
448.449; 2713.825;  238.475;    0.000
448.496; 2727.825;  245.475;    0.000
448.543; 2694.825;  217.475;    0.000
448.590; 2610.825;  269.475;    0.000
448.637; 2671.825;  250.475;    0.000
448.684; 2628.825;  250.475;    0.000
448.731; 2573.825;  235.475;    0.000
448.778; 2586.825;  265.475;    0.000
448.825; 2448.825;  257.475;    0.000
448.872; 2531.825;  234.475;    0.000
448.919; 2571.825;  216.475;    0.000
448.966; 2602.825;  274.475;    0.000
449.013; 2450.825;  263.475;    0.000
449.060; 2589.825;  247.475;    0.000
449.107; 2475.825;  218.475;    0.000
449.154; 2397.825;  225.475;    0.000
449.200; 2386.825;  212.475;    0.000
449.247; 2412.825;  242.475;    0.000
449.294; 2408.825;  228.475;    0.000
449.341; 2357.825;  232.475;    0.000
449.388; 2336.825;  247.475;    0.000
449.435; 2310.825;  227.475;    0.000
449.481; 2329.825;  270.475;    0.000
449.528; 2383.825;  265.475;    0.000
449.575; 2272.825;  255.475;    0.000
449.622; 2273.825;  210.475;    0.000
449.668; 2250.825;  234.475;    0.000
449.715; 2248.825;  262.475;    0.000
449.762; 2253.825;  247.475;    0.000
449.809; 2255.825;  286.475;    0.000
449.855; 2258.825;  246.475;    0.000
449.902; 2244.825;  224.475;    0.000
449.949; 2351.825;  244.475;    0.000
449.995; 2300.825;  274.475;    0.000
450.042; 2235.825;  272.475;    0.000
450.089; 2364.825;  274.475;    0.000
450.135; 2299.825;  285.475;    0.000
450.182; 2189.825;  251.475;    0.000
450.229; 2197.825;  242.475;    0.000
450.275; 2173.825;  277.475;    0.000
450.322; 2183.825;  260.475;    0.000
450.368; 2249.825;  257.475;    0.000
450.415; 2278.825;  276.475;    0.000
450.462; 2244.825;  298.475;    0.000
450.508; 2178.825;  255.475;    0.000
450.555; 2177.825;  271.475;    0.000
450.601; 2180.825;  281.475;    0.000
450.648; 2130.825;  249.475;    0.000
450.694; 2235.825;  270.475;    0.000
450.741; 2198.825;  256.475;    0.000
450.787; 2158.825;  292.475;    0.000
450.834; 2163.825;  221.475;    0.000
450.880; 2172.825;  265.475;    0.000
450.927; 2159.825;  242.475;    0.000
450.973; 2150.825;  259.475;    0.000
451.019; 2116.825;  221.475;    0.000
451.066; 2109.825;  257.475;    0.000
451.112; 2173.825;  251.475;    0.000
451.159; 2181.825;  278.475;    0.000
451.205; 2152.825;  274.475;    0.000
451.251; 2091.825;  281.475;    0.000
451.298; 2108.825;  273.475;    0.000
451.344; 2112.825;  246.475;    0.000
451.390; 2170.825;  286.475;    0.000
451.437; 2073.825;  268.475;    0.000
451.483; 2073.825;  315.475;    0.000
451.529; 2089.825;  251.475;    0.000
451.576; 2073.825;  306.475;    0.000
451.622; 2094.825;  234.475;    0.000
451.668; 2122.825;  243.475;    0.000
451.714; 2116.825;  256.475;    0.000
451.761; 2112.825;  264.475;    0.000
451.807; 2086.825;  284.475;    0.000
451.853; 2126.825;  282.475;    0.000
451.899; 2004.825;  240.475;    0.000
451.945; 2071.825;  263.475;    0.000
451.992; 2047.825;  255.475;    0.000
452.038; 1942.825;  273.475;    0.000
452.084; 2028.825;  274.475;    0.000
452.130; 2097.825;  261.475;    0.000
452.176; 2123.825;  246.475;    0.000
452.222; 2055.825;  238.475;    0.000
452.268; 2056.825;  267.475;    0.000
452.315; 2111.825;  274.475;    0.000
452.361; 1938.825;  241.475;    0.000
452.407; 1979.825;  274.475;    0.000
452.453; 2051.825;  260.475;    0.000
452.499; 2047.825;  232.475;    0.000
452.545; 2065.825;  252.475;    0.000
452.591; 2010.825;  263.475;    0.000
452.637; 2029.825;  208.475;    0.000
452.683; 2077.825;  237.475;    0.000
452.729; 2003.825;  263.475;    0.000
452.775; 2052.825;  291.475;    0.000
452.821; 2010.825;  238.475;    0.000
452.867; 1952.825;  223.475;    0.000
452.913; 1994.825;  257.475;    0.000
452.959; 1999.825;  238.475;    0.000
453.005; 2011.825;  252.475;    0.000
453.051; 2076.825;  260.475;    0.000
453.097; 1941.825;  268.475;    0.000
453.142; 1948.825;  231.475;    0.000
453.188; 2047.825;  266.475;    0.000
453.234; 2001.825;  233.475;    0.000
453.280; 1919.825;  219.475;    0.000
453.326; 1942.825;  265.475;    0.000
453.372; 1967.825;  238.475;    0.000
453.418; 2013.825;  240.475;    0.000
453.463; 2002.825;  219.475;    0.000
453.509; 1995.825;  264.475;    0.000
453.555; 1968.825;  247.475;    0.000
453.601; 1939.825;  230.475;    0.000
453.647; 2020.825;  285.475;    0.000
453.692; 1950.825;  240.475;    0.000
453.738; 1951.825;  233.475;    0.000
453.784; 1855.825;  230.475;    0.000
453.829; 1953.825;  246.475;    0.000
453.875; 1921.825;  261.475;    0.000
453.921; 1940.825;  203.475;    0.000
453.967; 1979.825;  241.475;    0.000
454.012; 1921.825;  250.475;    0.000
454.058; 1976.825;  252.475;    0.000
454.104; 1984.825;  239.475;    0.000
454.149; 2029.825;  250.475;    0.000
454.195; 1921.825;  243.475;    0.000
454.240; 2010.825;  252.475;    0.000
454.286; 1961.825;  245.475;    0.000
454.332; 1999.825;  286.475;    0.000
454.377; 1928.825;  254.475;    0.000
454.423; 1948.825;  246.475;    0.000
454.468; 2010.825;  235.475;    0.000
454.514; 2014.825;  231.475;    0.000
454.559; 1995.825;  246.475;    0.000
454.605; 1947.825;  204.475;    0.000
454.650; 1917.825;  272.475;    0.000
454.696; 2004.825;  222.475;    0.000
454.741; 1942.825;  290.475;    0.000
454.787; 2009.825;  262.475;    0.000
454.832; 1925.825;  227.475;    0.000
454.878; 1932.825;  241.475;    0.000
454.923; 1997.825;  272.475;    0.000
454.969; 1920.825;  290.475;    0.000
455.014; 2006.825;  278.475;    0.000
455.060; 1866.825;  246.475;    0.000
455.105; 1937.825;  231.475;    0.000
455.150; 1930.825;  265.475;    0.000
455.196; 1963.825;  266.475;    0.000
455.241; 1960.825;  258.475;    0.000
455.286; 1926.825;  266.475;    0.000
455.332; 1944.825;  252.475;    0.000
455.377; 1924.825;  219.475;    0.000
455.422; 2031.825;  262.475;    0.000
455.468; 1891.825;  260.475;    0.000
455.513; 1964.825;  212.475;    0.000
455.558; 1965.825;  197.475;    0.000
455.604; 1903.825;  262.475;    0.000
455.649; 1909.825;  238.475;    0.000
455.694; 1945.825;  221.475;    0.000
455.739; 2011.825;  251.475;    0.000
455.785; 1970.825;  287.475;    0.000
455.830; 1943.825;  284.475;    0.000
455.875; 1964.825;  234.475;    0.000
455.920; 1914.825;  215.475;    0.000
455.965; 1959.825;  256.475;    0.000
456.010; 2028.825;  266.475;    0.000
456.056; 1933.825;  263.475;    0.000
456.101; 1903.825;  240.475;    0.000
456.146; 1962.825;  258.475;    0.000
456.191; 1939.825;  241.475;    0.000
456.236; 1911.825;  252.475;    0.000
456.281; 1906.825;  218.475;    0.000
456.326; 1985.825;  251.475;    0.000
456.371; 1918.825;  256.475;    0.000
456.416; 1955.825;  301.475;    0.000
456.461; 1993.825;  233.475;    0.000
456.507; 1886.825;  218.475;    0.000
456.552; 1952.825;  278.475;    0.000
456.597; 1934.825;  223.475;    0.000
456.642; 1915.825;  203.475;    0.000
456.687; 1946.825;  245.475;    0.000
456.732; 2034.825;  256.475;    0.000
456.776; 1925.825;  244.475;    0.000
456.821; 1928.825;  276.475;    0.000
456.866; 1885.825;  232.475;    0.000
456.911; 1870.825;  225.475;    0.000
456.956; 2002.825;  237.475;    0.000
457.001; 1974.825;  261.475;    0.000
457.046; 1981.825;  205.475;    0.000
457.091; 1910.825;  241.475;    0.000
457.136; 1936.825;  217.475;    0.000
457.181; 1972.825;  251.475;    0.000
457.225; 2002.825;  241.475;    0.000
457.270; 1970.825;  237.475;    0.000
457.315; 1884.825;  279.475;    0.000
457.360; 1891.825;  245.475;    0.000
457.405; 1895.825;  202.475;    0.000
457.450; 1930.825;  247.475;    0.000
457.494; 1982.825;  243.475;    0.000
457.539; 1929.825;  222.475;    0.000
457.584; 1973.825;  239.475;    0.000
457.629; 1891.825;  236.475;    0.000
457.673; 1980.825;  234.475;    0.000
457.718; 1962.825;  202.475;    0.000
457.763; 2020.825;  274.475;    0.000
457.807; 2040.825;  236.475;    0.000
457.852; 1949.825;  265.475;    0.000
457.897; 1961.825;  252.475;    0.000
457.941; 2004.825;  264.475;    0.000
457.986; 1933.825;  280.475;    0.000
458.031; 1997.825;  217.475;    0.000
458.075; 1966.825;  249.475;    0.000
458.120; 1980.825;  257.475;    0.000
458.165; 1951.825;  183.475;    0.000
458.209; 1970.825;  245.475;    0.000
458.254; 1980.825;  245.475;    0.000
458.298; 2022.825;  265.475;    0.000
458.343; 1995.825;  241.475;    0.000
458.387; 1999.825;  262.475;    0.000
458.432; 1932.825;  245.475;    0.000
458.476; 2055.825;  255.475;    0.000
458.521; 2032.825;  269.475;    0.000
458.565; 1989.825;  265.475;    0.000
458.610; 2055.825;  222.475;    0.000
458.654; 2039.825;  257.475;    0.000
458.699; 1989.825;  296.475;    0.000
458.743; 1997.825;  203.475;    0.000
458.788; 2038.825;  267.475;    0.000
458.832; 2013.825;  274.475;    0.000
458.877; 2059.825;  251.475;    0.000
458.921; 2010.825;  237.475;    0.000
458.965; 2082.825;  264.475;    0.000
459.010; 1994.825;  256.475;    0.000
459.054; 2120.825;  280.475;    0.000
459.099; 2035.825;  240.475;    0.000
459.143; 2052.825;  287.475;    0.000
459.187; 2034.825;  257.475;    0.000
459.231; 2134.825;  273.475;    0.000
459.276; 2115.825;  231.475;    0.000
459.320; 2087.825;  261.475;    0.000
459.364; 2129.825;  278.475;    0.000
459.409; 2040.825;  249.475;    0.000
459.453; 2058.825;  235.475;    0.000
459.497; 2173.825;  262.475;    0.000
459.541; 2179.825;  269.475;    0.000
459.586; 2126.825;  240.475;    0.000
459.630; 2105.825;  261.475;    0.000
459.674; 2054.825;  276.475;    0.000
459.718; 2040.825;  236.475;    0.000
459.762; 2075.825;  263.475;    0.000
459.807; 2134.825;  263.475;    0.000
459.851; 2136.825;  225.475;    0.000
459.895; 2162.825;  247.475;    0.000
459.939; 2177.825;  231.475;    0.000
459.983; 2151.825;  242.475;    0.000
460.027; 2044.825;  248.475;    0.000
460.071; 2179.825;  273.475;    0.000
460.115; 2176.825;  282.475;    0.000
460.159; 2136.825;  264.475;    0.000
460.204; 2155.825;  288.475;    0.000
460.248; 2145.825;  293.475;    0.000
460.292; 2179.825;  277.475;    0.000
460.336; 2101.825;  250.475;    0.000
460.380; 2185.825;  275.475;    0.000
460.424; 2175.825;  243.475;    0.000
460.468; 2146.825;  277.475;    0.000
460.512; 2141.825;  261.475;    0.000
460.556; 2210.825;  266.475;    0.000
460.599; 2158.825;  246.475;    0.000
460.643; 2047.825;  256.475;    0.000
460.687; 2188.825;  257.475;    0.000
460.731; 2084.825;  235.475;    0.000
460.775; 2234.825;  278.475;    0.000
460.819; 2154.825;  268.475;    0.000
460.863; 2239.825;  257.475;    0.000
460.907; 2093.825;  213.475;    0.000
460.951; 2217.825;  274.475;    0.000
460.995; 2168.825;  258.475;    0.000
461.038; 2180.825;  219.475;    0.000
461.082; 2093.825;  253.475;    0.000
461.126; 2218.825;  281.475;    0.000
461.170; 2138.825;  244.475;    0.000
461.214; 2251.825;  262.475;    0.000
461.257; 2225.825;  284.475;    0.000
461.301; 2200.825;  275.475;    0.000
461.345; 2154.825;  267.475;    0.000
461.389; 2242.825;  255.475;    0.000
461.432; 2241.825;  282.475;    0.000
461.476; 2078.825;  263.475;    0.000
461.520; 2199.825;  260.475;    0.000
461.563; 2194.825;  278.475;    0.000
461.607; 2160.825;  236.475;    0.000
461.651; 2128.825;  262.475;    0.000
461.694; 2068.825;  236.475;    0.000
461.738; 2175.825;  295.475;    0.000
461.782; 2208.825;  252.475;    0.000
461.825; 2241.825;  271.475;    0.000
461.869; 2289.825;  278.475;    0.000
461.913; 2233.825;  255.475;    0.000
461.956; 2205.825;  254.475;    0.000
462.000; 2259.825;  299.475;    0.000
462.043; 2206.825;  282.475;    0.000
462.087; 2204.825;  274.475;    0.000
462.130; 2236.825;  270.475;    0.000
462.174; 2232.825;  274.475;    0.000
462.217; 2249.825;  272.475;    0.000
462.261; 2244.825;  286.475;    0.000
462.304; 2191.825;  236.475;    0.000
462.348; 2193.825;  262.475;    0.000
462.391; 2319.825;  244.475;    0.000
462.435; 2214.825;  321.475;    0.000
462.478; 2259.825;  230.475;    0.000
462.522; 2249.825;  245.475;    0.000
462.565; 2268.825;  278.475;    0.000
462.608; 2293.825;  303.475;    0.000
462.652; 2348.825;  275.475;    0.000
462.695; 2385.825;  314.475;    0.000
462.739; 2378.825;  307.475;    0.000
462.782; 2319.825;  286.475;    0.000
462.825; 2428.825;  312.475;    0.000
462.869; 2315.825;  338.475;    0.000
462.912; 2394.825;  304.475;    0.000
462.955; 2372.825;  288.475;    0.000
462.998; 2373.825;  292.475;    0.000
463.042; 2403.825;  309.475;    0.000
463.085; 2453.825;  292.475;    0.000
463.128; 2404.825;  317.475;    0.000
463.172; 2323.825;  287.475;    0.000
463.215;  370.825;  313.475;    0.000
463.258;  305.825;  295.475;    0.000
463.301;  306.825;  275.475;    0.000
463.344;  309.825;  311.475;    0.000
463.388;  335.825;  296.475;    0.000
463.431;  300.825;  277.475;    0.000
463.474;  332.825;  364.475;    0.000
463.517;  344.825;  306.475;    0.000
463.560;  364.825;  308.475;    0.000
463.603;  331.825;  343.475;    0.000
463.646;  359.825;  309.475;    0.000
463.690;  333.825;  309.475;    0.000
463.733;  329.825;  320.475;    0.000
463.776;  275.825;  299.475;    0.000
463.819;  367.825;  320.475;    0.000
463.862;  307.825;  283.475;    0.000

