
Integration time [ms]:   1.000
Averaging Nr. [scans]: 1
Smoothing Nr. [pixels]: 0
Data measured with spectrometer [name]: UV1
Wave   ;Sample   ;Dark     ;Reference
[nm]   ;[counts] ;[counts] ;[counts] 

236.381;  123.800;  175.825;    0.000
236.451;  174.800;  220.825;    0.000
236.520;  180.800;  178.825;    0.000
236.590;  216.800;  182.825;    0.000
236.660;  180.800;  180.825;    0.000
236.730;  192.800;  201.825;    0.000
236.799;  211.800;  168.825;    0.000
236.869;  204.800;  205.825;    0.000
236.939;  176.800;  175.825;    0.000
237.009;  218.800;  186.825;    0.000
237.078;  170.800;  200.825;    0.000
237.148;  158.800;  156.825;    0.000
237.218;  186.800;  190.825;    0.000
237.287;  186.800;  167.825;    0.000
237.357;  163.800;  213.825;    0.000
237.427;  179.800;  164.825;    0.000
237.496;  887.800;  210.825;    0.000
237.566;  845.800;  193.825;    0.000
237.636;  843.800;  179.825;    0.000
237.705;  876.800;  218.825;    0.000
237.775;  770.800;  160.825;    0.000
237.845;  868.800;  207.825;    0.000
237.914;  835.800;  180.825;    0.000
237.984;  870.800;  207.825;    0.000
238.054;  796.800;  149.825;    0.000
238.123;  859.800;  190.825;    0.000
238.193;  814.800;  167.825;    0.000
238.263;  808.800;  172.825;    0.000
238.332;  791.800;  173.825;    0.000
238.402;  836.800;  214.825;    0.000
238.471;  792.800;  181.825;    0.000
238.541;  829.800;  177.825;    0.000
238.611;  818.800;  138.825;    0.000
238.680;  830.800;  168.825;    0.000
238.750;  780.800;  171.825;    0.000
238.819;  796.800;  156.825;    0.000
238.889;  785.800;  194.825;    0.000
238.958;  861.800;  185.825;    0.000
239.028;  829.800;  170.825;    0.000
239.097;  846.800;  159.825;    0.000
239.167;  828.800;  208.825;    0.000
239.237;  803.800;  167.825;    0.000
239.306;  851.800;  154.825;    0.000
239.376;  859.800;  183.825;    0.000
239.445;  763.800;  221.825;    0.000
239.515;  788.800;  208.825;    0.000
239.584;  836.800;  177.825;    0.000
239.654;  816.800;  133.825;    0.000
239.723;  784.800;  167.825;    0.000
239.793;  816.800;  190.825;    0.000
239.862;  804.800;  192.825;    0.000
239.932;  814.800;  174.825;    0.000
240.001;  808.800;  166.825;    0.000
240.070;  758.800;  179.825;    0.000
240.140;  842.800;  191.825;    0.000
240.209;  834.800;  134.825;    0.000
240.279;  837.800;  185.825;    0.000
240.348;  802.800;  193.825;    0.000
240.418;  835.800;  149.825;    0.000
240.487;  773.800;  197.825;    0.000
240.556;  733.800;  193.825;    0.000
240.626;  847.800;  178.825;    0.000
240.695;  869.800;  194.825;    0.000
240.765;  802.800;  178.825;    0.000
240.834;  849.800;  190.825;    0.000
240.903;  815.800;  212.825;    0.000
240.973;  804.800;  153.825;    0.000
241.042;  807.800;  177.825;    0.000
241.112;  767.800;  193.825;    0.000
241.181;  751.800;  171.825;    0.000
241.250;  788.800;  152.825;    0.000
241.320;  836.800;  176.825;    0.000
241.389;  784.800;  186.825;    0.000
241.458;  850.800;  182.825;    0.000
241.528;  808.800;  175.825;    0.000
241.597;  846.800;  180.825;    0.000
241.666;  724.800;  162.825;    0.000
241.736;  830.800;  187.825;    0.000
241.805;  787.800;  173.825;    0.000
241.874;  788.800;  177.825;    0.000
241.943;  781.800;  208.825;    0.000
242.013;  852.800;  183.825;    0.000
242.082;  787.800;  171.825;    0.000
242.151;  784.800;  208.825;    0.000
242.221;  788.800;  160.825;    0.000
242.290;  771.800;  200.825;    0.000
242.359;  750.800;  167.825;    0.000
242.428;  806.800;  213.825;    0.000
242.498;  722.800;  156.825;    0.000
242.567;  782.800;  200.825;    0.000
242.636;  824.800;  178.825;    0.000
242.705;  783.800;  185.825;    0.000
242.774;  767.800;  190.825;    0.000
242.844;  763.800;  194.825;    0.000
242.913;  763.800;  162.825;    0.000
242.982;  766.800;  189.825;    0.000
243.051;  744.800;  176.825;    0.000
243.120;  782.800;  213.825;    0.000
243.190;  750.800;  155.825;    0.000
243.259;  802.800;  183.825;    0.000
243.328;  785.800;  170.825;    0.000
243.397;  704.800;  224.825;    0.000
243.466;  759.800;  172.825;    0.000
243.535;  735.800;  145.825;    0.000
243.605;  739.800;  157.825;    0.000
243.674;  777.800;  199.825;    0.000
243.743;  800.800;  196.825;    0.000
243.812;  688.800;  152.825;    0.000
243.881;  762.800;  188.825;    0.000
243.950;  770.800;  154.825;    0.000
244.019;  741.800;  195.825;    0.000
244.088;  740.800;  164.825;    0.000
244.158;  838.800;  220.825;    0.000
244.227;  773.800;  150.825;    0.000
244.296;  717.800;  153.825;    0.000
244.365;  831.800;  195.825;    0.000
244.434;  720.800;  136.825;    0.000
244.503;  761.800;  172.825;    0.000
244.572;  727.800;  129.825;    0.000
244.641;  713.800;  132.825;    0.000
244.710;  808.800;  185.825;    0.000
244.779;  754.800;  164.825;    0.000
244.848;  743.800;  132.825;    0.000
244.917;  730.800;  196.825;    0.000
244.986;  745.800;  148.825;    0.000
245.055;  734.800;  192.825;    0.000
245.124;  763.800;  170.825;    0.000
245.193;  722.800;  172.825;    0.000
245.262;  695.800;  146.825;    0.000
245.331;  719.800;  178.825;    0.000
245.400;  707.800;  108.825;    0.000
245.469;  706.800;  173.825;    0.000
245.538;  673.800;  180.825;    0.000
245.607;  694.800;  171.825;    0.000
245.676;  708.800;  149.825;    0.000
245.745;  696.800;  194.825;    0.000
245.814;  685.800;  186.825;    0.000
245.883;  713.800;  192.825;    0.000
245.952;  705.800;  169.825;    0.000
246.021;  640.800;  190.825;    0.000
246.090;  688.800;  181.825;    0.000
246.159;  681.800;  179.825;    0.000
246.227;  677.800;  182.825;    0.000
246.296;  705.800;  182.825;    0.000
246.365;  754.800;  171.825;    0.000
246.434;  710.800;  218.825;    0.000
246.503;  687.800;  147.825;    0.000
246.572;  665.800;  227.825;    0.000
246.641;  689.800;  193.825;    0.000
246.710;  675.800;  207.825;    0.000
246.779;  717.800;  181.825;    0.000
246.847;  700.800;  179.825;    0.000
246.916;  621.800;  155.825;    0.000
246.985;  713.800;  168.825;    0.000
247.054;  674.800;  137.825;    0.000
247.123;  653.800;  128.825;    0.000
247.192;  686.800;  163.825;    0.000
247.260;  709.800;  173.825;    0.000
247.329;  659.800;  174.825;    0.000
247.398;  665.800;  238.825;    0.000
247.467;  661.800;  168.825;    0.000
247.536;  693.800;  203.825;    0.000
247.604;  693.800;  194.825;    0.000
247.673;  676.800;  145.825;    0.000
247.742;  629.800;  167.825;    0.000
247.811;  665.800;  180.825;    0.000
247.879;  671.800;  187.825;    0.000
247.948;  707.800;  187.825;    0.000
248.017;  686.800;  170.825;    0.000
248.086;  719.800;  223.825;    0.000
248.154;  675.800;  160.825;    0.000
248.223;  640.800;  163.825;    0.000
248.292;  672.800;  201.825;    0.000
248.361;  641.800;  205.825;    0.000
248.429;  682.800;  191.825;    0.000
248.498;  632.800;  194.825;    0.000
248.567;  670.800;  217.825;    0.000
248.635;  708.800;  224.825;    0.000
248.704;  695.800;  204.825;    0.000
248.773;  659.800;  175.825;    0.000
248.841;  638.800;  157.825;    0.000
248.910;  651.800;  206.825;    0.000
248.979;  680.800;  170.825;    0.000
249.047;  634.800;  178.825;    0.000
249.116;  628.800;  183.825;    0.000
249.185;  673.800;  202.825;    0.000
249.253;  640.800;  159.825;    0.000
249.322;  644.800;  177.825;    0.000
249.390;  663.800;  157.825;    0.000
249.459;  646.800;  211.825;    0.000
249.528;  699.800;  181.825;    0.000
249.596;  692.800;  179.825;    0.000
249.665;  676.800;  176.825;    0.000
249.733;  630.800;  186.825;    0.000
249.802;  659.800;  185.825;    0.000
249.871;  626.800;  166.825;    0.000
249.939;  606.800;  163.825;    0.000
250.008;  664.800;  212.825;    0.000
250.076;  707.800;  227.825;    0.000
250.145;  662.800;  172.825;    0.000
250.213;  691.800;  173.825;    0.000
250.282;  645.800;  189.825;    0.000
250.350;  634.800;  166.825;    0.000
250.419;  652.800;  161.825;    0.000
250.487;  671.800;  178.825;    0.000
250.556;  620.800;  208.825;    0.000
250.624;  631.800;  190.825;    0.000
250.693;  653.800;  163.825;    0.000
250.761;  674.800;  194.825;    0.000
250.830;  660.800;  225.825;    0.000
250.898;  622.800;  140.825;    0.000
250.967;  598.800;  167.825;    0.000
251.035;  591.800;  155.825;    0.000
251.104;  615.800;  189.825;    0.000
251.172;  578.800;  136.825;    0.000
251.241;  613.800;  148.825;    0.000
251.309;  635.800;  201.825;    0.000
251.378;  578.800;  169.825;    0.000
251.446;  596.800;  178.825;    0.000
251.514;  651.800;  206.825;    0.000
251.583;  673.800;  178.825;    0.000
251.651;  620.800;  168.825;    0.000
251.720;  611.800;  190.825;    0.000
251.788;  638.800;  209.825;    0.000
251.856;  628.800;  173.825;    0.000
251.925;  631.800;  171.825;    0.000
251.993;  614.800;  188.825;    0.000
252.062;  678.800;  169.825;    0.000
252.130;  571.800;  196.825;    0.000
252.198;  626.800;  210.825;    0.000
252.267;  570.800;  181.825;    0.000
252.335;  615.800;  164.825;    0.000
252.403;  583.800;  152.825;    0.000
252.472;  664.800;  166.825;    0.000
252.540;  555.800;  189.825;    0.000
252.608;  613.800;  198.825;    0.000
252.677;  568.800;  156.825;    0.000
252.745;  630.800;  184.825;    0.000
252.813;  568.800;  163.825;    0.000
252.881;  560.800;  130.825;    0.000
252.950;  573.800;  189.825;    0.000
253.018;  588.800;  164.825;    0.000
253.086;  535.800;  172.825;    0.000
253.155;  524.800;  205.825;    0.000
253.223;  512.800;  175.825;    0.000
253.291;  539.800;  176.825;    0.000
253.359;  508.800;  182.825;    0.000
253.428;  552.800;  222.825;    0.000
253.496;  472.800;  166.825;    0.000
253.564;  430.800;  135.825;    0.000
253.632;  492.800;  184.825;    0.000
253.700;  468.800;  173.825;    0.000
253.769;  456.800;  163.825;    0.000
253.837;  440.800;  179.825;    0.000
253.905;  477.800;  157.825;    0.000
253.973;  446.800;  164.825;    0.000
254.041;  432.800;  170.825;    0.000
254.110;  450.800;  169.825;    0.000
254.178;  444.800;  165.825;    0.000
254.246;  473.800;  126.825;    0.000
254.314;  493.800;  166.825;    0.000
254.382;  492.800;  169.825;    0.000
254.450;  451.800;  170.825;    0.000
254.518;  464.800;  196.825;    0.000
254.587;  475.800;  161.825;    0.000
254.655;  485.800;  187.825;    0.000
254.723;  484.800;  144.825;    0.000
254.791;  444.800;  175.825;    0.000
254.859;  524.800;  168.825;    0.000
254.927;  492.800;  198.825;    0.000
254.995;  455.800;  165.825;    0.000
255.063;  494.800;  150.825;    0.000
255.131;  444.800;  181.825;    0.000
255.199;  508.800;  160.825;    0.000
255.267;  402.800;  131.825;    0.000
255.336;  524.800;  188.825;    0.000
255.404;  469.800;  163.825;    0.000
255.472;  490.800;  192.825;    0.000
255.540;  488.800;  158.825;    0.000
255.608;  511.800;  147.825;    0.000
255.676;  490.800;  166.825;    0.000
255.744;  521.800;  159.825;    0.000
255.812;  495.800;  164.825;    0.000
255.880;  492.800;  195.825;    0.000
255.948;  506.800;  167.825;    0.000
256.016;  517.800;  185.825;    0.000
256.084;  527.800;  191.825;    0.000
256.152;  522.800;  214.825;    0.000
256.220;  500.800;  195.825;    0.000
256.288;  511.800;  185.825;    0.000
256.356;  497.800;  168.825;    0.000
256.424;  496.800;  161.825;    0.000
256.491;  543.800;  161.825;    0.000
256.559;  494.800;  157.825;    0.000
256.627;  568.800;  164.825;    0.000
256.695;  475.800;  146.825;    0.000
256.763;  548.800;  194.825;    0.000
256.831;  516.800;  182.825;    0.000
256.899;  577.800;  192.825;    0.000
256.967;  496.800;  172.825;    0.000
257.035;  552.800;  169.825;    0.000
257.103;  586.800;  223.825;    0.000
257.171;  492.800;  141.825;    0.000
257.238;  593.800;  146.825;    0.000
257.306;  576.800;  180.825;    0.000
257.374;  546.800;  138.825;    0.000
257.442;  555.800;  135.825;    0.000
257.510;  594.800;  130.825;    0.000
257.578;  631.800;  123.825;    0.000
257.646;  640.800;  162.825;    0.000
257.713;  597.800;  149.825;    0.000
257.781;  620.800;  125.825;    0.000
257.849;  619.800;  149.825;    0.000
257.917;  612.800;  177.825;    0.000
257.985;  560.800;  143.825;    0.000
258.052;  607.800;  154.825;    0.000
258.120;  652.800;  162.825;    0.000
258.188;  640.800;  172.825;    0.000
258.256;  602.800;  160.825;    0.000
258.324;  628.800;  209.825;    0.000
258.391;  674.800;  153.825;    0.000
258.459;  676.800;  133.825;    0.000
258.527;  684.800;  160.825;    0.000
258.595;  675.800;  128.825;    0.000
258.662;  672.800;  114.825;    0.000
258.730;  689.800;  192.825;    0.000
258.798;  702.800;  144.825;    0.000
258.865;  690.800;  140.825;    0.000
258.933;  774.800;  150.825;    0.000
259.001;  738.800;  149.825;    0.000
259.069;  721.800;  110.825;    0.000
259.136;  755.800;  150.825;    0.000
259.204;  771.800;  156.825;    0.000
259.272;  715.800;  185.825;    0.000
259.339;  819.800;  148.825;    0.000
259.407;  761.800;  163.825;    0.000
259.475;  752.800;  129.825;    0.000
259.542;  740.800;  144.825;    0.000
259.610;  824.800;  164.825;    0.000
259.677;  776.800;  188.825;    0.000
259.745;  765.800;  113.825;    0.000
259.813;  800.800;  188.825;    0.000
259.880;  842.800;  174.825;    0.000
259.948;  746.800;  166.825;    0.000
260.016;  824.800;  150.825;    0.000
260.083;  833.800;  178.825;    0.000
260.151;  868.800;  120.825;    0.000
260.218;  837.800;  175.825;    0.000
260.286;  861.800;  155.825;    0.000
260.353;  886.800;  165.825;    0.000
260.421;  871.800;  169.825;    0.000
260.489;  880.800;  194.825;    0.000
260.556;  923.800;  161.825;    0.000
260.624;  933.800;  179.825;    0.000
260.691;  909.800;  174.825;    0.000
260.759;  894.800;  164.825;    0.000
260.826; 1000.800;  125.825;    0.000
260.894;  938.800;  164.825;    0.000
260.961;  975.800;  147.825;    0.000
261.029;  999.800;  167.825;    0.000
261.096;  949.800;  136.825;    0.000
261.164;  984.800;  146.825;    0.000
261.231;  969.800;  190.825;    0.000
261.299; 1040.800;  171.825;    0.000
261.366; 1014.800;  165.825;    0.000
261.434;  987.800;  160.825;    0.000
261.501;  960.800;  149.825;    0.000
261.568; 1051.800;  155.825;    0.000
261.636; 1042.800;  137.825;    0.000
261.703; 1065.800;  186.825;    0.000
261.771; 1048.800;  162.825;    0.000
261.838; 1074.800;  190.825;    0.000
261.906; 1050.800;  133.825;    0.000
261.973; 1117.800;  202.825;    0.000
262.040; 1129.800;  179.825;    0.000
262.108; 1086.800;  161.825;    0.000
262.175; 1061.800;  155.825;    0.000
262.243; 1125.800;  158.825;    0.000
262.310; 1101.800;  129.825;    0.000
262.377; 1119.800;  157.825;    0.000
262.445; 1209.800;  132.825;    0.000
262.512; 1103.800;  161.825;    0.000
262.579; 1071.800;  151.825;    0.000
262.647; 1143.800;  174.825;    0.000
262.714; 1190.800;  174.825;    0.000
262.781; 1153.800;  164.825;    0.000
262.849; 1258.800;  168.825;    0.000
262.916; 1198.800;  153.825;    0.000
262.983; 1188.800;  201.825;    0.000
263.051; 1189.800;  117.825;    0.000
263.118; 1173.800;  150.825;    0.000
263.185; 1273.800;  172.825;    0.000
263.252; 1247.800;  154.825;    0.000
263.320; 1176.800;  152.825;    0.000
263.387; 1259.800;  136.825;    0.000
263.454; 1245.800;  167.825;    0.000
263.522; 1319.800;  122.825;    0.000
263.589; 1228.800;  147.825;    0.000
263.656; 1328.800;  130.825;    0.000
263.723; 1244.800;  182.825;    0.000
263.790; 1347.800;  163.825;    0.000
263.858; 1382.800;  161.825;    0.000
263.925; 1324.800;  153.825;    0.000
263.992; 1310.800;  139.825;    0.000
264.059; 1340.800;  141.825;    0.000
264.126; 1378.800;  153.825;    0.000
264.194; 1369.800;  144.825;    0.000
264.261; 1362.800;  188.825;    0.000
264.328; 1309.800;  161.825;    0.000
264.395; 1372.800;  184.825;    0.000
264.462; 1477.800;  162.825;    0.000
264.529; 1455.800;  178.825;    0.000
264.597; 1407.800;  160.825;    0.000
264.664; 1417.800;  158.825;    0.000
264.731; 1434.800;  176.825;    0.000
264.798; 1345.800;  137.825;    0.000
264.865; 1350.800;  175.825;    0.000
264.932; 1530.800;  162.825;    0.000
264.999; 1455.800;  153.825;    0.000
265.066; 1371.800;  168.825;    0.000
265.133; 1445.800;  142.825;    0.000
265.201; 1551.800;  163.825;    0.000
265.268; 1555.800;  143.825;    0.000
265.335; 1542.800;  156.825;    0.000
265.402; 1460.800;  136.825;    0.000
265.469; 1441.800;  127.825;    0.000
265.536; 1458.800;  159.825;    0.000
265.603; 1486.800;  191.825;    0.000
265.670; 1535.800;  136.825;    0.000
265.737; 1566.800;  186.825;    0.000
265.804; 1535.800;  147.825;    0.000
265.871; 1517.800;  147.825;    0.000
265.938; 1591.800;  153.825;    0.000
266.005; 1562.800;  172.825;    0.000
266.072; 1559.800;  151.825;    0.000
266.139; 1572.800;  175.825;    0.000
266.206; 1561.800;  165.825;    0.000
266.273; 1594.800;  162.825;    0.000
266.340; 1539.800;  150.825;    0.000
266.407; 1580.800;  169.825;    0.000
266.474; 1518.800;  151.825;    0.000
266.541; 1597.800;  164.825;    0.000
266.608; 1627.800;  111.825;    0.000
266.675; 1632.800;  173.825;    0.000
266.742; 1588.800;  148.825;    0.000
266.808; 1667.800;  185.825;    0.000
266.875; 1731.800;  188.825;    0.000
266.942; 1682.800;  131.825;    0.000
267.009; 1680.800;  184.825;    0.000
267.076; 1650.800;  200.825;    0.000
267.143; 1630.800;  216.825;    0.000
267.210; 1700.800;  138.825;    0.000
267.277; 1649.800;  143.825;    0.000
267.344; 1622.800;  172.825;    0.000
267.410; 1725.800;  172.825;    0.000
267.477; 1697.800;  160.825;    0.000
267.544; 1698.800;  175.825;    0.000
267.611; 1731.800;  189.825;    0.000
267.678; 1703.800;  162.825;    0.000
267.745; 1749.800;  206.825;    0.000
267.811; 1691.800;  146.825;    0.000
267.878; 1765.800;  147.825;    0.000
267.945; 1692.800;  170.825;    0.000
268.012; 1706.800;  153.825;    0.000
268.079; 1747.800;  185.825;    0.000
268.145; 1746.800;  197.825;    0.000
268.212; 1705.800;  167.825;    0.000
268.279; 1728.800;  145.825;    0.000
268.346; 1707.800;  182.825;    0.000
268.412; 1678.800;  144.825;    0.000
268.479; 1743.800;  186.825;    0.000
268.546; 1761.800;  147.825;    0.000
268.613; 1772.800;  188.825;    0.000
268.679; 1704.800;  173.825;    0.000
268.746; 1755.800;  204.825;    0.000
268.813; 1760.800;  199.825;    0.000
268.879; 1705.800;  157.825;    0.000
268.946; 1796.800;  192.825;    0.000
269.013; 1708.800;  136.825;    0.000
269.079; 1706.800;  166.825;    0.000
269.146; 1638.800;  129.825;    0.000
269.213; 1739.800;  178.825;    0.000
269.280; 1720.800;  148.825;    0.000
269.346; 1718.800;  194.825;    0.000
269.413; 1641.800;  135.825;    0.000
269.479; 1785.800;  180.825;    0.000
269.546; 1670.800;  169.825;    0.000
269.613; 1682.800;  160.825;    0.000
269.679; 1771.800;  161.825;    0.000
269.746; 1727.800;  143.825;    0.000
269.813; 1733.800;  172.825;    0.000
269.879; 1715.800;  152.825;    0.000
269.946; 1675.800;  156.825;    0.000
270.012; 1650.800;  190.825;    0.000
270.079; 1738.800;  143.825;    0.000
270.145; 1695.800;  148.825;    0.000
270.212; 1638.800;  176.825;    0.000
270.279; 1704.800;  168.825;    0.000
270.345; 1645.800;  143.825;    0.000
270.412; 1647.800;  155.825;    0.000
270.478; 1700.800;  176.825;    0.000
270.545; 1743.800;  112.825;    0.000
270.611; 1702.800;  186.825;    0.000
270.678; 1659.800;  141.825;    0.000
270.744; 1690.800;  145.825;    0.000
270.811; 1696.800;  120.825;    0.000
270.877; 1690.800;  118.825;    0.000
270.944; 1665.800;  135.825;    0.000
271.010; 1692.800;  128.825;    0.000
271.077; 1651.800;  176.825;    0.000
271.143; 1754.800;  162.825;    0.000
271.210; 1697.800;  133.825;    0.000
271.276; 1663.800;  107.825;    0.000
271.342; 1680.800;  202.825;    0.000
271.409; 1684.800;  160.825;    0.000
271.475; 1687.800;  165.825;    0.000
271.542; 1653.800;  152.825;    0.000
271.608; 1712.800;  163.825;    0.000
271.675; 1724.800;  149.825;    0.000
271.741; 1706.800;  164.825;    0.000
271.807; 1746.800;  128.825;    0.000
271.874; 1825.800;  148.825;    0.000
271.940; 1668.800;  179.825;    0.000
272.007; 1718.800;  148.825;    0.000
272.073; 1701.800;  146.825;    0.000
272.139; 1699.800;  166.825;    0.000
272.206; 1769.800;  198.825;    0.000
272.272; 1826.800;  201.825;    0.000
272.338; 1717.800;  208.825;    0.000
272.405; 1731.800;  181.825;    0.000
272.471; 1740.800;  167.825;    0.000
272.537; 1697.800;  189.825;    0.000
272.604; 1747.800;  162.825;    0.000
272.670; 1813.800;  194.825;    0.000
272.736; 1740.800;  176.825;    0.000
272.802; 1762.800;  163.825;    0.000
272.869; 1693.800;  170.825;    0.000
272.935; 1792.800;  145.825;    0.000
273.001; 1733.800;  149.825;    0.000
273.068; 1764.800;  172.825;    0.000
273.134; 1743.800;  155.825;    0.000
273.200; 1763.800;  183.825;    0.000
273.266; 1798.800;  160.825;    0.000
273.333; 1789.800;  190.825;    0.000
273.399; 1786.800;  132.825;    0.000
273.465; 1792.800;  179.825;    0.000
273.531; 1764.800;  161.825;    0.000
273.597; 1747.800;  194.825;    0.000
273.664; 1779.800;  193.825;    0.000
273.730; 1735.800;  180.825;    0.000
273.796; 1786.800;  145.825;    0.000
273.862; 1850.800;  176.825;    0.000
273.928; 1762.800;  169.825;    0.000
273.995; 1936.800;  202.825;    0.000
274.061; 1884.800;  176.825;    0.000
274.127; 1865.800;  178.825;    0.000
274.193; 1749.800;  106.825;    0.000
274.259; 1813.800;  186.825;    0.000
274.325; 1876.800;  163.825;    0.000
274.391; 1860.800;  162.825;    0.000
274.457; 1847.800;  145.825;    0.000
274.524; 1929.800;  189.825;    0.000
274.590; 1927.800;  161.825;    0.000
274.656; 1910.800;  157.825;    0.000
274.722; 1898.800;  143.825;    0.000
274.788; 1862.800;  166.825;    0.000
274.854; 1949.800;  200.825;    0.000
274.920; 2006.800;  132.825;    0.000
274.986; 2005.800;  184.825;    0.000
275.052; 1973.800;  169.825;    0.000
275.118; 1947.800;  153.825;    0.000
275.184; 2059.800;  182.825;    0.000
275.250; 2037.800;  124.825;    0.000
275.316; 2021.800;  154.825;    0.000
275.382; 1997.800;  150.825;    0.000
275.448; 2090.800;  180.825;    0.000
275.514; 2134.800;  143.825;    0.000
275.580; 2075.800;  120.825;    0.000
275.646; 2145.800;  127.825;    0.000
275.712; 2205.800;  109.825;    0.000
275.778; 2181.800;  126.825;    0.000
275.844; 2117.800;  155.825;    0.000
275.910; 2150.800;  164.825;    0.000
275.976; 2277.800;  161.825;    0.000
276.042; 2183.800;  152.825;    0.000
276.108; 2385.800;  159.825;    0.000
276.174; 2359.800;  149.825;    0.000
276.240; 2349.800;  112.825;    0.000
276.306; 2303.800;  142.825;    0.000
276.372; 2416.800;  136.825;    0.000
276.437; 2503.800;  141.825;    0.000
276.503; 2500.800;  150.825;    0.000
276.569; 2553.800;  178.825;    0.000
276.635; 2502.800;  117.825;    0.000
276.701; 2696.800;  174.825;    0.000
276.767; 2650.800;  136.825;    0.000
276.833; 2710.800;  119.825;    0.000
276.899; 2759.800;  171.825;    0.000
276.964; 2871.800;  146.825;    0.000
277.030; 3006.800;  157.825;    0.000
277.096; 2955.800;  124.825;    0.000
277.162; 3135.800;  185.825;    0.000
277.228; 3114.800;  125.825;    0.000
277.293; 3316.800;  159.825;    0.000
277.359; 3443.800;  186.825;    0.000
277.425; 3544.800;  176.825;    0.000
277.491; 3766.800;  140.825;    0.000
277.557; 4343.800;  172.825;    0.000
277.622; 5822.800;  187.825;    0.000
277.688; 5790.800;  203.825;    0.000
277.754; 6146.800;  170.825;    0.000
277.820; 6491.800;  142.825;    0.000
277.885; 7666.800;  182.825;    0.000
277.951; 9203.800;  171.825;    0.000
278.017; 8153.800;  173.825;    0.000
278.083; 7261.800;  151.825;    0.000
278.148; 7040.800;  159.825;    0.000
278.214; 7147.800;  173.825;    0.000
278.280; 7524.800;  137.825;    0.000
278.345; 6971.800;  190.825;    0.000
278.411; 6501.800;  149.825;    0.000
278.477; 6784.800;  157.825;    0.000
278.542; 7116.800;  136.825;    0.000
278.608; 7804.800;  144.825;    0.000
278.674; 8488.800;  215.825;    0.000
278.739; 9543.800;  148.825;    0.000
278.805;10572.800;  152.825;    0.000
278.871;12394.800;  170.825;    0.000
278.936;15394.800;  180.825;    0.000
279.002;22180.801;  177.825;    0.000
279.067;28778.801;  172.825;    0.000
279.133;27544.801;  160.825;    0.000
279.199;24637.801;  165.825;    0.000
279.264;25797.801;  130.825;    0.000
279.330;29504.801;  154.825;    0.000
279.395;37441.801;  170.825;    0.000
279.461;46382.801;  136.825;    0.000
279.527;50579.801;  174.825;    0.000
279.592;47931.801;  179.825;    0.000
279.658;42006.801;  187.825;    0.000
279.723;41313.801;  201.825;    0.000
279.789;42551.801;  194.825;    0.000
279.854;38114.801;  171.825;    0.000
279.920;32072.801;  183.825;    0.000
279.985;29279.801;  173.825;    0.000
280.051;30197.801;  194.825;    0.000
280.116;34892.801;  197.825;    0.000
280.182;44323.801;  171.825;    0.000
280.247;48636.801;  131.825;    0.000
280.313;42510.801;  166.825;    0.000
280.378;31961.801;  159.825;    0.000
280.444;24280.801;  190.825;    0.000
280.509;19604.801;  189.825;    0.000
280.574;16766.801;  171.825;    0.000
280.640;14369.800;  167.825;    0.000
280.705;13091.800;  129.825;    0.000
280.771;11768.800;  193.825;    0.000
280.836;10828.800;  172.825;    0.000
280.902; 9935.800;  189.825;    0.000
280.967; 9267.800;  143.825;    0.000
281.032; 9018.800;  182.825;    0.000
281.098; 8352.800;  172.825;    0.000
281.163; 7850.800;  184.825;    0.000
281.229; 7528.800;  210.825;    0.000
281.294; 7228.800;  223.825;    0.000
281.359; 6785.800;  197.825;    0.000
281.425; 6640.800;  192.825;    0.000
281.490; 6391.800;  162.825;    0.000
281.555; 6104.800;  193.825;    0.000
281.621; 5976.800;  141.825;    0.000
281.686; 5649.800;  166.825;    0.000
281.751; 5618.800;  204.825;    0.000
281.816; 5330.800;  159.825;    0.000
281.882; 5088.800;  146.825;    0.000
281.947; 4986.800;  176.825;    0.000
282.012; 4895.800;  139.825;    0.000
282.078; 4729.800;  186.825;    0.000
282.143; 4699.800;  151.825;    0.000
282.208; 4646.800;  213.825;    0.000
282.273; 4445.800;  160.825;    0.000
282.339; 4352.800;  175.825;    0.000
282.404; 4355.800;  157.825;    0.000
282.469; 4210.800;  185.825;    0.000
282.534; 4163.800;  166.825;    0.000
282.600; 4021.800;  168.825;    0.000
282.665; 3978.800;  167.825;    0.000
282.730; 3928.800;  148.825;    0.000
282.795; 3879.800;  186.825;    0.000
282.860; 3788.800;  161.825;    0.000
282.926; 3807.800;  178.825;    0.000
282.991; 3821.800;  139.825;    0.000
283.056; 3684.800;  158.825;    0.000
283.121; 3746.800;  191.825;    0.000
283.186; 3626.800;  182.825;    0.000
283.251; 3590.800;  181.825;    0.000
283.316; 3545.800;  187.825;    0.000
283.382; 3560.800;  175.825;    0.000
283.447; 3577.800;  183.825;    0.000
283.512; 3381.800;  175.825;    0.000
283.577; 3461.800;  180.825;    0.000
283.642; 3361.800;  193.825;    0.000
283.707; 3348.800;  145.825;    0.000
283.772; 3411.800;  143.825;    0.000
283.837; 3289.800;  143.825;    0.000
283.902; 3263.800;  150.825;    0.000
283.967; 3363.800;  166.825;    0.000
284.032; 3286.800;  126.825;    0.000
284.097; 3340.800;  201.825;    0.000
284.163; 3343.800;  133.825;    0.000
284.228; 3410.800;  193.825;    0.000
284.293; 3326.800;  157.825;    0.000
284.358; 3283.800;  185.825;    0.000
284.423; 3426.800;  142.825;    0.000
284.488; 3540.800;  192.825;    0.000
284.553; 3445.800;  146.825;    0.000
284.618; 3479.800;  154.825;    0.000
284.683; 3622.800;  172.825;    0.000
284.748; 3863.800;  195.825;    0.000
284.812; 4042.800;  190.825;    0.000
284.877; 4423.800;  169.825;    0.000
284.942; 4996.800;  195.825;    0.000
285.007; 6017.800;  204.825;    0.000
285.072; 8148.800;  189.825;    0.000
285.137;13709.800;  149.825;    0.000
285.202;17742.801;  164.825;    0.000
285.267;14804.800;  161.825;    0.000
285.332; 9739.800;  140.825;    0.000
285.397; 7472.800;  142.825;    0.000
285.462; 5955.800;  146.825;    0.000
285.527; 5111.800;  132.825;    0.000
285.591; 4684.800;  160.825;    0.000
285.656; 4336.800;  136.825;    0.000
285.721; 4082.800;  135.825;    0.000
285.786; 3888.800;  171.825;    0.000
285.851; 3772.800;  168.825;    0.000
285.916; 3610.800;  178.825;    0.000
285.981; 3578.800;  152.825;    0.000
286.045; 3381.800;  167.825;    0.000
286.110; 3434.800;  187.825;    0.000
286.175; 3350.800;  162.825;    0.000
286.240; 3253.800;  163.825;    0.000
286.305; 3257.800;  190.825;    0.000
286.369; 3243.800;  143.825;    0.000
286.434; 3083.800;  185.825;    0.000
286.499; 3059.800;  195.825;    0.000
286.564; 3085.800;  173.825;    0.000
286.628; 3175.800;  159.825;    0.000
286.693; 2976.800;  175.825;    0.000
286.758; 2978.800;  170.825;    0.000
286.823; 2938.800;  129.825;    0.000
286.887; 2887.800;  172.825;    0.000
286.952; 2956.800;  163.825;    0.000
287.017; 2836.800;  217.825;    0.000
287.082; 2895.800;  165.825;    0.000
287.146; 2969.800;  176.825;    0.000
287.211; 2852.800;  192.825;    0.000
287.276; 2816.800;  147.825;    0.000
287.340; 2852.800;  162.825;    0.000
287.405; 2818.800;  196.825;    0.000
287.470; 2837.800;  148.825;    0.000
287.534; 2840.800;  166.825;    0.000
287.599; 2868.800;  193.825;    0.000
287.663; 2800.800;  191.825;    0.000
287.728; 2895.800;  146.825;    0.000
287.793; 2905.800;  234.825;    0.000
287.857; 2870.800;  177.825;    0.000
287.922; 2834.800;  166.825;    0.000
287.987; 2766.800;  169.825;    0.000
288.051; 2864.800;  169.825;    0.000
288.116; 2783.800;  187.825;    0.000
288.180; 2827.800;  200.825;    0.000
288.245; 2729.800;  201.825;    0.000
288.309; 2771.800;  176.825;    0.000
288.374; 2826.800;  162.825;    0.000
288.439; 2802.800;  195.825;    0.000
288.503; 2636.800;  162.825;    0.000
288.568; 2793.800;  228.825;    0.000
288.632; 2744.800;  194.825;    0.000
288.697; 2763.800;  173.825;    0.000
288.761; 2777.800;  153.825;    0.000
288.826; 2726.800;  151.825;    0.000
288.890; 2725.800;  208.825;    0.000
288.955; 2712.800;  159.825;    0.000
289.019; 2694.800;  198.825;    0.000
289.084; 2777.800;  152.825;    0.000
289.148; 2667.800;  171.825;    0.000
289.212; 2685.800;  184.825;    0.000
289.277; 2706.800;  165.825;    0.000
289.341; 2685.800;  207.825;    0.000
289.406; 2631.800;  156.825;    0.000
289.470; 2642.800;  191.825;    0.000
289.535; 2617.800;  222.825;    0.000
289.599; 2821.800;  214.825;    0.000
289.663; 2609.800;  183.825;    0.000
289.728; 2640.800;  192.825;    0.000
289.792; 2701.800;  197.825;    0.000
289.857; 2747.800;  221.825;    0.000
289.921; 2675.800;  177.825;    0.000
289.985; 2639.800;  177.825;    0.000
290.050; 2690.800;  178.825;    0.000
290.114; 2659.800;  112.825;    0.000
290.178; 2696.800;  170.825;    0.000
290.243; 2602.800;  162.825;    0.000
290.307; 2638.800;  178.825;    0.000
290.371; 2645.800;  141.825;    0.000
290.436; 2776.800;  178.825;    0.000
290.500; 2676.800;  135.825;    0.000
290.564; 2811.800;  199.825;    0.000
290.629; 2663.800;  165.825;    0.000
290.693; 2811.800;  154.825;    0.000
290.757; 2762.800;  159.825;    0.000
290.821; 2710.800;  179.825;    0.000
290.886; 2720.800;  141.825;    0.000
290.950; 2668.800;  166.825;    0.000
291.014; 2718.800;  169.825;    0.000
291.078; 2811.800;  191.825;    0.000
291.143; 2737.800;  169.825;    0.000
291.207; 2760.800;  164.825;    0.000
291.271; 2814.800;  193.825;    0.000
291.335; 2851.800;  150.825;    0.000
291.399; 2914.800;  175.825;    0.000
291.464; 3085.800;  128.825;    0.000
291.528; 3172.800;  162.825;    0.000
291.592; 3115.800;  152.825;    0.000
291.656; 2972.800;  175.825;    0.000
291.720; 3021.800;  173.825;    0.000
291.784; 2981.800;  192.825;    0.000
291.849; 2966.800;  159.825;    0.000
291.913; 2842.800;  174.825;    0.000
291.977; 2914.800;  177.825;    0.000
292.041; 2875.800;  188.825;    0.000
292.105; 3035.800;  174.825;    0.000
292.169; 2977.800;  143.825;    0.000
292.233; 3049.800;  149.825;    0.000
292.297; 3127.800;  176.825;    0.000
292.361; 3126.800;  178.825;    0.000
292.425; 3132.800;  153.825;    0.000
292.490; 3243.800;  185.825;    0.000
292.554; 3445.800;  144.825;    0.000
292.618; 3626.800;  166.825;    0.000
292.682; 3885.800;  181.825;    0.000
292.746; 4606.800;  152.825;    0.000
292.810; 6138.800;  208.825;    0.000
292.874; 7515.800;  142.825;    0.000
292.938; 7611.800;  195.825;    0.000
293.002; 6725.800;  156.825;    0.000
293.066; 6181.800;  108.825;    0.000
293.130; 5585.800;  136.825;    0.000
293.194; 5398.800;  135.825;    0.000
293.258; 5238.800;  187.825;    0.000
293.322; 5179.800;  148.825;    0.000
293.386; 5207.800;  186.825;    0.000
293.450; 5521.800;  196.825;    0.000
293.514; 6377.800;  175.825;    0.000
293.577; 8463.800;  137.825;    0.000
293.641;11450.800;  142.825;    0.000
293.705;12104.800;  201.825;    0.000
293.769;10507.800;  150.825;    0.000
293.833; 8993.800;  147.825;    0.000
293.897; 8096.800;  170.825;    0.000
293.961; 7271.800;  121.825;    0.000
294.025; 6398.800;  172.825;    0.000
294.089; 5934.800;  167.825;    0.000
294.152; 5623.800;  167.825;    0.000
294.216; 5280.800;  165.825;    0.000
294.280; 4986.800;  168.825;    0.000
294.344; 4757.800;  160.825;    0.000
294.408; 4435.800;  187.825;    0.000
294.472; 4294.800;  141.825;    0.000
294.536; 4078.800;  184.825;    0.000
294.599; 4111.800;  176.825;    0.000
294.663; 3911.800;  120.825;    0.000
294.727; 3694.800;  159.825;    0.000
294.791; 3613.800;  190.825;    0.000
294.855; 3515.800;  148.825;    0.000
294.918; 3506.800;  160.825;    0.000
294.982; 3436.800;  156.825;    0.000
295.046; 3335.800;  177.825;    0.000
295.110; 3277.800;  149.825;    0.000
295.173; 3132.800;  156.825;    0.000
295.237; 3147.800;  174.825;    0.000
295.301; 3128.800;  152.825;    0.000
295.364; 3080.800;  204.825;    0.000
295.428; 3163.800;  196.825;    0.000
295.492; 3010.800;  178.825;    0.000
295.556; 2976.800;  161.825;    0.000
295.619; 2858.800;  178.825;    0.000
295.683; 2916.800;  152.825;    0.000
295.747; 2810.800;  148.825;    0.000
295.810; 2855.800;  177.825;    0.000
295.874; 3000.800;  146.825;    0.000
295.938; 2839.800;  115.825;    0.000
296.001; 2752.800;  172.825;    0.000
296.065; 2757.800;  146.825;    0.000
296.128; 2700.800;  164.825;    0.000
296.192; 2738.800;  137.825;    0.000
296.256; 2652.800;  143.825;    0.000
296.319; 2716.800;  156.825;    0.000
296.383; 2677.800;  165.825;    0.000
296.447; 2628.800;  170.825;    0.000
296.510; 2603.800;  174.825;    0.000
296.574; 2568.800;  127.825;    0.000
296.637; 2680.800;  132.825;    0.000
296.701; 2565.800;  206.825;    0.000
296.764; 2616.800;  179.825;    0.000
296.828; 2656.800;  213.825;    0.000
296.891; 2606.800;  149.825;    0.000
296.955; 2548.800;  170.825;    0.000
297.018; 2573.800;  185.825;    0.000
297.082; 2550.800;  205.825;    0.000
297.145; 2518.800;  154.825;    0.000
297.209; 2541.800;  200.825;    0.000
297.272; 2492.800;  157.825;    0.000
297.336; 2489.800;  164.825;    0.000
297.399; 2551.800;  166.825;    0.000
297.463; 2501.800;  195.825;    0.000
297.526; 2435.800;  176.825;    0.000
297.590; 2458.800;  198.825;    0.000
297.653; 2557.800;  146.825;    0.000
297.717; 2364.800;  175.825;    0.000
297.780; 2439.800;  139.825;    0.000
297.843; 2340.800;  174.825;    0.000
297.907; 2419.800;  149.825;    0.000
297.970; 2445.800;  161.825;    0.000
298.034; 2444.800;  185.825;    0.000
298.097; 2454.800;  167.825;    0.000
298.160; 2412.800;  195.825;    0.000
298.224; 2328.800;  178.825;    0.000
298.287; 2407.800;  164.825;    0.000
298.350; 2332.800;  194.825;    0.000
298.414; 2401.800;  191.825;    0.000
298.477; 2420.800;  155.825;    0.000
298.540; 2378.800;  139.825;    0.000
298.604; 2444.800;  198.825;    0.000
298.667; 2358.800;  183.825;    0.000
298.730; 2335.800;  185.825;    0.000
298.794; 2342.800;  153.825;    0.000
298.857; 2361.800;  169.825;    0.000
298.920; 2362.800;  159.825;    0.000
298.984; 2345.800;  179.825;    0.000
299.047; 2360.800;  174.825;    0.000
299.110; 2231.800;  144.825;    0.000
299.173; 2305.800;  190.825;    0.000
299.237; 2361.800;  163.825;    0.000
299.300; 2219.800;  153.825;    0.000
299.363; 2218.800;  145.825;    0.000
299.426; 2276.800;  160.825;    0.000
299.489; 2213.800;  173.825;    0.000
299.553; 2277.800;  209.825;    0.000
299.616; 2288.800;  172.825;    0.000
299.679; 2265.800;  204.825;    0.000
299.742; 2196.800;  162.825;    0.000
299.805; 2173.800;  198.825;    0.000
299.868; 2231.800;  176.825;    0.000
299.932; 2178.800;  166.825;    0.000
299.995; 2205.800;  162.825;    0.000
300.058; 2234.800;  175.825;    0.000
300.121; 2101.800;  197.825;    0.000
300.184; 2166.800;  188.825;    0.000
300.247; 2159.800;  181.825;    0.000
300.310; 2185.800;  161.825;    0.000
300.374; 2235.800;  201.825;    0.000
300.437; 2169.800;  156.825;    0.000
300.500; 2177.800;  180.825;    0.000
300.563; 2148.800;  174.825;    0.000
300.626; 2249.800;  206.825;    0.000
300.689; 2212.800;  218.825;    0.000
300.752; 2099.800;  192.825;    0.000
300.815; 2129.800;  172.825;    0.000
300.878; 2150.800;  207.825;    0.000
300.941; 2155.800;  163.825;    0.000
301.004; 2196.800;  171.825;    0.000
301.067; 2172.800;  198.825;    0.000
301.130; 2153.800;  156.825;    0.000
301.193; 2105.800;  173.825;    0.000
301.256; 2150.800;  167.825;    0.000
301.319; 2186.800;  211.825;    0.000
301.382; 2156.800;  167.825;    0.000
301.445; 2137.800;  224.825;    0.000
301.508; 2031.800;  168.825;    0.000
301.571; 2147.800;  161.825;    0.000
301.634; 2125.800;  177.825;    0.000
301.697; 2160.800;  203.825;    0.000
301.760; 2109.800;  190.825;    0.000
301.823; 2098.800;  182.825;    0.000
301.885; 2184.800;  202.825;    0.000
301.948; 2215.800;  200.825;    0.000
302.011; 2124.800;  157.825;    0.000
302.074; 2121.800;  205.825;    0.000
302.137; 2107.800;  149.825;    0.000
302.200; 2092.800;  201.825;    0.000
302.263; 2078.800;  178.825;    0.000
302.326; 2140.800;  184.825;    0.000
302.388; 2057.800;  176.825;    0.000
302.451; 2006.800;  146.825;    0.000
302.514; 2058.800;  192.825;    0.000
302.577; 2085.800;  181.825;    0.000
302.640; 2078.800;  186.825;    0.000
302.703; 2031.800;  164.825;    0.000
302.765; 2049.800;  197.825;    0.000
302.828; 2051.800;  208.825;    0.000
302.891; 2017.800;  168.825;    0.000
302.954; 2155.800;  177.825;    0.000
303.016; 2072.800;  190.825;    0.000
303.079; 2103.800;  216.825;    0.000
303.142; 2086.800;  228.825;    0.000
303.205; 2119.800;  192.825;    0.000
303.267; 2012.800;  182.825;    0.000
303.330; 2086.800;  201.825;    0.000
303.393; 2094.800;  196.825;    0.000
303.456; 2045.800;  184.825;    0.000
303.518; 2204.800;  194.825;    0.000
303.581; 2000.800;  195.825;    0.000
303.644; 2159.800;  184.825;    0.000
303.706; 2151.800;  150.825;    0.000
303.769; 2089.800;  182.825;    0.000
303.832; 2060.800;  143.825;    0.000
303.894; 2086.800;  207.825;    0.000
303.957; 2024.800;  178.825;    0.000
304.020; 2108.800;  203.825;    0.000
304.082; 2153.800;  175.825;    0.000
304.145; 2084.800;  171.825;    0.000
304.207; 2117.800;  157.825;    0.000
304.270; 2182.800;  195.825;    0.000
304.333; 2118.800;  195.825;    0.000
304.395; 2123.800;  197.825;    0.000
304.458; 2134.800;  231.825;    0.000
304.520; 2105.800;  218.825;    0.000
304.583; 2083.800;  177.825;    0.000
304.646; 2071.800;  177.825;    0.000
304.708; 2032.800;  178.825;    0.000
304.771; 2093.800;  143.825;    0.000
304.833; 2037.800;  241.825;    0.000
304.896; 2150.800;  200.825;    0.000
304.958; 2066.800;  176.825;    0.000
305.021; 2158.800;  159.825;    0.000
305.083; 2147.800;  159.825;    0.000
305.146; 2045.800;  190.825;    0.000
305.208; 2023.800;  152.825;    0.000
305.271; 2093.800;  162.825;    0.000
305.333; 2089.800;  219.825;    0.000
305.396; 2136.800;  163.825;    0.000
305.458; 2103.800;  215.825;    0.000
305.520; 2136.800;  174.825;    0.000
305.583; 2037.800;  161.825;    0.000
305.645; 2099.800;  203.825;    0.000
305.708; 2022.800;  163.825;    0.000
305.770; 2126.800;  215.825;    0.000
305.833; 2036.800;  207.825;    0.000
305.895; 2059.800;  166.825;    0.000
305.957; 2060.800;  175.825;    0.000
306.020; 2049.800;  169.825;    0.000
306.082; 2029.800;  203.825;    0.000
306.144; 2090.800;  181.825;    0.000
306.207; 2078.800;  199.825;    0.000
306.269; 2118.800;  177.825;    0.000
306.331; 2075.800;  160.825;    0.000
306.394; 2063.800;  193.825;    0.000
306.456; 2053.800;  136.825;    0.000
306.518; 2051.800;  189.825;    0.000
306.581; 2101.800;  156.825;    0.000
306.643; 2082.800;  190.825;    0.000
306.705; 2068.800;  190.825;    0.000
306.768; 2043.800;  172.825;    0.000
306.830; 2130.800;  214.825;    0.000
306.892; 2177.800;  198.825;    0.000
306.954; 2165.800;  177.825;    0.000
307.017; 2056.800;  183.825;    0.000
307.079; 2182.800;  170.825;    0.000
307.141; 2147.800;  173.825;    0.000
307.203; 2083.800;  171.825;    0.000
307.266; 2109.800;  166.825;    0.000
307.328; 2146.800;  207.825;    0.000
307.390; 2149.800;  201.825;    0.000
307.452; 2138.800;  182.825;    0.000
307.514; 2198.800;  213.825;    0.000
307.577; 2199.800;  213.825;    0.000
307.639; 2243.800;  197.825;    0.000
307.701; 2225.800;  174.825;    0.000
307.763; 2193.800;  181.825;    0.000
307.825; 2219.800;  186.825;    0.000
307.887; 2228.800;  198.825;    0.000
307.949; 2194.800;  158.825;    0.000
308.012; 2243.800;  209.825;    0.000
308.074; 2203.800;  176.825;    0.000
308.136; 2198.800;  227.825;    0.000
308.198; 2220.800;  187.825;    0.000
308.260; 2229.800;  211.825;    0.000
308.322; 2306.800;  206.825;    0.000
308.384; 2238.800;  186.825;    0.000
308.446; 2247.800;  175.825;    0.000
308.508; 2286.800;  211.825;    0.000
308.570; 2287.800;  191.825;    0.000
308.632; 2319.800;  195.825;    0.000
308.694; 2237.800;  173.825;    0.000
308.756; 2298.800;  185.825;    0.000
308.818; 2303.800;  195.825;    0.000
308.880; 2364.800;  189.825;    0.000
308.942; 2250.800;  231.825;    0.000
309.004; 2381.800;  188.825;    0.000
309.066; 2455.800;  196.825;    0.000
309.128; 2510.800;  155.825;    0.000
309.190; 2636.800;  176.825;    0.000
309.252; 2669.800;  191.825;    0.000
309.314; 2735.800;  236.825;    0.000
309.376; 2636.800;  212.825;    0.000
309.438; 2579.800;  201.825;    0.000
309.500; 2564.800;  206.825;    0.000
309.562; 2643.800;  213.825;    0.000
309.624; 2814.800;  196.825;    0.000
309.686; 2924.800;  198.825;    0.000
309.747; 2738.800;  186.825;    0.000
309.809; 2706.800;  215.825;    0.000
309.871; 2572.800;  242.825;    0.000
309.933; 2573.800;  162.825;    0.000
309.995; 2512.800;  163.825;    0.000
310.057; 2443.800;  145.825;    0.000
310.119; 2517.800;  205.825;    0.000
310.180; 2444.800;  195.825;    0.000
310.242; 2429.800;  167.825;    0.000
310.304; 2492.800;  213.825;    0.000
310.366; 2454.800;  224.825;    0.000
310.428; 2439.800;  170.825;    0.000
310.489; 2308.800;  195.825;    0.000
310.551; 2301.800;  207.825;    0.000
310.613; 2386.800;  168.825;    0.000
310.675; 2405.800;  188.825;    0.000
310.737; 2396.800;  211.825;    0.000
310.798; 2302.800;  221.825;    0.000
310.860; 2371.800;  201.825;    0.000
310.922; 2411.800;  206.825;    0.000
310.983; 2277.800;  222.825;    0.000
311.045; 2392.800;  235.825;    0.000
311.107; 2405.800;  184.825;    0.000
311.169; 2312.800;  148.825;    0.000
311.230; 2240.800;  211.825;    0.000
311.292; 2355.800;  235.825;    0.000
311.354; 2346.800;  183.825;    0.000
311.415; 2455.800;  196.825;    0.000
311.477; 2348.800;  200.825;    0.000
311.539; 2428.800;  171.825;    0.000
311.600; 2298.800;  169.825;    0.000
311.662; 2381.800;  231.825;    0.000
311.724; 2342.800;  204.825;    0.000
311.785; 2346.800;  214.825;    0.000
311.847; 2388.800;  193.825;    0.000
311.908; 2327.800;  180.825;    0.000
311.970; 2321.800;  233.825;    0.000
312.032; 2405.800;  192.825;    0.000
312.093; 2301.800;  195.825;    0.000
312.155; 2276.800;  194.825;    0.000
312.216; 2322.800;  238.825;    0.000
312.278; 2315.800;  146.825;    0.000
312.339; 2315.800;  184.825;    0.000
312.401; 2331.800;  201.825;    0.000
312.462; 2294.800;  173.825;    0.000
312.524; 2317.800;  205.825;    0.000
312.585; 2328.800;  199.825;    0.000
312.647; 2294.800;  168.825;    0.000
312.708; 2250.800;  180.825;    0.000
312.770; 2319.800;  180.825;    0.000
312.831; 2403.800;  176.825;    0.000
312.893; 2326.800;  211.825;    0.000
312.954; 2317.800;  178.825;    0.000
313.016; 2273.800;  204.825;    0.000
313.077; 2422.800;  216.825;    0.000
313.139; 2328.800;  172.825;    0.000
313.200; 2409.800;  197.825;    0.000
313.261; 2273.800;  227.825;    0.000
313.323; 2379.800;  204.825;    0.000
313.384; 2405.800;  182.825;    0.000
313.446; 2418.800;  204.825;    0.000
313.507; 2349.800;  164.825;    0.000
313.568; 2287.800;  197.825;    0.000
313.630; 2362.800;  190.825;    0.000
313.691; 2267.800;  185.825;    0.000
313.752; 2337.800;  192.825;    0.000
313.814; 2405.800;  176.825;    0.000
313.875; 2314.800;  210.825;    0.000
313.936; 2359.800;  165.825;    0.000
313.998; 2264.800;  162.825;    0.000
314.059; 2363.800;  178.825;    0.000
314.120; 2339.800;  176.825;    0.000
314.182; 2329.800;  167.825;    0.000
314.243; 2288.800;  204.825;    0.000
314.304; 2362.800;  197.825;    0.000
314.365; 2326.800;  183.825;    0.000
314.427; 2324.800;  176.825;    0.000
314.488; 2389.800;  149.825;    0.000
314.549; 2340.800;  218.825;    0.000
314.610; 2399.800;  160.825;    0.000
314.672; 2379.800;  187.825;    0.000
314.733; 2360.800;  184.825;    0.000
314.794; 2375.800;  164.825;    0.000
314.855; 2398.800;  191.825;    0.000
314.917; 2350.800;  172.825;    0.000
314.978; 2280.800;  185.825;    0.000
315.039; 2226.800;  194.825;    0.000
315.100; 2366.800;  190.825;    0.000
315.161; 2379.800;  185.825;    0.000
315.222; 2405.800;  204.825;    0.000
315.283; 2314.800;  166.825;    0.000
315.345; 2353.800;  133.825;    0.000
315.406; 2297.800;  191.825;    0.000
315.467; 2284.800;  166.825;    0.000
315.528; 2293.800;  194.825;    0.000
315.589; 2319.800;  193.825;    0.000
315.650; 2321.800;  190.825;    0.000
315.711; 2355.800;  219.825;    0.000
315.772; 2236.800;  159.825;    0.000
315.833; 2307.800;  191.825;    0.000
315.894; 2338.800;  202.825;    0.000
315.955; 2315.800;  167.825;    0.000
316.016; 2338.800;  177.825;    0.000
316.078; 2288.800;  185.825;    0.000
316.139; 2360.800;  219.825;    0.000
316.200; 2285.800;  163.825;    0.000
316.261; 2402.800;  183.825;    0.000
316.322; 2375.800;  230.825;    0.000
316.383; 2324.800;  198.825;    0.000
316.444; 2352.800;  209.825;    0.000
316.504; 2287.800;  179.825;    0.000
316.565; 2335.800;  185.825;    0.000
316.626; 2284.800;  155.825;    0.000
316.687; 2258.800;  211.825;    0.000
316.748; 2316.800;  192.825;    0.000
316.809; 2258.800;  183.825;    0.000
316.870; 2252.800;  196.825;    0.000
316.931; 2322.800;  173.825;    0.000
316.992; 2321.800;  179.825;    0.000
317.053; 2258.800;  186.825;    0.000
317.114; 2347.800;  189.825;    0.000
317.175; 2346.800;  226.825;    0.000
317.235; 2273.800;  206.825;    0.000
317.296; 2247.800;  191.825;    0.000
317.357; 2273.800;  173.825;    0.000
317.418; 2314.800;  212.825;    0.000
317.479; 2295.800;  247.825;    0.000
317.540; 2307.800;  205.825;    0.000
317.601; 2302.800;  205.825;    0.000
317.661; 2223.800;  150.825;    0.000
317.722; 2289.800;  198.825;    0.000
317.783; 2314.800;  153.825;    0.000
317.844; 2408.800;  202.825;    0.000
317.904; 2323.800;  180.825;    0.000
317.965; 2400.800;  205.825;    0.000
318.026; 2317.800;  223.825;    0.000
318.087; 2283.800;  218.825;    0.000
318.148; 2294.800;  207.825;    0.000
318.208; 2342.800;  212.825;    0.000
318.269; 2346.800;  174.825;    0.000
318.330; 2271.800;  191.825;    0.000
318.390; 2330.800;  197.825;    0.000
318.451; 2341.800;  167.825;    0.000
318.512; 2259.800;  174.825;    0.000
318.572; 2279.800;  199.825;    0.000
318.633; 2328.800;  233.825;    0.000
318.694; 2403.800;  232.825;    0.000
318.754; 2299.800;  181.825;    0.000
318.815; 2288.800;  199.825;    0.000
318.876; 2270.800;  207.825;    0.000
318.936; 2308.800;  202.825;    0.000
318.997; 2288.800;  182.825;    0.000
319.058; 2270.800;  180.825;    0.000
319.118; 2340.800;  199.825;    0.000
319.179; 2359.800;  199.825;    0.000
319.239; 2306.800;  229.825;    0.000
319.300; 2330.800;  223.825;    0.000
319.361; 2341.800;  210.825;    0.000
319.421; 2244.800;  205.825;    0.000
319.482; 2282.800;  205.825;    0.000
319.542; 2239.800;  176.825;    0.000
319.603; 2249.800;  191.825;    0.000
319.663; 2237.800;  183.825;    0.000
319.724; 2240.800;  174.825;    0.000
319.784; 2291.800;  198.825;    0.000
319.845; 2300.800;  218.825;    0.000
319.905; 2225.800;  217.825;    0.000
319.966; 2269.800;  197.825;    0.000
320.026; 2268.800;  209.825;    0.000
320.087; 2204.800;  225.825;    0.000
320.147; 2308.800;  201.825;    0.000
320.208; 2249.800;  176.825;    0.000
320.268; 2247.800;  168.825;    0.000
320.329; 2336.800;  238.825;    0.000
320.389; 2264.800;  220.825;    0.000
320.449; 2336.800;  230.825;    0.000
320.510; 2299.800;  234.825;    0.000
320.570; 2264.800;  210.825;    0.000
320.631; 2230.800;  207.825;    0.000
320.691; 2266.800;  222.825;    0.000
320.751; 2258.800;  195.825;    0.000
320.812; 2228.800;  193.825;    0.000
320.872; 2322.800;  237.825;    0.000
320.932; 2265.800;  213.825;    0.000
320.993; 2267.800;  185.825;    0.000
321.053; 2295.800;  245.825;    0.000
321.113; 2282.800;  206.825;    0.000
321.174; 2205.800;  202.825;    0.000
321.234; 2233.800;  244.825;    0.000
321.294; 2282.800;  228.825;    0.000
321.355; 2208.800;  208.825;    0.000
321.415; 2277.800;  223.825;    0.000
321.475; 2237.800;  203.825;    0.000
321.535; 2173.800;  230.825;    0.000
321.596; 2235.800;  186.825;    0.000
321.656; 2296.800;  216.825;    0.000
321.716; 2169.800;  207.825;    0.000
321.776; 2319.800;  181.825;    0.000
321.837; 2303.800;  207.825;    0.000
321.897; 2328.800;  225.825;    0.000
321.957; 2282.800;  222.825;    0.000
322.017; 2233.800;  215.825;    0.000
322.077; 2318.800;  250.825;    0.000
322.138; 2354.800;  189.825;    0.000
322.198; 2304.800;  200.825;    0.000
322.258; 2315.800;  217.825;    0.000
322.318; 2323.800;  183.825;    0.000
322.378; 2305.800;  231.825;    0.000
322.438; 2231.800;  228.825;    0.000
322.499; 2318.800;  248.825;    0.000
322.559; 2206.800;  198.825;    0.000
322.619; 2336.800;  221.825;    0.000
322.679; 2201.800;  217.825;    0.000
322.739; 2228.800;  204.825;    0.000
322.799; 2251.800;  236.825;    0.000
322.859; 2281.800;  213.825;    0.000
322.919; 2254.800;  210.825;    0.000
322.979; 2233.800;  244.825;    0.000
323.039; 2284.800;  218.825;    0.000
323.099; 2280.800;  232.825;    0.000
323.159; 2279.800;  216.825;    0.000
323.219; 2233.800;  169.825;    0.000
323.279; 2293.800;  236.825;    0.000
323.339; 2342.800;  243.825;    0.000
323.399; 2230.800;  208.825;    0.000
323.459; 2252.800;  220.825;    0.000
323.519; 2269.800;  228.825;    0.000
323.579; 2313.800;  164.825;    0.000
323.639; 2337.800;  209.825;    0.000
323.699; 2345.800;  188.825;    0.000
323.759; 2304.800;  206.825;    0.000
323.819; 2265.800;  204.825;    0.000
323.879; 2319.800;  222.825;    0.000
323.939; 2291.800;  206.825;    0.000
323.999; 2351.800;  202.825;    0.000
324.059; 2246.800;  245.825;    0.000
324.119; 2323.800;  214.825;    0.000
324.178; 2248.800;  183.825;    0.000
324.238; 2222.800;  193.825;    0.000
324.298; 2214.800;  207.825;    0.000
324.358; 2249.800;  196.825;    0.000
324.418; 2226.800;  193.825;    0.000
324.478; 2234.800;  191.825;    0.000
324.538; 2217.800;  224.825;    0.000
324.597; 2281.800;  187.825;    0.000
324.657; 2205.800;  208.825;    0.000
324.717; 2295.800;  198.825;    0.000
324.777; 2169.800;  159.825;    0.000
324.837; 2183.800;  180.825;    0.000
324.896; 2251.800;  215.825;    0.000
324.956; 2213.800;  210.825;    0.000
325.016; 2228.800;  187.825;    0.000
325.076; 2217.800;  197.825;    0.000
325.135; 2264.800;  226.825;    0.000
325.195; 2250.800;  201.825;    0.000
325.255; 2231.800;  167.825;    0.000
325.315; 2226.800;  217.825;    0.000
325.374; 2245.800;  196.825;    0.000
325.434; 2208.800;  167.825;    0.000
325.494; 2307.800;  214.825;    0.000
325.553; 2272.800;  203.825;    0.000
325.613; 2221.800;  206.825;    0.000
325.673; 2157.800;  148.825;    0.000
325.732; 2292.800;  207.825;    0.000
325.792; 2208.800;  151.825;    0.000
325.852; 2164.800;  195.825;    0.000
325.911; 2303.800;  201.825;    0.000
325.971; 2259.800;  224.825;    0.000
326.031; 2270.800;  201.825;    0.000
326.090; 2228.800;  203.825;    0.000
326.150; 2182.800;  183.825;    0.000
326.209; 2252.800;  226.825;    0.000
326.269; 2304.800;  194.825;    0.000
326.328; 2311.800;  200.825;    0.000
326.388; 2142.800;  177.825;    0.000
326.448; 2309.800;  239.825;    0.000
326.507; 2250.800;  197.825;    0.000
326.567; 2190.800;  161.825;    0.000
326.626; 2290.800;  220.825;    0.000
326.686; 2223.800;  178.825;    0.000
326.745; 2243.800;  167.825;    0.000
326.805; 2181.800;  176.825;    0.000
326.864; 2233.800;  204.825;    0.000
326.924; 2197.800;  218.825;    0.000
326.983; 2194.800;  201.825;    0.000
327.043; 2164.800;  219.825;    0.000
327.102; 2225.800;  202.825;    0.000
327.161; 2241.800;  228.825;    0.000
327.221; 2207.800;  217.825;    0.000
327.280; 2151.800;  188.825;    0.000
327.340; 2142.800;  209.825;    0.000
327.399; 2235.800;  189.825;    0.000
327.459; 2229.800;  216.825;    0.000
327.518; 2146.800;  200.825;    0.000
327.577; 2104.800;  194.825;    0.000
327.637; 2141.800;  180.825;    0.000
327.696; 2186.800;  208.825;    0.000
327.755; 2105.800;  218.825;    0.000
327.815; 2169.800;  234.825;    0.000
327.874; 2140.800;  259.825;    0.000
327.933; 2107.800;  192.825;    0.000
327.993; 2185.800;  208.825;    0.000
328.052; 2217.800;  221.825;    0.000
328.111; 2147.800;  203.825;    0.000
328.171; 2194.800;  221.825;    0.000
328.230; 2138.800;  222.825;    0.000
328.289; 2115.800;  254.825;    0.000
328.349; 2181.800;  232.825;    0.000
328.408; 2096.800;  223.825;    0.000
328.467; 2139.800;  198.825;    0.000
328.526; 2215.800;  217.825;    0.000
328.586; 2178.800;  185.825;    0.000
328.645; 2131.800;  210.825;    0.000
328.704; 2136.800;  211.825;    0.000
328.763; 2078.800;  231.825;    0.000
328.822; 2072.800;  254.825;    0.000
328.882; 2195.800;  216.825;    0.000
328.941; 2204.800;  239.825;    0.000
329.000; 2156.800;  251.825;    0.000
329.059; 2101.800;  227.825;    0.000
329.118; 2200.800;  233.825;    0.000
329.177; 2102.800;  188.825;    0.000
329.237; 2278.800;  257.825;    0.000
329.296; 2092.800;  265.825;    0.000
329.355; 2097.800;  245.825;    0.000
329.414; 2120.800;  236.825;    0.000
329.473; 2139.800;  242.825;    0.000
329.532; 2103.800;  228.825;    0.000
329.591; 2140.800;  206.825;    0.000
329.650; 2207.800;  250.825;    0.000
329.709; 2178.800;  278.825;    0.000
329.768; 2228.800;  219.825;    0.000
329.827; 2254.800;  254.825;    0.000
329.886; 2190.800;  221.825;    0.000
329.945; 2240.800;  239.825;    0.000
330.004; 2187.800;  245.825;    0.000
330.063; 2228.800;  201.825;    0.000
330.122; 2319.800;  227.825;    0.000
330.181; 2423.800;  196.825;    0.000
330.240; 2386.800;  203.825;    0.000
330.299; 2316.800;  214.825;    0.000
330.358; 2162.800;  196.825;    0.000
330.417; 2144.800;  201.825;    0.000
330.476; 2186.800;  248.825;    0.000
330.535; 2107.800;  253.825;    0.000
330.594; 2072.800;  231.825;    0.000
330.653; 2127.800;  210.825;    0.000
330.712; 2134.800;  242.825;    0.000
330.771; 2059.800;  240.825;    0.000
330.830; 2110.800;  230.825;    0.000
330.889; 2160.800;  217.825;    0.000
330.948; 2180.800;  211.825;    0.000
331.006; 2069.800;  217.825;    0.000
331.065; 2116.800;  170.825;    0.000
331.124; 2105.800;  211.825;    0.000
331.183; 2060.800;  192.825;    0.000
331.242; 2100.800;  227.825;    0.000
331.301; 2153.800;  240.825;    0.000
331.359; 2162.800;  223.825;    0.000
331.418; 2111.800;  215.825;    0.000
331.477; 2088.800;  230.825;    0.000
331.536; 2082.800;  221.825;    0.000
331.595; 2099.800;  198.825;    0.000
331.653; 2009.800;  207.825;    0.000
331.712; 2078.800;  217.825;    0.000
331.771; 2058.800;  221.825;    0.000
331.830; 2061.800;  222.825;    0.000
331.888; 2040.800;  213.825;    0.000
331.947; 2105.800;  233.825;    0.000
332.006; 2109.800;  212.825;    0.000
332.065; 2051.800;  200.825;    0.000
332.123; 2053.800;  223.825;    0.000
332.182; 2094.800;  180.825;    0.000
332.241; 2095.800;  192.825;    0.000
332.299; 2091.800;  172.825;    0.000
332.358; 2096.800;  216.825;    0.000
332.417; 2109.800;  211.825;    0.000
332.475; 2037.800;  222.825;    0.000
332.534; 2108.800;  238.825;    0.000
332.592; 2040.800;  216.825;    0.000
332.651; 2150.800;  196.825;    0.000
332.710; 2235.800;  215.825;    0.000
332.768; 2109.800;  193.825;    0.000
332.827; 2120.800;  201.825;    0.000
332.885; 2160.800;  226.825;    0.000
332.944; 2113.800;  174.825;    0.000
333.003; 2112.800;  187.825;    0.000
333.061; 2149.800;  208.825;    0.000
333.120; 2240.800;  202.825;    0.000
333.178; 2350.800;  227.825;    0.000
333.237; 2227.800;  215.825;    0.000
333.295; 2364.800;  245.825;    0.000
333.354; 2203.800;  194.825;    0.000
333.412; 2272.800;  165.825;    0.000
333.471; 2271.800;  219.825;    0.000
333.529; 2292.800;  255.825;    0.000
333.588; 2358.800;  264.825;    0.000
333.646; 2410.800;  231.825;    0.000
333.705; 2438.800;  232.825;    0.000
333.763; 2366.800;  233.825;    0.000
333.822; 2348.800;  221.825;    0.000
333.880; 2297.800;  180.825;    0.000
333.938; 2347.800;  229.825;    0.000
333.997; 2303.800;  194.825;    0.000
334.055; 2301.800;  230.825;    0.000
334.114; 2230.800;  230.825;    0.000
334.172; 2131.800;  170.825;    0.000
334.230; 2212.800;  192.825;    0.000
334.289; 2232.800;  225.825;    0.000
334.347; 2269.800;  233.825;    0.000
334.405; 2217.800;  207.825;    0.000
334.464; 2222.800;  175.825;    0.000
334.522; 2202.800;  180.825;    0.000
334.580; 2148.800;  172.825;    0.000
334.639; 2185.800;  230.825;    0.000
334.697; 2135.800;  217.825;    0.000
334.755; 2127.800;  217.825;    0.000
334.814; 2191.800;  210.825;    0.000
334.872; 2218.800;  170.825;    0.000
334.930; 2185.800;  167.825;    0.000
334.988; 2178.800;  244.825;    0.000
335.047; 2176.800;  202.825;    0.000
335.105; 2210.800;  181.825;    0.000
335.163; 2163.800;  195.825;    0.000
335.221; 2269.800;  203.825;    0.000
335.280; 2207.800;  216.825;    0.000
335.338; 2184.800;  197.825;    0.000
335.396; 2205.800;  232.825;    0.000
335.454; 2184.800;  211.825;    0.000
335.512; 2169.800;  221.825;    0.000
335.570; 2226.800;  216.825;    0.000
335.629; 2210.800;  244.825;    0.000
335.687; 2261.800;  244.825;    0.000
335.745; 2270.800;  189.825;    0.000
335.803; 2267.800;  198.825;    0.000
335.861; 2257.800;  236.825;    0.000
335.919; 2311.800;  234.825;    0.000
335.977; 2249.800;  214.825;    0.000
336.035; 2271.800;  242.825;    0.000
336.094; 2310.800;  219.825;    0.000
336.152; 2193.800;  196.825;    0.000
336.210; 2314.800;  221.825;    0.000
336.268; 2301.800;  257.825;    0.000
336.326; 2226.800;  211.825;    0.000
336.384; 2195.800;  217.825;    0.000
336.442; 2201.800;  176.825;    0.000
336.500; 2113.800;  242.825;    0.000
336.558; 2253.800;  238.825;    0.000
336.616; 2199.800;  261.825;    0.000
336.674; 2188.800;  200.825;    0.000
336.732; 2187.800;  208.825;    0.000
336.790; 2221.800;  183.825;    0.000
336.848; 2179.800;  199.825;    0.000
336.906; 2174.800;  240.825;    0.000
336.964; 2176.800;  234.825;    0.000
337.022; 2184.800;  282.825;    0.000
337.080; 2285.800;  265.825;    0.000
337.138; 2244.800;  255.825;    0.000
337.195; 2213.800;  200.825;    0.000
337.253; 2162.800;  199.825;    0.000
337.311; 2170.800;  233.825;    0.000
337.369; 2173.800;  250.825;    0.000
337.427; 2064.800;  201.825;    0.000
337.485; 2133.800;  228.825;    0.000
337.543; 2107.800;  221.825;    0.000
337.601; 2155.800;  232.825;    0.000
337.658; 2137.800;  215.825;    0.000
337.716; 2128.800;  198.825;    0.000
337.774; 2119.800;  262.825;    0.000
337.832; 2178.800;  220.825;    0.000
337.890; 2130.800;  194.825;    0.000
337.947; 2141.800;  205.825;    0.000
338.005; 2098.800;  229.825;    0.000
338.063; 2130.800;  237.825;    0.000
338.121; 2123.800;  220.825;    0.000
338.178; 2173.800;  227.825;    0.000
338.236; 2129.800;  238.825;    0.000
338.294; 2135.800;  242.825;    0.000
338.352; 2099.800;  230.825;    0.000
338.409; 2072.800;  222.825;    0.000
338.467; 2057.800;  233.825;    0.000
338.525; 2075.800;  253.825;    0.000
338.583; 2130.800;  221.825;    0.000
338.640; 2008.800;  225.825;    0.000
338.698; 2034.800;  229.825;    0.000
338.756; 2039.800;  238.825;    0.000
338.813; 2098.800;  260.825;    0.000
338.871; 2131.800;  246.825;    0.000
338.928; 2164.800;  240.825;    0.000
338.986; 2139.800;  228.825;    0.000
339.044; 2164.800;  265.825;    0.000
339.101; 2107.800;  224.825;    0.000
339.159; 2082.800;  235.825;    0.000
339.216; 2198.800;  244.825;    0.000
339.274; 2192.800;  266.825;    0.000
339.332; 2136.800;  248.825;    0.000
339.389; 2122.800;  246.825;    0.000
339.447; 2031.800;  237.825;    0.000
339.504; 2119.800;  244.825;    0.000
339.562; 2128.800;  249.825;    0.000
339.619; 2146.800;  266.825;    0.000
339.677; 2065.800;  263.825;    0.000
339.734; 2030.800;  216.825;    0.000
339.792; 2104.800;  276.825;    0.000
339.849; 2106.800;  240.825;    0.000
339.907; 2169.800;  275.825;    0.000
339.964; 2121.800;  243.825;    0.000
340.022; 2085.800;  224.825;    0.000
340.079; 2078.800;  230.825;    0.000
340.137; 2085.800;  232.825;    0.000
340.194; 2179.800;  261.825;    0.000
340.252; 2101.800;  219.825;    0.000
340.309; 2111.800;  212.825;    0.000
340.366; 2131.800;  231.825;    0.000
340.424; 2177.800;  244.825;    0.000
340.481; 2142.800;  238.825;    0.000
340.538; 2083.800;  217.825;    0.000
340.596; 2142.800;  224.825;    0.000
340.653; 2144.800;  225.825;    0.000
340.711; 2171.800;  276.825;    0.000
340.768; 2147.800;  239.825;    0.000
340.825; 2130.800;  216.825;    0.000
340.883; 2097.800;  264.825;    0.000
340.940; 2150.800;  256.825;    0.000
340.997; 2078.800;  230.825;    0.000
341.054; 2090.800;  229.825;    0.000
341.112; 2091.800;  220.825;    0.000
341.169; 2219.800;  276.825;    0.000
341.226; 2177.800;  224.825;    0.000
341.284; 2163.800;  235.825;    0.000
341.341; 2155.800;  226.825;    0.000
341.398; 2116.800;  200.825;    0.000
341.455; 2102.800;  242.825;    0.000
341.512; 2191.800;  226.825;    0.000
341.570; 2162.800;  299.825;    0.000
341.627; 2152.800;  221.825;    0.000
341.684; 2076.800;  204.825;    0.000
341.741; 2261.800;  285.825;    0.000
341.798; 2192.800;  237.825;    0.000
341.856; 2143.800;  223.825;    0.000
341.913; 2154.800;  232.825;    0.000
341.970; 2108.800;  250.825;    0.000
342.027; 2125.800;  272.825;    0.000
342.084; 2174.800;  242.825;    0.000
342.141; 2170.800;  207.825;    0.000
342.198; 2137.800;  252.825;    0.000
342.255; 2108.800;  189.825;    0.000
342.313; 2139.800;  222.825;    0.000
342.370; 2177.800;  203.825;    0.000
342.427; 2113.800;  261.825;    0.000
342.484; 2167.800;  230.825;    0.000
342.541; 2112.800;  224.825;    0.000
342.598; 2144.800;  245.825;    0.000
342.655; 2105.800;  235.825;    0.000
342.712; 2173.800;  238.825;    0.000
342.769; 2144.800;  235.825;    0.000
342.826; 2178.800;  232.825;    0.000
342.883; 2086.800;  212.825;    0.000
342.940; 2103.800;  189.825;    0.000
342.997; 2115.800;  241.825;    0.000
343.054; 2116.800;  235.825;    0.000
343.111; 2087.800;  216.825;    0.000
343.168; 2031.800;  202.825;    0.000
343.225; 2180.800;  228.825;    0.000
343.282; 2166.800;  208.825;    0.000
343.339; 2124.800;  241.825;    0.000
343.395; 2106.800;  206.825;    0.000
343.452; 2208.800;  227.825;    0.000
343.509; 2202.800;  212.825;    0.000
343.566; 2261.800;  266.825;    0.000
343.623; 2148.800;  240.825;    0.000
343.680; 2261.800;  215.825;    0.000
343.737; 2232.800;  231.825;    0.000
343.794; 2285.800;  256.825;    0.000
343.850; 2273.800;  235.825;    0.000
343.907; 2290.800;  246.825;    0.000
343.964; 2289.800;  241.825;    0.000
344.021; 2300.800;  237.825;    0.000
344.078; 2287.800;  248.825;    0.000
344.134; 2295.800;  225.825;    0.000
344.191; 2327.800;  209.825;    0.000
344.248; 2305.800;  234.825;    0.000
344.305; 2254.800;  224.825;    0.000
344.361; 2356.800;  194.825;    0.000
344.418; 2240.800;  240.825;    0.000
344.475; 2232.800;  252.825;    0.000
344.532; 2217.800;  251.825;    0.000
344.588; 2291.800;  240.825;    0.000
344.645; 2258.800;  253.825;    0.000
344.702; 2198.800;  216.825;    0.000
344.758; 2302.800;  258.825;    0.000
344.815; 2271.800;  239.825;    0.000
344.872; 2228.800;  216.825;    0.000
344.928; 2251.800;  236.825;    0.000
344.985; 2233.800;  238.825;    0.000
345.042; 2209.800;  211.825;    0.000
345.098; 2216.800;  223.825;    0.000
345.155; 2186.800;  266.825;    0.000
345.212; 2288.800;  266.825;    0.000
345.268; 2249.800;  245.825;    0.000
345.325; 2213.800;  225.825;    0.000
345.381; 2322.800;  223.825;    0.000
345.438; 2307.800;  259.825;    0.000
345.495; 2334.800;  233.825;    0.000
345.551; 2345.800;  254.825;    0.000
345.608; 2203.800;  212.825;    0.000
345.664; 2185.800;  225.825;    0.000
345.721; 2202.800;  223.825;    0.000
345.777; 2113.800;  226.825;    0.000
345.834; 2163.800;  215.825;    0.000
345.890; 2234.800;  230.825;    0.000
345.947; 2235.800;  232.825;    0.000
346.003; 2237.800;  241.825;    0.000
346.060; 2257.800;  241.825;    0.000
346.116; 2238.800;  231.825;    0.000
346.173; 2229.800;  229.825;    0.000
346.229; 2270.800;  262.825;    0.000
346.285; 2149.800;  232.825;    0.000
346.342; 2251.800;  228.825;    0.000
346.398; 2263.800;  203.825;    0.000
346.455; 2361.800;  214.825;    0.000
346.511; 2285.800;  245.825;    0.000
346.567; 2287.800;  192.825;    0.000
346.624; 2254.800;  206.825;    0.000
346.680; 2310.800;  209.825;    0.000
346.737; 2287.800;  239.825;    0.000
346.793; 2271.800;  234.825;    0.000
346.849; 2316.800;  252.825;    0.000
346.906; 2323.800;  247.825;    0.000
346.962; 2375.800;  274.825;    0.000
347.018; 2426.800;  225.825;    0.000
347.074; 2290.800;  261.825;    0.000
347.131; 2264.800;  230.825;    0.000
347.187; 2326.800;  269.825;    0.000
347.243; 2282.800;  261.825;    0.000
347.300; 2287.800;  236.825;    0.000
347.356; 2317.800;  284.825;    0.000
347.412; 2340.800;  243.825;    0.000
347.468; 2283.800;  276.825;    0.000
347.524; 2347.800;  232.825;    0.000
347.581; 2270.800;  242.825;    0.000
347.637; 2301.800;  270.825;    0.000
347.693; 2316.800;  269.825;    0.000
347.749; 2258.800;  278.825;    0.000
347.805; 2348.800;  224.825;    0.000
347.862; 2291.800;  207.825;    0.000
347.918; 2191.800;  259.825;    0.000
347.974; 2284.800;  244.825;    0.000
348.030; 2245.800;  219.825;    0.000
348.086; 2254.800;  250.825;    0.000
348.142; 2332.800;  251.825;    0.000
348.198; 2272.800;  267.825;    0.000
348.254; 2318.800;  230.825;    0.000
348.311; 2213.800;  261.825;    0.000
348.367; 2275.800;  259.825;    0.000
348.423; 2308.800;  251.825;    0.000
348.479; 2284.800;  251.825;    0.000
348.535; 2271.800;  269.825;    0.000
348.591; 2275.800;  238.825;    0.000
348.647; 2298.800;  273.825;    0.000
348.703; 2268.800;  291.825;    0.000
348.759; 2250.800;  231.825;    0.000
348.815; 2326.800;  286.825;    0.000
348.871; 2190.800;  265.825;    0.000
348.927; 2271.800;  234.825;    0.000
348.983; 2336.800;  267.825;    0.000
349.039; 2225.800;  233.825;    0.000
349.095; 2331.800;  225.825;    0.000
349.151; 2349.800;  242.825;    0.000
349.207; 2268.800;  223.825;    0.000
349.263; 2238.800;  219.825;    0.000
349.319; 2261.800;  226.825;    0.000
349.374; 2244.800;  232.825;    0.000
349.430; 2301.800;  235.825;    0.000
349.486; 2280.800;  227.825;    0.000
349.542; 2377.800;  253.825;    0.000
349.598; 2247.800;  227.825;    0.000
349.654; 2282.800;  270.825;    0.000
349.710; 2333.800;  233.825;    0.000
349.766; 2264.800;  245.825;    0.000
349.821; 2295.800;  242.825;    0.000
349.877; 2310.800;  229.825;    0.000
349.933; 2355.800;  229.825;    0.000
349.989; 2377.800;  230.825;    0.000
350.045; 2316.800;  236.825;    0.000
350.100; 2402.800;  237.825;    0.000
350.156; 2249.800;  230.825;    0.000
350.212; 2302.800;  254.825;    0.000
350.268; 2315.800;  239.825;    0.000
350.323; 2352.800;  204.825;    0.000
350.379; 2317.800;  246.825;    0.000
350.435; 2341.800;  249.825;    0.000
350.491; 2301.800;  217.825;    0.000
350.546; 2216.800;  231.825;    0.000
350.602; 2288.800;  240.825;    0.000
350.658; 2323.800;  235.825;    0.000
350.713; 2297.800;  234.825;    0.000
350.769; 2373.800;  218.825;    0.000
350.825; 2266.800;  227.825;    0.000
350.880; 2318.800;  226.825;    0.000
350.936; 2296.800;  247.825;    0.000
350.992; 2283.800;  213.825;    0.000
351.047; 2321.800;  207.825;    0.000
351.103; 2267.800;  271.825;    0.000
351.158; 2267.800;  251.825;    0.000
351.214; 2230.800;  199.825;    0.000
351.270; 2186.800;  214.825;    0.000
351.325; 2301.800;  235.825;    0.000
351.381; 2268.800;  223.825;    0.000
351.436; 2346.800;  237.825;    0.000
351.492; 2409.800;  221.825;    0.000
351.547; 2345.800;  237.825;    0.000
351.603; 2379.800;  239.825;    0.000
351.658; 2366.800;  209.825;    0.000
351.714; 2321.800;  226.825;    0.000
351.769; 2437.800;  238.825;    0.000
351.825; 2401.800;  226.825;    0.000
351.880; 2394.800;  217.825;    0.000
351.936; 2437.800;  246.825;    0.000
351.991; 2385.800;  233.825;    0.000
352.047; 2325.800;  215.825;    0.000
352.102; 2243.800;  243.825;    0.000
352.158; 2277.800;  234.825;    0.000
352.213; 2289.800;  201.825;    0.000
352.268; 2279.800;  234.825;    0.000
352.324; 2339.800;  211.825;    0.000
352.379; 2312.800;  221.825;    0.000
352.434; 2327.800;  259.825;    0.000
352.490; 2373.800;  250.825;    0.000
352.545; 2362.800;  251.825;    0.000
352.601; 2302.800;  283.825;    0.000
352.656; 2300.800;  236.825;    0.000
352.711; 2308.800;  237.825;    0.000
352.767; 2281.800;  201.825;    0.000
352.822; 2313.800;  209.825;    0.000
352.877; 2275.800;  239.825;    0.000
352.932; 2300.800;  228.825;    0.000
352.988; 2318.800;  202.825;    0.000
353.043; 2383.800;  268.825;    0.000
353.098; 2303.800;  208.825;    0.000
353.153; 2360.800;  219.825;    0.000
353.209; 2312.800;  252.825;    0.000
353.264; 2327.800;  225.825;    0.000
353.319; 2302.800;  234.825;    0.000
353.374; 2308.800;  236.825;    0.000
353.430; 2264.800;  245.825;    0.000
353.485; 2308.800;  238.825;    0.000
353.540; 2290.800;  238.825;    0.000
353.595; 2349.800;  215.825;    0.000
353.650; 2408.800;  238.825;    0.000
353.705; 2310.800;  274.825;    0.000
353.761; 2338.800;  229.825;    0.000
353.816; 2233.800;  275.825;    0.000
353.871; 2349.800;  245.825;    0.000
353.926; 2310.800;  253.825;    0.000
353.981; 2307.800;  269.825;    0.000
354.036; 2329.800;  246.825;    0.000
354.091; 2359.800;  257.825;    0.000
354.146; 2377.800;  278.825;    0.000
354.201; 2251.800;  276.825;    0.000
354.256; 2296.800;  224.825;    0.000
354.311; 2419.800;  287.825;    0.000
354.367; 2274.800;  210.825;    0.000
354.422; 2375.800;  231.825;    0.000
354.477; 2280.800;  226.825;    0.000
354.532; 2290.800;  262.825;    0.000
354.587; 2304.800;  275.825;    0.000
354.642; 2283.800;  247.825;    0.000
354.697; 2370.800;  251.825;    0.000
354.751; 2298.800;  249.825;    0.000
354.806; 2325.800;  217.825;    0.000
354.861; 2204.800;  247.825;    0.000
354.916; 2292.800;  259.825;    0.000
354.971; 2363.800;  241.825;    0.000
355.026; 2405.800;  250.825;    0.000
355.081; 2339.800;  244.825;    0.000
355.136; 2340.800;  203.825;    0.000
355.191; 2342.800;  241.825;    0.000
355.246; 2380.800;  248.825;    0.000
355.301; 2313.800;  259.825;    0.000
355.355; 2278.800;  236.825;    0.000
355.410; 2454.800;  221.825;    0.000
355.465; 2327.800;  206.825;    0.000
355.520; 2298.800;  258.825;    0.000
355.575; 2369.800;  273.825;    0.000
355.630; 2299.800;  252.825;    0.000
355.684; 2327.800;  246.825;    0.000
355.739; 2240.800;  251.825;    0.000
355.794; 2307.800;  247.825;    0.000
355.849; 2347.800;  246.825;    0.000
355.904; 2284.800;  262.825;    0.000
355.958; 2330.800;  249.825;    0.000
356.013; 2246.800;  213.825;    0.000
356.068; 2346.800;  255.825;    0.000
356.123; 2306.800;  205.825;    0.000
356.177; 2402.800;  239.825;    0.000
356.232; 2317.800;  258.825;    0.000
356.287; 2423.800;  248.825;    0.000
356.341; 2359.800;  221.825;    0.000
356.396; 2371.800;  220.825;    0.000
356.451; 2307.800;  231.825;    0.000
356.505; 2341.800;  231.825;    0.000
356.560; 2312.800;  254.825;    0.000
356.615; 2342.800;  234.825;    0.000
356.669; 2390.800;  250.825;    0.000
356.724; 2384.800;  261.825;    0.000
356.778; 2295.800;  207.825;    0.000
356.833; 2284.800;  205.825;    0.000
356.888; 2281.800;  235.825;    0.000
356.942; 2333.800;  205.825;    0.000
356.997; 2436.800;  276.825;    0.000
357.051; 2292.800;  243.825;    0.000
357.106; 2376.800;  242.825;    0.000
357.160; 2329.800;  241.825;    0.000
357.215; 2261.800;  212.825;    0.000
357.269; 2282.800;  238.825;    0.000
357.324; 2340.800;  223.825;    0.000
357.378; 2328.800;  221.825;    0.000
357.433; 2247.800;  262.825;    0.000
357.487; 2309.800;  246.825;    0.000
357.542; 2289.800;  221.825;    0.000
357.596; 2354.800;  225.825;    0.000
357.651; 2344.800;  244.825;    0.000
357.705; 2362.800;  269.825;    0.000
357.760; 2275.800;  209.825;    0.000
357.814; 2281.800;  250.825;    0.000
357.868; 2331.800;  266.825;    0.000
357.923; 2276.800;  248.825;    0.000
357.977; 2285.800;  262.825;    0.000
358.032; 2294.800;  228.825;    0.000
358.086; 2409.800;  257.825;    0.000
358.140; 2342.800;  217.825;    0.000
358.195; 2308.800;  246.825;    0.000
358.249; 2385.800;  255.825;    0.000
358.303; 2301.800;  252.825;    0.000
358.358; 2317.800;  278.825;    0.000
358.412; 2309.800;  276.825;    0.000
358.466; 2350.800;  275.825;    0.000
358.521; 2317.800;  229.825;    0.000
358.575; 2209.800;  270.825;    0.000
358.629; 2257.800;  239.825;    0.000
358.683; 2257.800;  254.825;    0.000
358.738; 2305.800;  239.825;    0.000
358.792; 2261.800;  272.825;    0.000
358.846; 2285.800;  289.825;    0.000
358.900; 2299.800;  299.825;    0.000
358.954; 2237.800;  247.825;    0.000
359.009; 2301.800;  245.825;    0.000
359.063; 2241.800;  272.825;    0.000
359.117; 2255.800;  242.825;    0.000
359.171; 2404.800;  279.825;    0.000
359.225; 2377.800;  221.825;    0.000
359.280; 2249.800;  238.825;    0.000
359.334; 2295.800;  264.825;    0.000
359.388; 2338.800;  273.825;    0.000
359.442; 2312.800;  233.825;    0.000
359.496; 2239.800;  226.825;    0.000
359.550; 2293.800;  271.825;    0.000
359.604; 2328.800;  296.825;    0.000
359.658; 2275.800;  252.825;    0.000
359.712; 2324.800;  256.825;    0.000
359.766; 2272.800;  257.825;    0.000
359.820; 2263.800;  239.825;    0.000
359.875; 2276.800;  252.825;    0.000
359.929; 2324.800;  258.825;    0.000
359.983; 2244.800;  232.825;    0.000
360.037; 2264.800;  268.825;    0.000
360.091; 2342.800;  303.825;    0.000
360.145; 2228.800;  232.825;    0.000
360.199; 2284.800;  255.825;    0.000
360.253; 2278.800;  252.825;    0.000
360.306; 2306.800;  278.825;    0.000
360.360; 2317.800;  249.825;    0.000
360.414; 2248.800;  274.825;    0.000
360.468; 2254.800;  247.825;    0.000
360.522; 2279.800;  268.825;    0.000
360.576; 2335.800;  263.825;    0.000
360.630; 2333.800;  296.825;    0.000
360.684; 2244.800;  253.825;    0.000
360.738; 2295.800;  301.825;    0.000
360.792; 2272.800;  282.825;    0.000
360.846; 2284.800;  277.825;    0.000
360.899; 2337.800;  292.825;    0.000
360.953; 2236.800;  266.825;    0.000
361.007; 2260.800;  240.825;    0.000
361.061; 2300.800;  247.825;    0.000
361.115; 2300.800;  276.825;    0.000
361.168; 2263.800;  288.825;    0.000
361.222; 2216.800;  271.825;    0.000
361.276; 2266.800;  270.825;    0.000
361.330; 2308.800;  295.825;    0.000
361.384; 2228.800;  276.825;    0.000
361.437; 2292.800;  280.825;    0.000
361.491; 2278.800;  261.825;    0.000
361.545; 2329.800;  273.825;    0.000
361.599; 2298.800;  269.825;    0.000
361.652; 2272.800;  258.825;    0.000
361.706; 2322.800;  270.825;    0.000
361.760; 2267.800;  294.825;    0.000
361.813; 2223.800;  244.825;    0.000
361.867; 2275.800;  294.825;    0.000
361.921; 2256.800;  285.825;    0.000
361.974; 2277.800;  269.825;    0.000
362.028; 2236.800;  275.825;    0.000
362.082; 2282.800;  270.825;    0.000
362.135; 2228.800;  259.825;    0.000
362.189; 2232.800;  302.825;    0.000
362.242; 2297.800;  296.825;    0.000
362.296; 2256.800;  285.825;    0.000
362.350; 2307.800;  303.825;    0.000
362.403; 2324.800;  271.825;    0.000
362.457; 2242.800;  285.825;    0.000
362.510; 2307.800;  288.825;    0.000
362.564; 2248.800;  268.825;    0.000
362.617; 2306.800;  285.825;    0.000
362.671; 2326.800;  277.825;    0.000
362.724; 2185.800;  242.825;    0.000
362.778; 2234.800;  274.825;    0.000
362.831; 2146.800;  280.825;    0.000
362.885; 2267.800;  284.825;    0.000
362.938; 2161.800;  276.825;    0.000
362.992;  343.800;  289.825;    0.000
363.045;  301.800;  247.825;    0.000
363.099;  299.800;  260.825;    0.000
363.152;  294.800;  258.825;    0.000
363.205;  287.800;  286.825;    0.000
363.259;  290.800;  236.825;    0.000
363.312;  309.800;  297.825;    0.000
363.366;  280.800;  266.825;    0.000
363.419;  279.800;  309.825;    0.000
363.472;  292.800;  293.825;    0.000
363.526;  291.800;  270.825;    0.000
363.579;  277.800;  276.825;    0.000
363.632;  286.800;  279.825;    0.000
363.686;  276.800;  292.825;    0.000
363.739;  292.800;  248.825;    0.000
363.792;  292.800;  287.825;    0.000

