
Integration time [ms]:   1.000
Averaging Nr. [scans]: 1
Smoothing Nr. [pixels]: 0
Data measured with spectrometer [name]: VIS
Wave   ;Sample   ;Dark     ;Reference
[nm]   ;[counts] ;[counts] ;[counts] 

450.961;  190.800;  200.375;    0.000
451.100;  248.800;  241.375;    0.000
451.239;  207.800;  201.375;    0.000
451.377;  253.800;  262.375;    0.000
451.516;  207.800;  229.375;    0.000
451.655;  224.800;  211.375;    0.000
451.794;  203.800;  225.375;    0.000
451.932;  233.800;  247.375;    0.000
452.071;  242.800;  260.375;    0.000
452.210;  211.800;  235.375;    0.000
452.348;  203.800;  276.375;    0.000
452.487;  225.800;  259.375;    0.000
452.626;  210.800;  254.375;    0.000
452.764;  206.800;  233.375;    0.000
452.903;  203.800;  202.375;    0.000
453.042;  329.800;  211.375;    0.000
453.180; 4102.800;  240.375;    0.000
453.319; 4028.800;  238.375;    0.000
453.458; 4056.800;  215.375;    0.000
453.596; 4109.800;  252.375;    0.000
453.735; 4100.800;  240.375;    0.000
453.873; 4200.800;  257.375;    0.000
454.012; 4155.800;  228.375;    0.000
454.150; 4325.800;  270.375;    0.000
454.289; 4330.800;  233.375;    0.000
454.427; 4465.800;  243.375;    0.000
454.566; 4373.800;  257.375;    0.000
454.704; 4457.800;  243.375;    0.000
454.843; 4464.800;  190.375;    0.000
454.981; 4460.800;  271.375;    0.000
455.120; 4424.800;  210.375;    0.000
455.258; 4642.800;  235.375;    0.000
455.397; 4600.800;  214.375;    0.000
455.535; 4629.800;  214.375;    0.000
455.674; 4643.800;  184.375;    0.000
455.812; 4655.800;  228.375;    0.000
455.951; 4744.800;  204.375;    0.000
456.089; 4845.800;  220.375;    0.000
456.227; 4766.800;  196.375;    0.000
456.366; 4925.800;  261.375;    0.000
456.504; 5027.800;  249.375;    0.000
456.642; 5109.800;  245.375;    0.000
456.781; 5106.800;  183.375;    0.000
456.919; 5114.800;  203.375;    0.000
457.057; 5212.800;  177.375;    0.000
457.196; 5355.800;  191.375;    0.000
457.334; 5352.800;  233.375;    0.000
457.472; 5372.800;  214.375;    0.000
457.610; 5490.800;  230.375;    0.000
457.749; 5613.800;  247.375;    0.000
457.887; 5575.800;  220.375;    0.000
458.025; 5571.800;  195.375;    0.000
458.163; 5767.800;  224.375;    0.000
458.301; 6020.800;  228.375;    0.000
458.440; 5950.800;  200.375;    0.000
458.578; 6087.800;  233.375;    0.000
458.716; 6199.800;  182.375;    0.000
458.854; 6293.800;  251.375;    0.000
458.992; 6247.800;  187.375;    0.000
459.130; 6312.800;  229.375;    0.000
459.269; 6551.800;  237.375;    0.000
459.407; 6543.800;  228.375;    0.000
459.545; 6464.800;  216.375;    0.000
459.683; 6749.800;  204.375;    0.000
459.821; 6705.800;  191.375;    0.000
459.959; 6815.800;  227.375;    0.000
460.097; 7215.800;  221.375;    0.000
460.235; 7023.800;  241.375;    0.000
460.373; 7144.800;  231.375;    0.000
460.511; 7210.800;  214.375;    0.000
460.649; 7255.800;  172.375;    0.000
460.787; 7499.800;  275.375;    0.000
460.925; 7285.800;  175.375;    0.000
461.063; 7419.800;  252.375;    0.000
461.201; 7392.800;  210.375;    0.000
461.339; 7637.800;  237.375;    0.000
461.477; 7499.800;  210.375;    0.000
461.615; 7586.800;  236.375;    0.000
461.753; 7561.800;  215.375;    0.000
461.891; 7661.800;  222.375;    0.000
462.029; 7898.800;  227.375;    0.000
462.166; 7873.800;  202.375;    0.000
462.304; 8120.800;  191.375;    0.000
462.442; 8318.800;  210.375;    0.000
462.580; 8314.800;  184.375;    0.000
462.718; 8428.800;  220.375;    0.000
462.856; 8492.800;  226.375;    0.000
462.993; 8329.800;  254.375;    0.000
463.131; 8460.800;  200.375;    0.000
463.269; 8344.800;  215.375;    0.000
463.407; 8133.800;  213.375;    0.000
463.545; 8023.800;  242.375;    0.000
463.682; 8086.800;  212.375;    0.000
463.820; 8417.800;  185.375;    0.000
463.958; 8693.800;  212.375;    0.000
464.095; 8866.800;  181.375;    0.000
464.233; 9021.800;  192.375;    0.000
464.371; 8834.800;  247.375;    0.000
464.509; 8918.800;  151.375;    0.000
464.646; 8784.800;  207.375;    0.000
464.784; 8650.800;  199.375;    0.000
464.921; 8504.800;  253.375;    0.000
465.059; 8314.800;  214.375;    0.000
465.197; 8182.800;  200.375;    0.000
465.334; 7915.800;  180.375;    0.000
465.472; 7850.800;  204.375;    0.000
465.609; 7817.800;  203.375;    0.000
465.747; 7782.800;  214.375;    0.000
465.885; 7708.800;  233.375;    0.000
466.022; 7629.800;  215.375;    0.000
466.160; 7530.800;  201.375;    0.000
466.297; 7586.800;  196.375;    0.000
466.435; 7450.800;  230.375;    0.000
466.572; 7589.800;  227.375;    0.000
466.710; 7464.800;  218.375;    0.000
466.847; 7454.800;  245.375;    0.000
466.985; 7368.800;  223.375;    0.000
467.122; 7394.800;  168.375;    0.000
467.260; 7554.800;  196.375;    0.000
467.397; 7445.800;  198.375;    0.000
467.534; 7418.800;  219.375;    0.000
467.672; 7379.800;  214.375;    0.000
467.809; 7402.800;  185.375;    0.000
467.947; 7468.800;  247.375;    0.000
468.084; 7388.800;  196.375;    0.000
468.221; 7570.800;  238.375;    0.000
468.359; 7373.800;  236.375;    0.000
468.496; 7506.800;  235.375;    0.000
468.633; 7353.800;  218.375;    0.000
468.771; 7367.800;  223.375;    0.000
468.908; 7544.800;  208.375;    0.000
469.045; 7466.800;  249.375;    0.000
469.183; 7618.800;  222.375;    0.000
469.320; 7636.800;  216.375;    0.000
469.457; 7741.800;  224.375;    0.000
469.594; 7693.800;  259.375;    0.000
469.732; 7740.800;  223.375;    0.000
469.869; 7970.800;  234.375;    0.000
470.006; 7879.800;  225.375;    0.000
470.143; 7928.800;  243.375;    0.000
470.280; 7998.800;  208.375;    0.000
470.417; 7967.800;  232.375;    0.000
470.555; 8038.800;  218.375;    0.000
470.692; 7967.800;  223.375;    0.000
470.829; 8057.800;  238.375;    0.000
470.966; 7864.800;  205.375;    0.000
471.103; 8045.800;  259.375;    0.000
471.240; 7798.800;  214.375;    0.000
471.377; 7971.800;  226.375;    0.000
471.514; 7796.800;  250.375;    0.000
471.651; 7909.800;  221.375;    0.000
471.789; 7820.800;  242.375;    0.000
471.926; 7924.800;  190.375;    0.000
472.063; 7665.800;  234.375;    0.000
472.200; 7727.800;  252.375;    0.000
472.337; 7626.800;  241.375;    0.000
472.474; 7697.800;  244.375;    0.000
472.611; 7685.800;  268.375;    0.000
472.748; 7522.800;  222.375;    0.000
472.884; 7589.800;  271.375;    0.000
473.021; 7604.800;  195.375;    0.000
473.158; 7622.800;  205.375;    0.000
473.295; 7562.800;  223.375;    0.000
473.432; 7562.800;  216.375;    0.000
473.569; 7476.800;  196.375;    0.000
473.706; 7407.800;  190.375;    0.000
473.843; 7524.800;  211.375;    0.000
473.980; 7584.800;  254.375;    0.000
474.117; 7592.800;  185.375;    0.000
474.253; 7641.800;  229.375;    0.000
474.390; 7601.800;  238.375;    0.000
474.527; 7499.800;  220.375;    0.000
474.664; 7609.800;  242.375;    0.000
474.801; 7573.800;  229.375;    0.000
474.937; 7642.800;  229.375;    0.000
475.074; 7758.800;  210.375;    0.000
475.211; 7709.800;  219.375;    0.000
475.348; 7696.800;  226.375;    0.000
475.484; 7626.800;  207.375;    0.000
475.621; 7676.800;  233.375;    0.000
475.758; 7766.800;  230.375;    0.000
475.894; 7842.800;  234.375;    0.000
476.031; 7659.800;  202.375;    0.000
476.168; 7746.800;  222.375;    0.000
476.304; 7793.800;  237.375;    0.000
476.441; 7852.800;  238.375;    0.000
476.578; 7840.800;  216.375;    0.000
476.714; 7875.800;  212.375;    0.000
476.851; 8008.800;  210.375;    0.000
476.987; 8082.800;  239.375;    0.000
477.124; 8125.800;  250.375;    0.000
477.261; 8143.800;  227.375;    0.000
477.397; 8171.800;  189.375;    0.000
477.534; 8277.800;  204.375;    0.000
477.670; 8286.800;  190.375;    0.000
477.807; 8278.800;  198.375;    0.000
477.943; 8495.800;  216.375;    0.000
478.080; 8441.800;  213.375;    0.000
478.216; 8562.800;  239.375;    0.000
478.353; 8456.800;  218.375;    0.000
478.489; 8686.800;  184.375;    0.000
478.626; 8747.800;  223.375;    0.000
478.762; 8632.800;  213.375;    0.000
478.898; 8870.800;  216.375;    0.000
479.035; 8717.800;  250.375;    0.000
479.171; 8722.800;  201.375;    0.000
479.308; 8777.800;  242.375;    0.000
479.444; 8725.800;  205.375;    0.000
479.580; 8732.800;  203.375;    0.000
479.717; 8828.800;  260.375;    0.000
479.853; 8702.800;  225.375;    0.000
479.989; 8952.800;  226.375;    0.000
480.126; 9008.800;  211.375;    0.000
480.262; 8921.800;  220.375;    0.000
480.398; 9027.800;  207.375;    0.000
480.535; 9010.800;  179.375;    0.000
480.671; 8943.800;  200.375;    0.000
480.807; 8779.800;  190.375;    0.000
480.943; 8808.800;  165.375;    0.000
481.080; 8705.800;  210.375;    0.000
481.216; 8682.800;  232.375;    0.000
481.352; 8913.800;  235.375;    0.000
481.488; 8681.800;  208.375;    0.000
481.624; 8667.800;  245.375;    0.000
481.760; 8658.800;  210.375;    0.000
481.897; 8674.800;  189.375;    0.000
482.033; 8628.800;  256.375;    0.000
482.169; 8744.800;  257.375;    0.000
482.305; 8541.800;  199.375;    0.000
482.441; 8618.800;  182.375;    0.000
482.577; 8620.800;  223.375;    0.000
482.713; 8755.800;  243.375;    0.000
482.849; 8645.800;  197.375;    0.000
482.985; 8690.800;  240.375;    0.000
483.121; 8374.800;  210.375;    0.000
483.258; 8593.800;  248.375;    0.000
483.394; 8553.800;  224.375;    0.000
483.530; 8504.800;  209.375;    0.000
483.665; 8716.800;  225.375;    0.000
483.801; 8614.800;  216.375;    0.000
483.937; 8704.800;  211.375;    0.000
484.073; 8724.800;  259.375;    0.000
484.209; 8791.800;  191.375;    0.000
484.345; 8679.800;  239.375;    0.000
484.481; 8802.800;  231.375;    0.000
484.617; 8895.800;  216.375;    0.000
484.753; 8857.800;  180.375;    0.000
484.889; 8801.800;  252.375;    0.000
485.025; 8869.800;  244.375;    0.000
485.161; 8976.800;  242.375;    0.000
485.296; 8957.800;  235.375;    0.000
485.432; 9060.800;  247.375;    0.000
485.568; 9066.800;  203.375;    0.000
485.704; 9044.800;  229.375;    0.000
485.840; 8989.800;  230.375;    0.000
485.975; 8836.800;  266.375;    0.000
486.111; 8979.800;  220.375;    0.000
486.247; 8998.800;  264.375;    0.000
486.383; 9157.800;  213.375;    0.000
486.518; 8896.800;  222.375;    0.000
486.654; 9059.800;  244.375;    0.000
486.790; 9109.800;  273.375;    0.000
486.926; 8878.800;  203.375;    0.000
487.061; 8950.800;  227.375;    0.000
487.197; 9035.800;  210.375;    0.000
487.333; 8849.800;  209.375;    0.000
487.468; 8864.800;  197.375;    0.000
487.604; 8886.800;  230.375;    0.000
487.740; 8920.800;  254.375;    0.000
487.875; 8885.800;  286.375;    0.000
488.011; 8944.800;  225.375;    0.000
488.146; 8899.800;  251.375;    0.000
488.282; 8918.800;  242.375;    0.000
488.417; 9011.800;  230.375;    0.000
488.553; 8808.800;  260.375;    0.000
488.688; 8879.800;  207.375;    0.000
488.824; 8755.800;  204.375;    0.000
488.960; 8840.800;  248.375;    0.000
489.095; 8725.800;  204.375;    0.000
489.230; 8969.800;  227.375;    0.000
489.366; 8883.800;  226.375;    0.000
489.501; 9085.800;  199.375;    0.000
489.637; 8995.800;  233.375;    0.000
489.772; 8818.800;  249.375;    0.000
489.908; 9036.800;  200.375;    0.000
490.043; 8975.800;  246.375;    0.000
490.178; 8976.800;  222.375;    0.000
490.314; 9005.800;  219.375;    0.000
490.449; 9008.800;  227.375;    0.000
490.585; 8923.800;  209.375;    0.000
490.720; 8899.800;  238.375;    0.000
490.855; 8979.800;  222.375;    0.000
490.991; 8920.800;  202.375;    0.000
491.126; 8893.800;  272.375;    0.000
491.261; 8913.800;  261.375;    0.000
491.396; 9081.800;  190.375;    0.000
491.532; 8833.800;  202.375;    0.000
491.667; 8911.800;  208.375;    0.000
491.802; 8778.800;  203.375;    0.000
491.937; 8966.800;  253.375;    0.000
492.073; 9120.800;  242.375;    0.000
492.208; 9016.800;  230.375;    0.000
492.343; 9057.800;  183.375;    0.000
492.478; 9114.800;  246.375;    0.000
492.613; 8980.800;  223.375;    0.000
492.749; 8995.800;  230.375;    0.000
492.884; 9035.800;  190.375;    0.000
493.019; 8954.800;  234.375;    0.000
493.154; 8892.800;  218.375;    0.000
493.289; 8947.800;  222.375;    0.000
493.424; 9197.800;  196.375;    0.000
493.559; 8957.800;  202.375;    0.000
493.694; 9116.800;  180.375;    0.000
493.829; 8805.800;  224.375;    0.000
493.964; 8985.800;  218.375;    0.000
494.099; 9068.800;  275.375;    0.000
494.234; 9112.800;  226.375;    0.000
494.369; 9179.800;  225.375;    0.000
494.504; 9046.800;  219.375;    0.000
494.639; 9076.800;  296.375;    0.000
494.774; 9005.800;  228.375;    0.000
494.909; 9029.800;  222.375;    0.000
495.044; 8981.800;  215.375;    0.000
495.179; 8900.800;  200.375;    0.000
495.314; 9025.800;  235.375;    0.000
495.449; 9048.800;  249.375;    0.000
495.584; 9010.800;  228.375;    0.000
495.719; 9088.800;  212.375;    0.000
495.854; 9067.800;  201.375;    0.000
495.988; 9044.800;  248.375;    0.000
496.123; 9061.800;  209.375;    0.000
496.258; 9190.800;  249.375;    0.000
496.393; 9213.800;  223.375;    0.000
496.528; 9255.800;  209.375;    0.000
496.663; 9341.800;  207.375;    0.000
496.797; 9490.800;  229.375;    0.000
496.932; 9430.800;  225.375;    0.000
497.067; 9654.800;  218.375;    0.000
497.202; 9667.800;  163.375;    0.000
497.336; 9972.800;  246.375;    0.000
497.471; 9764.800;  229.375;    0.000
497.606;10006.800;  251.375;    0.000
497.740;10160.800;  220.375;    0.000
497.875;10277.800;  216.375;    0.000
498.010;10411.800;  226.375;    0.000
498.144;10571.800;  237.375;    0.000
498.279;10974.800;  196.375;    0.000
498.414;11271.800;  219.375;    0.000
498.548;11240.800;  205.375;    0.000
498.683;11507.800;  206.375;    0.000
498.817;11965.800;  225.375;    0.000
498.952;11848.800;  221.375;    0.000
499.087;12403.800;  220.375;    0.000
499.221;13107.800;  233.375;    0.000
499.356;13179.800;  230.375;    0.000
499.490;13660.800;  229.375;    0.000
499.625;14157.800;  231.375;    0.000
499.759;14729.800;  243.375;    0.000
499.894;15151.800;  241.375;    0.000
500.028;15689.800;  264.375;    0.000
500.162;16027.800;  287.375;    0.000
500.297;16584.801;  234.375;    0.000
500.431;16540.801;  230.375;    0.000
500.566;16563.801;  213.375;    0.000
500.700;16258.800;  243.375;    0.000
500.835;16039.800;  272.375;    0.000
500.969;15395.800;  188.375;    0.000
501.103;14909.800;  200.375;    0.000
501.238;14457.800;  257.375;    0.000
501.372;13862.800;  224.375;    0.000
501.506;13173.800;  225.375;    0.000
501.641;12819.800;  271.375;    0.000
501.775;12412.800;  199.375;    0.000
501.909;12066.800;  249.375;    0.000
502.043;11706.800;  211.375;    0.000
502.178;11520.800;  269.375;    0.000
502.312;11201.800;  198.375;    0.000
502.446;10897.800;  256.375;    0.000
502.580;10732.800;  195.375;    0.000
502.715;10544.800;  224.375;    0.000
502.849;10329.800;  245.375;    0.000
502.983;10358.800;  250.375;    0.000
503.117;10068.800;  193.375;    0.000
503.251; 9793.800;  242.375;    0.000
503.385; 9759.800;  227.375;    0.000
503.520; 9662.800;  235.375;    0.000
503.654; 9560.800;  220.375;    0.000
503.788; 9381.800;  267.375;    0.000
503.922; 9402.800;  220.375;    0.000
504.056; 9185.800;  238.375;    0.000
504.190; 9244.800;  212.375;    0.000
504.324; 9123.800;  265.375;    0.000
504.458; 9042.800;  228.375;    0.000
504.592; 9116.800;  231.375;    0.000
504.726; 8852.800;  218.375;    0.000
504.860; 8813.800;  253.375;    0.000
504.994; 8543.800;  217.375;    0.000
505.128; 8478.800;  243.375;    0.000
505.262; 8353.800;  194.375;    0.000
505.396; 8145.800;  210.375;    0.000
505.530; 7966.800;  211.375;    0.000
505.664; 8071.800;  219.375;    0.000
505.798; 7918.800;  240.375;    0.000
505.932; 8008.800;  240.375;    0.000
506.066; 7850.800;  252.375;    0.000
506.199; 7742.800;  242.375;    0.000
506.333; 7695.800;  244.375;    0.000
506.467; 7696.800;  223.375;    0.000
506.601; 7543.800;  183.375;    0.000
506.735; 7528.800;  249.375;    0.000
506.869; 7370.800;  270.375;    0.000
507.002; 7387.800;  207.375;    0.000
507.136; 7339.800;  242.375;    0.000
507.270; 7283.800;  232.375;    0.000
507.404; 7373.800;  195.375;    0.000
507.537; 7066.800;  218.375;    0.000
507.671; 7225.800;  246.375;    0.000
507.805; 7117.800;  244.375;    0.000
507.939; 7225.800;  251.375;    0.000
508.072; 7068.800;  212.375;    0.000
508.206; 7106.800;  198.375;    0.000
508.340; 7020.800;  234.375;    0.000
508.473; 6930.800;  217.375;    0.000
508.607; 6968.800;  224.375;    0.000
508.740; 6937.800;  207.375;    0.000
508.874; 6844.800;  230.375;    0.000
509.008; 6895.800;  246.375;    0.000
509.141; 6814.800;  239.375;    0.000
509.275; 6841.800;  229.375;    0.000
509.408; 6780.800;  234.375;    0.000
509.542; 6819.800;  212.375;    0.000
509.675; 6769.800;  256.375;    0.000
509.809; 6664.800;  232.375;    0.000
509.942; 6682.800;  237.375;    0.000
510.076; 6693.800;  226.375;    0.000
510.209; 6743.800;  251.375;    0.000
510.343; 6700.800;  229.375;    0.000
510.476; 6591.800;  285.375;    0.000
510.610; 6544.800;  211.375;    0.000
510.743; 6610.800;  258.375;    0.000
510.877; 6541.800;  244.375;    0.000
511.010; 6543.800;  235.375;    0.000
511.143; 6485.800;  251.375;    0.000
511.277; 6607.800;  228.375;    0.000
511.410; 6564.800;  216.375;    0.000
511.543; 6412.800;  231.375;    0.000
511.677; 6607.800;  244.375;    0.000
511.810; 6420.800;  186.375;    0.000
511.943; 6621.800;  211.375;    0.000
512.077; 6549.800;  201.375;    0.000
512.210; 6507.800;  194.375;    0.000
512.343; 6441.800;  233.375;    0.000
512.476; 6515.800;  234.375;    0.000
512.610; 6530.800;  224.375;    0.000
512.743; 6590.800;  255.375;    0.000
512.876; 6519.800;  264.375;    0.000
513.009; 6474.800;  283.375;    0.000
513.142; 6445.800;  246.375;    0.000
513.276; 6388.800;  217.375;    0.000
513.409; 6440.800;  222.375;    0.000
513.542; 6489.800;  237.375;    0.000
513.675; 6408.800;  238.375;    0.000
513.808; 6424.800;  220.375;    0.000
513.941; 6393.800;  233.375;    0.000
514.074; 6465.800;  248.375;    0.000
514.207; 6500.800;  233.375;    0.000
514.340; 6513.800;  190.375;    0.000
514.474; 6471.800;  221.375;    0.000
514.607; 6418.800;  213.375;    0.000
514.740; 6542.800;  251.375;    0.000
514.873; 6515.800;  257.375;    0.000
515.006; 6660.800;  268.375;    0.000
515.139; 6465.800;  257.375;    0.000
515.272; 6734.800;  227.375;    0.000
515.404; 6740.800;  238.375;    0.000
515.537; 6831.800;  275.375;    0.000
515.670; 6729.800;  239.375;    0.000
515.803; 6846.800;  223.375;    0.000
515.936; 6978.800;  202.375;    0.000
516.069; 6901.800;  188.375;    0.000
516.202; 7045.800;  240.375;    0.000
516.335; 7220.800;  252.375;    0.000
516.468; 7358.800;  254.375;    0.000
516.600; 8930.800;  254.375;    0.000
516.733;10986.800;  255.375;    0.000
516.866;10954.800;  265.375;    0.000
516.999; 9871.800;  251.375;    0.000
517.132;12106.800;  256.375;    0.000
517.264;16894.801;  202.375;    0.000
517.397;16180.800;  248.375;    0.000
517.530;12096.800;  221.375;    0.000
517.663;10213.800;  244.375;    0.000
517.795; 9482.800;  245.375;    0.000
517.928; 9184.800;  236.375;    0.000
518.061; 9349.800;  219.375;    0.000
518.193;12239.800;  251.375;    0.000
518.326;19330.801;  271.375;    0.000
518.459;20656.801;  207.375;    0.000
518.591;15077.800;  217.375;    0.000
518.724;11348.800;  200.375;    0.000
518.857; 9763.800;  204.375;    0.000
518.989; 8842.800;  242.375;    0.000
519.122; 8221.800;  254.375;    0.000
519.254; 7992.800;  239.375;    0.000
519.387; 7577.800;  235.375;    0.000
519.519; 7429.800;  227.375;    0.000
519.652; 7168.800;  178.375;    0.000
519.784; 6994.800;  226.375;    0.000
519.917; 6863.800;  256.375;    0.000
520.049; 6782.800;  234.375;    0.000
520.182; 6626.800;  258.375;    0.000
520.314; 6697.800;  298.375;    0.000
520.447; 6540.800;  204.375;    0.000
520.579; 6677.800;  235.375;    0.000
520.712; 6608.800;  208.375;    0.000
520.844; 6682.800;  272.375;    0.000
520.976; 6426.800;  234.375;    0.000
521.109; 6275.800;  235.375;    0.000
521.241; 6192.800;  250.375;    0.000
521.373; 6063.800;  233.375;    0.000
521.506; 6136.800;  231.375;    0.000
521.638; 6104.800;  258.375;    0.000
521.770; 5957.800;  226.375;    0.000
521.903; 5969.800;  258.375;    0.000
522.035; 5983.800;  263.375;    0.000
522.167; 5913.800;  214.375;    0.000
522.300; 5893.800;  212.375;    0.000
522.432; 5770.800;  220.375;    0.000
522.564; 5822.800;  228.375;    0.000
522.696; 5821.800;  272.375;    0.000
522.828; 5792.800;  222.375;    0.000
522.961; 5776.800;  205.375;    0.000
523.093; 5822.800;  253.375;    0.000
523.225; 5672.800;  239.375;    0.000
523.357; 5644.800;  263.375;    0.000
523.489; 5649.800;  264.375;    0.000
523.621; 5631.800;  259.375;    0.000
523.753; 5608.800;  233.375;    0.000
523.885; 5569.800;  232.375;    0.000
524.018; 5565.800;  214.375;    0.000
524.150; 5632.800;  235.375;    0.000
524.282; 5487.800;  242.375;    0.000
524.414; 5537.800;  261.375;    0.000
524.546; 5430.800;  233.375;    0.000
524.678; 5452.800;  242.375;    0.000
524.810; 5351.800;  216.375;    0.000
524.942; 5349.800;  220.375;    0.000
525.074; 5442.800;  249.375;    0.000
525.206; 5306.800;  227.375;    0.000
525.338; 5379.800;  250.375;    0.000
525.469; 5265.800;  231.375;    0.000
525.601; 5258.800;  245.375;    0.000
525.733; 5304.800;  187.375;    0.000
525.865; 5336.800;  280.375;    0.000
525.997; 5269.800;  216.375;    0.000
526.129; 5250.800;  228.375;    0.000
526.261; 5314.800;  187.375;    0.000
526.393; 5297.800;  228.375;    0.000
526.524; 5229.800;  201.375;    0.000
526.656; 5158.800;  199.375;    0.000
526.788; 5210.800;  233.375;    0.000
526.920; 5232.800;  256.375;    0.000
527.052; 5182.800;  219.375;    0.000
527.183; 5244.800;  227.375;    0.000
527.315; 5274.800;  266.375;    0.000
527.447; 5176.800;  239.375;    0.000
527.578; 5093.800;  213.375;    0.000
527.710; 5228.800;  216.375;    0.000
527.842; 5125.800;  240.375;    0.000
527.973; 5228.800;  286.375;    0.000
528.105; 5159.800;  222.375;    0.000
528.237; 5204.800;  223.375;    0.000
528.368; 5201.800;  211.375;    0.000
528.500; 5190.800;  215.375;    0.000
528.632; 5169.800;  216.375;    0.000
528.763; 4971.800;  234.375;    0.000
528.895; 5077.800;  196.375;    0.000
529.026; 5176.800;  202.375;    0.000
529.158; 5060.800;  226.375;    0.000
529.289; 5170.800;  229.375;    0.000
529.421; 5173.800;  264.375;    0.000
529.552; 5142.800;  265.375;    0.000
529.684; 5249.800;  260.375;    0.000
529.815; 5167.800;  284.375;    0.000
529.947; 5078.800;  237.375;    0.000
530.078; 5056.800;  223.375;    0.000
530.210; 5012.800;  223.375;    0.000
530.341; 5096.800;  209.375;    0.000
530.472; 5011.800;  203.375;    0.000
530.604; 5184.800;  223.375;    0.000
530.735; 5063.800;  218.375;    0.000
530.867; 4971.800;  222.375;    0.000
530.998; 5129.800;  239.375;    0.000
531.129; 5211.800;  250.375;    0.000
531.260; 5003.800;  224.375;    0.000
531.392; 5111.800;  216.375;    0.000
531.523; 5243.800;  234.375;    0.000
531.654; 5156.800;  256.375;    0.000
531.786; 5133.800;  226.375;    0.000
531.917; 5279.800;  239.375;    0.000
532.048; 5125.800;  205.375;    0.000
532.179; 5221.800;  244.375;    0.000
532.311; 5035.800;  235.375;    0.000
532.442; 5212.800;  258.375;    0.000
532.573; 5093.800;  220.375;    0.000
532.704; 5088.800;  213.375;    0.000
532.835; 5218.800;  249.375;    0.000
532.966; 5047.800;  226.375;    0.000
533.097; 5153.800;  246.375;    0.000
533.229; 5124.800;  237.375;    0.000
533.360; 5133.800;  225.375;    0.000
533.491; 5026.800;  241.375;    0.000
533.622; 5073.800;  242.375;    0.000
533.753; 5082.800;  264.375;    0.000
533.884; 5199.800;  245.375;    0.000
534.015; 5146.800;  269.375;    0.000
534.146; 5146.800;  267.375;    0.000
534.277; 5216.800;  282.375;    0.000
534.408; 5154.800;  229.375;    0.000
534.539; 5085.800;  269.375;    0.000
534.670; 5128.800;  231.375;    0.000
534.801; 5046.800;  260.375;    0.000
534.932; 5079.800;  232.375;    0.000
535.063; 4962.800;  227.375;    0.000
535.194; 5122.800;  281.375;    0.000
535.324; 5043.800;  206.375;    0.000
535.455; 5066.800;  257.375;    0.000
535.586; 4957.800;  275.375;    0.000
535.717; 5016.800;  206.375;    0.000
535.848; 5080.800;  271.375;    0.000
535.979; 5023.800;  250.375;    0.000
536.109; 4980.800;  253.375;    0.000
536.240; 4980.800;  234.375;    0.000
536.371; 5021.800;  230.375;    0.000
536.502; 5015.800;  270.375;    0.000
536.632; 4977.800;  228.375;    0.000
536.763; 4999.800;  249.375;    0.000
536.894; 4877.800;  262.375;    0.000
537.025; 4862.800;  258.375;    0.000
537.155; 4961.800;  278.375;    0.000
537.286; 4810.800;  209.375;    0.000
537.417; 5017.800;  255.375;    0.000
537.547; 4858.800;  208.375;    0.000
537.678; 4834.800;  224.375;    0.000
537.808; 4908.800;  224.375;    0.000
537.939; 4848.800;  257.375;    0.000
538.070; 4918.800;  240.375;    0.000
538.200; 4782.800;  259.375;    0.000
538.331; 4890.800;  235.375;    0.000
538.461; 4865.800;  251.375;    0.000
538.592; 4881.800;  245.375;    0.000
538.722; 4884.800;  239.375;    0.000
538.853; 4892.800;  216.375;    0.000
538.983; 4894.800;  226.375;    0.000
539.114; 4874.800;  240.375;    0.000
539.244; 4792.800;  237.375;    0.000
539.375; 4781.800;  198.375;    0.000
539.505; 4911.800;  263.375;    0.000
539.636; 4852.800;  226.375;    0.000
539.766; 4908.800;  229.375;    0.000
539.896; 4765.800;  219.375;    0.000
540.027; 4896.800;  246.375;    0.000
540.157; 4805.800;  218.375;    0.000
540.287; 4861.800;  216.375;    0.000
540.418; 4937.800;  267.375;    0.000
540.548; 4934.800;  260.375;    0.000
540.678; 4907.800;  242.375;    0.000
540.809; 4956.800;  260.375;    0.000
540.939; 4946.800;  257.375;    0.000
541.069; 4920.800;  226.375;    0.000
541.200; 4924.800;  227.375;    0.000
541.330; 4861.800;  218.375;    0.000
541.460; 4933.800;  223.375;    0.000
541.590; 4948.800;  237.375;    0.000
541.720; 4827.800;  222.375;    0.000
541.851; 4837.800;  250.375;    0.000
541.981; 4904.800;  222.375;    0.000
542.111; 4950.800;  212.375;    0.000
542.241; 4857.800;  205.375;    0.000
542.371; 4863.800;  202.375;    0.000
542.501; 5078.800;  218.375;    0.000
542.631; 4939.800;  222.375;    0.000
542.761; 5080.800;  249.375;    0.000
542.891; 5130.800;  173.375;    0.000
543.021; 5215.800;  218.375;    0.000
543.151; 4974.800;  222.375;    0.000
543.281; 4991.800;  188.375;    0.000
543.411; 5109.800;  239.375;    0.000
543.542; 5056.800;  215.375;    0.000
543.671; 5003.800;  250.375;    0.000
543.801; 4938.800;  212.375;    0.000
543.931; 5061.800;  233.375;    0.000
544.061; 5010.800;  194.375;    0.000
544.191; 5041.800;  218.375;    0.000
544.321; 5059.800;  220.375;    0.000
544.451; 5006.800;  183.375;    0.000
544.581; 4972.800;  221.375;    0.000
544.711; 5106.800;  224.375;    0.000
544.841; 5198.800;  214.375;    0.000
544.970; 5179.800;  227.375;    0.000
545.100; 5262.800;  186.375;    0.000
545.230; 5253.800;  205.375;    0.000
545.360; 5326.800;  211.375;    0.000
545.490; 5316.800;  202.375;    0.000
545.619; 5125.800;  182.375;    0.000
545.749; 5122.800;  174.375;    0.000
545.879; 5070.800;  169.375;    0.000
546.009; 5128.800;  182.375;    0.000
546.138; 5119.800;  200.375;    0.000
546.268; 5108.800;  204.375;    0.000
546.398; 5088.800;  200.375;    0.000
546.527; 5098.800;  179.375;    0.000
546.657; 4993.800;  162.375;    0.000
546.786; 5135.800;  179.375;    0.000
546.916; 5127.800;  221.375;    0.000
547.046; 5089.800;  179.375;    0.000
547.175; 5092.800;  168.375;    0.000
547.305; 5098.800;  200.375;    0.000
547.434; 5039.800;  166.375;    0.000
547.564; 5071.800;  177.375;    0.000
547.693; 5058.800;  152.375;    0.000
547.823; 5145.800;  171.375;    0.000
547.953; 5202.800;  195.375;    0.000
548.082; 5245.800;  214.375;    0.000
548.211; 5083.800;  177.375;    0.000
548.341; 5084.800;  189.375;    0.000
548.470; 5090.800;  194.375;    0.000
548.600; 5106.800;  172.375;    0.000
548.729; 5232.800;  158.375;    0.000
548.859; 5127.800;  193.375;    0.000
548.988; 5139.800;  131.375;    0.000
549.117; 5164.800;  204.375;    0.000
549.247; 5222.800;  191.375;    0.000
549.376; 5247.800;  202.375;    0.000
549.505; 5179.800;  187.375;    0.000
549.635; 5301.800;  198.375;    0.000
549.764; 5151.800;  155.375;    0.000
549.893; 5134.800;  176.375;    0.000
550.023; 5305.800;  202.375;    0.000
550.152; 5323.800;  168.375;    0.000
550.281; 5340.800;  180.375;    0.000
550.410; 5325.800;  180.375;    0.000
550.539; 5278.800;  181.375;    0.000
550.669; 5268.800;  168.375;    0.000
550.798; 5227.800;  223.375;    0.000
550.927; 5301.800;  179.375;    0.000
551.056; 5188.800;  159.375;    0.000
551.185; 5264.800;  199.375;    0.000
551.314; 5253.800;  185.375;    0.000
551.443; 5227.800;  172.375;    0.000
551.573; 5270.800;  158.375;    0.000
551.702; 5263.800;  210.375;    0.000
551.831; 5419.800;  238.375;    0.000
551.960; 5362.800;  191.375;    0.000
552.089; 5407.800;  195.375;    0.000
552.218; 5366.800;  196.375;    0.000
552.347; 5425.800;  194.375;    0.000
552.476; 5445.800;  192.375;    0.000
552.605; 5510.800;  172.375;    0.000
552.734; 5767.800;  214.375;    0.000
552.863; 5818.800;  177.375;    0.000
552.992; 5834.800;  190.375;    0.000
553.121; 5804.800;  185.375;    0.000
553.249; 5902.800;  175.375;    0.000
553.378; 5691.800;  192.375;    0.000
553.507; 5638.800;  193.375;    0.000
553.636; 5584.800;  182.375;    0.000
553.765; 5489.800;  187.375;    0.000
553.894; 5410.800;  214.375;    0.000
554.023; 5413.800;  217.375;    0.000
554.151; 5462.800;  223.375;    0.000
554.280; 5433.800;  170.375;    0.000
554.409; 5388.800;  172.375;    0.000
554.538; 5408.800;  182.375;    0.000
554.666; 5394.800;  195.375;    0.000
554.795; 5398.800;  176.375;    0.000
554.924; 5270.800;  164.375;    0.000
555.052; 5295.800;  171.375;    0.000
555.181; 5237.800;  208.375;    0.000
555.310; 5312.800;  214.375;    0.000
555.439; 5218.800;  193.375;    0.000
555.567; 5220.800;  189.375;    0.000
555.696; 5149.800;  196.375;    0.000
555.824; 5138.800;  183.375;    0.000
555.953; 5257.800;  234.375;    0.000
556.082; 5242.800;  183.375;    0.000
556.210; 5127.800;  199.375;    0.000
556.339; 5164.800;  201.375;    0.000
556.467; 5096.800;  208.375;    0.000
556.596; 5076.800;  194.375;    0.000
556.724; 5086.800;  170.375;    0.000
556.853; 5083.800;  166.375;    0.000
556.981; 5013.800;  185.375;    0.000
557.110; 5061.800;  213.375;    0.000
557.238; 4991.800;  188.375;    0.000
557.367; 4892.800;  176.375;    0.000
557.495; 4961.800;  180.375;    0.000
557.623; 4956.800;  193.375;    0.000
557.752; 4904.800;  207.375;    0.000
557.880; 5023.800;  189.375;    0.000
558.008; 4961.800;  169.375;    0.000
558.137; 5024.800;  203.375;    0.000
558.265; 4907.800;  167.375;    0.000
558.393; 4995.800;  204.375;    0.000
558.522; 5027.800;  203.375;    0.000
558.650; 5050.800;  215.375;    0.000
558.778; 5067.800;  190.375;    0.000
558.906; 5025.800;  186.375;    0.000
559.035; 4979.800;  193.375;    0.000
559.163; 5019.800;  198.375;    0.000
559.291; 5036.800;  222.375;    0.000
559.419; 4961.800;  192.375;    0.000
559.548; 4944.800;  186.375;    0.000
559.676; 5029.800;  199.375;    0.000
559.804; 5095.800;  186.375;    0.000
559.932; 5049.800;  202.375;    0.000
560.060; 5114.800;  183.375;    0.000
560.188; 5123.800;  212.375;    0.000
560.316; 5146.800;  192.375;    0.000
560.444; 5033.800;  180.375;    0.000
560.572; 5106.800;  206.375;    0.000
560.700; 5192.800;  184.375;    0.000
560.828; 5291.800;  177.375;    0.000
560.956; 5238.800;  221.375;    0.000
561.085; 5214.800;  227.375;    0.000
561.212; 5220.800;  208.375;    0.000
561.340; 5293.800;  189.375;    0.000
561.468; 5323.800;  189.375;    0.000
561.596; 5198.800;  183.375;    0.000
561.724; 5216.800;  188.375;    0.000
561.852; 5183.800;  183.375;    0.000
561.980; 5238.800;  209.375;    0.000
562.108; 5251.800;  165.375;    0.000
562.236; 5292.800;  188.375;    0.000
562.364; 5373.800;  177.375;    0.000
562.492; 5363.800;  192.375;    0.000
562.619; 5356.800;  187.375;    0.000
562.747; 5339.800;  217.375;    0.000
562.875; 5397.800;  221.375;    0.000
563.003; 5350.800;  199.375;    0.000
563.130; 5537.800;  191.375;    0.000
563.258; 5481.800;  186.375;    0.000
563.386; 5527.800;  191.375;    0.000
563.514; 5588.800;  217.375;    0.000
563.641; 5628.800;  220.375;    0.000
563.769; 5674.800;  186.375;    0.000
563.897; 5616.800;  158.375;    0.000
564.024; 5841.800;  192.375;    0.000
564.152; 5901.800;  217.375;    0.000
564.280; 5807.800;  203.375;    0.000
564.407; 5752.800;  190.375;    0.000
564.535; 5931.800;  188.375;    0.000
564.662; 6014.800;  199.375;    0.000
564.790; 6018.800;  227.375;    0.000
564.917; 5969.800;  160.375;    0.000
565.045; 6121.800;  222.375;    0.000
565.173; 6113.800;  169.375;    0.000
565.300; 6194.800;  208.375;    0.000
565.428; 6306.800;  174.375;    0.000
565.555; 6412.800;  201.375;    0.000
565.682; 6440.800;  180.375;    0.000
565.810; 6532.800;  165.375;    0.000
565.937; 6656.800;  167.375;    0.000
566.065; 6974.800;  190.375;    0.000
566.192; 7051.800;  169.375;    0.000
566.320; 7455.800;  167.375;    0.000
566.447; 7363.800;  151.375;    0.000
566.574; 7563.800;  176.375;    0.000
566.702; 7574.800;  198.375;    0.000
566.829; 7587.800;  209.375;    0.000
566.956; 7733.800;  186.375;    0.000
567.083; 7989.800;  188.375;    0.000
567.211; 7987.800;  159.375;    0.000
567.338; 7988.800;  204.375;    0.000
567.465; 7999.800;  141.375;    0.000
567.593; 8168.800;  168.375;    0.000
567.720; 8352.800;  177.375;    0.000
567.847; 8237.800;  160.375;    0.000
567.974; 8109.800;  139.375;    0.000
568.101; 8161.800;  153.375;    0.000
568.228; 8553.800;  173.375;    0.000
568.356; 8343.800;  149.375;    0.000
568.483; 8036.800;  185.375;    0.000
568.610; 7860.800;  170.375;    0.000
568.737; 8250.800;  223.375;    0.000
568.864; 8900.800;  167.375;    0.000
568.991; 8177.800;  177.375;    0.000
569.118; 7549.800;  169.375;    0.000
569.245; 7159.800;  128.375;    0.000
569.372; 6946.800;  160.375;    0.000
569.499; 6687.800;  156.375;    0.000
569.626; 6602.800;  191.375;    0.000
569.753; 6448.800;  163.375;    0.000
569.880; 6305.800;  167.375;    0.000
570.007; 6370.800;  143.375;    0.000
570.134; 6095.800;  191.375;    0.000
570.261; 6048.800;  164.375;    0.000
570.388; 6093.800;  162.375;    0.000
570.515; 6034.800;  220.375;    0.000
570.642; 6052.800;  184.375;    0.000
570.768; 6007.800;  174.375;    0.000
570.895; 5915.800;  177.375;    0.000
571.022; 5934.800;  152.375;    0.000
571.149; 5920.800;  183.375;    0.000
571.276; 5715.800;  153.375;    0.000
571.402; 5807.800;  190.375;    0.000
571.529; 5755.800;  187.375;    0.000
571.656; 5618.800;  167.375;    0.000
571.783; 5655.800;  186.375;    0.000
571.909; 5613.800;  183.375;    0.000
572.036; 5457.800;  162.375;    0.000
572.163; 5557.800;  196.375;    0.000
572.289; 5556.800;  180.375;    0.000
572.416; 5315.800;  190.375;    0.000
572.543; 5376.800;  174.375;    0.000
572.669; 5368.800;  186.375;    0.000
572.796; 5438.800;  205.375;    0.000
572.922; 5317.800;  185.375;    0.000
573.049; 5335.800;  178.375;    0.000
573.176; 5345.800;  196.375;    0.000
573.302; 5319.800;  202.375;    0.000
573.429; 5198.800;  189.375;    0.000
573.555; 5192.800;  145.375;    0.000
573.682; 5295.800;  228.375;    0.000
573.808; 5260.800;  197.375;    0.000
573.935; 5185.800;  216.375;    0.000
574.061; 5222.800;  173.375;    0.000
574.188; 5051.800;  151.375;    0.000
574.314; 5113.800;  181.375;    0.000
574.440; 5239.800;  167.375;    0.000
574.567; 5194.800;  185.375;    0.000
574.693; 5172.800;  173.375;    0.000
574.820; 5097.800;  164.375;    0.000
574.946; 5184.800;  199.375;    0.000
575.072; 5199.800;  162.375;    0.000
575.198; 5252.800;  225.375;    0.000
575.325; 5043.800;  171.375;    0.000
575.451; 4994.800;  183.375;    0.000
575.577; 5047.800;  190.375;    0.000
575.704; 5043.800;  210.375;    0.000
575.830; 5053.800;  185.375;    0.000
575.956; 5061.800;  168.375;    0.000
576.082; 5020.800;  158.375;    0.000
576.208; 4987.800;  158.375;    0.000
576.335; 5175.800;  196.375;    0.000
576.461; 5018.800;  187.375;    0.000
576.587; 4968.800;  157.375;    0.000
576.713; 5099.800;  156.375;    0.000
576.839; 5003.800;  196.375;    0.000
576.965; 5041.800;  187.375;    0.000
577.091; 4966.800;  204.375;    0.000
577.217; 5079.800;  207.375;    0.000
577.343; 4999.800;  175.375;    0.000
577.469; 5027.800;  197.375;    0.000
577.596; 4948.800;  182.375;    0.000
577.722; 4876.800;  159.375;    0.000
577.848; 4917.800;  162.375;    0.000
577.974; 4975.800;  180.375;    0.000
578.099; 4905.800;  161.375;    0.000
578.225; 5095.800;  180.375;    0.000
578.351; 4993.800;  190.375;    0.000
578.477; 4974.800;  212.375;    0.000
578.603; 4909.800;  179.375;    0.000
578.729; 4980.800;  195.375;    0.000
578.855; 4917.800;  153.375;    0.000
578.981; 5032.800;  162.375;    0.000
579.107; 5004.800;  149.375;    0.000
579.232; 5084.800;  164.375;    0.000
579.358; 4905.800;  162.375;    0.000
579.484; 4906.800;  181.375;    0.000
579.610; 5079.800;  190.375;    0.000
579.735; 4935.800;  191.375;    0.000
579.861; 5007.800;  189.375;    0.000
579.987; 5050.800;  202.375;    0.000
580.113; 5012.800;  197.375;    0.000
580.238; 5055.800;  228.375;    0.000
580.364; 5121.800;  212.375;    0.000
580.490; 5033.800;  225.375;    0.000
580.615; 5044.800;  218.375;    0.000
580.741; 4889.800;  167.375;    0.000
580.867; 4991.800;  215.375;    0.000
580.992; 4908.800;  191.375;    0.000
581.118; 5044.800;  171.375;    0.000
581.243; 5109.800;  204.375;    0.000
581.369; 5044.800;  186.375;    0.000
581.494; 4943.800;  184.375;    0.000
581.620; 4977.800;  212.375;    0.000
581.745; 5171.800;  192.375;    0.000
581.871; 5074.800;  195.375;    0.000
581.996; 4999.800;  160.375;    0.000
582.122; 5035.800;  217.375;    0.000
582.247; 4988.800;  213.375;    0.000
582.373; 5077.800;  187.375;    0.000
582.498; 5212.800;  208.375;    0.000
582.624; 5019.800;  189.375;    0.000
582.749; 5095.800;  185.375;    0.000
582.874; 5077.800;  195.375;    0.000
583.000; 5178.800;  208.375;    0.000
583.125; 5109.800;  147.375;    0.000
583.250; 5167.800;  201.375;    0.000
583.376; 5137.800;  191.375;    0.000
583.501; 5198.800;  206.375;    0.000
583.626; 5164.800;  167.375;    0.000
583.751; 5226.800;  180.375;    0.000
583.877; 5175.800;  185.375;    0.000
584.002; 5316.800;  186.375;    0.000
584.127; 5114.800;  176.375;    0.000
584.252; 5237.800;  214.375;    0.000
584.377; 5250.800;  225.375;    0.000
584.503; 5161.800;  195.375;    0.000
584.628; 5259.800;  206.375;    0.000
584.753; 5320.800;  181.375;    0.000
584.878; 5334.800;  136.375;    0.000
585.003; 5472.800;  215.375;    0.000
585.128; 5508.800;  206.375;    0.000
585.253; 5617.800;  200.375;    0.000
585.378; 5425.800;  169.375;    0.000
585.503; 5584.800;  191.375;    0.000
585.628; 5651.800;  182.375;    0.000
585.753; 5699.800;  164.375;    0.000
585.878; 5712.800;  123.375;    0.000
586.003; 5836.800;  187.375;    0.000
586.128; 5845.800;  198.375;    0.000
586.253; 6009.800;  172.375;    0.000
586.378; 6017.800;  191.375;    0.000
586.503; 6181.800;  190.375;    0.000
586.628; 6271.800;  178.375;    0.000
586.753; 6426.800;  184.375;    0.000
586.878; 6446.800;  169.375;    0.000
587.003; 6612.800;  186.375;    0.000
587.127; 6628.800;  170.375;    0.000
587.252; 6921.800;  170.375;    0.000
587.377; 7392.800;  181.375;    0.000
587.502; 7460.800;  209.375;    0.000
587.627; 7985.800;  210.375;    0.000
587.751; 8265.800;  212.375;    0.000
587.876; 8750.800;  198.375;    0.000
588.001; 9213.800;  161.375;    0.000
588.125;10035.800;  191.375;    0.000
588.250;11110.800;  132.375;    0.000
588.375;12856.800;  183.375;    0.000
588.499;15224.800;  176.375;    0.000
588.624;19158.801;  173.375;    0.000
588.749;26737.801;  204.375;    0.000
588.873;39668.801;  179.375;    0.000
588.998;52655.801;  182.375;    0.000
589.122;49799.801;  165.375;    0.000
589.247;37918.801;  185.375;    0.000
589.372;32636.801;  199.375;    0.000
589.496;39577.801;  182.375;    0.000
589.621;46193.801;  158.375;    0.000
589.745;39073.801;  213.375;    0.000
589.870;27080.801;  175.375;    0.000
589.994;19689.801;  194.375;    0.000
590.118;15994.800;  218.375;    0.000
590.243;13818.800;  170.375;    0.000
590.367;12074.800;  189.375;    0.000
590.492;11015.800;  196.375;    0.000
590.616;10112.800;  182.375;    0.000
590.740; 9418.800;  210.375;    0.000
590.865; 8996.800;  242.375;    0.000
590.989; 8490.800;  191.375;    0.000
591.114; 8175.800;  167.375;    0.000
591.238; 7965.800;  194.375;    0.000
591.362; 7690.800;  236.375;    0.000
591.486; 7443.800;  194.375;    0.000
591.611; 7446.800;  154.375;    0.000
591.735; 7211.800;  186.375;    0.000
591.859; 7040.800;  148.375;    0.000
591.983; 7060.800;  211.375;    0.000
592.107; 7001.800;  204.375;    0.000
592.232; 6864.800;  194.375;    0.000
592.356; 6901.800;  238.375;    0.000
592.480; 6791.800;  179.375;    0.000
592.604; 6795.800;  192.375;    0.000
592.728; 6750.800;  201.375;    0.000
592.852; 6781.800;  158.375;    0.000
592.976; 6556.800;  152.375;    0.000
593.100; 6629.800;  194.375;    0.000
593.224; 6583.800;  235.375;    0.000
593.349; 6632.800;  233.375;    0.000
593.473; 6486.800;  194.375;    0.000
593.597; 6505.800;  215.375;    0.000
593.721; 6492.800;  212.375;    0.000
593.844; 6379.800;  220.375;    0.000
593.968; 6435.800;  221.375;    0.000
594.092; 6330.800;  150.375;    0.000
594.216; 6338.800;  212.375;    0.000
594.340; 6321.800;  209.375;    0.000
594.464; 6167.800;  207.375;    0.000
594.588; 6145.800;  195.375;    0.000
594.712; 5940.800;  176.375;    0.000
594.836; 5980.800;  219.375;    0.000
594.959; 5970.800;  215.375;    0.000
595.083; 5903.800;  200.375;    0.000
595.207; 5736.800;  206.375;    0.000
595.331; 5769.800;  207.375;    0.000
595.455; 5613.800;  206.375;    0.000
595.578; 5720.800;  204.375;    0.000
595.702; 5537.800;  225.375;    0.000
595.826; 5529.800;  186.375;    0.000
595.949; 5616.800;  196.375;    0.000
596.073; 5378.800;  188.375;    0.000
596.197; 5469.800;  217.375;    0.000
596.320; 5308.800;  225.375;    0.000
596.444; 5334.800;  220.375;    0.000
596.568; 5247.800;  155.375;    0.000
596.691; 5272.800;  195.375;    0.000
596.815; 5116.800;  163.375;    0.000
596.938; 5199.800;  181.375;    0.000
597.062; 5164.800;  201.375;    0.000
597.186; 5239.800;  200.375;    0.000
597.309; 5141.800;  214.375;    0.000
597.433; 5027.800;  176.375;    0.000
597.556; 5021.800;  193.375;    0.000
597.680; 4997.800;  241.375;    0.000
597.803; 4989.800;  185.375;    0.000
597.926; 4954.800;  200.375;    0.000
598.050; 4909.800;  193.375;    0.000
598.173; 4880.800;  219.375;    0.000
598.297; 4914.800;  223.375;    0.000
598.420; 4942.800;  187.375;    0.000
598.543; 4882.800;  205.375;    0.000
598.667; 4874.800;  177.375;    0.000
598.790; 4801.800;  208.375;    0.000
598.913; 4826.800;  170.375;    0.000
599.037; 4862.800;  212.375;    0.000
599.160; 4786.800;  165.375;    0.000
599.283; 4920.800;  211.375;    0.000
599.406; 4706.800;  207.375;    0.000
599.530; 4852.800;  182.375;    0.000
599.653; 4802.800;  215.375;    0.000
599.776; 4834.800;  167.375;    0.000
599.899; 4737.800;  190.375;    0.000
600.022; 4784.800;  182.375;    0.000
600.145; 4601.800;  180.375;    0.000
600.269; 4904.800;  208.375;    0.000
600.392; 4678.800;  214.375;    0.000
600.515; 4584.800;  196.375;    0.000
600.638; 4629.800;  204.375;    0.000
600.761; 4674.800;  209.375;    0.000
600.884; 4619.800;  207.375;    0.000
601.007; 4610.800;  234.375;    0.000
601.130; 4689.800;  183.375;    0.000
601.253; 4484.800;  211.375;    0.000
601.376; 4650.800;  199.375;    0.000
601.499; 4661.800;  190.375;    0.000
601.622; 4646.800;  210.375;    0.000
601.745; 4558.800;  180.375;    0.000
601.868; 4681.800;  204.375;    0.000
601.991; 4736.800;  188.375;    0.000
602.113; 4718.800;  210.375;    0.000
602.236; 4616.800;  194.375;    0.000
602.359; 4480.800;  213.375;    0.000
602.482; 4514.800;  169.375;    0.000
602.605; 4591.800;  189.375;    0.000
602.728; 4608.800;  236.375;    0.000
602.850; 4577.800;  230.375;    0.000
602.973; 4499.800;  187.375;    0.000
603.096; 4544.800;  201.375;    0.000
603.219; 4563.800;  209.375;    0.000
603.341; 4471.800;  209.375;    0.000
603.464; 4562.800;  194.375;    0.000
603.587; 4553.800;  166.375;    0.000
603.709; 4513.800;  175.375;    0.000
603.832; 4553.800;  239.375;    0.000
603.955; 4545.800;  205.375;    0.000
604.077; 4446.800;  196.375;    0.000
604.200; 4518.800;  188.375;    0.000
604.323; 4520.800;  224.375;    0.000
604.445; 4482.800;  182.375;    0.000
604.568; 4462.800;  199.375;    0.000
604.690; 4440.800;  175.375;    0.000
604.813; 4510.800;  211.375;    0.000
604.935; 4459.800;  171.375;    0.000
605.058; 4446.800;  196.375;    0.000
605.180; 4430.800;  194.375;    0.000
605.303; 4525.800;  198.375;    0.000
605.425; 4342.800;  212.375;    0.000
605.547; 4517.800;  238.375;    0.000
605.670; 4494.800;  207.375;    0.000
605.792; 4442.800;  204.375;    0.000
605.915; 4508.800;  198.375;    0.000
606.037; 4506.800;  215.375;    0.000
606.159; 4332.800;  170.375;    0.000
606.282; 4388.800;  194.375;    0.000
606.404; 4476.800;  207.375;    0.000
606.526; 4481.800;  208.375;    0.000
606.648; 4406.800;  174.375;    0.000
606.771; 4433.800;  170.375;    0.000
606.893; 4333.800;  182.375;    0.000
607.015; 4459.800;  180.375;    0.000
607.137; 4418.800;  187.375;    0.000
607.260; 4422.800;  202.375;    0.000
607.382; 4318.800;  226.375;    0.000
607.504; 4382.800;  208.375;    0.000
607.626; 4551.800;  229.375;    0.000
607.748; 4440.800;  170.375;    0.000
607.870; 4366.800;  208.375;    0.000
607.992; 4380.800;  184.375;    0.000
608.114; 4394.800;  213.375;    0.000
608.237; 4325.800;  237.375;    0.000
608.359; 4385.800;  176.375;    0.000
608.481; 4302.800;  173.375;    0.000
608.603; 4447.800;  189.375;    0.000
608.725; 4330.800;  185.375;    0.000
608.847; 4500.800;  239.375;    0.000
608.969; 4478.800;  237.375;    0.000
609.090; 4428.800;  189.375;    0.000
609.212; 4279.800;  147.375;    0.000
609.334; 4320.800;  177.375;    0.000
609.456; 4395.800;  196.375;    0.000
609.578; 4270.800;  199.375;    0.000
609.700; 4267.800;  167.375;    0.000
609.822; 4381.800;  140.375;    0.000
609.944; 4365.800;  225.375;    0.000
610.065; 4439.800;  183.375;    0.000
610.187; 4418.800;  170.375;    0.000
610.309; 4315.800;  210.375;    0.000
610.431; 4376.800;  185.375;    0.000
610.552; 4342.800;  197.375;    0.000
610.674; 4289.800;  188.375;    0.000
610.796; 4272.800;  162.375;    0.000
610.918; 4217.800;  200.375;    0.000
611.039; 4259.800;  209.375;    0.000
611.161; 4354.800;  201.375;    0.000
611.282; 4328.800;  197.375;    0.000
611.404; 4441.800;  220.375;    0.000
611.526; 4296.800;  159.375;    0.000
611.647; 4403.800;  205.375;    0.000
611.769; 4320.800;  161.375;    0.000
611.890; 4337.800;  173.375;    0.000
612.012; 4288.800;  225.375;    0.000
612.133; 4385.800;  188.375;    0.000
612.255; 4235.800;  217.375;    0.000
612.377; 4357.800;  219.375;    0.000
612.498; 4268.800;  177.375;    0.000
612.619; 4317.800;  211.375;    0.000
612.741; 4318.800;  185.375;    0.000
612.862; 4305.800;  191.375;    0.000
612.984; 4252.800;  190.375;    0.000
613.105; 4341.800;  211.375;    0.000
613.226; 4290.800;  174.375;    0.000
613.348; 4344.800;  235.375;    0.000
613.469; 4270.800;  230.375;    0.000
613.590; 4337.800;  208.375;    0.000
613.712; 4292.800;  244.375;    0.000
613.833; 4300.800;  202.375;    0.000
613.954; 4327.800;  228.375;    0.000
614.076; 4252.800;  220.375;    0.000
614.197; 4224.800;  191.375;    0.000
614.318; 4249.800;  201.375;    0.000
614.439; 4315.800;  212.375;    0.000
614.560; 4335.800;  219.375;    0.000
614.682; 4325.800;  189.375;    0.000
614.803; 4275.800;  188.375;    0.000
614.924; 4168.800;  225.375;    0.000
615.045; 4323.800;  227.375;    0.000
615.166; 4407.800;  200.375;    0.000
615.287; 4448.800;  195.375;    0.000
615.408; 4641.800;  199.375;    0.000
615.529; 4499.800;  227.375;    0.000
615.650; 4487.800;  176.375;    0.000
615.771; 4381.800;  211.375;    0.000
615.892; 4533.800;  212.375;    0.000
616.013; 4842.800;  172.375;    0.000
616.134; 4905.800;  220.375;    0.000
616.255; 4673.800;  251.375;    0.000
616.376; 4554.800;  186.375;    0.000
616.497; 4440.800;  201.375;    0.000
616.618; 4408.800;  149.375;    0.000
616.739; 4398.800;  213.375;    0.000
616.860; 4374.800;  224.375;    0.000
616.981; 4380.800;  224.375;    0.000
617.102; 4313.800;  217.375;    0.000
617.222; 4377.800;  237.375;    0.000
617.343; 4342.800;  205.375;    0.000
617.464; 4190.800;  229.375;    0.000
617.585; 4337.800;  227.375;    0.000
617.705; 4356.800;  191.375;    0.000
617.826; 4370.800;  237.375;    0.000
617.947; 4254.800;  223.375;    0.000
618.068; 4276.800;  189.375;    0.000
618.188; 4298.800;  194.375;    0.000
618.309; 4349.800;  206.375;    0.000
618.430; 4178.800;  229.375;    0.000
618.550; 4332.800;  250.375;    0.000
618.671; 4239.800;  201.375;    0.000
618.791; 4234.800;  226.375;    0.000
618.912; 4278.800;  246.375;    0.000
619.033; 4274.800;  243.375;    0.000
619.153; 4259.800;  208.375;    0.000
619.274; 4271.800;  223.375;    0.000
619.394; 4210.800;  226.375;    0.000
619.515; 4132.800;  188.375;    0.000
619.635; 4210.800;  216.375;    0.000
619.756; 4249.800;  229.375;    0.000
619.876; 4221.800;  216.375;    0.000
619.996; 4280.800;  244.375;    0.000
620.117; 4177.800;  225.375;    0.000
620.237; 4266.800;  207.375;    0.000
620.358; 4292.800;  239.375;    0.000
620.478; 4218.800;  237.375;    0.000
620.598; 4269.800;  237.375;    0.000
620.719; 4202.800;  223.375;    0.000
620.839; 4226.800;  254.375;    0.000
620.959; 4097.800;  244.375;    0.000
621.079; 4104.800;  193.375;    0.000
621.200; 4196.800;  233.375;    0.000
621.320; 4212.800;  270.375;    0.000
621.440; 4130.800;  206.375;    0.000
621.560; 4156.800;  241.375;    0.000
621.681; 4123.800;  231.375;    0.000
621.801; 4239.800;  235.375;    0.000
621.921; 4131.800;  240.375;    0.000
622.041; 4130.800;  244.375;    0.000
622.161; 4217.800;  225.375;    0.000
622.281; 4119.800;  222.375;    0.000
622.401; 4229.800;  238.375;    0.000
622.521; 4151.800;  233.375;    0.000
622.641; 4164.800;  241.375;    0.000
622.761; 4098.800;  233.375;    0.000
622.882; 4101.800;  230.375;    0.000
623.002; 4118.800;  206.375;    0.000
623.121; 4081.800;  217.375;    0.000
623.241; 4101.800;  263.375;    0.000
623.361; 4084.800;  245.375;    0.000
623.481; 4058.800;  194.375;    0.000
623.601; 4102.800;  228.375;    0.000
623.721; 4088.800;  219.375;    0.000
623.841; 3988.800;  234.375;    0.000
623.961; 4119.800;  235.375;    0.000
624.081; 4112.800;  166.375;    0.000
624.201; 4034.800;  229.375;    0.000
624.320; 3965.800;  224.375;    0.000
624.440; 4039.800;  200.375;    0.000
624.560; 4097.800;  220.375;    0.000
624.680; 4011.800;  214.375;    0.000
624.799; 4024.800;  179.375;    0.000
624.919; 4038.800;  199.375;    0.000
625.039; 3981.800;  211.375;    0.000
625.159; 3960.800;  213.375;    0.000
625.278; 3993.800;  178.375;    0.000
625.398; 3957.800;  206.375;    0.000
625.518; 4008.800;  182.375;    0.000
625.637; 4000.800;  206.375;    0.000
625.757; 3993.800;  197.375;    0.000
625.876; 4006.800;  204.375;    0.000
625.996; 4024.800;  222.375;    0.000
626.115; 3993.800;  222.375;    0.000
626.235; 4037.800;  222.375;    0.000
626.354; 3994.800;  211.375;    0.000
626.474; 4088.800;  217.375;    0.000
626.594; 3903.800;  190.375;    0.000
626.713; 3906.800;  200.375;    0.000
626.832; 4084.800;  234.375;    0.000
626.952; 3928.800;  214.375;    0.000
627.071; 3961.800;  243.375;    0.000
627.191; 3929.800;  192.375;    0.000
627.310; 4008.800;  211.375;    0.000
627.429; 3993.800;  218.375;    0.000
627.549; 3977.800;  214.375;    0.000
627.668; 3944.800;  208.375;    0.000
627.787; 4018.800;  199.375;    0.000
627.907; 3965.800;  208.375;    0.000
628.026; 3954.800;  216.375;    0.000
628.145; 3906.800;  170.375;    0.000
628.264; 3995.800;  217.375;    0.000
628.384; 3942.800;  190.375;    0.000
628.503; 3924.800;  203.375;    0.000
628.622; 3870.800;  197.375;    0.000
628.741; 4006.800;  186.375;    0.000
628.860; 3953.800;  191.375;    0.000
628.980; 3888.800;  196.375;    0.000
629.099; 3967.800;  190.375;    0.000
629.218; 3984.800;  165.375;    0.000
629.337; 3946.800;  190.375;    0.000
629.456; 4026.800;  222.375;    0.000
629.575; 3973.800;  197.375;    0.000
629.694; 3861.800;  210.375;    0.000
629.813; 3927.800;  187.375;    0.000
629.932; 3902.800;  224.375;    0.000
630.051; 3878.800;  216.375;    0.000
630.170; 3922.800;  203.375;    0.000
630.289; 3802.800;  178.375;    0.000
630.408; 3949.800;  192.375;    0.000
630.527; 3886.800;  223.375;    0.000
630.646; 3852.800;  177.375;    0.000
630.764; 3926.800;  224.375;    0.000
630.883; 3884.800;  220.375;    0.000
631.002; 3874.800;  187.375;    0.000
631.121; 3840.800;  208.375;    0.000
631.240; 3899.800;  217.375;    0.000
631.359; 3902.800;  241.375;    0.000
631.477; 3971.800;  189.375;    0.000
631.596; 3808.800;  244.375;    0.000
631.715; 3899.800;  241.375;    0.000
631.834; 3899.800;  219.375;    0.000
631.952; 3880.800;  231.375;    0.000
632.071; 3795.800;  197.375;    0.000
632.190; 3775.800;  193.375;    0.000
632.308; 3893.800;  185.375;    0.000
632.427; 3935.800;  188.375;    0.000
632.546; 3841.800;  208.375;    0.000
632.664; 3781.800;  191.375;    0.000
632.783; 3775.800;  201.375;    0.000
632.901; 3838.800;  239.375;    0.000
633.020; 3837.800;  197.375;    0.000
633.138; 3806.800;  189.375;    0.000
633.257; 3820.800;  210.375;    0.000
633.375; 3717.800;  213.375;    0.000
633.494; 3880.800;  206.375;    0.000
633.612; 3840.800;  231.375;    0.000
633.731; 3880.800;  213.375;    0.000
633.849; 3777.800;  244.375;    0.000
633.968; 3786.800;  251.375;    0.000
634.086; 3901.800;  224.375;    0.000
634.204; 3889.800;  212.375;    0.000
634.323; 3807.800;  213.375;    0.000
634.441; 3950.800;  219.375;    0.000
634.559; 3830.800;  198.375;    0.000
634.678; 3914.800;  201.375;    0.000
634.796; 3790.800;  179.375;    0.000
634.914; 3839.800;  255.375;    0.000
635.032; 3782.800;  264.375;    0.000
635.151; 3856.800;  228.375;    0.000
635.269; 3798.800;  223.375;    0.000
635.387; 3866.800;  228.375;    0.000
635.505; 3829.800;  214.375;    0.000
635.623; 3874.800;  279.375;    0.000
635.742; 3847.800;  237.375;    0.000
635.860; 3884.800;  244.375;    0.000
635.978; 3726.800;  213.375;    0.000
636.096; 3896.800;  230.375;    0.000
636.214; 3766.800;  252.375;    0.000
636.332; 3767.800;  221.375;    0.000
636.450; 3831.800;  227.375;    0.000
636.568; 3708.800;  193.375;    0.000
636.686; 3643.800;  208.375;    0.000
636.804; 3838.800;  213.375;    0.000
636.922; 3787.800;  199.375;    0.000
637.040; 3777.800;  202.375;    0.000
637.158; 3829.800;  239.375;    0.000
637.276; 3815.800;  225.375;    0.000
637.394; 3894.800;  217.375;    0.000
637.512; 3775.800;  192.375;    0.000
637.629; 3822.800;  216.375;    0.000
637.747; 3776.800;  198.375;    0.000
637.865; 3843.800;  265.375;    0.000
637.983; 3782.800;  245.375;    0.000
638.101; 3887.800;  199.375;    0.000
638.218; 3866.800;  197.375;    0.000
638.336; 3767.800;  212.375;    0.000
638.454; 3811.800;  227.375;    0.000
638.572; 3882.800;  215.375;    0.000
638.689; 3825.800;  214.375;    0.000
638.807; 3900.800;  233.375;    0.000
638.925; 3851.800;  217.375;    0.000
639.042; 3801.800;  180.375;    0.000
639.160; 3760.800;  220.375;    0.000
639.278; 3782.800;  180.375;    0.000
639.395; 3747.800;  243.375;    0.000
639.513; 3821.800;  207.375;    0.000
639.630; 3772.800;  183.375;    0.000
639.748; 3785.800;  231.375;    0.000
639.865; 3842.800;  215.375;    0.000
639.983; 3913.800;  182.375;    0.000
640.100; 3852.800;  190.375;    0.000
640.218; 3803.800;  224.375;    0.000
640.335; 3736.800;  214.375;    0.000
640.453; 3754.800;  212.375;    0.000
640.570; 3854.800;  224.375;    0.000
640.688; 3837.800;  220.375;    0.000
640.805; 3843.800;  189.375;    0.000
640.922; 3743.800;  256.375;    0.000
641.040; 3750.800;  209.375;    0.000
641.157; 3858.800;  195.375;    0.000
641.274; 3800.800;  195.375;    0.000
641.391; 3813.800;  231.375;    0.000
641.509; 3823.800;  207.375;    0.000
641.626; 3798.800;  227.375;    0.000
641.743; 3770.800;  188.375;    0.000
641.860; 3735.800;  208.375;    0.000
641.978; 3800.800;  222.375;    0.000
642.095; 3795.800;  194.375;    0.000
642.212; 3764.800;  202.375;    0.000
642.329; 3856.800;  241.375;    0.000
642.446; 3837.800;  261.375;    0.000
642.563; 3811.800;  236.375;    0.000
642.681; 3819.800;  228.375;    0.000
642.798; 3847.800;  242.375;    0.000
642.915; 3843.800;  197.375;    0.000
643.032; 3796.800;  239.375;    0.000
643.149; 3795.800;  241.375;    0.000
643.266; 3855.800;  199.375;    0.000
643.383; 3895.800;  200.375;    0.000
643.500; 3803.800;  221.375;    0.000
643.617; 3905.800;  196.375;    0.000
643.734; 3811.800;  207.375;    0.000
643.850; 3705.800;  222.375;    0.000
643.967; 3997.800;  235.375;    0.000
644.084; 3979.800;  233.375;    0.000
644.201; 3860.800;  229.375;    0.000
644.318; 3893.800;  210.375;    0.000
644.435; 4010.800;  234.375;    0.000
644.552; 3940.800;  220.375;    0.000
644.668; 4019.800;  231.375;    0.000
644.785; 3925.800;  231.375;    0.000
644.902; 3978.800;  238.375;    0.000
645.019; 3948.800;  226.375;    0.000
645.135; 4021.800;  179.375;    0.000
645.252; 4001.800;  224.375;    0.000
645.369; 4036.800;  206.375;    0.000
645.485; 4018.800;  200.375;    0.000
645.602; 3981.800;  210.375;    0.000
645.719; 3994.800;  206.375;    0.000
645.835; 4066.800;  247.375;    0.000
645.952; 4121.800;  222.375;    0.000
646.068; 4058.800;  205.375;    0.000
646.185; 4052.800;  230.375;    0.000
646.302; 4214.800;  254.375;    0.000
646.418; 4264.800;  230.375;    0.000
646.535; 4166.800;  214.375;    0.000
646.651; 4098.800;  179.375;    0.000
646.768; 4199.800;  190.375;    0.000
646.884; 4182.800;  208.375;    0.000
647.000; 4179.800;  262.375;    0.000
647.117; 4170.800;  212.375;    0.000
647.233; 4268.800;  228.375;    0.000
647.350; 4225.800;  208.375;    0.000
647.466; 4340.800;  211.375;    0.000
647.582; 4313.800;  196.375;    0.000
647.699; 4382.800;  217.375;    0.000
647.815; 4477.800;  203.375;    0.000
647.931; 4414.800;  201.375;    0.000
648.047; 4325.800;  182.375;    0.000
648.164; 4434.800;  219.375;    0.000
648.280; 4400.800;  213.375;    0.000
648.396; 4494.800;  202.375;    0.000
648.512; 4498.800;  233.375;    0.000
648.629; 4450.800;  206.375;    0.000
648.745; 4476.800;  188.375;    0.000
648.861; 4473.800;  209.375;    0.000
648.977; 4548.800;  218.375;    0.000
649.093; 4472.800;  225.375;    0.000
649.209; 4478.800;  240.375;    0.000
649.325; 4557.800;  253.375;    0.000
649.441; 4606.800;  263.375;    0.000
649.557; 4575.800;  256.375;    0.000
649.673; 4607.800;  211.375;    0.000
649.789; 4500.800;  237.375;    0.000
649.905; 4528.800;  183.375;    0.000
650.021; 4572.800;  238.375;    0.000
650.137; 4719.800;  241.375;    0.000
650.253; 4549.800;  228.375;    0.000
650.369; 4691.800;  221.375;    0.000
650.485; 4617.800;  240.375;    0.000
650.601; 4693.800;  254.375;    0.000
650.717; 4617.800;  201.375;    0.000
650.833; 4708.800;  257.375;    0.000
650.948; 4765.800;  213.375;    0.000
651.064; 4838.800;  223.375;    0.000
651.180; 4688.800;  230.375;    0.000
651.296; 4820.800;  235.375;    0.000
651.411; 4905.800;  221.375;    0.000
651.527; 4920.800;  233.375;    0.000
651.643; 5022.800;  236.375;    0.000
651.759; 4993.800;  268.375;    0.000
651.874; 4947.800;  214.375;    0.000
651.990; 5144.800;  251.375;    0.000
652.105; 5155.800;  217.375;    0.000
652.221; 5068.800;  243.375;    0.000
652.337; 5148.800;  231.375;    0.000
652.452; 5245.800;  238.375;    0.000
652.568; 5325.800;  188.375;    0.000
652.683; 5337.800;  197.375;    0.000
652.799; 5371.800;  194.375;    0.000
652.914; 5453.800;  222.375;    0.000
653.030; 5468.800;  200.375;    0.000
653.145; 5606.800;  235.375;    0.000
653.261; 5588.800;  261.375;    0.000
653.376; 5811.800;  228.375;    0.000
653.492; 5870.800;  222.375;    0.000
653.607; 5997.800;  227.375;    0.000
653.722; 6018.800;  250.375;    0.000
653.838; 6031.800;  255.375;    0.000
653.953; 6325.800;  235.375;    0.000
654.068; 6334.800;  266.375;    0.000
654.184; 6524.800;  210.375;    0.000
654.299; 6650.800;  240.375;    0.000
654.414; 6601.800;  222.375;    0.000
654.530; 6852.800;  222.375;    0.000
654.645; 7016.800;  256.375;    0.000
654.760; 7133.800;  244.375;    0.000
654.875; 7242.800;  229.375;    0.000
654.990; 7616.800;  226.375;    0.000
655.106; 7763.800;  254.375;    0.000
655.221; 7963.800;  251.375;    0.000
655.336; 8144.800;  245.375;    0.000
655.451; 8606.800;  199.375;    0.000
655.566; 8863.800;  228.375;    0.000
655.681; 9135.800;  208.375;    0.000
655.796; 9663.800;  218.375;    0.000
655.911;10061.800;  233.375;    0.000
656.026;10506.800;  232.375;    0.000
656.141;10947.800;  223.375;    0.000
656.256;11439.800;  247.375;    0.000
656.371;11555.800;  220.375;    0.000
656.486;11222.800;  225.375;    0.000
656.601;11158.800;  257.375;    0.000
656.716;10905.800;  248.375;    0.000
656.831;10437.800;  262.375;    0.000
656.946;10333.800;  249.375;    0.000
657.060;10002.800;  245.375;    0.000
657.175; 9620.800;  245.375;    0.000
657.290; 9378.800;  219.375;    0.000
657.405; 9224.800;  286.375;    0.000
657.520; 8842.800;  259.375;    0.000
657.634; 8632.800;  239.375;    0.000
657.749; 8355.800;  227.375;    0.000
657.864; 8278.800;  210.375;    0.000
657.979; 7935.800;  236.375;    0.000
658.093; 7762.800;  210.375;    0.000
658.208; 7753.800;  248.375;    0.000
658.323; 7451.800;  216.375;    0.000
658.437; 7388.800;  248.375;    0.000
658.552; 7211.800;  249.375;    0.000
658.666; 7162.800;  256.375;    0.000
658.781; 7004.800;  247.375;    0.000
658.895; 6851.800;  209.375;    0.000
659.010; 6815.800;  219.375;    0.000
659.125; 6671.800;  215.375;    0.000
659.239; 6596.800;  205.375;    0.000
659.353; 6381.800;  246.375;    0.000
659.468; 6273.800;  245.375;    0.000
659.582; 6289.800;  244.375;    0.000
659.697; 6207.800;  242.375;    0.000
659.811; 6061.800;  239.375;    0.000
659.926; 5924.800;  226.375;    0.000
660.040; 5824.800;  255.375;    0.000
660.154; 5856.800;  225.375;    0.000
660.269; 5901.800;  200.375;    0.000
660.383; 5802.800;  192.375;    0.000
660.497; 5737.800;  218.375;    0.000
660.612; 5563.800;  236.375;    0.000
660.726; 5605.800;  263.375;    0.000
660.840; 5538.800;  205.375;    0.000
660.954; 5456.800;  219.375;    0.000
661.068; 5316.800;  240.375;    0.000
661.183; 5319.800;  221.375;    0.000
661.297; 5174.800;  194.375;    0.000
661.411; 5174.800;  253.375;    0.000
661.525; 5131.800;  246.375;    0.000
661.639; 5105.800;  217.375;    0.000
661.753; 5025.800;  241.375;    0.000
661.867; 4992.800;  276.375;    0.000
661.981; 4876.800;  203.375;    0.000
662.095; 4811.800;  224.375;    0.000
662.209; 4748.800;  217.375;    0.000
662.323; 4794.800;  251.375;    0.000
662.437; 4651.800;  243.375;    0.000
662.551; 4605.800;  244.375;    0.000
662.665; 4587.800;  247.375;    0.000
662.779; 4455.800;  251.375;    0.000
662.893; 4572.800;  254.375;    0.000
663.007; 4463.800;  222.375;    0.000
663.121; 4388.800;  253.375;    0.000
663.235; 4377.800;  270.375;    0.000
663.349; 4417.800;  242.375;    0.000
663.462; 4225.800;  230.375;    0.000
663.576; 4331.800;  230.375;    0.000
663.690; 4287.800;  249.375;    0.000
663.804; 4228.800;  200.375;    0.000
663.917; 4176.800;  204.375;    0.000
664.031; 4198.800;  206.375;    0.000
664.145; 4221.800;  202.375;    0.000
664.258; 4065.800;  221.375;    0.000
664.372; 4013.800;  215.375;    0.000
664.486; 3947.800;  179.375;    0.000
664.599; 4028.800;  208.375;    0.000
664.713; 4062.800;  268.375;    0.000
664.827; 4072.800;  225.375;    0.000
664.940; 3982.800;  222.375;    0.000
665.054; 3891.800;  208.375;    0.000
665.167; 3963.800;  253.375;    0.000
665.281; 3914.800;  237.375;    0.000
665.394; 3903.800;  227.375;    0.000
665.508; 3830.800;  192.375;    0.000
665.621; 3845.800;  175.375;    0.000
665.735; 3811.800;  249.375;    0.000
665.848; 3840.800;  197.375;    0.000
665.961; 3807.800;  206.375;    0.000
666.075; 3708.800;  245.375;    0.000
666.188; 3792.800;  230.375;    0.000
666.301; 3727.800;  219.375;    0.000
666.415; 3625.800;  231.375;    0.000
666.528; 3795.800;  258.375;    0.000
666.641; 3651.800;  243.375;    0.000
666.755; 3767.800;  208.375;    0.000
666.868; 3637.800;  228.375;    0.000
666.981; 3548.800;  244.375;    0.000
667.094; 3647.800;  244.375;    0.000
667.207; 3493.800;  226.375;    0.000
667.321; 3477.800;  175.375;    0.000
667.434; 3576.800;  211.375;    0.000
667.547; 3563.800;  249.375;    0.000
667.660; 3537.800;  225.375;    0.000
667.773; 3550.800;  242.375;    0.000
667.886; 3450.800;  246.375;    0.000
667.999; 3499.800;  244.375;    0.000
668.112; 3417.800;  227.375;    0.000
668.225; 3454.800;  231.375;    0.000
668.338; 3388.800;  256.375;    0.000
668.451; 3440.800;  216.375;    0.000
668.564; 3377.800;  261.375;    0.000
668.677; 3406.800;  230.375;    0.000
668.790; 3406.800;  192.375;    0.000
668.903; 3315.800;  243.375;    0.000
669.016; 3321.800;  201.375;    0.000
669.129; 3306.800;  249.375;    0.000
669.242; 3276.800;  190.375;    0.000
669.354; 3180.800;  219.375;    0.000
669.467; 3349.800;  242.375;    0.000
669.580; 3234.800;  237.375;    0.000
669.693; 3222.800;  243.375;    0.000
669.806; 3263.800;  234.375;    0.000
669.918; 3205.800;  206.375;    0.000
670.031; 3272.800;  258.375;    0.000
670.144; 3230.800;  231.375;    0.000
670.256; 3212.800;  244.375;    0.000
670.369; 3235.800;  262.375;    0.000
670.482; 3164.800;  264.375;    0.000
670.594; 3241.800;  256.375;    0.000
670.707; 3214.800;  224.375;    0.000
670.820; 3249.800;  261.375;    0.000
670.932; 3107.800;  226.375;    0.000
671.045; 3253.800;  243.375;    0.000
671.157; 3124.800;  235.375;    0.000
671.270; 3088.800;  217.375;    0.000
671.382; 3116.800;  267.375;    0.000
671.495; 3061.800;  258.375;    0.000
671.607; 3130.800;  236.375;    0.000
671.720; 3069.800;  200.375;    0.000
671.832; 3135.800;  219.375;    0.000
671.944; 3117.800;  234.375;    0.000
672.057; 3100.800;  226.375;    0.000
672.169; 3004.800;  225.375;    0.000
672.281; 3012.800;  253.375;    0.000
672.394; 2985.800;  238.375;    0.000
672.506; 3012.800;  244.375;    0.000
672.618; 3039.800;  272.375;    0.000
672.731; 3019.800;  247.375;    0.000
672.843; 3081.800;  261.375;    0.000
672.955; 3108.800;  262.375;    0.000
673.067; 3051.800;  253.375;    0.000
673.180; 2975.800;  239.375;    0.000
673.292; 2999.800;  240.375;    0.000
673.404; 3020.800;  243.375;    0.000
673.516; 2997.800;  258.375;    0.000
673.628; 3095.800;  263.375;    0.000
673.740; 2981.800;  250.375;    0.000
673.852; 3035.800;  285.375;    0.000
673.964; 2903.800;  264.375;    0.000
674.076; 3016.800;  260.375;    0.000
674.188; 2927.800;  226.375;    0.000
674.300; 2980.800;  272.375;    0.000
674.412; 2981.800;  259.375;    0.000
674.524; 3079.800;  283.375;    0.000
674.636; 3017.800;  259.375;    0.000
674.748; 2927.800;  238.375;    0.000
674.860; 2971.800;  277.375;    0.000
674.972; 2870.800;  272.375;    0.000
675.084; 3009.800;  244.375;    0.000
675.196; 2976.800;  272.375;    0.000
675.307; 2895.800;  244.375;    0.000
675.419; 2825.800;  219.375;    0.000
675.531; 2906.800;  275.375;    0.000
675.643; 2876.800;  215.375;    0.000
675.755; 2957.800;  243.375;    0.000
675.866; 2837.800;  223.375;    0.000
675.978; 2892.800;  216.375;    0.000
676.090; 2882.800;  242.375;    0.000
676.201; 2883.800;  276.375;    0.000
676.313; 2900.800;  226.375;    0.000
676.425; 2774.800;  234.375;    0.000
676.536; 2819.800;  231.375;    0.000
676.648; 2806.800;  254.375;    0.000
676.759; 2953.800;  273.375;    0.000
676.871; 2739.800;  250.375;    0.000
676.983; 2870.800;  256.375;    0.000
677.094; 2795.800;  210.375;    0.000
677.206; 2696.800;  248.375;    0.000
677.317; 2750.800;  263.375;    0.000
677.429; 2781.800;  238.375;    0.000
677.540; 2820.800;  247.375;    0.000
677.651; 2777.800;  224.375;    0.000
677.763; 2759.800;  217.375;    0.000
677.874; 2742.800;  234.375;    0.000
677.986; 2728.800;  238.375;    0.000
678.097; 2681.800;  226.375;    0.000
678.208; 2790.800;  253.375;    0.000
678.320; 2745.800;  217.375;    0.000
678.431; 2714.800;  238.375;    0.000
678.542; 2701.800;  236.375;    0.000
678.653; 2620.800;  218.375;    0.000
678.765; 2762.800;  275.375;    0.000
678.876; 2678.800;  213.375;    0.000
678.987; 2650.800;  182.375;    0.000
679.098; 2696.800;  221.375;    0.000
679.209; 2661.800;  238.375;    0.000
679.320; 2658.800;  212.375;    0.000
679.432; 2674.800;  231.375;    0.000
679.543; 2656.800;  198.375;    0.000
679.654; 2633.800;  191.375;    0.000
679.765; 2674.800;  214.375;    0.000
679.876; 2624.800;  221.375;    0.000
679.987; 2746.800;  162.375;    0.000
680.098; 2741.800;  230.375;    0.000
680.209; 2616.800;  206.375;    0.000
680.320; 2608.800;  196.375;    0.000
680.431; 2619.800;  191.375;    0.000
680.542; 2600.800;  214.375;    0.000
680.653; 2642.800;  238.375;    0.000
680.763; 2599.800;  182.375;    0.000
680.874; 2665.800;  213.375;    0.000
680.985; 2649.800;  224.375;    0.000
681.096; 2599.800;  222.375;    0.000
681.207; 2594.800;  220.375;    0.000
681.318; 2553.800;  216.375;    0.000
681.428; 2640.800;  229.375;    0.000
681.539; 2496.800;  183.375;    0.000
681.650; 2521.800;  202.375;    0.000
681.760; 2658.800;  223.375;    0.000
681.871; 2628.800;  211.375;    0.000
681.982; 2591.800;  189.375;    0.000
682.093; 2525.800;  222.375;    0.000
682.203; 2542.800;  220.375;    0.000
682.314; 2566.800;  214.375;    0.000
682.424; 2529.800;  208.375;    0.000
682.535; 2481.800;  213.375;    0.000
682.646; 2554.800;  302.375;    0.000
682.756; 2476.800;  255.375;    0.000
682.867; 2576.800;  244.375;    0.000
682.977; 2510.800;  221.375;    0.000
683.088; 2596.800;  259.375;    0.000
683.198; 2578.800;  212.375;    0.000
683.308; 2523.800;  202.375;    0.000
683.419; 2505.800;  255.375;    0.000
683.529; 2506.800;  217.375;    0.000
683.640; 2497.800;  240.375;    0.000
683.750; 2578.800;  181.375;    0.000
683.860; 2521.800;  246.375;    0.000
683.971; 2488.800;  254.375;    0.000
684.081; 2506.800;  235.375;    0.000
684.191; 2572.800;  251.375;    0.000
684.301; 2462.800;  233.375;    0.000
684.412; 2536.800;  202.375;    0.000
684.522; 2537.800;  232.375;    0.000
684.632; 2512.800;  202.375;    0.000
684.742; 2519.800;  254.375;    0.000
684.852; 2554.800;  219.375;    0.000
684.963; 2569.800;  256.375;    0.000
685.073; 2454.800;  253.375;    0.000
685.183; 2523.800;  254.375;    0.000
685.293; 2547.800;  232.375;    0.000
685.403; 2462.800;  242.375;    0.000
685.513; 2566.800;  261.375;    0.000
685.623; 2512.800;  245.375;    0.000
685.733; 2539.800;  254.375;    0.000
685.843; 2567.800;  249.375;    0.000
685.953; 2570.800;  252.375;    0.000
686.063; 2556.800;  227.375;    0.000
686.173; 2457.800;  223.375;    0.000
686.283; 2445.800;  234.375;    0.000
686.393; 2551.800;  239.375;    0.000
686.503; 2542.800;  231.375;    0.000
686.612; 2535.800;  232.375;    0.000
686.722; 2552.800;  258.375;    0.000
686.832; 2512.800;  256.375;    0.000
686.942; 2571.800;  230.375;    0.000
687.052; 2460.800;  274.375;    0.000
687.161; 2525.800;  269.375;    0.000
687.271; 2437.800;  218.375;    0.000
687.381; 2463.800;  235.375;    0.000
687.491; 2547.800;  262.375;    0.000
687.600; 2487.800;  256.375;    0.000
687.710; 2476.800;  225.375;    0.000
687.820; 2534.800;  230.375;    0.000
687.929; 2491.800;  226.375;    0.000
688.039; 2389.800;  228.375;    0.000
688.148; 2479.800;  249.375;    0.000
688.258; 2475.800;  237.375;    0.000
688.367; 2468.800;  260.375;    0.000
688.477; 2461.800;  200.375;    0.000
688.586; 2456.800;  223.375;    0.000
688.696; 2457.800;  223.375;    0.000
688.805; 2425.800;  257.375;    0.000
688.915; 2477.800;  185.375;    0.000
689.024; 2476.800;  227.375;    0.000
689.134; 2477.800;  224.375;    0.000
689.243; 2420.800;  206.375;    0.000
689.352; 2426.800;  275.375;    0.000
689.462; 2402.800;  233.375;    0.000
689.571; 2407.800;  244.375;    0.000
689.680; 2452.800;  261.375;    0.000
689.790; 2409.800;  192.375;    0.000
689.899; 2448.800;  214.375;    0.000
690.008; 2456.800;  255.375;    0.000
690.117; 2377.800;  219.375;    0.000
690.227; 2423.800;  241.375;    0.000
690.336; 2438.800;  231.375;    0.000
690.445; 2343.800;  212.375;    0.000
690.554; 2315.800;  234.375;    0.000
690.663; 2390.800;  210.375;    0.000
690.772; 2395.800;  221.375;    0.000
690.881; 2532.800;  244.375;    0.000
690.990; 2385.800;  247.375;    0.000
691.099; 2375.800;  222.375;    0.000
691.209; 2362.800;  240.375;    0.000
691.318; 2435.800;  223.375;    0.000
691.427; 2399.800;  217.375;    0.000
691.536; 2462.800;  216.375;    0.000
691.644; 2407.800;  194.375;    0.000
691.753; 2432.800;  221.375;    0.000
691.862; 2409.800;  224.375;    0.000
691.971; 2465.800;  191.375;    0.000
692.080; 2352.800;  247.375;    0.000
692.189; 2289.800;  208.375;    0.000
692.298; 2365.800;  203.375;    0.000
692.406; 2426.800;  239.375;    0.000
692.515; 2466.800;  250.375;    0.000
692.624; 2305.800;  226.375;    0.000
692.733; 2384.800;  229.375;    0.000
692.842; 2356.800;  254.375;    0.000
692.950; 2442.800;  242.375;    0.000
693.059; 2402.800;  204.375;    0.000
693.168; 2438.800;  252.375;    0.000
693.276; 2401.800;  195.375;    0.000
693.385; 2373.800;  228.375;    0.000
693.494; 2398.800;  282.375;    0.000
693.602; 2336.800;  221.375;    0.000
693.711; 2360.800;  225.375;    0.000
693.819; 2410.800;  234.375;    0.000
693.928; 2462.800;  229.375;    0.000
694.036; 2354.800;  192.375;    0.000
694.145; 2461.800;  233.375;    0.000
694.253; 2421.800;  277.375;    0.000
694.362; 2408.800;  188.375;    0.000
694.470; 2406.800;  263.375;    0.000
694.579; 2398.800;  253.375;    0.000
694.687; 2414.800;  281.375;    0.000
694.795; 2340.800;  233.375;    0.000
694.904; 2385.800;  223.375;    0.000
695.012; 2398.800;  296.375;    0.000
695.120; 2344.800;  227.375;    0.000
695.229; 2328.800;  269.375;    0.000
695.337; 2313.800;  229.375;    0.000
695.445; 2408.800;  244.375;    0.000
695.553; 2412.800;  259.375;    0.000
695.662; 2385.800;  208.375;    0.000
695.770; 2285.800;  241.375;    0.000
695.878; 2434.800;  239.375;    0.000
695.986; 2463.800;  247.375;    0.000
696.094; 2335.800;  224.375;    0.000
696.202; 2362.800;  205.375;    0.000
696.310; 2424.800;  217.375;    0.000
696.419; 2344.800;  228.375;    0.000
696.527; 2369.800;  246.375;    0.000
696.635; 2437.800;  245.375;    0.000
696.743; 2328.800;  233.375;    0.000
696.851; 2345.800;  251.375;    0.000
696.959; 2377.800;  257.375;    0.000
697.067; 2384.800;  260.375;    0.000
697.174; 2376.800;  223.375;    0.000
697.282; 2305.800;  239.375;    0.000
697.390; 2410.800;  264.375;    0.000
697.498; 2354.800;  227.375;    0.000
697.606; 2295.800;  243.375;    0.000
697.714; 2377.800;  256.375;    0.000
697.822; 2374.800;  278.375;    0.000
697.929; 2330.800;  227.375;    0.000
698.037; 2322.800;  232.375;    0.000
698.145; 2319.800;  256.375;    0.000
698.253; 2336.800;  245.375;    0.000
698.360; 2412.800;  282.375;    0.000
698.468; 2316.800;  244.375;    0.000
698.576; 2374.800;  279.375;    0.000
698.683; 2417.800;  259.375;    0.000
698.791; 2329.800;  265.375;    0.000
698.899; 2329.800;  250.375;    0.000
699.006; 2327.800;  245.375;    0.000
699.114; 2322.800;  280.375;    0.000
699.221; 2294.800;  240.375;    0.000
699.329; 2378.800;  293.375;    0.000
699.436; 2338.800;  216.375;    0.000
699.544; 2323.800;  269.375;    0.000
699.651; 2286.800;  219.375;    0.000
699.759; 2236.800;  245.375;    0.000
699.866; 2244.800;  261.375;    0.000
699.974; 2284.800;  245.375;    0.000
700.081; 2381.800;  257.375;    0.000
700.188; 2334.800;  268.375;    0.000
700.296; 2251.800;  225.375;    0.000
700.403; 2321.800;  257.375;    0.000
700.510; 2307.800;  267.375;    0.000
700.618; 2352.800;  299.375;    0.000
700.725; 2288.800;  223.375;    0.000
700.832; 2297.800;  233.375;    0.000
700.940; 2264.800;  255.375;    0.000
701.047; 2259.800;  244.375;    0.000
701.154; 2359.800;  248.375;    0.000
701.261; 2321.800;  264.375;    0.000
701.368; 2316.800;  299.375;    0.000
701.475; 2297.800;  264.375;    0.000
701.582; 2357.800;  275.375;    0.000
701.690; 2307.800;  261.375;    0.000
701.797; 2314.800;  273.375;    0.000
701.904; 2331.800;  320.375;    0.000
702.011; 2378.800;  299.375;    0.000
702.118; 2288.800;  292.375;    0.000
702.225; 2373.800;  317.375;    0.000
702.332; 2368.800;  307.375;    0.000
702.439; 2311.800;  313.375;    0.000
702.546; 2296.800;  312.375;    0.000
702.652; 2393.800;  297.375;    0.000
702.759; 2290.800;  345.375;    0.000
702.866; 2315.800;  330.375;    0.000
702.973; 2325.800;  303.375;    0.000
703.080; 2315.800;  303.375;    0.000
703.187; 2320.800;  327.375;    0.000
703.294; 2326.800;  325.375;    0.000
703.400; 2149.800;  302.375;    0.000
703.507;  556.800;  344.375;    0.000
703.614;  327.800;  294.375;    0.000
703.720;  329.800;  322.375;    0.000
703.827;  316.800;  329.375;    0.000
703.934;  310.800;  318.375;    0.000
704.040;  309.800;  299.375;    0.000
704.147;  297.800;  352.375;    0.000
704.254;  312.800;  350.375;    0.000
704.360;  307.800;  347.375;    0.000
704.467;  320.800;  336.375;    0.000
704.573;  344.800;  344.375;    0.000
704.680;  344.800;  365.375;    0.000
704.786;  325.800;  332.375;    0.000
704.893;  335.800;  304.375;    0.000
704.999;  279.800;  299.375;    0.000
705.106;  347.800;  365.375;    0.000

