dark_200us
Integration time [ms]:   0.200
Averaging Nr. [scans]: 1
Smoothing Nr. [pixels]: 0
Data measured with spectrometer [name]: NIR
Wave   ;Sample   ;Dark     ;Reference
[nm]   ;[counts] ;[counts] ;[counts] 

691.496;  140.625;    0.000;    0.000
691.696;  176.625;    0.000;    0.000
691.896;  156.625;    0.000;    0.000
692.096;  162.625;    0.000;    0.000
692.296;  138.625;    0.000;    0.000
692.496;  186.625;    0.000;    0.000
692.695;  124.625;    0.000;    0.000
692.895;  182.625;    0.000;    0.000
693.095;  119.625;    0.000;    0.000
693.295;  183.625;    0.000;    0.000
693.495;  171.625;    0.000;    0.000
693.695;  158.625;    0.000;    0.000
693.894;  173.625;    0.000;    0.000
694.094;  185.625;    0.000;    0.000
694.294;  127.625;    0.000;    0.000
694.494;  135.625;    0.000;    0.000
694.693;  135.625;    0.000;    0.000
694.893;  126.625;    0.000;    0.000
695.093;  136.625;    0.000;    0.000
695.293;  155.625;    0.000;    0.000
695.492;  143.625;    0.000;    0.000
695.692;  159.625;    0.000;    0.000
695.891;  183.625;    0.000;    0.000
696.091;  146.625;    0.000;    0.000
696.291;  127.625;    0.000;    0.000
696.490;  161.625;    0.000;    0.000
696.690;  153.625;    0.000;    0.000
696.889;  161.625;    0.000;    0.000
697.089;  141.625;    0.000;    0.000
697.288;  147.625;    0.000;    0.000
697.488;  154.625;    0.000;    0.000
697.687;  164.625;    0.000;    0.000
697.887;  134.625;    0.000;    0.000
698.086;  134.625;    0.000;    0.000
698.286;  113.625;    0.000;    0.000
698.485;  129.625;    0.000;    0.000
698.684;   94.625;    0.000;    0.000
698.884;  157.625;    0.000;    0.000
699.083;  105.625;    0.000;    0.000
699.282;  166.625;    0.000;    0.000
699.482;  112.625;    0.000;    0.000
699.681;  123.625;    0.000;    0.000
699.880;  142.625;    0.000;    0.000
700.080;  152.625;    0.000;    0.000
700.279;  107.625;    0.000;    0.000
700.478;  154.625;    0.000;    0.000
700.677;  127.625;    0.000;    0.000
700.877;  165.625;    0.000;    0.000
701.076;  148.625;    0.000;    0.000
701.275;  137.625;    0.000;    0.000
701.474;  123.625;    0.000;    0.000
701.673;   89.625;    0.000;    0.000
701.872;  140.625;    0.000;    0.000
702.071;  118.625;    0.000;    0.000
702.271;  126.625;    0.000;    0.000
702.470;  147.625;    0.000;    0.000
702.669;  118.625;    0.000;    0.000
702.868;  136.625;    0.000;    0.000
703.067;  147.625;    0.000;    0.000
703.266;  107.625;    0.000;    0.000
703.465;  147.625;    0.000;    0.000
703.664;  147.625;    0.000;    0.000
703.863;  118.625;    0.000;    0.000
704.062;  121.625;    0.000;    0.000
704.260;  127.625;    0.000;    0.000
704.459;  159.625;    0.000;    0.000
704.658;   83.625;    0.000;    0.000
704.857;  123.625;    0.000;    0.000
705.056;   96.625;    0.000;    0.000
705.255;   93.625;    0.000;    0.000
705.454;  101.625;    0.000;    0.000
705.652;  125.625;    0.000;    0.000
705.851;  105.625;    0.000;    0.000
706.050;  110.625;    0.000;    0.000
706.249;   70.625;    0.000;    0.000
706.447;  114.625;    0.000;    0.000
706.646;   64.625;    0.000;    0.000
706.845;  116.625;    0.000;    0.000
707.043;  107.625;    0.000;    0.000
707.242;   69.625;    0.000;    0.000
707.441;  135.625;    0.000;    0.000
707.639;  110.625;    0.000;    0.000
707.838;  104.625;    0.000;    0.000
708.037;  119.625;    0.000;    0.000
708.235;  122.625;    0.000;    0.000
708.434;  113.625;    0.000;    0.000
708.632;   83.625;    0.000;    0.000
708.831;  138.625;    0.000;    0.000
709.029;  101.625;    0.000;    0.000
709.228;   99.625;    0.000;    0.000
709.426;  104.625;    0.000;    0.000
709.625;  125.625;    0.000;    0.000
709.823;  105.625;    0.000;    0.000
710.022;  122.625;    0.000;    0.000
710.220;  107.625;    0.000;    0.000
710.418;  128.625;    0.000;    0.000
710.617;   84.625;    0.000;    0.000
710.815;   96.625;    0.000;    0.000
711.013;   77.625;    0.000;    0.000
711.212;   89.625;    0.000;    0.000
711.410;  110.625;    0.000;    0.000
711.608;  134.625;    0.000;    0.000
711.807;  112.625;    0.000;    0.000
712.005;   86.625;    0.000;    0.000
712.203;  102.625;    0.000;    0.000
712.401;   71.625;    0.000;    0.000
712.599;   87.625;    0.000;    0.000
712.798;  102.625;    0.000;    0.000
712.996;   95.625;    0.000;    0.000
713.194;   91.625;    0.000;    0.000
713.392;   79.625;    0.000;    0.000
713.590;  123.625;    0.000;    0.000
713.788;  101.625;    0.000;    0.000
713.986;   95.625;    0.000;    0.000
714.184;   53.625;    0.000;    0.000
714.382;   93.625;    0.000;    0.000
714.580;   73.625;    0.000;    0.000
714.778;  118.625;    0.000;    0.000
714.976;   81.625;    0.000;    0.000
715.174;   80.625;    0.000;    0.000
715.372;  118.625;    0.000;    0.000
715.570;   86.625;    0.000;    0.000
715.768;  157.625;    0.000;    0.000
715.966;  112.625;    0.000;    0.000
716.164;  134.625;    0.000;    0.000
716.362;   75.625;    0.000;    0.000
716.560;   95.625;    0.000;    0.000
716.758;  128.625;    0.000;    0.000
716.955;   78.625;    0.000;    0.000
717.153;   79.625;    0.000;    0.000
717.351;  111.625;    0.000;    0.000
717.549;   95.625;    0.000;    0.000
717.746;   98.625;    0.000;    0.000
717.944;  135.625;    0.000;    0.000
718.142;  109.625;    0.000;    0.000
718.340;  123.625;    0.000;    0.000
718.537;   97.625;    0.000;    0.000
718.735;  139.625;    0.000;    0.000
718.933;   77.625;    0.000;    0.000
719.130;  128.625;    0.000;    0.000
719.328;  123.625;    0.000;    0.000
719.525;   94.625;    0.000;    0.000
719.723;  107.625;    0.000;    0.000
719.920;   76.625;    0.000;    0.000
720.118;   86.625;    0.000;    0.000
720.316;  121.625;    0.000;    0.000
720.513;   83.625;    0.000;    0.000
720.711;   85.625;    0.000;    0.000
720.908;  100.625;    0.000;    0.000
721.105;  125.625;    0.000;    0.000
721.303;  102.625;    0.000;    0.000
721.500;  131.625;    0.000;    0.000
721.698;  132.625;    0.000;    0.000
721.895;  106.625;    0.000;    0.000
722.092;   66.625;    0.000;    0.000
722.290;  131.625;    0.000;    0.000
722.487;  121.625;    0.000;    0.000
722.684;  114.625;    0.000;    0.000
722.882;  105.625;    0.000;    0.000
723.079;  109.625;    0.000;    0.000
723.276;  105.625;    0.000;    0.000
723.473;   94.625;    0.000;    0.000
723.671;   59.625;    0.000;    0.000
723.868;  140.625;    0.000;    0.000
724.065;  116.625;    0.000;    0.000
724.262;  128.625;    0.000;    0.000
724.459;   83.625;    0.000;    0.000
724.656;  121.625;    0.000;    0.000
724.854;  112.625;    0.000;    0.000
725.051;   92.625;    0.000;    0.000
725.248;  130.625;    0.000;    0.000
725.445;  125.625;    0.000;    0.000
725.642;   96.625;    0.000;    0.000
725.839;  140.625;    0.000;    0.000
726.036;  126.625;    0.000;    0.000
726.233;  123.625;    0.000;    0.000
726.430;  118.625;    0.000;    0.000
726.627;  108.625;    0.000;    0.000
726.824;  100.625;    0.000;    0.000
727.021;  103.625;    0.000;    0.000
727.218;   89.625;    0.000;    0.000
727.414;  103.625;    0.000;    0.000
727.611;  140.625;    0.000;    0.000
727.808;  124.625;    0.000;    0.000
728.005;   89.625;    0.000;    0.000
728.202;  130.625;    0.000;    0.000
728.399;  109.625;    0.000;    0.000
728.595;  108.625;    0.000;    0.000
728.792;   96.625;    0.000;    0.000
728.989;  122.625;    0.000;    0.000
729.186;   91.625;    0.000;    0.000
729.382;  128.625;    0.000;    0.000
729.579;   88.625;    0.000;    0.000
729.776;  118.625;    0.000;    0.000
729.972;  107.625;    0.000;    0.000
730.169;  101.625;    0.000;    0.000
730.366;  100.625;    0.000;    0.000
730.562;   84.625;    0.000;    0.000
730.759;   81.625;    0.000;    0.000
730.955;  121.625;    0.000;    0.000
731.152;  120.625;    0.000;    0.000
731.348;  102.625;    0.000;    0.000
731.545;   82.625;    0.000;    0.000
731.741;   84.625;    0.000;    0.000
731.938;  120.625;    0.000;    0.000
732.134;  110.625;    0.000;    0.000
732.331;   89.625;    0.000;    0.000
732.527;  113.625;    0.000;    0.000
732.724;  102.625;    0.000;    0.000
732.920;  114.625;    0.000;    0.000
733.116;  117.625;    0.000;    0.000
733.313;  120.625;    0.000;    0.000
733.509;   96.625;    0.000;    0.000
733.705;   87.625;    0.000;    0.000
733.902;   77.625;    0.000;    0.000
734.098;   66.625;    0.000;    0.000
734.294;  100.625;    0.000;    0.000
734.490;  110.625;    0.000;    0.000
734.687;  113.625;    0.000;    0.000
734.883;   64.625;    0.000;    0.000
735.079;   51.625;    0.000;    0.000
735.275;  106.625;    0.000;    0.000
735.471;   55.625;    0.000;    0.000
735.667;   80.625;    0.000;    0.000
735.863;  100.625;    0.000;    0.000
736.060;  119.625;    0.000;    0.000
736.256;   89.625;    0.000;    0.000
736.452;   79.625;    0.000;    0.000
736.648;  114.625;    0.000;    0.000
736.844;  102.625;    0.000;    0.000
737.040;  111.625;    0.000;    0.000
737.236;  120.625;    0.000;    0.000
737.432;   71.625;    0.000;    0.000
737.628;   89.625;    0.000;    0.000
737.824;   89.625;    0.000;    0.000
738.019;   93.625;    0.000;    0.000
738.215;   98.625;    0.000;    0.000
738.411;  109.625;    0.000;    0.000
738.607;   80.625;    0.000;    0.000
738.803;   60.625;    0.000;    0.000
738.999;  148.625;    0.000;    0.000
739.195;   79.625;    0.000;    0.000
739.390;  158.625;    0.000;    0.000
739.586;  136.625;    0.000;    0.000
739.782;  124.625;    0.000;    0.000
739.978;  116.625;    0.000;    0.000
740.173;   97.625;    0.000;    0.000
740.369;   87.625;    0.000;    0.000
740.565;  134.625;    0.000;    0.000
740.760;  164.625;    0.000;    0.000
740.956;  118.625;    0.000;    0.000
741.152;  124.625;    0.000;    0.000
741.347;   95.625;    0.000;    0.000
741.543;   89.625;    0.000;    0.000
741.738;  122.625;    0.000;    0.000
741.934;  125.625;    0.000;    0.000
742.129;  110.625;    0.000;    0.000
742.325;  137.625;    0.000;    0.000
742.520;  104.625;    0.000;    0.000
742.716;  107.625;    0.000;    0.000
742.911;   82.625;    0.000;    0.000
743.107;  105.625;    0.000;    0.000
743.302;   94.625;    0.000;    0.000
743.498;  120.625;    0.000;    0.000
743.693;   97.625;    0.000;    0.000
743.888;  123.625;    0.000;    0.000
744.084;  120.625;    0.000;    0.000
744.279;  109.625;    0.000;    0.000
744.474;  138.625;    0.000;    0.000
744.670;  124.625;    0.000;    0.000
744.865;   93.625;    0.000;    0.000
745.060;   74.625;    0.000;    0.000
745.255;  146.625;    0.000;    0.000
745.451;   97.625;    0.000;    0.000
745.646;  148.625;    0.000;    0.000
745.841;   72.625;    0.000;    0.000
746.036;  137.625;    0.000;    0.000
746.231;  101.625;    0.000;    0.000
746.426;  100.625;    0.000;    0.000
746.622;  144.625;    0.000;    0.000
746.817;  110.625;    0.000;    0.000
747.012;   90.625;    0.000;    0.000
747.207;  116.625;    0.000;    0.000
747.402;  110.625;    0.000;    0.000
747.597;   50.625;    0.000;    0.000
747.792;  133.625;    0.000;    0.000
747.987;   55.625;    0.000;    0.000
748.182;   98.625;    0.000;    0.000
748.377;   55.625;    0.000;    0.000
748.572;  131.625;    0.000;    0.000
748.767;   86.625;    0.000;    0.000
748.961;  103.625;    0.000;    0.000
749.156;  123.625;    0.000;    0.000
749.351;   99.625;    0.000;    0.000
749.546;  109.625;    0.000;    0.000
749.741;  123.625;    0.000;    0.000
749.936;  117.625;    0.000;    0.000
750.130;  117.625;    0.000;    0.000
750.325;   87.625;    0.000;    0.000
750.520;   86.625;    0.000;    0.000
750.715;  107.625;    0.000;    0.000
750.909;  134.625;    0.000;    0.000
751.104;   80.625;    0.000;    0.000
751.299;  129.625;    0.000;    0.000
751.493;  123.625;    0.000;    0.000
751.688;   99.625;    0.000;    0.000
751.882;  111.625;    0.000;    0.000
752.077;  122.625;    0.000;    0.000
752.272;  130.625;    0.000;    0.000
752.466;  151.625;    0.000;    0.000
752.661;  121.625;    0.000;    0.000
752.855;   87.625;    0.000;    0.000
753.050;  123.625;    0.000;    0.000
753.244;  123.625;    0.000;    0.000
753.439;   99.625;    0.000;    0.000
753.633;  126.625;    0.000;    0.000
753.827;   93.625;    0.000;    0.000
754.022;   91.625;    0.000;    0.000
754.216;  101.625;    0.000;    0.000
754.411;  151.625;    0.000;    0.000
754.605;   87.625;    0.000;    0.000
754.799;  120.625;    0.000;    0.000
754.994;   97.625;    0.000;    0.000
755.188;  130.625;    0.000;    0.000
755.382;  113.625;    0.000;    0.000
755.576;  117.625;    0.000;    0.000
755.771;   98.625;    0.000;    0.000
755.965;  140.625;    0.000;    0.000
756.159;  133.625;    0.000;    0.000
756.353;  154.625;    0.000;    0.000
756.547;   94.625;    0.000;    0.000
756.742;  123.625;    0.000;    0.000
756.936;   88.625;    0.000;    0.000
757.130;   70.625;    0.000;    0.000
757.324;  111.625;    0.000;    0.000
757.518;  125.625;    0.000;    0.000
757.712;  127.625;    0.000;    0.000
757.906;  142.625;    0.000;    0.000
758.100;  141.625;    0.000;    0.000
758.294;  147.625;    0.000;    0.000
758.488;  152.625;    0.000;    0.000
758.682;  161.625;    0.000;    0.000
758.876;  139.625;    0.000;    0.000
759.070;  102.625;    0.000;    0.000
759.264;   93.625;    0.000;    0.000
759.457;  110.625;    0.000;    0.000
759.651;  110.625;    0.000;    0.000
759.845;  103.625;    0.000;    0.000
760.039;  107.625;    0.000;    0.000
760.233;  138.625;    0.000;    0.000
760.427;  123.625;    0.000;    0.000
760.620;  147.625;    0.000;    0.000
760.814;   69.625;    0.000;    0.000
761.008;  153.625;    0.000;    0.000
761.202;  125.625;    0.000;    0.000
761.395;  135.625;    0.000;    0.000
761.589;  111.625;    0.000;    0.000
761.783;  122.625;    0.000;    0.000
761.976;  170.625;    0.000;    0.000
762.170;  138.625;    0.000;    0.000
762.363;  135.625;    0.000;    0.000
762.557;  135.625;    0.000;    0.000
762.750;  129.625;    0.000;    0.000
762.944;  127.625;    0.000;    0.000
763.138;  111.625;    0.000;    0.000
763.331;  125.625;    0.000;    0.000
763.524;  119.625;    0.000;    0.000
763.718;  134.625;    0.000;    0.000
763.911;  115.625;    0.000;    0.000
764.105;   97.625;    0.000;    0.000
764.298;  118.625;    0.000;    0.000
764.492;  135.625;    0.000;    0.000
764.685;  107.625;    0.000;    0.000
764.878;  139.625;    0.000;    0.000
765.072;  104.625;    0.000;    0.000
765.265;  141.625;    0.000;    0.000
765.458;  101.625;    0.000;    0.000
765.651;  153.625;    0.000;    0.000
765.845;  121.625;    0.000;    0.000
766.038;  104.625;    0.000;    0.000
766.231;  134.625;    0.000;    0.000
766.424;  138.625;    0.000;    0.000
766.618;  126.625;    0.000;    0.000
766.811;  102.625;    0.000;    0.000
767.004;  148.625;    0.000;    0.000
767.197;  191.625;    0.000;    0.000
767.390;  119.625;    0.000;    0.000
767.583;  123.625;    0.000;    0.000
767.776;  115.625;    0.000;    0.000
767.969;  150.625;    0.000;    0.000
768.162;  145.625;    0.000;    0.000
768.355;  113.625;    0.000;    0.000
768.548;  151.625;    0.000;    0.000
768.741;  143.625;    0.000;    0.000
768.934;  145.625;    0.000;    0.000
769.127;  138.625;    0.000;    0.000
769.320;  108.625;    0.000;    0.000
769.513;  125.625;    0.000;    0.000
769.706;   73.625;    0.000;    0.000
769.898;  118.625;    0.000;    0.000
770.091;  139.625;    0.000;    0.000
770.284;   94.625;    0.000;    0.000
770.477;  116.625;    0.000;    0.000
770.670;  160.625;    0.000;    0.000
770.862;  133.625;    0.000;    0.000
771.055;  103.625;    0.000;    0.000
771.248;  137.625;    0.000;    0.000
771.441;  130.625;    0.000;    0.000
771.633;  122.625;    0.000;    0.000
771.826;  148.625;    0.000;    0.000
772.018;  103.625;    0.000;    0.000
772.211;  110.625;    0.000;    0.000
772.404;  121.625;    0.000;    0.000
772.596;  169.625;    0.000;    0.000
772.789;  114.625;    0.000;    0.000
772.981;  113.625;    0.000;    0.000
773.174;  139.625;    0.000;    0.000
773.366;  146.625;    0.000;    0.000
773.559;  132.625;    0.000;    0.000
773.751;  139.625;    0.000;    0.000
773.944;  156.625;    0.000;    0.000
774.136;  133.625;    0.000;    0.000
774.329;  101.625;    0.000;    0.000
774.521;  128.625;    0.000;    0.000
774.713;  173.625;    0.000;    0.000
774.906;  168.625;    0.000;    0.000
775.098;  152.625;    0.000;    0.000
775.290;  164.625;    0.000;    0.000
775.483;  130.625;    0.000;    0.000
775.675;  160.625;    0.000;    0.000
775.867;  150.625;    0.000;    0.000
776.059;  150.625;    0.000;    0.000
776.251;  158.625;    0.000;    0.000
776.444;  151.625;    0.000;    0.000
776.636;  130.625;    0.000;    0.000
776.828;  133.625;    0.000;    0.000
777.020;  127.625;    0.000;    0.000
777.212;  127.625;    0.000;    0.000
777.404;  165.625;    0.000;    0.000
777.596;  135.625;    0.000;    0.000
777.788;  134.625;    0.000;    0.000
777.980;  131.625;    0.000;    0.000
778.172;  137.625;    0.000;    0.000
778.364;  166.625;    0.000;    0.000
778.556;  121.625;    0.000;    0.000
778.748;  131.625;    0.000;    0.000
778.940;  139.625;    0.000;    0.000
779.132;  178.625;    0.000;    0.000
779.324;  115.625;    0.000;    0.000
779.516;  114.625;    0.000;    0.000
779.708;  149.625;    0.000;    0.000
779.900;  135.625;    0.000;    0.000
780.091;  137.625;    0.000;    0.000
780.283;  131.625;    0.000;    0.000
780.475;  113.625;    0.000;    0.000
780.667;  166.625;    0.000;    0.000
780.859;  143.625;    0.000;    0.000
781.050;  164.625;    0.000;    0.000
781.242;  167.625;    0.000;    0.000
781.434;  178.625;    0.000;    0.000
781.625;  127.625;    0.000;    0.000
781.817;  163.625;    0.000;    0.000
782.009;  142.625;    0.000;    0.000
782.200;  153.625;    0.000;    0.000
782.392;  165.625;    0.000;    0.000
782.583;  155.625;    0.000;    0.000
782.775;  153.625;    0.000;    0.000
782.966;  173.625;    0.000;    0.000
783.158;  126.625;    0.000;    0.000
783.349;  172.625;    0.000;    0.000
783.541;  123.625;    0.000;    0.000
783.732;  126.625;    0.000;    0.000
783.924;  168.625;    0.000;    0.000
784.115;  139.625;    0.000;    0.000
784.306;  132.625;    0.000;    0.000
784.498;  141.625;    0.000;    0.000
784.689;  173.625;    0.000;    0.000
784.880;  112.625;    0.000;    0.000
785.072;  139.625;    0.000;    0.000
785.263;  170.625;    0.000;    0.000
785.454;  154.625;    0.000;    0.000
785.645;   82.625;    0.000;    0.000
785.837;  132.625;    0.000;    0.000
786.028;  171.625;    0.000;    0.000
786.219;  151.625;    0.000;    0.000
786.410;  137.625;    0.000;    0.000
786.601;  109.625;    0.000;    0.000
786.793;  142.625;    0.000;    0.000
786.984;  127.625;    0.000;    0.000
787.175;  143.625;    0.000;    0.000
787.366;  134.625;    0.000;    0.000
787.557;  142.625;    0.000;    0.000
787.748;   97.625;    0.000;    0.000
787.939;  151.625;    0.000;    0.000
788.130;  151.625;    0.000;    0.000
788.321;  123.625;    0.000;    0.000
788.512;  157.625;    0.000;    0.000
788.703;  134.625;    0.000;    0.000
788.894;  109.625;    0.000;    0.000
789.084;  115.625;    0.000;    0.000
789.275;   97.625;    0.000;    0.000
789.466;  156.625;    0.000;    0.000
789.657;  129.625;    0.000;    0.000
789.848;  178.625;    0.000;    0.000
790.039;  129.625;    0.000;    0.000
790.229;  146.625;    0.000;    0.000
790.420;  154.625;    0.000;    0.000
790.611;  170.625;    0.000;    0.000
790.801;  105.625;    0.000;    0.000
790.992;  146.625;    0.000;    0.000
791.183;  161.625;    0.000;    0.000
791.373;  125.625;    0.000;    0.000
791.564;  115.625;    0.000;    0.000
791.755;  122.625;    0.000;    0.000
791.945;  121.625;    0.000;    0.000
792.136;  106.625;    0.000;    0.000
792.326;   78.625;    0.000;    0.000
792.517;  153.625;    0.000;    0.000
792.707;  113.625;    0.000;    0.000
792.898;  118.625;    0.000;    0.000
793.088;  129.625;    0.000;    0.000
793.279;  137.625;    0.000;    0.000
793.469;   88.625;    0.000;    0.000
793.660;  150.625;    0.000;    0.000
793.850;  125.625;    0.000;    0.000
794.040;  108.625;    0.000;    0.000
794.231;  110.625;    0.000;    0.000
794.421;  124.625;    0.000;    0.000
794.611;  123.625;    0.000;    0.000
794.802;  152.625;    0.000;    0.000
794.992;  152.625;    0.000;    0.000
795.182;  167.625;    0.000;    0.000
795.372;  132.625;    0.000;    0.000
795.563;  167.625;    0.000;    0.000
795.753;  102.625;    0.000;    0.000
795.943;  144.625;    0.000;    0.000
796.133;   83.625;    0.000;    0.000
796.323;  106.625;    0.000;    0.000
796.513;  147.625;    0.000;    0.000
796.703;  119.625;    0.000;    0.000
796.893;  124.625;    0.000;    0.000
797.083;  147.625;    0.000;    0.000
797.273;  123.625;    0.000;    0.000
797.463;  167.625;    0.000;    0.000
797.653;   53.625;    0.000;    0.000
797.843;  100.625;    0.000;    0.000
798.033;  135.625;    0.000;    0.000
798.223;  107.625;    0.000;    0.000
798.413;  187.625;    0.000;    0.000
798.603;  162.625;    0.000;    0.000
798.793;  140.625;    0.000;    0.000
798.983;  137.625;    0.000;    0.000
799.172;  139.625;    0.000;    0.000
799.362;  103.625;    0.000;    0.000
799.552;  123.625;    0.000;    0.000
799.742;  136.625;    0.000;    0.000
799.932;   82.625;    0.000;    0.000
800.121;  147.625;    0.000;    0.000
800.311;  107.625;    0.000;    0.000
800.501;  127.625;    0.000;    0.000
800.690;  172.625;    0.000;    0.000
800.880;  119.625;    0.000;    0.000
801.070;  137.625;    0.000;    0.000
801.259;  131.625;    0.000;    0.000
801.449;  111.625;    0.000;    0.000
801.638;  140.625;    0.000;    0.000
801.828;  117.625;    0.000;    0.000
802.017;  200.625;    0.000;    0.000
802.207;  127.625;    0.000;    0.000
802.396;  161.625;    0.000;    0.000
802.586;  104.625;    0.000;    0.000
802.775;  170.625;    0.000;    0.000
802.965;  116.625;    0.000;    0.000
803.154;  165.625;    0.000;    0.000
803.343;  150.625;    0.000;    0.000
803.533;  156.625;    0.000;    0.000
803.722;  145.625;    0.000;    0.000
803.911;  104.625;    0.000;    0.000
804.101;  134.625;    0.000;    0.000
804.290;  159.625;    0.000;    0.000
804.479;  120.625;    0.000;    0.000
804.668;  138.625;    0.000;    0.000
804.857;  164.625;    0.000;    0.000
805.047;   87.625;    0.000;    0.000
805.236;  145.625;    0.000;    0.000
805.425;  148.625;    0.000;    0.000
805.614;  111.625;    0.000;    0.000
805.803;  142.625;    0.000;    0.000
805.992;  161.625;    0.000;    0.000
806.181;  108.625;    0.000;    0.000
806.370;  136.625;    0.000;    0.000
806.559;  111.625;    0.000;    0.000
806.748;  151.625;    0.000;    0.000
806.937;  142.625;    0.000;    0.000
807.126;  142.625;    0.000;    0.000
807.315;  158.625;    0.000;    0.000
807.504;  135.625;    0.000;    0.000
807.693;  147.625;    0.000;    0.000
807.882;  123.625;    0.000;    0.000
808.071;  137.625;    0.000;    0.000
808.260;  121.625;    0.000;    0.000
808.448;  177.625;    0.000;    0.000
808.637;  119.625;    0.000;    0.000
808.826;  171.625;    0.000;    0.000
809.015;  140.625;    0.000;    0.000
809.203;  144.625;    0.000;    0.000
809.392;  140.625;    0.000;    0.000
809.581;  159.625;    0.000;    0.000
809.770;  143.625;    0.000;    0.000
809.958;  176.625;    0.000;    0.000
810.147;  146.625;    0.000;    0.000
810.335;  164.625;    0.000;    0.000
810.524;  145.625;    0.000;    0.000
810.713;  133.625;    0.000;    0.000
810.901;  156.625;    0.000;    0.000
811.090;  161.625;    0.000;    0.000
811.278;  130.625;    0.000;    0.000
811.467;  158.625;    0.000;    0.000
811.655;  194.625;    0.000;    0.000
811.844;  162.625;    0.000;    0.000
812.032;  142.625;    0.000;    0.000
812.220;  153.625;    0.000;    0.000
812.409;  153.625;    0.000;    0.000
812.597;  165.625;    0.000;    0.000
812.785;  205.625;    0.000;    0.000
812.974;  165.625;    0.000;    0.000
813.162;  150.625;    0.000;    0.000
813.350;  124.625;    0.000;    0.000
813.539;  144.625;    0.000;    0.000
813.727;  168.625;    0.000;    0.000
813.915;  136.625;    0.000;    0.000
814.103;  151.625;    0.000;    0.000
814.291;  154.625;    0.000;    0.000
814.480;  176.625;    0.000;    0.000
814.668;  142.625;    0.000;    0.000
814.856;  164.625;    0.000;    0.000
815.044;  143.625;    0.000;    0.000
815.232;  139.625;    0.000;    0.000
815.420;  164.625;    0.000;    0.000
815.608;  109.625;    0.000;    0.000
815.796;  128.625;    0.000;    0.000
815.984;  143.625;    0.000;    0.000
816.172;  147.625;    0.000;    0.000
816.360;  172.625;    0.000;    0.000
816.548;  112.625;    0.000;    0.000
816.736;  116.625;    0.000;    0.000
816.924;  179.625;    0.000;    0.000
817.111;  159.625;    0.000;    0.000
817.299;  120.625;    0.000;    0.000
817.487;  174.625;    0.000;    0.000
817.675;  166.625;    0.000;    0.000
817.863;  177.625;    0.000;    0.000
818.050;  163.625;    0.000;    0.000
818.238;  152.625;    0.000;    0.000
818.426;  137.625;    0.000;    0.000
818.613;  127.625;    0.000;    0.000
818.801;  150.625;    0.000;    0.000
818.989;  181.625;    0.000;    0.000
819.176;  128.625;    0.000;    0.000
819.364;  150.625;    0.000;    0.000
819.552;  115.625;    0.000;    0.000
819.739;  165.625;    0.000;    0.000
819.927;  128.625;    0.000;    0.000
820.114;  156.625;    0.000;    0.000
820.302;  141.625;    0.000;    0.000
820.489;  127.625;    0.000;    0.000
820.677;  140.625;    0.000;    0.000
820.864;  140.625;    0.000;    0.000
821.051;  148.625;    0.000;    0.000
821.239;  124.625;    0.000;    0.000
821.426;  147.625;    0.000;    0.000
821.614;  170.625;    0.000;    0.000
821.801;  130.625;    0.000;    0.000
821.988;  134.625;    0.000;    0.000
822.176;  154.625;    0.000;    0.000
822.363;  137.625;    0.000;    0.000
822.550;   95.625;    0.000;    0.000
822.737;   83.625;    0.000;    0.000
822.924;  141.625;    0.000;    0.000
823.112;  151.625;    0.000;    0.000
823.299;  132.625;    0.000;    0.000
823.486;  151.625;    0.000;    0.000
823.673;  129.625;    0.000;    0.000
823.860;  134.625;    0.000;    0.000
824.047;  153.625;    0.000;    0.000
824.234;  132.625;    0.000;    0.000
824.421;   99.625;    0.000;    0.000
824.608;  144.625;    0.000;    0.000
824.795;  119.625;    0.000;    0.000
824.982;  154.625;    0.000;    0.000
825.169;  116.625;    0.000;    0.000
825.356;  139.625;    0.000;    0.000
825.543;  140.625;    0.000;    0.000
825.730;  161.625;    0.000;    0.000
825.917;  165.625;    0.000;    0.000
826.104;  166.625;    0.000;    0.000
826.290;  131.625;    0.000;    0.000
826.477;  124.625;    0.000;    0.000
826.664;  122.625;    0.000;    0.000
826.851;  126.625;    0.000;    0.000
827.038;  131.625;    0.000;    0.000
827.224;  155.625;    0.000;    0.000
827.411;  176.625;    0.000;    0.000
827.598;  161.625;    0.000;    0.000
827.784;  165.625;    0.000;    0.000
827.971;  157.625;    0.000;    0.000
828.157;  117.625;    0.000;    0.000
828.344;  170.625;    0.000;    0.000
828.531;  134.625;    0.000;    0.000
828.717;  142.625;    0.000;    0.000
828.904;  160.625;    0.000;    0.000
829.090;  174.625;    0.000;    0.000
829.277;  147.625;    0.000;    0.000
829.463;  151.625;    0.000;    0.000
829.650;  157.625;    0.000;    0.000
829.836;  162.625;    0.000;    0.000
830.022;  165.625;    0.000;    0.000
830.209;  157.625;    0.000;    0.000
830.395;  133.625;    0.000;    0.000
830.581;  134.625;    0.000;    0.000
830.768;  127.625;    0.000;    0.000
830.954;  206.625;    0.000;    0.000
831.140;  160.625;    0.000;    0.000
831.327;  194.625;    0.000;    0.000
831.513;  157.625;    0.000;    0.000
831.699;  169.625;    0.000;    0.000
831.885;  157.625;    0.000;    0.000
832.071;  174.625;    0.000;    0.000
832.257;  175.625;    0.000;    0.000
832.444;  164.625;    0.000;    0.000
832.630;  148.625;    0.000;    0.000
832.816;  136.625;    0.000;    0.000
833.002;  141.625;    0.000;    0.000
833.188;  159.625;    0.000;    0.000
833.374;  138.625;    0.000;    0.000
833.560;  160.625;    0.000;    0.000
833.746;  144.625;    0.000;    0.000
833.932;  142.625;    0.000;    0.000
834.118;  157.625;    0.000;    0.000
834.303;  135.625;    0.000;    0.000
834.489;  152.625;    0.000;    0.000
834.675;  156.625;    0.000;    0.000
834.861;  153.625;    0.000;    0.000
835.047;  180.625;    0.000;    0.000
835.233;  129.625;    0.000;    0.000
835.418;  158.625;    0.000;    0.000
835.604;  124.625;    0.000;    0.000
835.790;  130.625;    0.000;    0.000
835.976;  124.625;    0.000;    0.000
836.161;  156.625;    0.000;    0.000
836.347;  109.625;    0.000;    0.000
836.533;  106.625;    0.000;    0.000
836.718;  161.625;    0.000;    0.000
836.904;  176.625;    0.000;    0.000
837.089;  122.625;    0.000;    0.000
837.275;  212.625;    0.000;    0.000
837.460;  141.625;    0.000;    0.000
837.646;  170.625;    0.000;    0.000
837.831;  144.625;    0.000;    0.000
838.017;  207.625;    0.000;    0.000
838.202;  162.625;    0.000;    0.000
838.388;  184.625;    0.000;    0.000
838.573;  141.625;    0.000;    0.000
838.759;  162.625;    0.000;    0.000
838.944;  125.625;    0.000;    0.000
839.129;  123.625;    0.000;    0.000
839.315;  158.625;    0.000;    0.000
839.500;  148.625;    0.000;    0.000
839.685;  159.625;    0.000;    0.000
839.870;  136.625;    0.000;    0.000
840.056;  153.625;    0.000;    0.000
840.241;  155.625;    0.000;    0.000
840.426;  164.625;    0.000;    0.000
840.611;  173.625;    0.000;    0.000
840.796;  166.625;    0.000;    0.000
840.981;  138.625;    0.000;    0.000
841.166;  159.625;    0.000;    0.000
841.352;  150.625;    0.000;    0.000
841.537;  130.625;    0.000;    0.000
841.722;  163.625;    0.000;    0.000
841.907;  175.625;    0.000;    0.000
842.092;  137.625;    0.000;    0.000
842.277;  163.625;    0.000;    0.000
842.462;  151.625;    0.000;    0.000
842.646;  169.625;    0.000;    0.000
842.831;  131.625;    0.000;    0.000
843.016;  206.625;    0.000;    0.000
843.201;  165.625;    0.000;    0.000
843.386;  159.625;    0.000;    0.000
843.571;  154.625;    0.000;    0.000
843.755;  163.625;    0.000;    0.000
843.940;  137.625;    0.000;    0.000
844.125;  174.625;    0.000;    0.000
844.310;  187.625;    0.000;    0.000
844.494;  175.625;    0.000;    0.000
844.679;  183.625;    0.000;    0.000
844.864;  146.625;    0.000;    0.000
845.048;  121.625;    0.000;    0.000
845.233;  205.625;    0.000;    0.000
845.418;  191.625;    0.000;    0.000
845.602;  127.625;    0.000;    0.000
845.787;  131.625;    0.000;    0.000
845.971;  182.625;    0.000;    0.000
846.156;  128.625;    0.000;    0.000
846.340;  159.625;    0.000;    0.000
846.525;  143.625;    0.000;    0.000
846.709;  159.625;    0.000;    0.000
846.894;  135.625;    0.000;    0.000
847.078;  134.625;    0.000;    0.000
847.262;  147.625;    0.000;    0.000
847.447;  107.625;    0.000;    0.000
847.631;  159.625;    0.000;    0.000
847.815;  121.625;    0.000;    0.000
848.000;  121.625;    0.000;    0.000
848.184;  147.625;    0.000;    0.000
848.368;  143.625;    0.000;    0.000
848.552;  157.625;    0.000;    0.000
848.736;  170.625;    0.000;    0.000
848.921;  162.625;    0.000;    0.000
849.105;  157.625;    0.000;    0.000
849.289;  165.625;    0.000;    0.000
849.473;  134.625;    0.000;    0.000
849.657;  137.625;    0.000;    0.000
849.841;  145.625;    0.000;    0.000
850.025;  158.625;    0.000;    0.000
850.209;  156.625;    0.000;    0.000
850.393;  127.625;    0.000;    0.000
850.577;  126.625;    0.000;    0.000
850.761;  184.625;    0.000;    0.000
850.945;  171.625;    0.000;    0.000
851.129;  174.625;    0.000;    0.000
851.313;  167.625;    0.000;    0.000
851.497;  171.625;    0.000;    0.000
851.680;  190.625;    0.000;    0.000
851.864;  165.625;    0.000;    0.000
852.048;  153.625;    0.000;    0.000
852.232;  167.625;    0.000;    0.000
852.416;  201.625;    0.000;    0.000
852.599;  159.625;    0.000;    0.000
852.783;  162.625;    0.000;    0.000
852.967;  210.625;    0.000;    0.000
853.150;  167.625;    0.000;    0.000
853.334;  152.625;    0.000;    0.000
853.518;  179.625;    0.000;    0.000
853.701;  139.625;    0.000;    0.000
853.885;  191.625;    0.000;    0.000
854.068;  135.625;    0.000;    0.000
854.252;  138.625;    0.000;    0.000
854.435;  161.625;    0.000;    0.000
854.619;  119.625;    0.000;    0.000
854.802;  175.625;    0.000;    0.000
854.986;  163.625;    0.000;    0.000
855.169;  151.625;    0.000;    0.000
855.353;  168.625;    0.000;    0.000
855.536;  131.625;    0.000;    0.000
855.719;  183.625;    0.000;    0.000
855.903;  181.625;    0.000;    0.000
856.086;  169.625;    0.000;    0.000
856.269;  130.625;    0.000;    0.000
856.452;  135.625;    0.000;    0.000
856.636;  121.625;    0.000;    0.000
856.819;  170.625;    0.000;    0.000
857.002;  168.625;    0.000;    0.000
857.185;  183.625;    0.000;    0.000
857.368;  161.625;    0.000;    0.000
857.552;  162.625;    0.000;    0.000
857.735;  183.625;    0.000;    0.000
857.918;  140.625;    0.000;    0.000
858.101;  139.625;    0.000;    0.000
858.284;  102.625;    0.000;    0.000
858.467;  149.625;    0.000;    0.000
858.650;  139.625;    0.000;    0.000
858.833;  122.625;    0.000;    0.000
859.016;  133.625;    0.000;    0.000
859.199;  111.625;    0.000;    0.000
859.382;  156.625;    0.000;    0.000
859.564;  147.625;    0.000;    0.000
859.747;  147.625;    0.000;    0.000
859.930;  102.625;    0.000;    0.000
860.113;  153.625;    0.000;    0.000
860.296;  174.625;    0.000;    0.000
860.478;  149.625;    0.000;    0.000
860.661;  175.625;    0.000;    0.000
860.844;  167.625;    0.000;    0.000
861.027;  180.625;    0.000;    0.000
861.209;  141.625;    0.000;    0.000
861.392;  144.625;    0.000;    0.000
861.575;  153.625;    0.000;    0.000
861.757;  163.625;    0.000;    0.000
861.940;  170.625;    0.000;    0.000
862.122;  110.625;    0.000;    0.000
862.305;  142.625;    0.000;    0.000
862.487;  170.625;    0.000;    0.000
862.670;  135.625;    0.000;    0.000
862.852;  119.625;    0.000;    0.000
863.035;  179.625;    0.000;    0.000
863.217;  139.625;    0.000;    0.000
863.400;  157.625;    0.000;    0.000
863.582;  177.625;    0.000;    0.000
863.764;  163.625;    0.000;    0.000
863.947;  157.625;    0.000;    0.000
864.129;  145.625;    0.000;    0.000
864.311;  154.625;    0.000;    0.000
864.493;  156.625;    0.000;    0.000
864.676;  141.625;    0.000;    0.000
864.858;  158.625;    0.000;    0.000
865.040;  178.625;    0.000;    0.000
865.222;  153.625;    0.000;    0.000
865.404;  136.625;    0.000;    0.000
865.587;  130.625;    0.000;    0.000
865.769;  145.625;    0.000;    0.000
865.951;  169.625;    0.000;    0.000
866.133;  160.625;    0.000;    0.000
866.315;  150.625;    0.000;    0.000
866.497;  143.625;    0.000;    0.000
866.679;  158.625;    0.000;    0.000
866.861;  154.625;    0.000;    0.000
867.043;  174.625;    0.000;    0.000
867.225;  187.625;    0.000;    0.000
867.407;  181.625;    0.000;    0.000
867.589;  133.625;    0.000;    0.000
867.770;  171.625;    0.000;    0.000
867.952;  159.625;    0.000;    0.000
868.134;  143.625;    0.000;    0.000
868.316;  190.625;    0.000;    0.000
868.498;  190.625;    0.000;    0.000
868.679;  159.625;    0.000;    0.000
868.861;  123.625;    0.000;    0.000
869.043;  177.625;    0.000;    0.000
869.224;  143.625;    0.000;    0.000
869.406;  169.625;    0.000;    0.000
869.588;  171.625;    0.000;    0.000
869.769;  175.625;    0.000;    0.000
869.951;  154.625;    0.000;    0.000
870.132;  137.625;    0.000;    0.000
870.314;  120.625;    0.000;    0.000
870.495;  109.625;    0.000;    0.000
870.677;  145.625;    0.000;    0.000
870.858;  123.625;    0.000;    0.000
871.040;  202.625;    0.000;    0.000
871.221;  138.625;    0.000;    0.000
871.403;  140.625;    0.000;    0.000
871.584;  128.625;    0.000;    0.000
871.765;  171.625;    0.000;    0.000
871.947;  173.625;    0.000;    0.000
872.128;  161.625;    0.000;    0.000
872.309;  142.625;    0.000;    0.000
872.491;  142.625;    0.000;    0.000
872.672;  175.625;    0.000;    0.000
872.853;  126.625;    0.000;    0.000
873.034;  164.625;    0.000;    0.000
873.215;  143.625;    0.000;    0.000
873.396;  149.625;    0.000;    0.000
873.578;  149.625;    0.000;    0.000
873.759;  135.625;    0.000;    0.000
873.940;  172.625;    0.000;    0.000
874.121;  149.625;    0.000;    0.000
874.302;  144.625;    0.000;    0.000
874.483;  136.625;    0.000;    0.000
874.664;  155.625;    0.000;    0.000
874.845;  176.625;    0.000;    0.000
875.026;  124.625;    0.000;    0.000
875.207;  156.625;    0.000;    0.000
875.388;  184.625;    0.000;    0.000
875.568;  161.625;    0.000;    0.000
875.749;  154.625;    0.000;    0.000
875.930;  198.625;    0.000;    0.000
876.111;  174.625;    0.000;    0.000
876.292;  182.625;    0.000;    0.000
876.472;  160.625;    0.000;    0.000
876.653;  141.625;    0.000;    0.000
876.834;  155.625;    0.000;    0.000
877.015;  161.625;    0.000;    0.000
877.195;  151.625;    0.000;    0.000
877.376;  176.625;    0.000;    0.000
877.556;  154.625;    0.000;    0.000
877.737;  215.625;    0.000;    0.000
877.918;  158.625;    0.000;    0.000
878.098;  123.625;    0.000;    0.000
878.279;  148.625;    0.000;    0.000
878.459;  171.625;    0.000;    0.000
878.640;  169.625;    0.000;    0.000
878.820;  147.625;    0.000;    0.000
879.000;  135.625;    0.000;    0.000
879.181;  164.625;    0.000;    0.000
879.361;  171.625;    0.000;    0.000
879.542;  134.625;    0.000;    0.000
879.722;  117.625;    0.000;    0.000
879.902;  173.625;    0.000;    0.000
880.083;  152.625;    0.000;    0.000
880.263;  183.625;    0.000;    0.000
880.443;  189.625;    0.000;    0.000
880.623;  152.625;    0.000;    0.000
880.803;  186.625;    0.000;    0.000
880.984;  170.625;    0.000;    0.000
881.164;  185.625;    0.000;    0.000
881.344;  128.625;    0.000;    0.000
881.524;  160.625;    0.000;    0.000
881.704;  143.625;    0.000;    0.000
881.884;  157.625;    0.000;    0.000
882.064;  150.625;    0.000;    0.000
882.244;  156.625;    0.000;    0.000
882.424;  162.625;    0.000;    0.000
882.604;  189.625;    0.000;    0.000
882.784;  160.625;    0.000;    0.000
882.964;  143.625;    0.000;    0.000
883.144;  146.625;    0.000;    0.000
883.324;  195.625;    0.000;    0.000
883.504;  206.625;    0.000;    0.000
883.683;  126.625;    0.000;    0.000
883.863;  121.625;    0.000;    0.000
884.043;  133.625;    0.000;    0.000
884.223;  165.625;    0.000;    0.000
884.402;  171.625;    0.000;    0.000
884.582;  207.625;    0.000;    0.000
884.762;  186.625;    0.000;    0.000
884.941;  188.625;    0.000;    0.000
885.121;  170.625;    0.000;    0.000
885.301;  173.625;    0.000;    0.000
885.480;  185.625;    0.000;    0.000
885.660;  141.625;    0.000;    0.000
885.839;  182.625;    0.000;    0.000
886.019;  201.625;    0.000;    0.000
886.198;  148.625;    0.000;    0.000
886.378;  120.625;    0.000;    0.000
886.557;  104.625;    0.000;    0.000
886.737;  159.625;    0.000;    0.000
886.916;  170.625;    0.000;    0.000
887.095;  164.625;    0.000;    0.000
887.275;  156.625;    0.000;    0.000
887.454;  162.625;    0.000;    0.000
887.633;  179.625;    0.000;    0.000
887.813;  161.625;    0.000;    0.000
887.992;  184.625;    0.000;    0.000
888.171;  136.625;    0.000;    0.000
888.350;  201.625;    0.000;    0.000
888.530;  141.625;    0.000;    0.000
888.709;  144.625;    0.000;    0.000
888.888;  160.625;    0.000;    0.000
889.067;  166.625;    0.000;    0.000
889.246;  192.625;    0.000;    0.000
889.425;  158.625;    0.000;    0.000
889.604;  212.625;    0.000;    0.000
889.783;  188.625;    0.000;    0.000
889.962;  111.625;    0.000;    0.000
890.141;  182.625;    0.000;    0.000
890.320;  177.625;    0.000;    0.000
890.499;  210.625;    0.000;    0.000
890.678;  168.625;    0.000;    0.000
890.857;  137.625;    0.000;    0.000
891.036;  151.625;    0.000;    0.000
891.214;  116.625;    0.000;    0.000
891.393;  147.625;    0.000;    0.000
891.572;  172.625;    0.000;    0.000
891.751;  166.625;    0.000;    0.000
891.930;  161.625;    0.000;    0.000
892.108;  176.625;    0.000;    0.000
892.287;  195.625;    0.000;    0.000
892.466;  174.625;    0.000;    0.000
892.644;  147.625;    0.000;    0.000
892.823;  178.625;    0.000;    0.000
893.001;  168.625;    0.000;    0.000
893.180;  151.625;    0.000;    0.000
893.359;  197.625;    0.000;    0.000
893.537;  165.625;    0.000;    0.000
893.716;  175.625;    0.000;    0.000
893.894;  194.625;    0.000;    0.000
894.073;  177.625;    0.000;    0.000
894.251;  158.625;    0.000;    0.000
894.429;  170.625;    0.000;    0.000
894.608;  165.625;    0.000;    0.000
894.786;  155.625;    0.000;    0.000
894.964;  174.625;    0.000;    0.000
895.143;  167.625;    0.000;    0.000
895.321;  169.625;    0.000;    0.000
895.499;  176.625;    0.000;    0.000
895.677;  165.625;    0.000;    0.000
895.856;  201.625;    0.000;    0.000
896.034;  199.625;    0.000;    0.000
896.212;  214.625;    0.000;    0.000
896.390;  168.625;    0.000;    0.000
896.568;  200.625;    0.000;    0.000
896.746;  198.625;    0.000;    0.000
896.924;  157.625;    0.000;    0.000
897.102;  203.625;    0.000;    0.000
897.280;  156.625;    0.000;    0.000
897.458;  146.625;    0.000;    0.000
897.636;  191.625;    0.000;    0.000
897.814;  172.625;    0.000;    0.000
897.992;  223.625;    0.000;    0.000
898.170;  190.625;    0.000;    0.000
898.348;  175.625;    0.000;    0.000
898.526;  215.625;    0.000;    0.000
898.704;  234.625;    0.000;    0.000
898.882;  207.625;    0.000;    0.000
899.059;  169.625;    0.000;    0.000
899.237;  185.625;    0.000;    0.000
899.415;  221.625;    0.000;    0.000
899.593;  149.625;    0.000;    0.000
899.770;  195.625;    0.000;    0.000
899.948;  224.625;    0.000;    0.000
900.125;  192.625;    0.000;    0.000
900.303;  170.625;    0.000;    0.000
900.481;  164.625;    0.000;    0.000
900.658;  227.625;    0.000;    0.000
900.836;  214.625;    0.000;    0.000
901.013;  180.625;    0.000;    0.000
901.191;  173.625;    0.000;    0.000
901.368;  172.625;    0.000;    0.000
901.546;  227.625;    0.000;    0.000
901.723;  171.625;    0.000;    0.000
901.901;  190.625;    0.000;    0.000
902.078;  206.625;    0.000;    0.000
902.255;  184.625;    0.000;    0.000
902.433;  199.625;    0.000;    0.000
902.610;  187.625;    0.000;    0.000
902.787;  187.625;    0.000;    0.000
902.964;  197.625;    0.000;    0.000
903.142;  180.625;    0.000;    0.000
903.319;  205.625;    0.000;    0.000
903.496;  155.625;    0.000;    0.000
903.673;  209.625;    0.000;    0.000
903.850;  190.625;    0.000;    0.000
904.027;  194.625;    0.000;    0.000
904.204;  214.625;    0.000;    0.000
904.381;  211.625;    0.000;    0.000
904.558;  192.625;    0.000;    0.000
904.735;  191.625;    0.000;    0.000
904.912;  223.625;    0.000;    0.000
905.089;  193.625;    0.000;    0.000
905.266;  145.625;    0.000;    0.000
905.443;  216.625;    0.000;    0.000
905.620;  197.625;    0.000;    0.000
905.797;  209.625;    0.000;    0.000
905.974;  162.625;    0.000;    0.000
906.151;  136.625;    0.000;    0.000
906.327;  190.625;    0.000;    0.000
906.504;  186.625;    0.000;    0.000
906.681;  184.625;    0.000;    0.000
906.858;  181.625;    0.000;    0.000
907.034;  204.625;    0.000;    0.000
907.211;  181.625;    0.000;    0.000
907.388;  205.625;    0.000;    0.000
907.564;  186.625;    0.000;    0.000
907.741;  176.625;    0.000;    0.000
907.917;  218.625;    0.000;    0.000
908.094;  200.625;    0.000;    0.000
908.270;  198.625;    0.000;    0.000
908.447;  201.625;    0.000;    0.000
908.623;  194.625;    0.000;    0.000
908.800;  179.625;    0.000;    0.000
908.976;  162.625;    0.000;    0.000
909.153;  189.625;    0.000;    0.000
909.329;  200.625;    0.000;    0.000
909.505;  135.625;    0.000;    0.000
909.682;  167.625;    0.000;    0.000
909.858;  157.625;    0.000;    0.000
910.034;  194.625;    0.000;    0.000
910.211;  128.625;    0.000;    0.000
910.387;  219.625;    0.000;    0.000
910.563;  167.625;    0.000;    0.000
910.739;  208.625;    0.000;    0.000
910.915;  209.625;    0.000;    0.000
911.091;  218.625;    0.000;    0.000
911.268;  187.625;    0.000;    0.000
911.444;  181.625;    0.000;    0.000
911.620;  170.625;    0.000;    0.000
911.796;  124.625;    0.000;    0.000
911.972;  165.625;    0.000;    0.000
912.148;  153.625;    0.000;    0.000
912.324;  204.625;    0.000;    0.000
912.500;  217.625;    0.000;    0.000
912.676;  166.625;    0.000;    0.000
912.851;  156.625;    0.000;    0.000
913.027;  192.625;    0.000;    0.000
913.203;  172.625;    0.000;    0.000
913.379;  150.625;    0.000;    0.000
913.555;  193.625;    0.000;    0.000
913.730;  202.625;    0.000;    0.000
913.906;  214.625;    0.000;    0.000
914.082;  176.625;    0.000;    0.000
914.258;  209.625;    0.000;    0.000
914.433;  162.625;    0.000;    0.000
914.609;  183.625;    0.000;    0.000
914.785;  185.625;    0.000;    0.000
914.960;  198.625;    0.000;    0.000
915.136;  168.625;    0.000;    0.000
915.311;  203.625;    0.000;    0.000
915.487;  159.625;    0.000;    0.000
915.662;  224.625;    0.000;    0.000
915.838;  155.625;    0.000;    0.000
916.013;  180.625;    0.000;    0.000
916.189;  191.625;    0.000;    0.000
916.364;  187.625;    0.000;    0.000
916.539;  200.625;    0.000;    0.000
916.715;  147.625;    0.000;    0.000
916.890;  194.625;    0.000;    0.000
917.065;  169.625;    0.000;    0.000
917.240;  185.625;    0.000;    0.000
917.416;  202.625;    0.000;    0.000
917.591;  169.625;    0.000;    0.000
917.766;  179.625;    0.000;    0.000
917.941;  138.625;    0.000;    0.000
918.116;  176.625;    0.000;    0.000
918.292;  191.625;    0.000;    0.000
918.467;  204.625;    0.000;    0.000
918.642;  159.625;    0.000;    0.000
918.817;  179.625;    0.000;    0.000
918.992;  180.625;    0.000;    0.000
919.167;  185.625;    0.000;    0.000
919.342;  190.625;    0.000;    0.000
919.517;  191.625;    0.000;    0.000
919.692;  203.625;    0.000;    0.000
919.867;  208.625;    0.000;    0.000
920.041;  176.625;    0.000;    0.000
920.216;  199.625;    0.000;    0.000
920.391;  187.625;    0.000;    0.000
920.566;  175.625;    0.000;    0.000
920.741;  174.625;    0.000;    0.000
920.915;  214.625;    0.000;    0.000
921.090;  209.625;    0.000;    0.000
921.265;  215.625;    0.000;    0.000
921.439;  187.625;    0.000;    0.000
921.614;  189.625;    0.000;    0.000
921.789;  163.625;    0.000;    0.000
921.963;  146.625;    0.000;    0.000
922.138;  171.625;    0.000;    0.000
922.312;  189.625;    0.000;    0.000
922.487;  208.625;    0.000;    0.000
922.661;  207.625;    0.000;    0.000
922.836;  191.625;    0.000;    0.000
923.010;  165.625;    0.000;    0.000
923.185;  222.625;    0.000;    0.000
923.359;  220.625;    0.000;    0.000
923.534;  197.625;    0.000;    0.000
923.708;  217.625;    0.000;    0.000
923.882;  184.625;    0.000;    0.000
924.057;  183.625;    0.000;    0.000
924.231;  180.625;    0.000;    0.000
924.405;  168.625;    0.000;    0.000
924.579;  186.625;    0.000;    0.000
924.753;  194.625;    0.000;    0.000
924.928;  189.625;    0.000;    0.000
925.102;  190.625;    0.000;    0.000
925.276;  194.625;    0.000;    0.000
925.450;  195.625;    0.000;    0.000
925.624;  203.625;    0.000;    0.000
925.798;  178.625;    0.000;    0.000
925.972;  185.625;    0.000;    0.000
926.146;  157.625;    0.000;    0.000
926.320;  165.625;    0.000;    0.000
926.494;  171.625;    0.000;    0.000
926.668;  197.625;    0.000;    0.000
926.842;  170.625;    0.000;    0.000
927.016;  174.625;    0.000;    0.000
927.190;  216.625;    0.000;    0.000
927.363;  159.625;    0.000;    0.000
927.537;  204.625;    0.000;    0.000
927.711;  179.625;    0.000;    0.000
927.885;  169.625;    0.000;    0.000
928.058;  182.625;    0.000;    0.000
928.232;  235.625;    0.000;    0.000
928.406;  210.625;    0.000;    0.000
928.579;  145.625;    0.000;    0.000
928.753;  206.625;    0.000;    0.000
928.927;  175.625;    0.000;    0.000
929.100;  183.625;    0.000;    0.000
929.274;  169.625;    0.000;    0.000
929.447;  150.625;    0.000;    0.000
929.621;  203.625;    0.000;    0.000
929.794;  201.625;    0.000;    0.000
929.968;  233.625;    0.000;    0.000
930.141;  188.625;    0.000;    0.000
930.315;  205.625;    0.000;    0.000
930.488;  191.625;    0.000;    0.000
930.661;  228.625;    0.000;    0.000
930.835;  206.625;    0.000;    0.000
931.008;  170.625;    0.000;    0.000
931.181;  138.625;    0.000;    0.000
931.354;  173.625;    0.000;    0.000
931.528;  184.625;    0.000;    0.000
931.701;  177.625;    0.000;    0.000
931.874;  169.625;    0.000;    0.000
932.047;  163.625;    0.000;    0.000
932.220;  180.625;    0.000;    0.000
932.393;  160.625;    0.000;    0.000
932.566;  190.625;    0.000;    0.000
932.739;  194.625;    0.000;    0.000
932.912;  213.625;    0.000;    0.000
933.085;  208.625;    0.000;    0.000
933.258;  174.625;    0.000;    0.000
933.431;  163.625;    0.000;    0.000
933.604;  175.625;    0.000;    0.000
933.777;  204.625;    0.000;    0.000
933.950;  188.625;    0.000;    0.000
934.123;  179.625;    0.000;    0.000
934.296;  201.625;    0.000;    0.000
934.468;  207.625;    0.000;    0.000
934.641;  168.625;    0.000;    0.000
934.814;  198.625;    0.000;    0.000
934.987;  165.625;    0.000;    0.000
935.159;  216.625;    0.000;    0.000
935.332;  213.625;    0.000;    0.000
935.505;  224.625;    0.000;    0.000
935.677;  183.625;    0.000;    0.000
935.850;  200.625;    0.000;    0.000
936.022;  210.625;    0.000;    0.000
936.195;  202.625;    0.000;    0.000
936.367;  194.625;    0.000;    0.000
936.540;  225.625;    0.000;    0.000
936.712;  222.625;    0.000;    0.000
936.885;  185.625;    0.000;    0.000
937.057;  163.625;    0.000;    0.000
937.229;  137.625;    0.000;    0.000
937.402;  180.625;    0.000;    0.000
937.574;  125.625;    0.000;    0.000
937.746;  164.625;    0.000;    0.000
937.919;  187.625;    0.000;    0.000
938.091;  162.625;    0.000;    0.000
938.263;  200.625;    0.000;    0.000
938.435;  200.625;    0.000;    0.000
938.608;  192.625;    0.000;    0.000
938.780;  181.625;    0.000;    0.000
938.952;  143.625;    0.000;    0.000
939.124;  172.625;    0.000;    0.000
939.296;  162.625;    0.000;    0.000
939.468;  156.625;    0.000;    0.000
939.640;  146.625;    0.000;    0.000
939.812;  233.625;    0.000;    0.000
939.984;  146.625;    0.000;    0.000
940.156;  209.625;    0.000;    0.000
940.328;  172.625;    0.000;    0.000
940.500;  163.625;    0.000;    0.000
940.672;  176.625;    0.000;    0.000
940.843;  177.625;    0.000;    0.000
941.015;  208.625;    0.000;    0.000
941.187;  166.625;    0.000;    0.000
941.359;  169.625;    0.000;    0.000
941.531;  170.625;    0.000;    0.000
941.702;  180.625;    0.000;    0.000
941.874;  144.625;    0.000;    0.000
942.046;  179.625;    0.000;    0.000
942.217;  144.625;    0.000;    0.000
942.389;  189.625;    0.000;    0.000
942.560;  182.625;    0.000;    0.000
942.732;  200.625;    0.000;    0.000
942.904;  187.625;    0.000;    0.000
943.075;  176.625;    0.000;    0.000
943.247;  152.625;    0.000;    0.000
943.418;  161.625;    0.000;    0.000
943.589;  168.625;    0.000;    0.000
943.761;  157.625;    0.000;    0.000
943.932;  160.625;    0.000;    0.000
944.104;  182.625;    0.000;    0.000
944.275;  170.625;    0.000;    0.000
944.446;  178.625;    0.000;    0.000
944.617;  146.625;    0.000;    0.000
944.789;  176.625;    0.000;    0.000
944.960;  153.625;    0.000;    0.000
945.131;  127.625;    0.000;    0.000
945.302;  177.625;    0.000;    0.000
945.473;  133.625;    0.000;    0.000
945.645;  166.625;    0.000;    0.000
945.816;  190.625;    0.000;    0.000
945.987;  175.625;    0.000;    0.000
946.158;  166.625;    0.000;    0.000
946.329;  194.625;    0.000;    0.000
946.500;  179.625;    0.000;    0.000
946.671;  157.625;    0.000;    0.000
946.842;  177.625;    0.000;    0.000
947.013;  183.625;    0.000;    0.000
947.183;  237.625;    0.000;    0.000
947.354;  183.625;    0.000;    0.000
947.525;  202.625;    0.000;    0.000
947.696;  166.625;    0.000;    0.000
947.867;  165.625;    0.000;    0.000
948.037;  152.625;    0.000;    0.000
948.208;  185.625;    0.000;    0.000
948.379;  179.625;    0.000;    0.000
948.550;  169.625;    0.000;    0.000
948.720;  208.625;    0.000;    0.000
948.891;  218.625;    0.000;    0.000
949.061;  178.625;    0.000;    0.000
949.232;  163.625;    0.000;    0.000
949.403;  190.625;    0.000;    0.000
949.573;  164.625;    0.000;    0.000
949.744;  173.625;    0.000;    0.000
949.914;  171.625;    0.000;    0.000
950.085;  195.625;    0.000;    0.000
950.255;  187.625;    0.000;    0.000
950.425;  168.625;    0.000;    0.000
950.596;  164.625;    0.000;    0.000
950.766;  239.625;    0.000;    0.000
950.936;  211.625;    0.000;    0.000
951.107;  181.625;    0.000;    0.000
951.277;  194.625;    0.000;    0.000
951.447;  180.625;    0.000;    0.000
951.617;  221.625;    0.000;    0.000
951.788;  213.625;    0.000;    0.000
951.958;  216.625;    0.000;    0.000
952.128;  185.625;    0.000;    0.000
952.298;  242.625;    0.000;    0.000
952.468;  206.625;    0.000;    0.000
952.638;  186.625;    0.000;    0.000
952.808;  188.625;    0.000;    0.000
952.978;  212.625;    0.000;    0.000
953.148;  239.625;    0.000;    0.000
953.318;  221.625;    0.000;    0.000
953.488;  177.625;    0.000;    0.000
953.658;  222.625;    0.000;    0.000
953.828;  228.625;    0.000;    0.000
953.998;  241.625;    0.000;    0.000
954.167;  168.625;    0.000;    0.000
954.337;  196.625;    0.000;    0.000
954.507;  199.625;    0.000;    0.000
954.677;  180.625;    0.000;    0.000
954.846;  250.625;    0.000;    0.000
955.016;  186.625;    0.000;    0.000
955.186;  248.625;    0.000;    0.000
955.355;  215.625;    0.000;    0.000
955.525;  192.625;    0.000;    0.000
955.695;  191.625;    0.000;    0.000
955.864;  231.625;    0.000;    0.000
956.034;  232.625;    0.000;    0.000
956.203;  277.625;    0.000;    0.000
956.373;  184.625;    0.000;    0.000
956.542;  221.625;    0.000;    0.000
956.712;  241.625;    0.000;    0.000
956.881;  210.625;    0.000;    0.000
957.050;  238.625;    0.000;    0.000
957.220;  230.625;    0.000;    0.000
957.389;  230.625;    0.000;    0.000
957.558;  206.625;    0.000;    0.000
957.727;  195.625;    0.000;    0.000
957.897;  209.625;    0.000;    0.000
958.066;  183.625;    0.000;    0.000
958.235;  189.625;    0.000;    0.000
958.404;  171.625;    0.000;    0.000
958.573;  221.625;    0.000;    0.000
958.743;  198.625;    0.000;    0.000
958.912;  211.625;    0.000;    0.000
959.081;  194.625;    0.000;    0.000
959.250;  193.625;    0.000;    0.000
959.419;  196.625;    0.000;    0.000
959.588;  215.625;    0.000;    0.000
959.757;  211.625;    0.000;    0.000
959.926;  221.625;    0.000;    0.000
960.094;  204.625;    0.000;    0.000
960.263;  238.625;    0.000;    0.000
960.432;  207.625;    0.000;    0.000
960.601;  185.625;    0.000;    0.000
960.770;  172.625;    0.000;    0.000
960.939;  208.625;    0.000;    0.000
961.107;  171.625;    0.000;    0.000
961.276;  203.625;    0.000;    0.000
961.445;  230.625;    0.000;    0.000
961.613;  148.625;    0.000;    0.000
961.782;  222.625;    0.000;    0.000
961.951;  205.625;    0.000;    0.000
962.119;  197.625;    0.000;    0.000
962.288;  217.625;    0.000;    0.000
962.456;  212.625;    0.000;    0.000
962.625;  207.625;    0.000;    0.000
962.793;  244.625;    0.000;    0.000
962.962;  200.625;    0.000;    0.000
963.130;  184.625;    0.000;    0.000
963.298;  194.625;    0.000;    0.000
963.467;  225.625;    0.000;    0.000
963.635;  178.625;    0.000;    0.000
963.803;  196.625;    0.000;    0.000
963.972;  190.625;    0.000;    0.000
964.140;  193.625;    0.000;    0.000
964.308;  162.625;    0.000;    0.000
964.476;  169.625;    0.000;    0.000
964.645;  188.625;    0.000;    0.000
964.813;  193.625;    0.000;    0.000
964.981;  208.625;    0.000;    0.000
965.149;  205.625;    0.000;    0.000
965.317;  208.625;    0.000;    0.000
965.485;  162.625;    0.000;    0.000
965.653;  204.625;    0.000;    0.000
965.821;  174.625;    0.000;    0.000
965.989;  236.625;    0.000;    0.000
966.157;  182.625;    0.000;    0.000
966.325;  217.625;    0.000;    0.000
966.493;  210.625;    0.000;    0.000
966.661;  175.625;    0.000;    0.000
966.829;  180.625;    0.000;    0.000
966.996;  205.625;    0.000;    0.000
967.164;  182.625;    0.000;    0.000
967.332;  229.625;    0.000;    0.000
967.500;  193.625;    0.000;    0.000
967.667;  212.625;    0.000;    0.000
967.835;  208.625;    0.000;    0.000
968.003;  173.625;    0.000;    0.000
968.170;  208.625;    0.000;    0.000
968.338;  210.625;    0.000;    0.000
968.505;  188.625;    0.000;    0.000
968.673;  202.625;    0.000;    0.000
968.841;  170.625;    0.000;    0.000
969.008;  210.625;    0.000;    0.000
969.175;  197.625;    0.000;    0.000
969.343;  198.625;    0.000;    0.000
969.510;  205.625;    0.000;    0.000
969.678;  153.625;    0.000;    0.000
969.845;  197.625;    0.000;    0.000
970.012;  188.625;    0.000;    0.000
970.180;  237.625;    0.000;    0.000
970.347;  210.625;    0.000;    0.000
970.514;  202.625;    0.000;    0.000
970.681;  180.625;    0.000;    0.000
970.849;  202.625;    0.000;    0.000
971.016;  174.625;    0.000;    0.000
971.183;  203.625;    0.000;    0.000
971.350;  209.625;    0.000;    0.000
971.517;  182.625;    0.000;    0.000
971.684;  239.625;    0.000;    0.000
971.851;  215.625;    0.000;    0.000
972.018;  201.625;    0.000;    0.000
972.185;  210.625;    0.000;    0.000
972.352;  233.625;    0.000;    0.000
972.519;  211.625;    0.000;    0.000
972.686;  177.625;    0.000;    0.000
972.853;  192.625;    0.000;    0.000
973.020;  207.625;    0.000;    0.000
973.186;  200.625;    0.000;    0.000
973.353;  223.625;    0.000;    0.000
973.520;  216.625;    0.000;    0.000
973.687;  182.625;    0.000;    0.000
973.853;  203.625;    0.000;    0.000
974.020;  224.625;    0.000;    0.000
974.187;  189.625;    0.000;    0.000
974.353;  230.625;    0.000;    0.000
974.520;  163.625;    0.000;    0.000
974.687;  203.625;    0.000;    0.000
974.853;  200.625;    0.000;    0.000
975.020;  184.625;    0.000;    0.000
975.186;  203.625;    0.000;    0.000
975.353;  195.625;    0.000;    0.000
975.519;  161.625;    0.000;    0.000
975.685;  208.625;    0.000;    0.000
975.852;  202.625;    0.000;    0.000
976.018;  177.625;    0.000;    0.000
976.184;  189.625;    0.000;    0.000
976.351;  208.625;    0.000;    0.000
976.517;  210.625;    0.000;    0.000
976.683;  231.625;    0.000;    0.000
976.849;  226.625;    0.000;    0.000
977.016;  192.625;    0.000;    0.000
977.182;  228.625;    0.000;    0.000
977.348;  149.625;    0.000;    0.000
977.514;  211.625;    0.000;    0.000
977.680;  179.625;    0.000;    0.000
977.846;  196.625;    0.000;    0.000
978.012;  242.625;    0.000;    0.000
978.178;  192.625;    0.000;    0.000
978.344;  181.625;    0.000;    0.000
978.510;  197.625;    0.000;    0.000
978.676;  192.625;    0.000;    0.000
978.842;  175.625;    0.000;    0.000
979.008;  156.625;    0.000;    0.000
979.174;  166.625;    0.000;    0.000
979.340;  208.625;    0.000;    0.000
979.505;  202.625;    0.000;    0.000
979.671;  191.625;    0.000;    0.000
979.837;  202.625;    0.000;    0.000
980.003;  185.625;    0.000;    0.000
980.168;  192.625;    0.000;    0.000
980.334;  217.625;    0.000;    0.000
980.499;  169.625;    0.000;    0.000
980.665;  241.625;    0.000;    0.000
980.831;  212.625;    0.000;    0.000
980.996;  188.625;    0.000;    0.000
981.162;  216.625;    0.000;    0.000
981.327;  200.625;    0.000;    0.000
981.493;  202.625;    0.000;    0.000
981.658;  186.625;    0.000;    0.000
981.823;  200.625;    0.000;    0.000
981.989;  222.625;    0.000;    0.000
982.154;  216.625;    0.000;    0.000
982.319;  207.625;    0.000;    0.000
982.485;  257.625;    0.000;    0.000
982.650;  230.625;    0.000;    0.000
982.815;  205.625;    0.000;    0.000
982.980;  216.625;    0.000;    0.000
983.146;  201.625;    0.000;    0.000
983.311;  178.625;    0.000;    0.000
983.476;  205.625;    0.000;    0.000
983.641;  156.625;    0.000;    0.000
983.806;  188.625;    0.000;    0.000
983.971;  228.625;    0.000;    0.000
984.136;  223.625;    0.000;    0.000
984.301;  154.625;    0.000;    0.000
984.466;  230.625;    0.000;    0.000
984.631;  226.625;    0.000;    0.000
984.796;  206.625;    0.000;    0.000
984.961;  219.625;    0.000;    0.000
985.126;  229.625;    0.000;    0.000
985.291;  205.625;    0.000;    0.000
985.455;  203.625;    0.000;    0.000
985.620;  203.625;    0.000;    0.000
985.785;  237.625;    0.000;    0.000
985.950;  208.625;    0.000;    0.000
986.114;  208.625;    0.000;    0.000
986.279;  209.625;    0.000;    0.000
986.444;  233.625;    0.000;    0.000
986.608;  226.625;    0.000;    0.000
986.773;  204.625;    0.000;    0.000
986.937;  252.625;    0.000;    0.000
987.102;  218.625;    0.000;    0.000
987.266;  170.625;    0.000;    0.000
987.431;  217.625;    0.000;    0.000
987.595;  198.625;    0.000;    0.000
987.760;  236.625;    0.000;    0.000
987.924;  221.625;    0.000;    0.000
988.088;  197.625;    0.000;    0.000
988.253;  194.625;    0.000;    0.000
988.417;  207.625;    0.000;    0.000
988.581;  206.625;    0.000;    0.000
988.746;  196.625;    0.000;    0.000
988.910;  212.625;    0.000;    0.000
989.074;  223.625;    0.000;    0.000
989.238;  217.625;    0.000;    0.000
989.402;  227.625;    0.000;    0.000
989.566;  220.625;    0.000;    0.000
989.731;  224.625;    0.000;    0.000
989.895;  195.625;    0.000;    0.000
990.059;  166.625;    0.000;    0.000
990.223;  189.625;    0.000;    0.000
990.387;  230.625;    0.000;    0.000
990.551;  194.625;    0.000;    0.000
990.714;  187.625;    0.000;    0.000
990.878;  193.625;    0.000;    0.000
991.042;  162.625;    0.000;    0.000
991.206;  211.625;    0.000;    0.000
991.370;  189.625;    0.000;    0.000
991.534;  175.625;    0.000;    0.000
991.697;  184.625;    0.000;    0.000
991.861;  221.625;    0.000;    0.000
992.025;  213.625;    0.000;    0.000
992.188;  184.625;    0.000;    0.000
992.352;  185.625;    0.000;    0.000
992.516;  172.625;    0.000;    0.000
992.679;  178.625;    0.000;    0.000
992.843;  186.625;    0.000;    0.000
993.006;  220.625;    0.000;    0.000
993.170;  208.625;    0.000;    0.000
993.333;  190.625;    0.000;    0.000
993.497;  183.625;    0.000;    0.000
993.660;  193.625;    0.000;    0.000
993.824;  182.625;    0.000;    0.000
993.987;  222.625;    0.000;    0.000
994.150;  163.625;    0.000;    0.000
994.314;  233.625;    0.000;    0.000
994.477;  196.625;    0.000;    0.000
994.640;  199.625;    0.000;    0.000
994.803;  203.625;    0.000;    0.000
994.967;  179.625;    0.000;    0.000
995.130;  226.625;    0.000;    0.000
995.293;  176.625;    0.000;    0.000
995.456;  163.625;    0.000;    0.000
995.619;  201.625;    0.000;    0.000
995.782;  227.625;    0.000;    0.000
995.945;  219.625;    0.000;    0.000
996.108;  202.625;    0.000;    0.000
996.271;  201.625;    0.000;    0.000
996.434;  204.625;    0.000;    0.000
996.597;  211.625;    0.000;    0.000
996.760;  193.625;    0.000;    0.000
996.923;  183.625;    0.000;    0.000
997.086;  224.625;    0.000;    0.000
997.248;  222.625;    0.000;    0.000
997.411;  187.625;    0.000;    0.000
997.574;  186.625;    0.000;    0.000
997.737;  241.625;    0.000;    0.000
997.899;  236.625;    0.000;    0.000
998.062;  189.625;    0.000;    0.000
998.225;  187.625;    0.000;    0.000
998.387;  153.625;    0.000;    0.000
998.550;  188.625;    0.000;    0.000
998.712;  186.625;    0.000;    0.000
998.875;  228.625;    0.000;    0.000
999.037;  195.625;    0.000;    0.000
999.200;  192.625;    0.000;    0.000
999.362;  228.625;    0.000;    0.000
999.525;  215.625;    0.000;    0.000
999.687;  184.625;    0.000;    0.000
999.849;  221.625;    0.000;    0.000
1000.012;  184.625;    0.000;    0.000
1000.174;  186.625;    0.000;    0.000
1000.336;  195.625;    0.000;    0.000
1000.499;  232.625;    0.000;    0.000
1000.661;  208.625;    0.000;    0.000
1000.823;  172.625;    0.000;    0.000
1000.985;  191.625;    0.000;    0.000
1001.147;  205.625;    0.000;    0.000
1001.309;  208.625;    0.000;    0.000
1001.471;  188.625;    0.000;    0.000
1001.633;  216.625;    0.000;    0.000
1001.796;  201.625;    0.000;    0.000
1001.957;  190.625;    0.000;    0.000
1002.119;  182.625;    0.000;    0.000
1002.281;  230.625;    0.000;    0.000
1002.443;  226.625;    0.000;    0.000
1002.605;  212.625;    0.000;    0.000
1002.767;  205.625;    0.000;    0.000
1002.929;  203.625;    0.000;    0.000
1003.091;  223.625;    0.000;    0.000
1003.252;  187.625;    0.000;    0.000
1003.414;  222.625;    0.000;    0.000
1003.576;  192.625;    0.000;    0.000
1003.738;  165.625;    0.000;    0.000
1003.899;  225.625;    0.000;    0.000
1004.061;  191.625;    0.000;    0.000
1004.222;  209.625;    0.000;    0.000
1004.384;  200.625;    0.000;    0.000
1004.546;  212.625;    0.000;    0.000
1004.707;  210.625;    0.000;    0.000
1004.869;  227.625;    0.000;    0.000
1005.030;  192.625;    0.000;    0.000
1005.191;  194.625;    0.000;    0.000
1005.353;  234.625;    0.000;    0.000
1005.514;  189.625;    0.000;    0.000
1005.675;  205.625;    0.000;    0.000
1005.837;  232.625;    0.000;    0.000
1005.998;  223.625;    0.000;    0.000
1006.159;  205.625;    0.000;    0.000
1006.321;  224.625;    0.000;    0.000
1006.482;  222.625;    0.000;    0.000
1006.643;  220.625;    0.000;    0.000
1006.804;  225.625;    0.000;    0.000
1006.965;  222.625;    0.000;    0.000
1007.126;  220.625;    0.000;    0.000
1007.287;  205.625;    0.000;    0.000
1007.448;  224.625;    0.000;    0.000
1007.609;  220.625;    0.000;    0.000
1007.770;  191.625;    0.000;    0.000
1007.931;  250.625;    0.000;    0.000
1008.092;  224.625;    0.000;    0.000
1008.253;  248.625;    0.000;    0.000
1008.414;  212.625;    0.000;    0.000
1008.575;  211.625;    0.000;    0.000
1008.736;  191.625;    0.000;    0.000
1008.896;  258.625;    0.000;    0.000
1009.057;  274.625;    0.000;    0.000
1009.218;  228.625;    0.000;    0.000
1009.379;  205.625;    0.000;    0.000
1009.539;  213.625;    0.000;    0.000
1009.700;  223.625;    0.000;    0.000
1009.860;  199.625;    0.000;    0.000
1010.021;  210.625;    0.000;    0.000
1010.182;  238.625;    0.000;    0.000
1010.342;  202.625;    0.000;    0.000
1010.503;  231.625;    0.000;    0.000
1010.663;  251.625;    0.000;    0.000
1010.823;  223.625;    0.000;    0.000
1010.984;  305.625;    0.000;    0.000
1011.144;  239.625;    0.000;    0.000
1011.305;  237.625;    0.000;    0.000
1011.465;  233.625;    0.000;    0.000
1011.625;  183.625;    0.000;    0.000
1011.785;  228.625;    0.000;    0.000
1011.946;  205.625;    0.000;    0.000
1012.106;  196.625;    0.000;    0.000
1012.266;  228.625;    0.000;    0.000
1012.426;  225.625;    0.000;    0.000
1012.586;  206.625;    0.000;    0.000
1012.746;  248.625;    0.000;    0.000
1012.906;  272.625;    0.000;    0.000
1013.066;  228.625;    0.000;    0.000
1013.226;  220.625;    0.000;    0.000
1013.386;  229.625;    0.000;    0.000
1013.546;  244.625;    0.000;    0.000
1013.706;  218.625;    0.000;    0.000
1013.866;  238.625;    0.000;    0.000
1014.026;  186.625;    0.000;    0.000
1014.186;  222.625;    0.000;    0.000
1014.346;  242.625;    0.000;    0.000
1014.505;  225.625;    0.000;    0.000
1014.665;  219.625;    0.000;    0.000
1014.825;  221.625;    0.000;    0.000
1014.985;  239.625;    0.000;    0.000
1015.144;  195.625;    0.000;    0.000
1015.304;  186.625;    0.000;    0.000
1015.463;  231.625;    0.000;    0.000
1015.623;  240.625;    0.000;    0.000
1015.783;  211.625;    0.000;    0.000
1015.942;  191.625;    0.000;    0.000
1016.102;  185.625;    0.000;    0.000
1016.261;  259.625;    0.000;    0.000
1016.420;  234.625;    0.000;    0.000
1016.580;  233.625;    0.000;    0.000
1016.739;  223.625;    0.000;    0.000
1016.899;  226.625;    0.000;    0.000
1017.058;  195.625;    0.000;    0.000
1017.217;  205.625;    0.000;    0.000
1017.376;  216.625;    0.000;    0.000
1017.536;  221.625;    0.000;    0.000
1017.695;  199.625;    0.000;    0.000
1017.854;  195.625;    0.000;    0.000
1018.013;  228.625;    0.000;    0.000
1018.172;  194.625;    0.000;    0.000
1018.331;  212.625;    0.000;    0.000
1018.490;  237.625;    0.000;    0.000
1018.649;  215.625;    0.000;    0.000
1018.808;  236.625;    0.000;    0.000
1018.967;  203.625;    0.000;    0.000
1019.126;  200.625;    0.000;    0.000
1019.285;  222.625;    0.000;    0.000
1019.444;  227.625;    0.000;    0.000
1019.603;  206.625;    0.000;    0.000
1019.762;  231.625;    0.000;    0.000
1019.921;  234.625;    0.000;    0.000
1020.079;  215.625;    0.000;    0.000
1020.238;  239.625;    0.000;    0.000
1020.397;  223.625;    0.000;    0.000
1020.556;  217.625;    0.000;    0.000
1020.714;  233.625;    0.000;    0.000
1020.873;  193.625;    0.000;    0.000
1021.031;  225.625;    0.000;    0.000
1021.190;  201.625;    0.000;    0.000
1021.348;  204.625;    0.000;    0.000
1021.507;  218.625;    0.000;    0.000
1021.665;  242.625;    0.000;    0.000
1021.824;  200.625;    0.000;    0.000
1021.982;  230.625;    0.000;    0.000
1022.141;  230.625;    0.000;    0.000
1022.299;  187.625;    0.000;    0.000
1022.457;  197.625;    0.000;    0.000
1022.616;  208.625;    0.000;    0.000
1022.774;  217.625;    0.000;    0.000
1022.932;  195.625;    0.000;    0.000
1023.090;  225.625;    0.000;    0.000
1023.249;  182.625;    0.000;    0.000
1023.407;  222.625;    0.000;    0.000
1023.565;  190.625;    0.000;    0.000
1023.723;  211.625;    0.000;    0.000
1023.881;  198.625;    0.000;    0.000
1024.039;  201.625;    0.000;    0.000
1024.197;  241.625;    0.000;    0.000
1024.355;  229.625;    0.000;    0.000
1024.513;  211.625;    0.000;    0.000
1024.671;  219.625;    0.000;    0.000
1024.829;  230.625;    0.000;    0.000
1024.987;  220.625;    0.000;    0.000
1025.145;  196.625;    0.000;    0.000
1025.302;  215.625;    0.000;    0.000
1025.460;  219.625;    0.000;    0.000
1025.618;  223.625;    0.000;    0.000
1025.776;  248.625;    0.000;    0.000
1025.933;  212.625;    0.000;    0.000
1026.091;  225.625;    0.000;    0.000
1026.249;  237.625;    0.000;    0.000
1026.406;  209.625;    0.000;    0.000
1026.564;  250.625;    0.000;    0.000
1026.721;  220.625;    0.000;    0.000
1026.879;  206.625;    0.000;    0.000
1027.036;  232.625;    0.000;    0.000
1027.194;  238.625;    0.000;    0.000
1027.351;  247.625;    0.000;    0.000
1027.509;  252.625;    0.000;    0.000
1027.666;  277.625;    0.000;    0.000
1027.823;  224.625;    0.000;    0.000
1027.981;  257.625;    0.000;    0.000
1028.138;  249.625;    0.000;    0.000
1028.295;  220.625;    0.000;    0.000
1028.452;  216.625;    0.000;    0.000
1028.610;  232.625;    0.000;    0.000
1028.767;  258.625;    0.000;    0.000
1028.924;  228.625;    0.000;    0.000
1029.081;  216.625;    0.000;    0.000
1029.238;  196.625;    0.000;    0.000
1029.395;  264.625;    0.000;    0.000
1029.552;  213.625;    0.000;    0.000
1029.709;  222.625;    0.000;    0.000
1029.866;  230.625;    0.000;    0.000
1030.023;  200.625;    0.000;    0.000
1030.180;  234.625;    0.000;    0.000
1030.337;  224.625;    0.000;    0.000
1030.494;  205.625;    0.000;    0.000
1030.650;  193.625;    0.000;    0.000
1030.807;  210.625;    0.000;    0.000
1030.964;  219.625;    0.000;    0.000
1031.121;  232.625;    0.000;    0.000
1031.277;  216.625;    0.000;    0.000
1031.434;  242.625;    0.000;    0.000
1031.591;  211.625;    0.000;    0.000
1031.747;  203.625;    0.000;    0.000
1031.904;  262.625;    0.000;    0.000
1032.060;  190.625;    0.000;    0.000
1032.217;  221.625;    0.000;    0.000
1032.373;  203.625;    0.000;    0.000
1032.530;  211.625;    0.000;    0.000
1032.686;  209.625;    0.000;    0.000
1032.843;  203.625;    0.000;    0.000
1032.999;  238.625;    0.000;    0.000
1033.155;  233.625;    0.000;    0.000
1033.312;  217.625;    0.000;    0.000
1033.468;  238.625;    0.000;    0.000
1033.624;  207.625;    0.000;    0.000
1033.780;  237.625;    0.000;    0.000
1033.937;  218.625;    0.000;    0.000
1034.093;  216.625;    0.000;    0.000
1034.249;  221.625;    0.000;    0.000
1034.405;  241.625;    0.000;    0.000
1034.561;  222.625;    0.000;    0.000
1034.717;  217.625;    0.000;    0.000
1034.873;  226.625;    0.000;    0.000
1035.029;  260.625;    0.000;    0.000
1035.185;  208.625;    0.000;    0.000
1035.341;  219.625;    0.000;    0.000
1035.497;  226.625;    0.000;    0.000
1035.653;  197.625;    0.000;    0.000
1035.809;  230.625;    0.000;    0.000
1035.964;  214.625;    0.000;    0.000
1036.120;  211.625;    0.000;    0.000
1036.276;  223.625;    0.000;    0.000
1036.432;  242.625;    0.000;    0.000
1036.587;  235.625;    0.000;    0.000
1036.743;  257.625;    0.000;    0.000
1036.899;  211.625;    0.000;    0.000
1037.054;  205.625;    0.000;    0.000
1037.210;  235.625;    0.000;    0.000
1037.365;  203.625;    0.000;    0.000
1037.521;  232.625;    0.000;    0.000
1037.676;  223.625;    0.000;    0.000
1037.832;  228.625;    0.000;    0.000
1037.987;  233.625;    0.000;    0.000
1038.143;  247.625;    0.000;    0.000
1038.298;  220.625;    0.000;    0.000
1038.453;  209.625;    0.000;    0.000
1038.609;  254.625;    0.000;    0.000
1038.764;  218.625;    0.000;    0.000
1038.919;  189.625;    0.000;    0.000
1039.074;  226.625;    0.000;    0.000
1039.229;  222.625;    0.000;    0.000
1039.385;  243.625;    0.000;    0.000
1039.540;  233.625;    0.000;    0.000
1039.695;  234.625;    0.000;    0.000
1039.850;  219.625;    0.000;    0.000
1040.005;  219.625;    0.000;    0.000
1040.160;  205.625;    0.000;    0.000
1040.315;  214.625;    0.000;    0.000
1040.470;  189.625;    0.000;    0.000
1040.625;  237.625;    0.000;    0.000
1040.780;  247.625;    0.000;    0.000
1040.935;  222.625;    0.000;    0.000
1041.089;  227.625;    0.000;    0.000
1041.244;  196.625;    0.000;    0.000
1041.399;  230.625;    0.000;    0.000
1041.554;  219.625;    0.000;    0.000
1041.708;  231.625;    0.000;    0.000
1041.863;  207.625;    0.000;    0.000
1042.018;  250.625;    0.000;    0.000
1042.172;  209.625;    0.000;    0.000
1042.327;  255.625;    0.000;    0.000
1042.481;  179.625;    0.000;    0.000
1042.636;  223.625;    0.000;    0.000
1042.790;  217.625;    0.000;    0.000
1042.945;  248.625;    0.000;    0.000
1043.099;  219.625;    0.000;    0.000
1043.254;  187.625;    0.000;    0.000
1043.408;  269.625;    0.000;    0.000
1043.563;  196.625;    0.000;    0.000
1043.717;  234.625;    0.000;    0.000
1043.871;  221.625;    0.000;    0.000
1044.025;  219.625;    0.000;    0.000
1044.180;  194.625;    0.000;    0.000
1044.334;  244.625;    0.000;    0.000
1044.488;  245.625;    0.000;    0.000
1044.642;  216.625;    0.000;    0.000
1044.796;  251.625;    0.000;    0.000
1044.950;  243.625;    0.000;    0.000
1045.104;  176.625;    0.000;    0.000
1045.258;  238.625;    0.000;    0.000
1045.412;  258.625;    0.000;    0.000
1045.566;  225.625;    0.000;    0.000
1045.720;  247.625;    0.000;    0.000
1045.874;  238.625;    0.000;    0.000
1046.028;  225.625;    0.000;    0.000
1046.182;  205.625;    0.000;    0.000
1046.336;  208.625;    0.000;    0.000
1046.489;  219.625;    0.000;    0.000
1046.643;  229.625;    0.000;    0.000
1046.797;  218.625;    0.000;    0.000
1046.951;  264.625;    0.000;    0.000
1047.104;  262.625;    0.000;    0.000
1047.258;  219.625;    0.000;    0.000
1047.411;  268.625;    0.000;    0.000
1047.565;  247.625;    0.000;    0.000
1047.719;  218.625;    0.000;    0.000
1047.872;  213.625;    0.000;    0.000
1048.026;  245.625;    0.000;    0.000
1048.179;  220.625;    0.000;    0.000
1048.332;  241.625;    0.000;    0.000
1048.486;  223.625;    0.000;    0.000
1048.639;  230.625;    0.000;    0.000
1048.792;  242.625;    0.000;    0.000
1048.946;  214.625;    0.000;    0.000
1049.099;  230.625;    0.000;    0.000
1049.252;  259.625;    0.000;    0.000
1049.405;  255.625;    0.000;    0.000
1049.559;  245.625;    0.000;    0.000
1049.712;  241.625;    0.000;    0.000
1049.865;  253.625;    0.000;    0.000
1050.018;  227.625;    0.000;    0.000
1050.171;  249.625;    0.000;    0.000
1050.324;  240.625;    0.000;    0.000
1050.477;  236.625;    0.000;    0.000
1050.630;  238.625;    0.000;    0.000
1050.783;  243.625;    0.000;    0.000
1050.936;  250.625;    0.000;    0.000
1051.089;  258.625;    0.000;    0.000
1051.242;  234.625;    0.000;    0.000
1051.394;  245.625;    0.000;    0.000
1051.547;  229.625;    0.000;    0.000
1051.700;  215.625;    0.000;    0.000
1051.853;  261.625;    0.000;    0.000
1052.005;  281.625;    0.000;    0.000
1052.158;  284.625;    0.000;    0.000
1052.311;  258.625;    0.000;    0.000
1052.463;  267.625;    0.000;    0.000
1052.616;  270.625;    0.000;    0.000
1052.768;  294.625;    0.000;    0.000
1052.921;  236.625;    0.000;    0.000
1053.073;  285.625;    0.000;    0.000
1053.226;  281.625;    0.000;    0.000
1053.378;  305.625;    0.000;    0.000
1053.531;  315.625;    0.000;    0.000
1053.683;  266.625;    0.000;    0.000
1053.835;  280.625;    0.000;    0.000
1053.988;  268.625;    0.000;    0.000
1054.140;  316.625;    0.000;    0.000
1054.292;  329.625;    0.000;    0.000
1054.444;  255.625;    0.000;    0.000
1054.596;  282.625;    0.000;    0.000
1054.749;  280.625;    0.000;    0.000
1054.901;  276.625;    0.000;    0.000
1055.053;  310.625;    0.000;    0.000
1055.205;  303.625;    0.000;    0.000
1055.357;  299.625;    0.000;    0.000
1055.509;  288.625;    0.000;    0.000
1055.661;  324.625;    0.000;    0.000
1055.813;  301.625;    0.000;    0.000
1055.965;  321.625;    0.000;    0.000
1056.116;  275.625;    0.000;    0.000
1056.268;  316.625;    0.000;    0.000
1056.420;  312.625;    0.000;    0.000

