dark_500us
Integration time [ms]:   0.500
Averaging Nr. [scans]: 1
Smoothing Nr. [pixels]: 0
Data measured with spectrometer [name]: NIR
Wave   ;Sample   ;Dark     ;Reference;Scope Corrected for Dark
[nm]   ;[counts] ;[counts] ;[counts] ;[counts] 

 691.50;  148.200;    0.000;    0.000;148.20000
 691.70;  189.200;    0.000;    0.000;189.20000
 691.90;  153.200;    0.000;    0.000;153.20000
 692.10;  185.200;    0.000;    0.000;185.20000
 692.30;  148.200;    0.000;    0.000;148.20000
 692.50;  133.200;    0.000;    0.000;133.20000
 692.70;  138.200;    0.000;    0.000;138.20000
 692.90;  162.200;    0.000;    0.000;162.20000
 693.10;  146.200;    0.000;    0.000;146.20000
 693.30;  165.200;    0.000;    0.000;165.20000
 693.49;  186.200;    0.000;    0.000;186.20000
 693.69;  144.200;    0.000;    0.000;144.20000
 693.89;  138.200;    0.000;    0.000;138.20000
 694.09;  156.200;    0.000;    0.000;156.20000
 694.29;  120.200;    0.000;    0.000;120.20000
 694.49;  138.200;    0.000;    0.000;138.20000
 694.69;  155.200;    0.000;    0.000;155.20000
 694.89;  126.200;    0.000;    0.000;126.20000
 695.09;   97.200;    0.000;    0.000;97.20000
 695.29;  181.200;    0.000;    0.000;181.20000
 695.49;  136.200;    0.000;    0.000;136.20000
 695.69;  123.200;    0.000;    0.000;123.20000
 695.89;  106.200;    0.000;    0.000;106.20000
 696.09;  172.200;    0.000;    0.000;172.20000
 696.29;  162.200;    0.000;    0.000;162.20000
 696.49;  151.200;    0.000;    0.000;151.20000
 696.69;  159.200;    0.000;    0.000;159.20000
 696.89;  150.200;    0.000;    0.000;150.20000
 697.09;  113.200;    0.000;    0.000;113.20000
 697.29;  176.200;    0.000;    0.000;176.20000
 697.49;  121.200;    0.000;    0.000;121.20000
 697.69;  177.200;    0.000;    0.000;177.20000
 697.89;   90.200;    0.000;    0.000;90.20000
 698.09;  156.200;    0.000;    0.000;156.20000
 698.29;  129.200;    0.000;    0.000;129.20000
 698.49;  120.200;    0.000;    0.000;120.20000
 698.68;  106.200;    0.000;    0.000;106.20000
 698.88;  134.200;    0.000;    0.000;134.20000
 699.08;   89.200;    0.000;    0.000;89.20000
 699.28;  156.200;    0.000;    0.000;156.20000
 699.48;  141.200;    0.000;    0.000;141.20000
 699.68;  136.200;    0.000;    0.000;136.20000
 699.88;  136.200;    0.000;    0.000;136.20000
 700.08;  188.200;    0.000;    0.000;188.20000
 700.28;  105.200;    0.000;    0.000;105.20000
 700.48;  150.200;    0.000;    0.000;150.20000
 700.68;  107.200;    0.000;    0.000;107.20000
 700.88;  159.200;    0.000;    0.000;159.20000
 701.08;  133.200;    0.000;    0.000;133.20000
 701.27;  114.200;    0.000;    0.000;114.20000
 701.47;  104.200;    0.000;    0.000;104.20000
 701.67;   81.200;    0.000;    0.000;81.20000
 701.87;  125.200;    0.000;    0.000;125.20000
 702.07;   82.200;    0.000;    0.000;82.20000
 702.27;  124.200;    0.000;    0.000;124.20000
 702.47;  179.200;    0.000;    0.000;179.20000
 702.67;  126.200;    0.000;    0.000;126.20000
 702.87;  148.200;    0.000;    0.000;148.20000
 703.07;  160.200;    0.000;    0.000;160.20000
 703.27;  133.200;    0.000;    0.000;133.20000
 703.46;  139.200;    0.000;    0.000;139.20000
 703.66;  120.200;    0.000;    0.000;120.20000
 703.86;  129.200;    0.000;    0.000;129.20000
 704.06;   95.200;    0.000;    0.000;95.20000
 704.26;  142.200;    0.000;    0.000;142.20000
 704.46;  155.200;    0.000;    0.000;155.20000
 704.66;  123.200;    0.000;    0.000;123.20000
 704.86;  128.200;    0.000;    0.000;128.20000
 705.06;   93.200;    0.000;    0.000;93.20000
 705.25;   88.200;    0.000;    0.000;88.20000
 705.45;  113.200;    0.000;    0.000;113.20000
 705.65;  131.200;    0.000;    0.000;131.20000
 705.85;  113.200;    0.000;    0.000;113.20000
 706.05;  150.200;    0.000;    0.000;150.20000
 706.25;  101.200;    0.000;    0.000;101.20000
 706.45;  128.200;    0.000;    0.000;128.20000
 706.65;   95.200;    0.000;    0.000;95.20000
 706.84;  112.200;    0.000;    0.000;112.20000
 707.04;   90.200;    0.000;    0.000;90.20000
 707.24;   82.200;    0.000;    0.000;82.20000
 707.44;  149.200;    0.000;    0.000;149.20000
 707.64;  137.200;    0.000;    0.000;137.20000
 707.84;  101.200;    0.000;    0.000;101.20000
 708.04;  122.200;    0.000;    0.000;122.20000
 708.24;   98.200;    0.000;    0.000;98.20000
 708.43;   98.200;    0.000;    0.000;98.20000
 708.63;   96.200;    0.000;    0.000;96.20000
 708.83;  136.200;    0.000;    0.000;136.20000
 709.03;  110.200;    0.000;    0.000;110.20000
 709.23;   84.200;    0.000;    0.000;84.20000
 709.43;  112.200;    0.000;    0.000;112.20000
 709.62;  129.200;    0.000;    0.000;129.20000
 709.82;  107.200;    0.000;    0.000;107.20000
 710.02;   76.200;    0.000;    0.000;76.20000
 710.22;  127.200;    0.000;    0.000;127.20000
 710.42;  145.200;    0.000;    0.000;145.20000
 710.62;   72.200;    0.000;    0.000;72.20000
 710.82;   95.200;    0.000;    0.000;95.20000
 711.01;   99.200;    0.000;    0.000;99.20000
 711.21;  115.200;    0.000;    0.000;115.20000
 711.41;  116.200;    0.000;    0.000;116.20000
 711.61;  115.200;    0.000;    0.000;115.20000
 711.81;   87.200;    0.000;    0.000;87.20000
 712.00;   57.200;    0.000;    0.000;57.20000
 712.20;   65.200;    0.000;    0.000;65.20000
 712.40;  137.200;    0.000;    0.000;137.20000
 712.60;  109.200;    0.000;    0.000;109.20000
 712.80;  137.200;    0.000;    0.000;137.20000
 713.00;   88.200;    0.000;    0.000;88.20000
 713.19;   96.200;    0.000;    0.000;96.20000
 713.39;   74.200;    0.000;    0.000;74.20000
 713.59;  114.200;    0.000;    0.000;114.20000
 713.79;   90.200;    0.000;    0.000;90.20000
 713.99;  165.200;    0.000;    0.000;165.20000
 714.18;   73.200;    0.000;    0.000;73.20000
 714.38;   54.200;    0.000;    0.000;54.20000
 714.58;   88.200;    0.000;    0.000;88.20000
 714.78;  116.200;    0.000;    0.000;116.20000
 714.98;   78.200;    0.000;    0.000;78.20000
 715.17;  118.200;    0.000;    0.000;118.20000
 715.37;  144.200;    0.000;    0.000;144.20000
 715.57;  101.200;    0.000;    0.000;101.20000
 715.77;  129.200;    0.000;    0.000;129.20000
 715.97;   74.200;    0.000;    0.000;74.20000
 716.16;  130.200;    0.000;    0.000;130.20000
 716.36;  107.200;    0.000;    0.000;107.20000
 716.56;  132.200;    0.000;    0.000;132.20000
 716.76;  104.200;    0.000;    0.000;104.20000
 716.96;   90.200;    0.000;    0.000;90.20000
 717.15;   58.200;    0.000;    0.000;58.20000
 717.35;  111.200;    0.000;    0.000;111.20000
 717.55;  107.200;    0.000;    0.000;107.20000
 717.75;  101.200;    0.000;    0.000;101.20000
 717.94;  124.200;    0.000;    0.000;124.20000
 718.14;  112.200;    0.000;    0.000;112.20000
 718.34;  101.200;    0.000;    0.000;101.20000
 718.54;   77.200;    0.000;    0.000;77.20000
 718.73;  154.200;    0.000;    0.000;154.20000
 718.93;  107.200;    0.000;    0.000;107.20000
 719.13;  115.200;    0.000;    0.000;115.20000
 719.33;   78.200;    0.000;    0.000;78.20000
 719.53;   72.200;    0.000;    0.000;72.20000
 719.72;  102.200;    0.000;    0.000;102.20000
 719.92;   93.200;    0.000;    0.000;93.20000
 720.12;  117.200;    0.000;    0.000;117.20000
 720.32;  148.200;    0.000;    0.000;148.20000
 720.51;  113.200;    0.000;    0.000;113.20000
 720.71;  108.200;    0.000;    0.000;108.20000
 720.91;  120.200;    0.000;    0.000;120.20000
 721.11;  116.200;    0.000;    0.000;116.20000
 721.30;   83.200;    0.000;    0.000;83.20000
 721.50;  120.200;    0.000;    0.000;120.20000
 721.70;  137.200;    0.000;    0.000;137.20000
 721.90;   67.200;    0.000;    0.000;67.20000
 722.09;   89.200;    0.000;    0.000;89.20000
 722.29;  141.200;    0.000;    0.000;141.20000
 722.49;  133.200;    0.000;    0.000;133.20000
 722.68;   90.200;    0.000;    0.000;90.20000
 722.88;   99.200;    0.000;    0.000;99.20000
 723.08;  112.200;    0.000;    0.000;112.20000
 723.28;   92.200;    0.000;    0.000;92.20000
 723.47;  100.200;    0.000;    0.000;100.20000
 723.67;  110.200;    0.000;    0.000;110.20000
 723.87;  121.200;    0.000;    0.000;121.20000
 724.07;  139.200;    0.000;    0.000;139.20000
 724.26;  133.200;    0.000;    0.000;133.20000
 724.46;   79.200;    0.000;    0.000;79.20000
 724.66;  124.200;    0.000;    0.000;124.20000
 724.85;  118.200;    0.000;    0.000;118.20000
 725.05;   79.200;    0.000;    0.000;79.20000
 725.25;   90.200;    0.000;    0.000;90.20000
 725.44;  115.200;    0.000;    0.000;115.20000
 725.64;   85.200;    0.000;    0.000;85.20000
 725.84;  122.200;    0.000;    0.000;122.20000
 726.04;   79.200;    0.000;    0.000;79.20000
 726.23;   78.200;    0.000;    0.000;78.20000
 726.43;  139.200;    0.000;    0.000;139.20000
 726.63;  126.200;    0.000;    0.000;126.20000
 726.82;   96.200;    0.000;    0.000;96.20000
 727.02;  125.200;    0.000;    0.000;125.20000
 727.22;   88.200;    0.000;    0.000;88.20000
 727.41;  103.200;    0.000;    0.000;103.20000
 727.61;   96.200;    0.000;    0.000;96.20000
 727.81;  113.200;    0.000;    0.000;113.20000
 728.00;   88.200;    0.000;    0.000;88.20000
 728.20;  111.200;    0.000;    0.000;111.20000
 728.40;   77.200;    0.000;    0.000;77.20000
 728.60;   97.200;    0.000;    0.000;97.20000
 728.79;   88.200;    0.000;    0.000;88.20000
 728.99;   89.200;    0.000;    0.000;89.20000
 729.19;   97.200;    0.000;    0.000;97.20000
 729.38;   70.200;    0.000;    0.000;70.20000
 729.58;  112.200;    0.000;    0.000;112.20000
 729.78;  115.200;    0.000;    0.000;115.20000
 729.97;   80.200;    0.000;    0.000;80.20000
 730.17;  146.200;    0.000;    0.000;146.20000
 730.37;   86.200;    0.000;    0.000;86.20000
 730.56;   93.200;    0.000;    0.000;93.20000
 730.76;   75.200;    0.000;    0.000;75.20000
 730.96;   91.200;    0.000;    0.000;91.20000
 731.15;  108.200;    0.000;    0.000;108.20000
 731.35;   88.200;    0.000;    0.000;88.20000
 731.54;   80.200;    0.000;    0.000;80.20000
 731.74;   77.200;    0.000;    0.000;77.20000
 731.94;   91.200;    0.000;    0.000;91.20000
 732.13;   83.200;    0.000;    0.000;83.20000
 732.33;   33.200;    0.000;    0.000;33.20000
 732.53;  113.200;    0.000;    0.000;113.20000
 732.72;   94.200;    0.000;    0.000;94.20000
 732.92;   99.200;    0.000;    0.000;99.20000
 733.12;  113.200;    0.000;    0.000;113.20000
 733.31;   70.200;    0.000;    0.000;70.20000
 733.51;   90.200;    0.000;    0.000;90.20000
 733.71;  116.200;    0.000;    0.000;116.20000
 733.90;  111.200;    0.000;    0.000;111.20000
 734.10;   88.200;    0.000;    0.000;88.20000
 734.29;  116.200;    0.000;    0.000;116.20000
 734.49;  116.200;    0.000;    0.000;116.20000
 734.69;  131.200;    0.000;    0.000;131.20000
 734.88;   91.200;    0.000;    0.000;91.20000
 735.08;   91.200;    0.000;    0.000;91.20000
 735.28;  123.200;    0.000;    0.000;123.20000
 735.47;   59.200;    0.000;    0.000;59.20000
 735.67;   97.200;    0.000;    0.000;97.20000
 735.86;  117.200;    0.000;    0.000;117.20000
 736.06;  119.200;    0.000;    0.000;119.20000
 736.26;   85.200;    0.000;    0.000;85.20000
 736.45;  101.200;    0.000;    0.000;101.20000
 736.65;  114.200;    0.000;    0.000;114.20000
 736.84;  120.200;    0.000;    0.000;120.20000
 737.04;  123.200;    0.000;    0.000;123.20000
 737.24;  108.200;    0.000;    0.000;108.20000
 737.43;   90.200;    0.000;    0.000;90.20000
 737.63;  118.200;    0.000;    0.000;118.20000
 737.82;  103.200;    0.000;    0.000;103.20000
 738.02;  119.200;    0.000;    0.000;119.20000
 738.22;  115.200;    0.000;    0.000;115.20000
 738.41;  108.200;    0.000;    0.000;108.20000
 738.61;   74.200;    0.000;    0.000;74.20000
 738.80;   45.200;    0.000;    0.000;45.20000
 739.00;  109.200;    0.000;    0.000;109.20000
 739.19;   85.200;    0.000;    0.000;85.20000
 739.39;  137.200;    0.000;    0.000;137.20000
 739.59;  114.200;    0.000;    0.000;114.20000
 739.78;  130.200;    0.000;    0.000;130.20000
 739.98;  120.200;    0.000;    0.000;120.20000
 740.17;  100.200;    0.000;    0.000;100.20000
 740.37;  138.200;    0.000;    0.000;138.20000
 740.56;  126.200;    0.000;    0.000;126.20000
 740.76;  130.200;    0.000;    0.000;130.20000
 740.96;   95.200;    0.000;    0.000;95.20000
 741.15;  127.200;    0.000;    0.000;127.20000
 741.35;  116.200;    0.000;    0.000;116.20000
 741.54;  120.200;    0.000;    0.000;120.20000
 741.74;  116.200;    0.000;    0.000;116.20000
 741.93;  143.200;    0.000;    0.000;143.20000
 742.13;  121.200;    0.000;    0.000;121.20000
 742.32;  107.200;    0.000;    0.000;107.20000
 742.52;  111.200;    0.000;    0.000;111.20000
 742.72;  125.200;    0.000;    0.000;125.20000
 742.91;  103.200;    0.000;    0.000;103.20000
 743.11;  144.200;    0.000;    0.000;144.20000
 743.30;   95.200;    0.000;    0.000;95.20000
 743.50;  125.200;    0.000;    0.000;125.20000
 743.69;   98.200;    0.000;    0.000;98.20000
 743.89;  117.200;    0.000;    0.000;117.20000
 744.08;   89.200;    0.000;    0.000;89.20000
 744.28;   79.200;    0.000;    0.000;79.20000
 744.47;  124.200;    0.000;    0.000;124.20000
 744.67;  102.200;    0.000;    0.000;102.20000
 744.86;  128.200;    0.000;    0.000;128.20000
 745.06;   60.200;    0.000;    0.000;60.20000
 745.26;  143.200;    0.000;    0.000;143.20000
 745.45;  127.200;    0.000;    0.000;127.20000
 745.65;  140.200;    0.000;    0.000;140.20000
 745.84;  137.200;    0.000;    0.000;137.20000
 746.04;  117.200;    0.000;    0.000;117.20000
 746.23;  149.200;    0.000;    0.000;149.20000
 746.43;   99.200;    0.000;    0.000;99.20000
 746.62;  129.200;    0.000;    0.000;129.20000
 746.82;   90.200;    0.000;    0.000;90.20000
 747.01;   74.200;    0.000;    0.000;74.20000
 747.21;  106.200;    0.000;    0.000;106.20000
 747.40;   85.200;    0.000;    0.000;85.20000
 747.60;   80.200;    0.000;    0.000;80.20000
 747.79;  164.200;    0.000;    0.000;164.20000
 747.99;   60.200;    0.000;    0.000;60.20000
 748.18;   92.200;    0.000;    0.000;92.20000
 748.38;  102.200;    0.000;    0.000;102.20000
 748.57;  135.200;    0.000;    0.000;135.20000
 748.77;  111.200;    0.000;    0.000;111.20000
 748.96;   89.200;    0.000;    0.000;89.20000
 749.16;  121.200;    0.000;    0.000;121.20000
 749.35;   86.200;    0.000;    0.000;86.20000
 749.55;  115.200;    0.000;    0.000;115.20000
 749.74;  113.200;    0.000;    0.000;113.20000
 749.94;  118.200;    0.000;    0.000;118.20000
 750.13;  100.200;    0.000;    0.000;100.20000
 750.33;  124.200;    0.000;    0.000;124.20000
 750.52;   99.200;    0.000;    0.000;99.20000
 750.71;  128.200;    0.000;    0.000;128.20000
 750.91;  138.200;    0.000;    0.000;138.20000
 751.10;   85.200;    0.000;    0.000;85.20000
 751.30;  131.200;    0.000;    0.000;131.20000
 751.49;  117.200;    0.000;    0.000;117.20000
 751.69;  117.200;    0.000;    0.000;117.20000
 751.88;   84.200;    0.000;    0.000;84.20000
 752.08;  128.200;    0.000;    0.000;128.20000
 752.27;  107.200;    0.000;    0.000;107.20000
 752.47;  134.200;    0.000;    0.000;134.20000
 752.66;  140.200;    0.000;    0.000;140.20000
 752.86;  117.200;    0.000;    0.000;117.20000
 753.05;  133.200;    0.000;    0.000;133.20000
 753.24;  149.200;    0.000;    0.000;149.20000
 753.44;  120.200;    0.000;    0.000;120.20000
 753.63;  131.200;    0.000;    0.000;131.20000
 753.83;  120.200;    0.000;    0.000;120.20000
 754.02;  114.200;    0.000;    0.000;114.20000
 754.22;  102.200;    0.000;    0.000;102.20000
 754.41;  125.200;    0.000;    0.000;125.20000
 754.60;   75.200;    0.000;    0.000;75.20000
 754.80;  123.200;    0.000;    0.000;123.20000
 754.99;  114.200;    0.000;    0.000;114.20000
 755.19;  156.200;    0.000;    0.000;156.20000
 755.38;   96.200;    0.000;    0.000;96.20000
 755.58;  125.200;    0.000;    0.000;125.20000
 755.77;  117.200;    0.000;    0.000;117.20000
 755.96;  158.200;    0.000;    0.000;158.20000
 756.16;  129.200;    0.000;    0.000;129.20000
 756.35;  147.200;    0.000;    0.000;147.20000
 756.55;   72.200;    0.000;    0.000;72.20000
 756.74;  136.200;    0.000;    0.000;136.20000
 756.94;  126.200;    0.000;    0.000;126.20000
 757.13;  132.200;    0.000;    0.000;132.20000
 757.32;  121.200;    0.000;    0.000;121.20000
 757.52;  111.200;    0.000;    0.000;111.20000
 757.71;  171.200;    0.000;    0.000;171.20000
 757.91;  120.200;    0.000;    0.000;120.20000
 758.10;  131.200;    0.000;    0.000;131.20000
 758.29;  124.200;    0.000;    0.000;124.20000
 758.49;  163.200;    0.000;    0.000;163.20000
 758.68;  135.200;    0.000;    0.000;135.20000
 758.88;  123.200;    0.000;    0.000;123.20000
 759.07;  167.200;    0.000;    0.000;167.20000
 759.26;   85.200;    0.000;    0.000;85.20000
 759.46;  117.200;    0.000;    0.000;117.20000
 759.65;  129.200;    0.000;    0.000;129.20000
 759.85;  109.200;    0.000;    0.000;109.20000
 760.04;   91.200;    0.000;    0.000;91.20000
 760.23;  152.200;    0.000;    0.000;152.20000
 760.43;  154.200;    0.000;    0.000;154.20000
 760.62;  172.200;    0.000;    0.000;172.20000
 760.81;  108.200;    0.000;    0.000;108.20000
 761.01;  147.200;    0.000;    0.000;147.20000
 761.20;  119.200;    0.000;    0.000;119.20000
 761.40;  114.200;    0.000;    0.000;114.20000
 761.59;  115.200;    0.000;    0.000;115.20000
 761.78;   91.200;    0.000;    0.000;91.20000
 761.98;  145.200;    0.000;    0.000;145.20000
 762.17;  191.200;    0.000;    0.000;191.20000
 762.36;  122.200;    0.000;    0.000;122.20000
 762.56;  145.200;    0.000;    0.000;145.20000
 762.75;   97.200;    0.000;    0.000;97.20000
 762.94;  122.200;    0.000;    0.000;122.20000
 763.14;  121.200;    0.000;    0.000;121.20000
 763.33;  126.200;    0.000;    0.000;126.20000
 763.52;  164.200;    0.000;    0.000;164.20000
 763.72;  128.200;    0.000;    0.000;128.20000
 763.91;  140.200;    0.000;    0.000;140.20000
 764.10;   98.200;    0.000;    0.000;98.20000
 764.30;  124.200;    0.000;    0.000;124.20000
 764.49;  135.200;    0.000;    0.000;135.20000
 764.68;  105.200;    0.000;    0.000;105.20000
 764.88;  121.200;    0.000;    0.000;121.20000
 765.07;  118.200;    0.000;    0.000;118.20000
 765.26;  139.200;    0.000;    0.000;139.20000
 765.46;  105.200;    0.000;    0.000;105.20000
 765.65;  136.200;    0.000;    0.000;136.20000
 765.84;  110.200;    0.000;    0.000;110.20000
 766.04;  138.200;    0.000;    0.000;138.20000
 766.23;  145.200;    0.000;    0.000;145.20000
 766.42;  138.200;    0.000;    0.000;138.20000
 766.62;   75.200;    0.000;    0.000;75.20000
 766.81;  122.200;    0.000;    0.000;122.20000
 767.00;  124.200;    0.000;    0.000;124.20000
 767.20;  150.200;    0.000;    0.000;150.20000
 767.39;  114.200;    0.000;    0.000;114.20000
 767.58;  121.200;    0.000;    0.000;121.20000
 767.78;   84.200;    0.000;    0.000;84.20000
 767.97;   99.200;    0.000;    0.000;99.20000
 768.16;  152.200;    0.000;    0.000;152.20000
 768.36;  168.200;    0.000;    0.000;168.20000
 768.55;  130.200;    0.000;    0.000;130.20000
 768.74;  113.200;    0.000;    0.000;113.20000
 768.93;  145.200;    0.000;    0.000;145.20000
 769.13;  143.200;    0.000;    0.000;143.20000
 769.32;  119.200;    0.000;    0.000;119.20000
 769.51;  144.200;    0.000;    0.000;144.20000
 769.71;   98.200;    0.000;    0.000;98.20000
 769.90;  136.200;    0.000;    0.000;136.20000
 770.09;  107.200;    0.000;    0.000;107.20000
 770.28;  101.200;    0.000;    0.000;101.20000
 770.48;  135.200;    0.000;    0.000;135.20000
 770.67;  142.200;    0.000;    0.000;142.20000
 770.86;  135.200;    0.000;    0.000;135.20000
 771.06;  125.200;    0.000;    0.000;125.20000
 771.25;  128.200;    0.000;    0.000;128.20000
 771.44;  131.200;    0.000;    0.000;131.20000
 771.63;  138.200;    0.000;    0.000;138.20000
 771.83;  131.200;    0.000;    0.000;131.20000
 772.02;  112.200;    0.000;    0.000;112.20000
 772.21;  151.200;    0.000;    0.000;151.20000
 772.40;  111.200;    0.000;    0.000;111.20000
 772.60;  130.200;    0.000;    0.000;130.20000
 772.79;  111.200;    0.000;    0.000;111.20000
 772.98;  159.200;    0.000;    0.000;159.20000
 773.17;  115.200;    0.000;    0.000;115.20000
 773.37;  155.200;    0.000;    0.000;155.20000
 773.56;  124.200;    0.000;    0.000;124.20000
 773.75;  135.200;    0.000;    0.000;135.20000
 773.94;  131.200;    0.000;    0.000;131.20000
 774.14;  149.200;    0.000;    0.000;149.20000
 774.33;  141.200;    0.000;    0.000;141.20000
 774.52;  141.200;    0.000;    0.000;141.20000
 774.71;  145.200;    0.000;    0.000;145.20000
 774.91;  143.200;    0.000;    0.000;143.20000
 775.10;  156.200;    0.000;    0.000;156.20000
 775.29;  172.200;    0.000;    0.000;172.20000
 775.48;  136.200;    0.000;    0.000;136.20000
 775.67;  142.200;    0.000;    0.000;142.20000
 775.87;  113.200;    0.000;    0.000;113.20000
 776.06;  165.200;    0.000;    0.000;165.20000
 776.25;  121.200;    0.000;    0.000;121.20000
 776.44;  119.200;    0.000;    0.000;119.20000
 776.64;  158.200;    0.000;    0.000;158.20000
 776.83;  144.200;    0.000;    0.000;144.20000
 777.02;  134.200;    0.000;    0.000;134.20000
 777.21;  130.200;    0.000;    0.000;130.20000
 777.40;  163.200;    0.000;    0.000;163.20000
 777.60;  142.200;    0.000;    0.000;142.20000
 777.79;  113.200;    0.000;    0.000;113.20000
 777.98;  114.200;    0.000;    0.000;114.20000
 778.17;  154.200;    0.000;    0.000;154.20000
 778.36;  135.200;    0.000;    0.000;135.20000
 778.56;  144.200;    0.000;    0.000;144.20000
 778.75;  144.200;    0.000;    0.000;144.20000
 778.94;  154.200;    0.000;    0.000;154.20000
 779.13;  156.200;    0.000;    0.000;156.20000
 779.32;   75.200;    0.000;    0.000;75.20000
 779.52;  127.200;    0.000;    0.000;127.20000
 779.71;  133.200;    0.000;    0.000;133.20000
 779.90;  136.200;    0.000;    0.000;136.20000
 780.09;  139.200;    0.000;    0.000;139.20000
 780.28;  119.200;    0.000;    0.000;119.20000
 780.48;  153.200;    0.000;    0.000;153.20000
 780.67;  184.200;    0.000;    0.000;184.20000
 780.86;  137.200;    0.000;    0.000;137.20000
 781.05;  187.200;    0.000;    0.000;187.20000
 781.24;  155.200;    0.000;    0.000;155.20000
 781.43;  166.200;    0.000;    0.000;166.20000
 781.63;  149.200;    0.000;    0.000;149.20000
 781.82;  158.200;    0.000;    0.000;158.20000
 782.01;  177.200;    0.000;    0.000;177.20000
 782.20;  147.200;    0.000;    0.000;147.20000
 782.39;  166.200;    0.000;    0.000;166.20000
 782.58;  152.200;    0.000;    0.000;152.20000
 782.77;  132.200;    0.000;    0.000;132.20000
 782.97;  172.200;    0.000;    0.000;172.20000
 783.16;  135.200;    0.000;    0.000;135.20000
 783.35;  158.200;    0.000;    0.000;158.20000
 783.54;  157.200;    0.000;    0.000;157.20000
 783.73;   95.200;    0.000;    0.000;95.20000
 783.92;  179.200;    0.000;    0.000;179.20000
 784.11;  121.200;    0.000;    0.000;121.20000
 784.31;  106.200;    0.000;    0.000;106.20000
 784.50;  160.200;    0.000;    0.000;160.20000
 784.69;  175.200;    0.000;    0.000;175.20000
 784.88;  137.200;    0.000;    0.000;137.20000
 785.07;  120.200;    0.000;    0.000;120.20000
 785.26;  160.200;    0.000;    0.000;160.20000
 785.45;  145.200;    0.000;    0.000;145.20000
 785.65;   93.200;    0.000;    0.000;93.20000
 785.84;  148.200;    0.000;    0.000;148.20000
 786.03;  155.200;    0.000;    0.000;155.20000
 786.22;  173.200;    0.000;    0.000;173.20000
 786.41;  120.200;    0.000;    0.000;120.20000
 786.60;  106.200;    0.000;    0.000;106.20000
 786.79;  167.200;    0.000;    0.000;167.20000
 786.98;  137.200;    0.000;    0.000;137.20000
 787.17;  132.200;    0.000;    0.000;132.20000
 787.37;  137.200;    0.000;    0.000;137.20000
 787.56;  116.200;    0.000;    0.000;116.20000
 787.75;   83.200;    0.000;    0.000;83.20000
 787.94;  130.200;    0.000;    0.000;130.20000
 788.13;  143.200;    0.000;    0.000;143.20000
 788.32;  122.200;    0.000;    0.000;122.20000
 788.51;  155.200;    0.000;    0.000;155.20000
 788.70;  129.200;    0.000;    0.000;129.20000
 788.89;  116.200;    0.000;    0.000;116.20000
 789.08;  125.200;    0.000;    0.000;125.20000
 789.28;  122.200;    0.000;    0.000;122.20000
 789.47;  177.200;    0.000;    0.000;177.20000
 789.66;  122.200;    0.000;    0.000;122.20000
 789.85;  135.200;    0.000;    0.000;135.20000
 790.04;  106.200;    0.000;    0.000;106.20000
 790.23;  144.200;    0.000;    0.000;144.20000
 790.42;  138.200;    0.000;    0.000;138.20000
 790.61;  142.200;    0.000;    0.000;142.20000
 790.80;  127.200;    0.000;    0.000;127.20000
 790.99;  168.200;    0.000;    0.000;168.20000
 791.18;  119.200;    0.000;    0.000;119.20000
 791.37;  124.200;    0.000;    0.000;124.20000
 791.56;   92.200;    0.000;    0.000;92.20000
 791.75;  143.200;    0.000;    0.000;143.20000
 791.95;  153.200;    0.000;    0.000;153.20000
 792.14;   85.200;    0.000;    0.000;85.20000
 792.33;   97.200;    0.000;    0.000;97.20000
 792.52;  139.200;    0.000;    0.000;139.20000
 792.71;  143.200;    0.000;    0.000;143.20000
 792.90;  152.200;    0.000;    0.000;152.20000
 793.09;  136.200;    0.000;    0.000;136.20000
 793.28;  144.200;    0.000;    0.000;144.20000
 793.47;  101.200;    0.000;    0.000;101.20000
 793.66;  147.200;    0.000;    0.000;147.20000
 793.85;  141.200;    0.000;    0.000;141.20000
 794.04;  143.200;    0.000;    0.000;143.20000
 794.23;  117.200;    0.000;    0.000;117.20000
 794.42;  112.200;    0.000;    0.000;112.20000
 794.61;  127.200;    0.000;    0.000;127.20000
 794.80;  122.200;    0.000;    0.000;122.20000
 794.99;  129.200;    0.000;    0.000;129.20000
 795.18;  140.200;    0.000;    0.000;140.20000
 795.37;   95.200;    0.000;    0.000;95.20000
 795.56;  141.200;    0.000;    0.000;141.20000
 795.75;  118.200;    0.000;    0.000;118.20000
 795.94;  166.200;    0.000;    0.000;166.20000
 796.13;   91.200;    0.000;    0.000;91.20000
 796.32;  147.200;    0.000;    0.000;147.20000
 796.51;  152.200;    0.000;    0.000;152.20000
 796.70;  124.200;    0.000;    0.000;124.20000
 796.89;  116.200;    0.000;    0.000;116.20000
 797.08;  147.200;    0.000;    0.000;147.20000
 797.27;  129.200;    0.000;    0.000;129.20000
 797.46;  161.200;    0.000;    0.000;161.20000
 797.65;   99.200;    0.000;    0.000;99.20000
 797.84;  117.200;    0.000;    0.000;117.20000
 798.03;   87.200;    0.000;    0.000;87.20000
 798.22;  104.200;    0.000;    0.000;104.20000
 798.41;  148.200;    0.000;    0.000;148.20000
 798.60;  119.200;    0.000;    0.000;119.20000
 798.79;  142.200;    0.000;    0.000;142.20000
 798.98;  125.200;    0.000;    0.000;125.20000
 799.17;  135.200;    0.000;    0.000;135.20000
 799.36;  149.200;    0.000;    0.000;149.20000
 799.55;  127.200;    0.000;    0.000;127.20000
 799.74;  118.200;    0.000;    0.000;118.20000
 799.93;   96.200;    0.000;    0.000;96.20000
 800.12;  147.200;    0.000;    0.000;147.20000
 800.31;  136.200;    0.000;    0.000;136.20000
 800.50;  115.200;    0.000;    0.000;115.20000
 800.69;  184.200;    0.000;    0.000;184.20000
 800.88;  117.200;    0.000;    0.000;117.20000
 801.07;  145.200;    0.000;    0.000;145.20000
 801.26;  161.200;    0.000;    0.000;161.20000
 801.45;  123.200;    0.000;    0.000;123.20000
 801.64;  155.200;    0.000;    0.000;155.20000
 801.83;  118.200;    0.000;    0.000;118.20000
 802.02;  110.200;    0.000;    0.000;110.20000
 802.21;  140.200;    0.000;    0.000;140.20000
 802.40;  145.200;    0.000;    0.000;145.20000
 802.59;   95.200;    0.000;    0.000;95.20000
 802.78;  118.200;    0.000;    0.000;118.20000
 802.96;  120.200;    0.000;    0.000;120.20000
 803.15;  175.200;    0.000;    0.000;175.20000
 803.34;  106.200;    0.000;    0.000;106.20000
 803.53;  129.200;    0.000;    0.000;129.20000
 803.72;  140.200;    0.000;    0.000;140.20000
 803.91;   95.200;    0.000;    0.000;95.20000
 804.10;  127.200;    0.000;    0.000;127.20000
 804.29;  118.200;    0.000;    0.000;118.20000
 804.48;  112.200;    0.000;    0.000;112.20000
 804.67;  141.200;    0.000;    0.000;141.20000
 804.86;  153.200;    0.000;    0.000;153.20000
 805.05;  111.200;    0.000;    0.000;111.20000
 805.24;  160.200;    0.000;    0.000;160.20000
 805.42;  187.200;    0.000;    0.000;187.20000
 805.61;   88.200;    0.000;    0.000;88.20000
 805.80;  144.200;    0.000;    0.000;144.20000
 805.99;  145.200;    0.000;    0.000;145.20000
 806.18;  147.200;    0.000;    0.000;147.20000
 806.37;  121.200;    0.000;    0.000;121.20000
 806.56;  117.200;    0.000;    0.000;117.20000
 806.75;  151.200;    0.000;    0.000;151.20000
 806.94;  140.200;    0.000;    0.000;140.20000
 807.13;  151.200;    0.000;    0.000;151.20000
 807.32;  142.200;    0.000;    0.000;142.20000
 807.50;  142.200;    0.000;    0.000;142.20000
 807.69;  139.200;    0.000;    0.000;139.20000
 807.88;  113.200;    0.000;    0.000;113.20000
 808.07;  159.200;    0.000;    0.000;159.20000
 808.26;  104.200;    0.000;    0.000;104.20000
 808.45;  148.200;    0.000;    0.000;148.20000
 808.64;  165.200;    0.000;    0.000;165.20000
 808.83;  140.200;    0.000;    0.000;140.20000
 809.01;  133.200;    0.000;    0.000;133.20000
 809.20;  157.200;    0.000;    0.000;157.20000
 809.39;  131.200;    0.000;    0.000;131.20000
 809.58;  184.200;    0.000;    0.000;184.20000
 809.77;  125.200;    0.000;    0.000;125.20000
 809.96;  182.200;    0.000;    0.000;182.20000
 810.15;  148.200;    0.000;    0.000;148.20000
 810.34;   85.200;    0.000;    0.000;85.20000
 810.52;  167.200;    0.000;    0.000;167.20000
 810.71;  126.200;    0.000;    0.000;126.20000
 810.90;  146.200;    0.000;    0.000;146.20000
 811.09;  155.200;    0.000;    0.000;155.20000
 811.28;  116.200;    0.000;    0.000;116.20000
 811.47;  159.200;    0.000;    0.000;159.20000
 811.66;  160.200;    0.000;    0.000;160.20000
 811.84;  162.200;    0.000;    0.000;162.20000
 812.03;  149.200;    0.000;    0.000;149.20000
 812.22;  155.200;    0.000;    0.000;155.20000
 812.41;  121.200;    0.000;    0.000;121.20000
 812.60;  139.200;    0.000;    0.000;139.20000
 812.79;  196.200;    0.000;    0.000;196.20000
 812.97;  162.200;    0.000;    0.000;162.20000
 813.16;  155.200;    0.000;    0.000;155.20000
 813.35;  182.200;    0.000;    0.000;182.20000
 813.54;  137.200;    0.000;    0.000;137.20000
 813.73;  143.200;    0.000;    0.000;143.20000
 813.91;  138.200;    0.000;    0.000;138.20000
 814.10;  179.200;    0.000;    0.000;179.20000
 814.29;  166.200;    0.000;    0.000;166.20000
 814.48;  138.200;    0.000;    0.000;138.20000
 814.67;  143.200;    0.000;    0.000;143.20000
 814.86;  140.200;    0.000;    0.000;140.20000
 815.04;  153.200;    0.000;    0.000;153.20000
 815.23;  154.200;    0.000;    0.000;154.20000
 815.42;  168.200;    0.000;    0.000;168.20000
 815.61;  143.200;    0.000;    0.000;143.20000
 815.80;  121.200;    0.000;    0.000;121.20000
 815.98;  176.200;    0.000;    0.000;176.20000
 816.17;  148.200;    0.000;    0.000;148.20000
 816.36;  185.200;    0.000;    0.000;185.20000
 816.55;  149.200;    0.000;    0.000;149.20000
 816.74;  164.200;    0.000;    0.000;164.20000
 816.92;  153.200;    0.000;    0.000;153.20000
 817.11;  137.200;    0.000;    0.000;137.20000
 817.30;  154.200;    0.000;    0.000;154.20000
 817.49;  188.200;    0.000;    0.000;188.20000
 817.67;  149.200;    0.000;    0.000;149.20000
 817.86;  174.200;    0.000;    0.000;174.20000
 818.05;  166.200;    0.000;    0.000;166.20000
 818.24;  156.200;    0.000;    0.000;156.20000
 818.43;  139.200;    0.000;    0.000;139.20000
 818.61;  122.200;    0.000;    0.000;122.20000
 818.80;  170.200;    0.000;    0.000;170.20000
 818.99;  156.200;    0.000;    0.000;156.20000
 819.18;  109.200;    0.000;    0.000;109.20000
 819.36;  175.200;    0.000;    0.000;175.20000
 819.55;  106.200;    0.000;    0.000;106.20000
 819.74;  152.200;    0.000;    0.000;152.20000
 819.93;  177.200;    0.000;    0.000;177.20000
 820.11;  138.200;    0.000;    0.000;138.20000
 820.30;  149.200;    0.000;    0.000;149.20000
 820.49;  142.200;    0.000;    0.000;142.20000
 820.68;  155.200;    0.000;    0.000;155.20000
 820.86;  138.200;    0.000;    0.000;138.20000
 821.05;  130.200;    0.000;    0.000;130.20000
 821.24;  114.200;    0.000;    0.000;114.20000
 821.43;  156.200;    0.000;    0.000;156.20000
 821.61;  147.200;    0.000;    0.000;147.20000
 821.80;  118.200;    0.000;    0.000;118.20000
 821.99;  122.200;    0.000;    0.000;122.20000
 822.18;  104.200;    0.000;    0.000;104.20000
 822.36;  111.200;    0.000;    0.000;111.20000
 822.55;  127.200;    0.000;    0.000;127.20000
 822.74;  122.200;    0.000;    0.000;122.20000
 822.92;  152.200;    0.000;    0.000;152.20000
 823.11;  117.200;    0.000;    0.000;117.20000
 823.30;  105.200;    0.000;    0.000;105.20000
 823.49;   99.200;    0.000;    0.000;99.20000
 823.67;  120.200;    0.000;    0.000;120.20000
 823.86;  139.200;    0.000;    0.000;139.20000
 824.05;  124.200;    0.000;    0.000;124.20000
 824.23;  134.200;    0.000;    0.000;134.20000
 824.42;   95.200;    0.000;    0.000;95.20000
 824.61;  149.200;    0.000;    0.000;149.20000
 824.80;  115.200;    0.000;    0.000;115.20000
 824.98;  173.200;    0.000;    0.000;173.20000
 825.17;  122.200;    0.000;    0.000;122.20000
 825.36;  159.200;    0.000;    0.000;159.20000
 825.54;  112.200;    0.000;    0.000;112.20000
 825.73;  123.200;    0.000;    0.000;123.20000
 825.92;  122.200;    0.000;    0.000;122.20000
 826.10;  196.200;    0.000;    0.000;196.20000
 826.29;  169.200;    0.000;    0.000;169.20000
 826.48;  155.200;    0.000;    0.000;155.20000
 826.66;  139.200;    0.000;    0.000;139.20000
 826.85;  128.200;    0.000;    0.000;128.20000
 827.04;  153.200;    0.000;    0.000;153.20000
 827.22;  136.200;    0.000;    0.000;136.20000
 827.41;  185.200;    0.000;    0.000;185.20000
 827.60;  149.200;    0.000;    0.000;149.20000
 827.78;  171.200;    0.000;    0.000;171.20000
 827.97;  128.200;    0.000;    0.000;128.20000
 828.16;  145.200;    0.000;    0.000;145.20000
 828.34;  120.200;    0.000;    0.000;120.20000
 828.53;  110.200;    0.000;    0.000;110.20000
 828.72;  135.200;    0.000;    0.000;135.20000
 828.90;  115.200;    0.000;    0.000;115.20000
 829.09;  192.200;    0.000;    0.000;192.20000
 829.28;  157.200;    0.000;    0.000;157.20000
 829.46;  142.200;    0.000;    0.000;142.20000
 829.65;  163.200;    0.000;    0.000;163.20000
 829.84;  163.200;    0.000;    0.000;163.20000
 830.02;  143.200;    0.000;    0.000;143.20000
 830.21;  146.200;    0.000;    0.000;146.20000
 830.40;  140.200;    0.000;    0.000;140.20000
 830.58;  111.200;    0.000;    0.000;111.20000
 830.77;  117.200;    0.000;    0.000;117.20000
 830.95;  175.200;    0.000;    0.000;175.20000
 831.14;  112.200;    0.000;    0.000;112.20000
 831.33;  141.200;    0.000;    0.000;141.20000
 831.51;  191.200;    0.000;    0.000;191.20000
 831.70;  182.200;    0.000;    0.000;182.20000
 831.89;  169.200;    0.000;    0.000;169.20000
 832.07;  139.200;    0.000;    0.000;139.20000
 832.26;  130.200;    0.000;    0.000;130.20000
 832.44;  133.200;    0.000;    0.000;133.20000
 832.63;  152.200;    0.000;    0.000;152.20000
 832.82;  132.200;    0.000;    0.000;132.20000
 833.00;  121.200;    0.000;    0.000;121.20000
 833.19;  160.200;    0.000;    0.000;160.20000
 833.37;  168.200;    0.000;    0.000;168.20000
 833.56;  147.200;    0.000;    0.000;147.20000
 833.75;  169.200;    0.000;    0.000;169.20000
 833.93;  152.200;    0.000;    0.000;152.20000
 834.12;  103.200;    0.000;    0.000;103.20000
 834.30;  135.200;    0.000;    0.000;135.20000
 834.49;  137.200;    0.000;    0.000;137.20000
 834.68;  134.200;    0.000;    0.000;134.20000
 834.86;  141.200;    0.000;    0.000;141.20000
 835.05;  173.200;    0.000;    0.000;173.20000
 835.23;   97.200;    0.000;    0.000;97.20000
 835.42;  154.200;    0.000;    0.000;154.20000
 835.60;  126.200;    0.000;    0.000;126.20000
 835.79;  120.200;    0.000;    0.000;120.20000
 835.98;  146.200;    0.000;    0.000;146.20000
 836.16;  170.200;    0.000;    0.000;170.20000
 836.35;  126.200;    0.000;    0.000;126.20000
 836.53;  142.200;    0.000;    0.000;142.20000
 836.72;  133.200;    0.000;    0.000;133.20000
 836.90;  196.200;    0.000;    0.000;196.20000
 837.09;  134.200;    0.000;    0.000;134.20000
 837.27;  162.200;    0.000;    0.000;162.20000
 837.46;  142.200;    0.000;    0.000;142.20000
 837.65;  168.200;    0.000;    0.000;168.20000
 837.83;  155.200;    0.000;    0.000;155.20000
 838.02;  182.200;    0.000;    0.000;182.20000
 838.20;  126.200;    0.000;    0.000;126.20000
 838.39;  200.200;    0.000;    0.000;200.20000
 838.57;  147.200;    0.000;    0.000;147.20000
 838.76;  163.200;    0.000;    0.000;163.20000
 838.94;  156.200;    0.000;    0.000;156.20000
 839.13;  146.200;    0.000;    0.000;146.20000
 839.31;  149.200;    0.000;    0.000;149.20000
 839.50;  161.200;    0.000;    0.000;161.20000
 839.69;  121.200;    0.000;    0.000;121.20000
 839.87;  179.200;    0.000;    0.000;179.20000
 840.06;  122.200;    0.000;    0.000;122.20000
 840.24;  146.200;    0.000;    0.000;146.20000
 840.43;  164.200;    0.000;    0.000;164.20000
 840.61;  170.200;    0.000;    0.000;170.20000
 840.80;  161.200;    0.000;    0.000;161.20000
 840.98;  148.200;    0.000;    0.000;148.20000
 841.17;  134.200;    0.000;    0.000;134.20000
 841.35;  141.200;    0.000;    0.000;141.20000
 841.54;  152.200;    0.000;    0.000;152.20000
 841.72;  168.200;    0.000;    0.000;168.20000
 841.91;  167.200;    0.000;    0.000;167.20000
 842.09;  142.200;    0.000;    0.000;142.20000
 842.28;  152.200;    0.000;    0.000;152.20000
 842.46;  165.200;    0.000;    0.000;165.20000
 842.65;  147.200;    0.000;    0.000;147.20000
 842.83;  163.200;    0.000;    0.000;163.20000
 843.02;  178.200;    0.000;    0.000;178.20000
 843.20;  163.200;    0.000;    0.000;163.20000
 843.39;  124.200;    0.000;    0.000;124.20000
 843.57;  175.200;    0.000;    0.000;175.20000
 843.76;  189.200;    0.000;    0.000;189.20000
 843.94;  100.200;    0.000;    0.000;100.20000
 844.12;  173.200;    0.000;    0.000;173.20000
 844.31;  213.200;    0.000;    0.000;213.20000
 844.49;  169.200;    0.000;    0.000;169.20000
 844.68;  182.200;    0.000;    0.000;182.20000
 844.86;  157.200;    0.000;    0.000;157.20000
 845.05;  154.200;    0.000;    0.000;154.20000
 845.23;  206.200;    0.000;    0.000;206.20000
 845.42;  122.200;    0.000;    0.000;122.20000
 845.60;  162.200;    0.000;    0.000;162.20000
 845.79;  144.200;    0.000;    0.000;144.20000
 845.97;  192.200;    0.000;    0.000;192.20000
 846.16;  132.200;    0.000;    0.000;132.20000
 846.34;  158.200;    0.000;    0.000;158.20000
 846.52;  172.200;    0.000;    0.000;172.20000
 846.71;  115.200;    0.000;    0.000;115.20000
 846.89;  137.200;    0.000;    0.000;137.20000
 847.08;  153.200;    0.000;    0.000;153.20000
 847.26;  162.200;    0.000;    0.000;162.20000
 847.45;   89.200;    0.000;    0.000;89.20000
 847.63;  143.200;    0.000;    0.000;143.20000
 847.82;  136.200;    0.000;    0.000;136.20000
 848.00;  134.200;    0.000;    0.000;134.20000
 848.18;  144.200;    0.000;    0.000;144.20000
 848.37;  170.200;    0.000;    0.000;170.20000
 848.55;  147.200;    0.000;    0.000;147.20000
 848.74;  185.200;    0.000;    0.000;185.20000
 848.92;  154.200;    0.000;    0.000;154.20000
 849.10;  173.200;    0.000;    0.000;173.20000
 849.29;  166.200;    0.000;    0.000;166.20000
 849.47;  133.200;    0.000;    0.000;133.20000
 849.66;  142.200;    0.000;    0.000;142.20000
 849.84;  176.200;    0.000;    0.000;176.20000
 850.03;  164.200;    0.000;    0.000;164.20000
 850.21;  140.200;    0.000;    0.000;140.20000
 850.39;  112.200;    0.000;    0.000;112.20000
 850.58;  166.200;    0.000;    0.000;166.20000
 850.76;  181.200;    0.000;    0.000;181.20000
 850.95;  129.200;    0.000;    0.000;129.20000
 851.13;  187.200;    0.000;    0.000;187.20000
 851.31;  171.200;    0.000;    0.000;171.20000
 851.50;  134.200;    0.000;    0.000;134.20000
 851.68;  172.200;    0.000;    0.000;172.20000
 851.86;  184.200;    0.000;    0.000;184.20000
 852.05;  137.200;    0.000;    0.000;137.20000
 852.23;  169.200;    0.000;    0.000;169.20000
 852.42;  176.200;    0.000;    0.000;176.20000
 852.60;  163.200;    0.000;    0.000;163.20000
 852.78;  155.200;    0.000;    0.000;155.20000
 852.97;  210.200;    0.000;    0.000;210.20000
 853.15;  188.200;    0.000;    0.000;188.20000
 853.33;  181.200;    0.000;    0.000;181.20000
 853.52;  181.200;    0.000;    0.000;181.20000
 853.70;  177.200;    0.000;    0.000;177.20000
 853.88;  136.200;    0.000;    0.000;136.20000
 854.07;  135.200;    0.000;    0.000;135.20000
 854.25;  144.200;    0.000;    0.000;144.20000
 854.44;  162.200;    0.000;    0.000;162.20000
 854.62;  168.200;    0.000;    0.000;168.20000
 854.80;  171.200;    0.000;    0.000;171.20000
 854.99;  139.200;    0.000;    0.000;139.20000
 855.17;  175.200;    0.000;    0.000;175.20000
 855.35;  196.200;    0.000;    0.000;196.20000
 855.54;  149.200;    0.000;    0.000;149.20000
 855.72;  197.200;    0.000;    0.000;197.20000
 855.90;  165.200;    0.000;    0.000;165.20000
 856.09;  201.200;    0.000;    0.000;201.20000
 856.27;  151.200;    0.000;    0.000;151.20000
 856.45;  134.200;    0.000;    0.000;134.20000
 856.64;  140.200;    0.000;    0.000;140.20000
 856.82;  112.200;    0.000;    0.000;112.20000
 857.00;  160.200;    0.000;    0.000;160.20000
 857.19;  177.200;    0.000;    0.000;177.20000
 857.37;  168.200;    0.000;    0.000;168.20000
 857.55;  161.200;    0.000;    0.000;161.20000
 857.73;  207.200;    0.000;    0.000;207.20000
 857.92;  151.200;    0.000;    0.000;151.20000
 858.10;  156.200;    0.000;    0.000;156.20000
 858.28;  147.200;    0.000;    0.000;147.20000
 858.47;  156.200;    0.000;    0.000;156.20000
 858.65;  173.200;    0.000;    0.000;173.20000
 858.83;  141.200;    0.000;    0.000;141.20000
 859.02;  155.200;    0.000;    0.000;155.20000
 859.20;  153.200;    0.000;    0.000;153.20000
 859.38;  141.200;    0.000;    0.000;141.20000
 859.56;  156.200;    0.000;    0.000;156.20000
 859.75;  128.200;    0.000;    0.000;128.20000
 859.93;  123.200;    0.000;    0.000;123.20000
 860.11;  158.200;    0.000;    0.000;158.20000
 860.30;  196.200;    0.000;    0.000;196.20000
 860.48;  137.200;    0.000;    0.000;137.20000
 860.66;  183.200;    0.000;    0.000;183.20000
 860.84;  181.200;    0.000;    0.000;181.20000
 861.03;  140.200;    0.000;    0.000;140.20000
 861.21;  179.200;    0.000;    0.000;179.20000
 861.39;  150.200;    0.000;    0.000;150.20000
 861.57;  175.200;    0.000;    0.000;175.20000
 861.76;  144.200;    0.000;    0.000;144.20000
 861.94;  169.200;    0.000;    0.000;169.20000
 862.12;  159.200;    0.000;    0.000;159.20000
 862.30;  166.200;    0.000;    0.000;166.20000
 862.49;  141.200;    0.000;    0.000;141.20000
 862.67;  123.200;    0.000;    0.000;123.20000
 862.85;  132.200;    0.000;    0.000;132.20000
 863.03;  197.200;    0.000;    0.000;197.20000
 863.22;  130.200;    0.000;    0.000;130.20000
 863.40;  138.200;    0.000;    0.000;138.20000
 863.58;  157.200;    0.000;    0.000;157.20000
 863.76;  163.200;    0.000;    0.000;163.20000
 863.95;  152.200;    0.000;    0.000;152.20000
 864.13;  168.200;    0.000;    0.000;168.20000
 864.31;  102.200;    0.000;    0.000;102.20000
 864.49;  156.200;    0.000;    0.000;156.20000
 864.68;  159.200;    0.000;    0.000;159.20000
 864.86;  171.200;    0.000;    0.000;171.20000
 865.04;  159.200;    0.000;    0.000;159.20000
 865.22;  126.200;    0.000;    0.000;126.20000
 865.40;  173.200;    0.000;    0.000;173.20000
 865.59;  149.200;    0.000;    0.000;149.20000
 865.77;  185.200;    0.000;    0.000;185.20000
 865.95;  129.200;    0.000;    0.000;129.20000
 866.13;  186.200;    0.000;    0.000;186.20000
 866.31;  152.200;    0.000;    0.000;152.20000
 866.50;  142.200;    0.000;    0.000;142.20000
 866.68;  166.200;    0.000;    0.000;166.20000
 866.86;  176.200;    0.000;    0.000;176.20000
 867.04;  162.200;    0.000;    0.000;162.20000
 867.22;  147.200;    0.000;    0.000;147.20000
 867.41;  168.200;    0.000;    0.000;168.20000
 867.59;  174.200;    0.000;    0.000;174.20000
 867.77;  175.200;    0.000;    0.000;175.20000
 867.95;  156.200;    0.000;    0.000;156.20000
 868.13;  183.200;    0.000;    0.000;183.20000
 868.32;  163.200;    0.000;    0.000;163.20000
 868.50;  174.200;    0.000;    0.000;174.20000
 868.68;  177.200;    0.000;    0.000;177.20000
 868.86;  171.200;    0.000;    0.000;171.20000
 869.04;  173.200;    0.000;    0.000;173.20000
 869.22;  163.200;    0.000;    0.000;163.20000
 869.41;  172.200;    0.000;    0.000;172.20000
 869.59;  172.200;    0.000;    0.000;172.20000
 869.77;  161.200;    0.000;    0.000;161.20000
 869.95;  206.200;    0.000;    0.000;206.20000
 870.13;  121.200;    0.000;    0.000;121.20000
 870.31;  171.200;    0.000;    0.000;171.20000
 870.50;  165.200;    0.000;    0.000;165.20000
 870.68;  130.200;    0.000;    0.000;130.20000
 870.86;  150.200;    0.000;    0.000;150.20000
 871.04;  198.200;    0.000;    0.000;198.20000
 871.22;  155.200;    0.000;    0.000;155.20000
 871.40;  150.200;    0.000;    0.000;150.20000
 871.58;  186.200;    0.000;    0.000;186.20000
 871.77;  166.200;    0.000;    0.000;166.20000
 871.95;  178.200;    0.000;    0.000;178.20000
 872.13;  199.200;    0.000;    0.000;199.20000
 872.31;  130.200;    0.000;    0.000;130.20000
 872.49;  140.200;    0.000;    0.000;140.20000
 872.67;  152.200;    0.000;    0.000;152.20000
 872.85;  162.200;    0.000;    0.000;162.20000
 873.03;  161.200;    0.000;    0.000;161.20000
 873.22;  136.200;    0.000;    0.000;136.20000
 873.40;  137.200;    0.000;    0.000;137.20000
 873.58;  163.200;    0.000;    0.000;163.20000
 873.76;  180.200;    0.000;    0.000;180.20000
 873.94;  188.200;    0.000;    0.000;188.20000
 874.12;  155.200;    0.000;    0.000;155.20000
 874.30;  136.200;    0.000;    0.000;136.20000
 874.48;  149.200;    0.000;    0.000;149.20000
 874.66;  173.200;    0.000;    0.000;173.20000
 874.84;  147.200;    0.000;    0.000;147.20000
 875.03;  133.200;    0.000;    0.000;133.20000
 875.21;  151.200;    0.000;    0.000;151.20000
 875.39;  174.200;    0.000;    0.000;174.20000
 875.57;  182.200;    0.000;    0.000;182.20000
 875.75;  119.200;    0.000;    0.000;119.20000
 875.93;  186.200;    0.000;    0.000;186.20000
 876.11;  183.200;    0.000;    0.000;183.20000
 876.29;  198.200;    0.000;    0.000;198.20000
 876.47;  176.200;    0.000;    0.000;176.20000
 876.65;  181.200;    0.000;    0.000;181.20000
 876.83;  150.200;    0.000;    0.000;150.20000
 877.01;  187.200;    0.000;    0.000;187.20000
 877.20;  198.200;    0.000;    0.000;198.20000
 877.38;  161.200;    0.000;    0.000;161.20000
 877.56;  184.200;    0.000;    0.000;184.20000
 877.74;  178.200;    0.000;    0.000;178.20000
 877.92;  143.200;    0.000;    0.000;143.20000
 878.10;  178.200;    0.000;    0.000;178.20000
 878.28;  122.200;    0.000;    0.000;122.20000
 878.46;  179.200;    0.000;    0.000;179.20000
 878.64;  176.200;    0.000;    0.000;176.20000
 878.82;  141.200;    0.000;    0.000;141.20000
 879.00;  166.200;    0.000;    0.000;166.20000
 879.18;  120.200;    0.000;    0.000;120.20000
 879.36;  191.200;    0.000;    0.000;191.20000
 879.54;  133.200;    0.000;    0.000;133.20000
 879.72;  166.200;    0.000;    0.000;166.20000
 879.90;  190.200;    0.000;    0.000;190.20000
 880.08;  191.200;    0.000;    0.000;191.20000
 880.26;  155.200;    0.000;    0.000;155.20000
 880.44;  192.200;    0.000;    0.000;192.20000
 880.62;  156.200;    0.000;    0.000;156.20000
 880.80;  162.200;    0.000;    0.000;162.20000
 880.98;  197.200;    0.000;    0.000;197.20000
 881.16;  177.200;    0.000;    0.000;177.20000
 881.34;  173.200;    0.000;    0.000;173.20000
 881.52;  169.200;    0.000;    0.000;169.20000
 881.70;  146.200;    0.000;    0.000;146.20000
 881.88;  148.200;    0.000;    0.000;148.20000
 882.06;  176.200;    0.000;    0.000;176.20000
 882.24;  158.200;    0.000;    0.000;158.20000
 882.42;  166.200;    0.000;    0.000;166.20000
 882.60;  148.200;    0.000;    0.000;148.20000
 882.78;  173.200;    0.000;    0.000;173.20000
 882.96;  159.200;    0.000;    0.000;159.20000
 883.14;  154.200;    0.000;    0.000;154.20000
 883.32;  196.200;    0.000;    0.000;196.20000
 883.50;  185.200;    0.000;    0.000;185.20000
 883.68;  168.200;    0.000;    0.000;168.20000
 883.86;  139.200;    0.000;    0.000;139.20000
 884.04;  164.200;    0.000;    0.000;164.20000
 884.22;  147.200;    0.000;    0.000;147.20000
 884.40;  164.200;    0.000;    0.000;164.20000
 884.58;  165.200;    0.000;    0.000;165.20000
 884.76;  179.200;    0.000;    0.000;179.20000
 884.94;  191.200;    0.000;    0.000;191.20000
 885.12;  159.200;    0.000;    0.000;159.20000
 885.30;  157.200;    0.000;    0.000;157.20000
 885.48;  178.200;    0.000;    0.000;178.20000
 885.66;  169.200;    0.000;    0.000;169.20000
 885.84;  139.200;    0.000;    0.000;139.20000
 886.02;  187.200;    0.000;    0.000;187.20000
 886.20;  122.200;    0.000;    0.000;122.20000
 886.38;  140.200;    0.000;    0.000;140.20000
 886.56;  150.200;    0.000;    0.000;150.20000
 886.74;  153.200;    0.000;    0.000;153.20000
 886.92;  151.200;    0.000;    0.000;151.20000
 887.10;  184.200;    0.000;    0.000;184.20000
 887.27;  147.200;    0.000;    0.000;147.20000
 887.45;  160.200;    0.000;    0.000;160.20000
 887.63;  152.200;    0.000;    0.000;152.20000
 887.81;  209.200;    0.000;    0.000;209.20000
 887.99;  195.200;    0.000;    0.000;195.20000
 888.17;  145.200;    0.000;    0.000;145.20000
 888.35;  173.200;    0.000;    0.000;173.20000
 888.53;  159.200;    0.000;    0.000;159.20000
 888.71;  162.200;    0.000;    0.000;162.20000
 888.89;  157.200;    0.000;    0.000;157.20000
 889.07;  172.200;    0.000;    0.000;172.20000
 889.25;  216.200;    0.000;    0.000;216.20000
 889.43;  195.200;    0.000;    0.000;195.20000
 889.60;  200.200;    0.000;    0.000;200.20000
 889.78;  184.200;    0.000;    0.000;184.20000
 889.96;  127.200;    0.000;    0.000;127.20000
 890.14;  181.200;    0.000;    0.000;181.20000
 890.32;  149.200;    0.000;    0.000;149.20000
 890.50;  207.200;    0.000;    0.000;207.20000
 890.68;  157.200;    0.000;    0.000;157.20000
 890.86;  153.200;    0.000;    0.000;153.20000
 891.04;  192.200;    0.000;    0.000;192.20000
 891.21;  196.200;    0.000;    0.000;196.20000
 891.39;  165.200;    0.000;    0.000;165.20000
 891.57;  170.200;    0.000;    0.000;170.20000
 891.75;  196.200;    0.000;    0.000;196.20000
 891.93;  157.200;    0.000;    0.000;157.20000
 892.11;  147.200;    0.000;    0.000;147.20000
 892.29;  186.200;    0.000;    0.000;186.20000
 892.47;  174.200;    0.000;    0.000;174.20000
 892.64;  177.200;    0.000;    0.000;177.20000
 892.82;  142.200;    0.000;    0.000;142.20000
 893.00;  181.200;    0.000;    0.000;181.20000
 893.18;  172.200;    0.000;    0.000;172.20000
 893.36;  160.200;    0.000;    0.000;160.20000
 893.54;  154.200;    0.000;    0.000;154.20000
 893.72;  154.200;    0.000;    0.000;154.20000
 893.89;  166.200;    0.000;    0.000;166.20000
 894.07;  159.200;    0.000;    0.000;159.20000
 894.25;  171.200;    0.000;    0.000;171.20000
 894.43;  142.200;    0.000;    0.000;142.20000
 894.61;  170.200;    0.000;    0.000;170.20000
 894.79;  178.200;    0.000;    0.000;178.20000
 894.96;  177.200;    0.000;    0.000;177.20000
 895.14;  171.200;    0.000;    0.000;171.20000
 895.32;  202.200;    0.000;    0.000;202.20000
 895.50;  180.200;    0.000;    0.000;180.20000
 895.68;  210.200;    0.000;    0.000;210.20000
 895.86;  214.200;    0.000;    0.000;214.20000
 896.03;  191.200;    0.000;    0.000;191.20000
 896.21;  248.200;    0.000;    0.000;248.20000
 896.39;  189.200;    0.000;    0.000;189.20000
 896.57;  204.200;    0.000;    0.000;204.20000
 896.75;  206.200;    0.000;    0.000;206.20000
 896.92;  201.200;    0.000;    0.000;201.20000
 897.10;  171.200;    0.000;    0.000;171.20000
 897.28;  180.200;    0.000;    0.000;180.20000
 897.46;  153.200;    0.000;    0.000;153.20000
 897.64;  176.200;    0.000;    0.000;176.20000
 897.81;  176.200;    0.000;    0.000;176.20000
 897.99;  251.200;    0.000;    0.000;251.20000
 898.17;  179.200;    0.000;    0.000;179.20000
 898.35;  162.200;    0.000;    0.000;162.20000
 898.53;  179.200;    0.000;    0.000;179.20000
 898.70;  227.200;    0.000;    0.000;227.20000
 898.88;  225.200;    0.000;    0.000;225.20000
 899.06;  199.200;    0.000;    0.000;199.20000
 899.24;  190.200;    0.000;    0.000;190.20000
 899.41;  199.200;    0.000;    0.000;199.20000
 899.59;  159.200;    0.000;    0.000;159.20000
 899.77;  186.200;    0.000;    0.000;186.20000
 899.95;  185.200;    0.000;    0.000;185.20000
 900.13;  192.200;    0.000;    0.000;192.20000
 900.30;  181.200;    0.000;    0.000;181.20000
 900.48;  177.200;    0.000;    0.000;177.20000
 900.66;  208.200;    0.000;    0.000;208.20000
 900.84;  178.200;    0.000;    0.000;178.20000
 901.01;  193.200;    0.000;    0.000;193.20000
 901.19;  192.200;    0.000;    0.000;192.20000
 901.37;  194.200;    0.000;    0.000;194.20000
 901.55;  189.200;    0.000;    0.000;189.20000
 901.72;  166.200;    0.000;    0.000;166.20000
 901.90;  208.200;    0.000;    0.000;208.20000
 902.08;  185.200;    0.000;    0.000;185.20000
 902.26;  156.200;    0.000;    0.000;156.20000
 902.43;  190.200;    0.000;    0.000;190.20000
 902.61;  174.200;    0.000;    0.000;174.20000
 902.79;  193.200;    0.000;    0.000;193.20000
 902.96;  226.200;    0.000;    0.000;226.20000
 903.14;  191.200;    0.000;    0.000;191.20000
 903.32;  244.200;    0.000;    0.000;244.20000
 903.50;  186.200;    0.000;    0.000;186.20000
 903.67;  222.200;    0.000;    0.000;222.20000
 903.85;  168.200;    0.000;    0.000;168.20000
 904.03;  241.200;    0.000;    0.000;241.20000
 904.20;  197.200;    0.000;    0.000;197.20000
 904.38;  170.200;    0.000;    0.000;170.20000
 904.56;  174.200;    0.000;    0.000;174.20000
 904.74;  225.200;    0.000;    0.000;225.20000
 904.91;  214.200;    0.000;    0.000;214.20000
 905.09;  182.200;    0.000;    0.000;182.20000
 905.27;  182.200;    0.000;    0.000;182.20000
 905.44;  234.200;    0.000;    0.000;234.20000
 905.62;  176.200;    0.000;    0.000;176.20000
 905.80;  208.200;    0.000;    0.000;208.20000
 905.97;  182.200;    0.000;    0.000;182.20000
 906.15;  164.200;    0.000;    0.000;164.20000
 906.33;  200.200;    0.000;    0.000;200.20000
 906.50;  177.200;    0.000;    0.000;177.20000
 906.68;  203.200;    0.000;    0.000;203.20000
 906.86;  186.200;    0.000;    0.000;186.20000
 907.03;  223.200;    0.000;    0.000;223.20000
 907.21;  167.200;    0.000;    0.000;167.20000
 907.39;  194.200;    0.000;    0.000;194.20000
 907.56;  191.200;    0.000;    0.000;191.20000
 907.74;  210.200;    0.000;    0.000;210.20000
 907.92;  205.200;    0.000;    0.000;205.20000
 908.09;  189.200;    0.000;    0.000;189.20000
 908.27;  168.200;    0.000;    0.000;168.20000
 908.45;  193.200;    0.000;    0.000;193.20000
 908.62;  190.200;    0.000;    0.000;190.20000
 908.80;  198.200;    0.000;    0.000;198.20000
 908.98;  166.200;    0.000;    0.000;166.20000
 909.15;  189.200;    0.000;    0.000;189.20000
 909.33;  210.200;    0.000;    0.000;210.20000
 909.51;  184.200;    0.000;    0.000;184.20000
 909.68;  176.200;    0.000;    0.000;176.20000
 909.86;  158.200;    0.000;    0.000;158.20000
 910.03;  190.200;    0.000;    0.000;190.20000
 910.21;  210.200;    0.000;    0.000;210.20000
 910.39;  181.200;    0.000;    0.000;181.20000
 910.56;  157.200;    0.000;    0.000;157.20000
 910.74;  184.200;    0.000;    0.000;184.20000
 910.92;  204.200;    0.000;    0.000;204.20000
 911.09;  190.200;    0.000;    0.000;190.20000
 911.27;  186.200;    0.000;    0.000;186.20000
 911.44;  174.200;    0.000;    0.000;174.20000
 911.62;  191.200;    0.000;    0.000;191.20000
 911.80;  181.200;    0.000;    0.000;181.20000
 911.97;  172.200;    0.000;    0.000;172.20000
 912.15;  176.200;    0.000;    0.000;176.20000
 912.32;  182.200;    0.000;    0.000;182.20000
 912.50;  217.200;    0.000;    0.000;217.20000
 912.68;  180.200;    0.000;    0.000;180.20000
 912.85;  201.200;    0.000;    0.000;201.20000
 913.03;  181.200;    0.000;    0.000;181.20000
 913.20;  202.200;    0.000;    0.000;202.20000
 913.38;  200.200;    0.000;    0.000;200.20000
 913.55;  219.200;    0.000;    0.000;219.20000
 913.73;  218.200;    0.000;    0.000;218.20000
 913.91;  164.200;    0.000;    0.000;164.20000
 914.08;  208.200;    0.000;    0.000;208.20000
 914.26;  209.200;    0.000;    0.000;209.20000
 914.43;  185.200;    0.000;    0.000;185.20000
 914.61;  188.200;    0.000;    0.000;188.20000
 914.78;  171.200;    0.000;    0.000;171.20000
 914.96;  217.200;    0.000;    0.000;217.20000
 915.14;  164.200;    0.000;    0.000;164.20000
 915.31;  208.200;    0.000;    0.000;208.20000
 915.49;  151.200;    0.000;    0.000;151.20000
 915.66;  237.200;    0.000;    0.000;237.20000
 915.84;  172.200;    0.000;    0.000;172.20000
 916.01;  209.200;    0.000;    0.000;209.20000
 916.19;  209.200;    0.000;    0.000;209.20000
 916.36;  203.200;    0.000;    0.000;203.20000
 916.54;  182.200;    0.000;    0.000;182.20000
 916.71;  173.200;    0.000;    0.000;173.20000
 916.89;  210.200;    0.000;    0.000;210.20000
 917.07;  164.200;    0.000;    0.000;164.20000
 917.24;  191.200;    0.000;    0.000;191.20000
 917.42;  196.200;    0.000;    0.000;196.20000
 917.59;  226.200;    0.000;    0.000;226.20000
 917.77;  214.200;    0.000;    0.000;214.20000
 917.94;  173.200;    0.000;    0.000;173.20000
 918.12;  205.200;    0.000;    0.000;205.20000
 918.29;  167.200;    0.000;    0.000;167.20000
 918.47;  166.200;    0.000;    0.000;166.20000
 918.64;  192.200;    0.000;    0.000;192.20000
 918.82;  166.200;    0.000;    0.000;166.20000
 918.99;  142.200;    0.000;    0.000;142.20000
 919.17;  181.200;    0.000;    0.000;181.20000
 919.34;  212.200;    0.000;    0.000;212.20000
 919.52;  199.200;    0.000;    0.000;199.20000
 919.69;  182.200;    0.000;    0.000;182.20000
 919.87;  220.200;    0.000;    0.000;220.20000
 920.04;  146.200;    0.000;    0.000;146.20000
 920.22;  213.200;    0.000;    0.000;213.20000
 920.39;  197.200;    0.000;    0.000;197.20000
 920.57;  158.200;    0.000;    0.000;158.20000
 920.74;  235.200;    0.000;    0.000;235.20000
 920.92;  216.200;    0.000;    0.000;216.20000
 921.09;  168.200;    0.000;    0.000;168.20000
 921.26;  176.200;    0.000;    0.000;176.20000
 921.44;  208.200;    0.000;    0.000;208.20000
 921.61;  223.200;    0.000;    0.000;223.20000
 921.79;  155.200;    0.000;    0.000;155.20000
 921.96;  229.200;    0.000;    0.000;229.20000
 922.14;  179.200;    0.000;    0.000;179.20000
 922.31;  173.200;    0.000;    0.000;173.20000
 922.49;  227.200;    0.000;    0.000;227.20000
 922.66;  247.200;    0.000;    0.000;247.20000
 922.84;  214.200;    0.000;    0.000;214.20000
 923.01;  175.200;    0.000;    0.000;175.20000
 923.18;  232.200;    0.000;    0.000;232.20000
 923.36;  187.200;    0.000;    0.000;187.20000
 923.53;  209.200;    0.000;    0.000;209.20000
 923.71;  234.200;    0.000;    0.000;234.20000
 923.88;  199.200;    0.000;    0.000;199.20000
 924.06;  209.200;    0.000;    0.000;209.20000
 924.23;  195.200;    0.000;    0.000;195.20000
 924.41;  214.200;    0.000;    0.000;214.20000
 924.58;  204.200;    0.000;    0.000;204.20000
 924.75;  203.200;    0.000;    0.000;203.20000
 924.93;  216.200;    0.000;    0.000;216.20000
 925.10;  181.200;    0.000;    0.000;181.20000
 925.28;  194.200;    0.000;    0.000;194.20000
 925.45;  189.200;    0.000;    0.000;189.20000
 925.62;  205.200;    0.000;    0.000;205.20000
 925.80;  203.200;    0.000;    0.000;203.20000
 925.97;  182.200;    0.000;    0.000;182.20000
 926.15;  200.200;    0.000;    0.000;200.20000
 926.32;  140.200;    0.000;    0.000;140.20000
 926.49;  210.200;    0.000;    0.000;210.20000
 926.67;  181.200;    0.000;    0.000;181.20000
 926.84;  214.200;    0.000;    0.000;214.20000
 927.02;  217.200;    0.000;    0.000;217.20000
 927.19;  191.200;    0.000;    0.000;191.20000
 927.36;  236.200;    0.000;    0.000;236.20000
 927.54;  208.200;    0.000;    0.000;208.20000
 927.71;  198.200;    0.000;    0.000;198.20000
 927.88;  154.200;    0.000;    0.000;154.20000
 928.06;  167.200;    0.000;    0.000;167.20000
 928.23;  227.200;    0.000;    0.000;227.20000
 928.41;  151.200;    0.000;    0.000;151.20000
 928.58;  162.200;    0.000;    0.000;162.20000
 928.75;  220.200;    0.000;    0.000;220.20000
 928.93;  179.200;    0.000;    0.000;179.20000
 929.10;  195.200;    0.000;    0.000;195.20000
 929.27;  167.200;    0.000;    0.000;167.20000
 929.45;  186.200;    0.000;    0.000;186.20000
 929.62;  191.200;    0.000;    0.000;191.20000
 929.79;  157.200;    0.000;    0.000;157.20000
 929.97;  187.200;    0.000;    0.000;187.20000
 930.14;  185.200;    0.000;    0.000;185.20000
 930.31;  154.200;    0.000;    0.000;154.20000
 930.49;  187.200;    0.000;    0.000;187.20000
 930.66;  188.200;    0.000;    0.000;188.20000
 930.83;  197.200;    0.000;    0.000;197.20000
 931.01;  204.200;    0.000;    0.000;204.20000
 931.18;  192.200;    0.000;    0.000;192.20000
 931.35;  191.200;    0.000;    0.000;191.20000
 931.53;  167.200;    0.000;    0.000;167.20000
 931.70;  168.200;    0.000;    0.000;168.20000
 931.87;  177.200;    0.000;    0.000;177.20000
 932.05;  191.200;    0.000;    0.000;191.20000
 932.22;  175.200;    0.000;    0.000;175.20000
 932.39;  163.200;    0.000;    0.000;163.20000
 932.57;  201.200;    0.000;    0.000;201.20000
 932.74;  198.200;    0.000;    0.000;198.20000
 932.91;  187.200;    0.000;    0.000;187.20000
 933.09;  209.200;    0.000;    0.000;209.20000
 933.26;  175.200;    0.000;    0.000;175.20000
 933.43;  190.200;    0.000;    0.000;190.20000
 933.60;  180.200;    0.000;    0.000;180.20000
 933.78;  211.200;    0.000;    0.000;211.20000
 933.95;  200.200;    0.000;    0.000;200.20000
 934.12;  181.200;    0.000;    0.000;181.20000
 934.30;  190.200;    0.000;    0.000;190.20000
 934.47;  183.200;    0.000;    0.000;183.20000
 934.64;  165.200;    0.000;    0.000;165.20000
 934.81;  213.200;    0.000;    0.000;213.20000
 934.99;  178.200;    0.000;    0.000;178.20000
 935.16;  184.200;    0.000;    0.000;184.20000
 935.33;  185.200;    0.000;    0.000;185.20000
 935.50;  194.200;    0.000;    0.000;194.20000
 935.68;  180.200;    0.000;    0.000;180.20000
 935.85;  182.200;    0.000;    0.000;182.20000
 936.02;  177.200;    0.000;    0.000;177.20000
 936.19;  204.200;    0.000;    0.000;204.20000
 936.37;  204.200;    0.000;    0.000;204.20000
 936.54;  203.200;    0.000;    0.000;203.20000
 936.71;  210.200;    0.000;    0.000;210.20000
 936.88;  190.200;    0.000;    0.000;190.20000
 937.06;  155.200;    0.000;    0.000;155.20000
 937.23;  147.200;    0.000;    0.000;147.20000
 937.40;  143.200;    0.000;    0.000;143.20000
 937.57;  198.200;    0.000;    0.000;198.20000
 937.75;  176.200;    0.000;    0.000;176.20000
 937.92;  179.200;    0.000;    0.000;179.20000
 938.09;  191.200;    0.000;    0.000;191.20000
 938.26;  189.200;    0.000;    0.000;189.20000
 938.44;  166.200;    0.000;    0.000;166.20000
 938.61;  185.200;    0.000;    0.000;185.20000
 938.78;  195.200;    0.000;    0.000;195.20000
 938.95;  239.200;    0.000;    0.000;239.20000
 939.12;  182.200;    0.000;    0.000;182.20000
 939.30;  162.200;    0.000;    0.000;162.20000
 939.47;  134.200;    0.000;    0.000;134.20000
 939.64;  153.200;    0.000;    0.000;153.20000
 939.81;  201.200;    0.000;    0.000;201.20000
 939.98;  142.200;    0.000;    0.000;142.20000
 940.16;  224.200;    0.000;    0.000;224.20000
 940.33;  196.200;    0.000;    0.000;196.20000
 940.50;  160.200;    0.000;    0.000;160.20000
 940.67;  168.200;    0.000;    0.000;168.20000
 940.84;  158.200;    0.000;    0.000;158.20000
 941.02;  219.200;    0.000;    0.000;219.20000
 941.19;  159.200;    0.000;    0.000;159.20000
 941.36;  167.200;    0.000;    0.000;167.20000
 941.53;  141.200;    0.000;    0.000;141.20000
 941.70;  214.200;    0.000;    0.000;214.20000
 941.87;  151.200;    0.000;    0.000;151.20000
 942.05;  175.200;    0.000;    0.000;175.20000
 942.22;  139.200;    0.000;    0.000;139.20000
 942.39;  216.200;    0.000;    0.000;216.20000
 942.56;  152.200;    0.000;    0.000;152.20000
 942.73;  199.200;    0.000;    0.000;199.20000
 942.90;  185.200;    0.000;    0.000;185.20000
 943.08;  183.200;    0.000;    0.000;183.20000
 943.25;  139.200;    0.000;    0.000;139.20000
 943.42;  181.200;    0.000;    0.000;181.20000
 943.59;  185.200;    0.000;    0.000;185.20000
 943.76;  186.200;    0.000;    0.000;186.20000
 943.93;  203.200;    0.000;    0.000;203.20000
 944.10;  195.200;    0.000;    0.000;195.20000
 944.27;  172.200;    0.000;    0.000;172.20000
 944.45;  186.200;    0.000;    0.000;186.20000
 944.62;  172.200;    0.000;    0.000;172.20000
 944.79;  185.200;    0.000;    0.000;185.20000
 944.96;  165.200;    0.000;    0.000;165.20000
 945.13;  163.200;    0.000;    0.000;163.20000
 945.30;  240.200;    0.000;    0.000;240.20000
 945.47;  135.200;    0.000;    0.000;135.20000
 945.64;  154.200;    0.000;    0.000;154.20000
 945.82;  160.200;    0.000;    0.000;160.20000
 945.99;  207.200;    0.000;    0.000;207.20000
 946.16;  173.200;    0.000;    0.000;173.20000
 946.33;  185.200;    0.000;    0.000;185.20000
 946.50;  158.200;    0.000;    0.000;158.20000
 946.67;  147.200;    0.000;    0.000;147.20000
 946.84;  149.200;    0.000;    0.000;149.20000
 947.01;  210.200;    0.000;    0.000;210.20000
 947.18;  178.200;    0.000;    0.000;178.20000
 947.35;  200.200;    0.000;    0.000;200.20000
 947.53;  195.200;    0.000;    0.000;195.20000
 947.70;  168.200;    0.000;    0.000;168.20000
 947.87;  168.200;    0.000;    0.000;168.20000
 948.04;  160.200;    0.000;    0.000;160.20000
 948.21;  191.200;    0.000;    0.000;191.20000
 948.38;  193.200;    0.000;    0.000;193.20000
 948.55;  199.200;    0.000;    0.000;199.20000
 948.72;  157.200;    0.000;    0.000;157.20000
 948.89;  213.200;    0.000;    0.000;213.20000
 949.06;  191.200;    0.000;    0.000;191.20000
 949.23;  188.200;    0.000;    0.000;188.20000
 949.40;  191.200;    0.000;    0.000;191.20000
 949.57;  186.200;    0.000;    0.000;186.20000
 949.74;  186.200;    0.000;    0.000;186.20000
 949.91;  189.200;    0.000;    0.000;189.20000
 950.08;  179.200;    0.000;    0.000;179.20000
 950.25;  187.200;    0.000;    0.000;187.20000
 950.43;  200.200;    0.000;    0.000;200.20000
 950.60;  206.200;    0.000;    0.000;206.20000
 950.77;  194.200;    0.000;    0.000;194.20000
 950.94;  195.200;    0.000;    0.000;195.20000
 951.11;  179.200;    0.000;    0.000;179.20000
 951.28;  199.200;    0.000;    0.000;199.20000
 951.45;  204.200;    0.000;    0.000;204.20000
 951.62;  218.200;    0.000;    0.000;218.20000
 951.79;  173.200;    0.000;    0.000;173.20000
 951.96;  213.200;    0.000;    0.000;213.20000
 952.13;  187.200;    0.000;    0.000;187.20000
 952.30;  213.200;    0.000;    0.000;213.20000
 952.47;  224.200;    0.000;    0.000;224.20000
 952.64;  206.200;    0.000;    0.000;206.20000
 952.81;  206.200;    0.000;    0.000;206.20000
 952.98;  215.200;    0.000;    0.000;215.20000
 953.15;  212.200;    0.000;    0.000;212.20000
 953.32;  239.200;    0.000;    0.000;239.20000
 953.49;  180.200;    0.000;    0.000;180.20000
 953.66;  216.200;    0.000;    0.000;216.20000
 953.83;  211.200;    0.000;    0.000;211.20000
 954.00;  227.200;    0.000;    0.000;227.20000
 954.17;  215.200;    0.000;    0.000;215.20000
 954.34;  199.200;    0.000;    0.000;199.20000
 954.51;  239.200;    0.000;    0.000;239.20000
 954.68;  177.200;    0.000;    0.000;177.20000
 954.85;  247.200;    0.000;    0.000;247.20000
 955.02;  195.200;    0.000;    0.000;195.20000
 955.19;  201.200;    0.000;    0.000;201.20000
 955.36;  203.200;    0.000;    0.000;203.20000
 955.52;  160.200;    0.000;    0.000;160.20000
 955.69;  195.200;    0.000;    0.000;195.20000
 955.86;  207.200;    0.000;    0.000;207.20000
 956.03;  226.200;    0.000;    0.000;226.20000
 956.20;  239.200;    0.000;    0.000;239.20000
 956.37;  167.200;    0.000;    0.000;167.20000
 956.54;  233.200;    0.000;    0.000;233.20000
 956.71;  249.200;    0.000;    0.000;249.20000
 956.88;  208.200;    0.000;    0.000;208.20000
 957.05;  235.200;    0.000;    0.000;235.20000
 957.22;  237.200;    0.000;    0.000;237.20000
 957.39;  226.200;    0.000;    0.000;226.20000
 957.56;  230.200;    0.000;    0.000;230.20000
 957.73;  213.200;    0.000;    0.000;213.20000
 957.90;  217.200;    0.000;    0.000;217.20000
 958.07;  178.200;    0.000;    0.000;178.20000
 958.24;  186.200;    0.000;    0.000;186.20000
 958.40;  228.200;    0.000;    0.000;228.20000
 958.57;  230.200;    0.000;    0.000;230.20000
 958.74;  174.200;    0.000;    0.000;174.20000
 958.91;  202.200;    0.000;    0.000;202.20000
 959.08;  246.200;    0.000;    0.000;246.20000
 959.25;  185.200;    0.000;    0.000;185.20000
 959.42;  228.200;    0.000;    0.000;228.20000
 959.59;  210.200;    0.000;    0.000;210.20000
 959.76;  204.200;    0.000;    0.000;204.20000
 959.93;  226.200;    0.000;    0.000;226.20000
 960.09;  222.200;    0.000;    0.000;222.20000
 960.26;  205.200;    0.000;    0.000;205.20000
 960.43;  204.200;    0.000;    0.000;204.20000
 960.60;  181.200;    0.000;    0.000;181.20000
 960.77;  172.200;    0.000;    0.000;172.20000
 960.94;  182.200;    0.000;    0.000;182.20000
 961.11;  204.200;    0.000;    0.000;204.20000
 961.28;  215.200;    0.000;    0.000;215.20000
 961.44;  206.200;    0.000;    0.000;206.20000
 961.61;  173.200;    0.000;    0.000;173.20000
 961.78;  218.200;    0.000;    0.000;218.20000
 961.95;  229.200;    0.000;    0.000;229.20000
 962.12;  215.200;    0.000;    0.000;215.20000
 962.29;  182.200;    0.000;    0.000;182.20000
 962.46;  186.200;    0.000;    0.000;186.20000
 962.62;  200.200;    0.000;    0.000;200.20000
 962.79;  226.200;    0.000;    0.000;226.20000
 962.96;  205.200;    0.000;    0.000;205.20000
 963.13;  176.200;    0.000;    0.000;176.20000
 963.30;  198.200;    0.000;    0.000;198.20000
 963.47;  235.200;    0.000;    0.000;235.20000
 963.64;  184.200;    0.000;    0.000;184.20000
 963.80;  222.200;    0.000;    0.000;222.20000
 963.97;  191.200;    0.000;    0.000;191.20000
 964.14;  188.200;    0.000;    0.000;188.20000
 964.31;  193.200;    0.000;    0.000;193.20000
 964.48;  175.200;    0.000;    0.000;175.20000
 964.64;  204.200;    0.000;    0.000;204.20000
 964.81;  187.200;    0.000;    0.000;187.20000
 964.98;  189.200;    0.000;    0.000;189.20000
 965.15;  214.200;    0.000;    0.000;214.20000
 965.32;  183.200;    0.000;    0.000;183.20000
 965.49;  191.200;    0.000;    0.000;191.20000
 965.65;  217.200;    0.000;    0.000;217.20000
 965.82;  216.200;    0.000;    0.000;216.20000
 965.99;  198.200;    0.000;    0.000;198.20000
 966.16;  197.200;    0.000;    0.000;197.20000
 966.32;  189.200;    0.000;    0.000;189.20000
 966.49;  206.200;    0.000;    0.000;206.20000
 966.66;  177.200;    0.000;    0.000;177.20000
 966.83;  202.200;    0.000;    0.000;202.20000
 967.00;  210.200;    0.000;    0.000;210.20000
 967.16;  188.200;    0.000;    0.000;188.20000
 967.33;  238.200;    0.000;    0.000;238.20000
 967.50;  154.200;    0.000;    0.000;154.20000
 967.67;  210.200;    0.000;    0.000;210.20000
 967.84;  234.200;    0.000;    0.000;234.20000
 968.00;  177.200;    0.000;    0.000;177.20000
 968.17;  214.200;    0.000;    0.000;214.20000
 968.34;  210.200;    0.000;    0.000;210.20000
 968.51;  204.200;    0.000;    0.000;204.20000
 968.67;  216.200;    0.000;    0.000;216.20000
 968.84;  168.200;    0.000;    0.000;168.20000
 969.01;  222.200;    0.000;    0.000;222.20000
 969.18;  208.200;    0.000;    0.000;208.20000
 969.34;  185.200;    0.000;    0.000;185.20000
 969.51;  221.200;    0.000;    0.000;221.20000
 969.68;  147.200;    0.000;    0.000;147.20000
 969.85;  202.200;    0.000;    0.000;202.20000
 970.01;  215.200;    0.000;    0.000;215.20000
 970.18;  218.200;    0.000;    0.000;218.20000
 970.35;  178.200;    0.000;    0.000;178.20000
 970.51;  205.200;    0.000;    0.000;205.20000
 970.68;  194.200;    0.000;    0.000;194.20000
 970.85;  187.200;    0.000;    0.000;187.20000
 971.02;  214.200;    0.000;    0.000;214.20000
 971.18;  214.200;    0.000;    0.000;214.20000
 971.35;  228.200;    0.000;    0.000;228.20000
 971.52;  230.200;    0.000;    0.000;230.20000
 971.68;  221.200;    0.000;    0.000;221.20000
 971.85;  210.200;    0.000;    0.000;210.20000
 972.02;  210.200;    0.000;    0.000;210.20000
 972.19;  207.200;    0.000;    0.000;207.20000
 972.35;  244.200;    0.000;    0.000;244.20000
 972.52;  228.200;    0.000;    0.000;228.20000
 972.69;  216.200;    0.000;    0.000;216.20000
 972.85;  206.200;    0.000;    0.000;206.20000
 973.02;  191.200;    0.000;    0.000;191.20000
 973.19;  193.200;    0.000;    0.000;193.20000
 973.35;  217.200;    0.000;    0.000;217.20000
 973.52;  209.200;    0.000;    0.000;209.20000
 973.69;  196.200;    0.000;    0.000;196.20000
 973.85;  231.200;    0.000;    0.000;231.20000
 974.02;  222.200;    0.000;    0.000;222.20000
 974.19;  200.200;    0.000;    0.000;200.20000
 974.35;  238.200;    0.000;    0.000;238.20000
 974.52;  171.200;    0.000;    0.000;171.20000
 974.69;  197.200;    0.000;    0.000;197.20000
 974.85;  182.200;    0.000;    0.000;182.20000
 975.02;  197.200;    0.000;    0.000;197.20000
 975.19;  198.200;    0.000;    0.000;198.20000
 975.35;  189.200;    0.000;    0.000;189.20000
 975.52;  180.200;    0.000;    0.000;180.20000
 975.69;  186.200;    0.000;    0.000;186.20000
 975.85;  212.200;    0.000;    0.000;212.20000
 976.02;  212.200;    0.000;    0.000;212.20000
 976.18;  220.200;    0.000;    0.000;220.20000
 976.35;  189.200;    0.000;    0.000;189.20000
 976.52;  244.200;    0.000;    0.000;244.20000
 976.68;  233.200;    0.000;    0.000;233.20000
 976.85;  235.200;    0.000;    0.000;235.20000
 977.02;  197.200;    0.000;    0.000;197.20000
 977.18;  228.200;    0.000;    0.000;228.20000
 977.35;  159.200;    0.000;    0.000;159.20000
 977.51;  188.200;    0.000;    0.000;188.20000
 977.68;  245.200;    0.000;    0.000;245.20000
 977.85;  214.200;    0.000;    0.000;214.20000
 978.01;  227.200;    0.000;    0.000;227.20000
 978.18;  203.200;    0.000;    0.000;203.20000
 978.34;  203.200;    0.000;    0.000;203.20000
 978.51;  198.200;    0.000;    0.000;198.20000
 978.68;  196.200;    0.000;    0.000;196.20000
 978.84;  193.200;    0.000;    0.000;193.20000
 979.01;  205.200;    0.000;    0.000;205.20000
 979.17;  167.200;    0.000;    0.000;167.20000
 979.34;  206.200;    0.000;    0.000;206.20000
 979.51;  227.200;    0.000;    0.000;227.20000
 979.67;  214.200;    0.000;    0.000;214.20000
 979.84;  228.200;    0.000;    0.000;228.20000
 980.00;  235.200;    0.000;    0.000;235.20000
 980.17;  198.200;    0.000;    0.000;198.20000
 980.33;  199.200;    0.000;    0.000;199.20000
 980.50;  232.200;    0.000;    0.000;232.20000
 980.67;  211.200;    0.000;    0.000;211.20000
 980.83;  199.200;    0.000;    0.000;199.20000
 981.00;  210.200;    0.000;    0.000;210.20000
 981.16;  239.200;    0.000;    0.000;239.20000
 981.33;  223.200;    0.000;    0.000;223.20000
 981.49;  223.200;    0.000;    0.000;223.20000
 981.66;  209.200;    0.000;    0.000;209.20000
 981.82;  236.200;    0.000;    0.000;236.20000
 981.99;  227.200;    0.000;    0.000;227.20000
 982.15;  215.200;    0.000;    0.000;215.20000
 982.32;  249.200;    0.000;    0.000;249.20000
 982.48;  184.200;    0.000;    0.000;184.20000
 982.65;  277.200;    0.000;    0.000;277.20000
 982.82;  197.200;    0.000;    0.000;197.20000
 982.98;  221.200;    0.000;    0.000;221.20000
 983.15;  252.200;    0.000;    0.000;252.20000
 983.31;  223.200;    0.000;    0.000;223.20000
 983.48;  216.200;    0.000;    0.000;216.20000
 983.64;  174.200;    0.000;    0.000;174.20000
 983.81;  178.200;    0.000;    0.000;178.20000
 983.97;  269.200;    0.000;    0.000;269.20000
 984.14;  209.200;    0.000;    0.000;209.20000
 984.30;  203.200;    0.000;    0.000;203.20000
 984.47;  226.200;    0.000;    0.000;226.20000
 984.63;  216.200;    0.000;    0.000;216.20000
 984.80;  222.200;    0.000;    0.000;222.20000
 984.96;  210.200;    0.000;    0.000;210.20000
 985.13;  219.200;    0.000;    0.000;219.20000
 985.29;  220.200;    0.000;    0.000;220.20000
 985.46;  221.200;    0.000;    0.000;221.20000
 985.62;  202.200;    0.000;    0.000;202.20000
 985.78;  212.200;    0.000;    0.000;212.20000
 985.95;  211.200;    0.000;    0.000;211.20000
 986.11;  225.200;    0.000;    0.000;225.20000
 986.28;  220.200;    0.000;    0.000;220.20000
 986.44;  186.200;    0.000;    0.000;186.20000
 986.61;  251.200;    0.000;    0.000;251.20000
 986.77;  183.200;    0.000;    0.000;183.20000
 986.94;  272.200;    0.000;    0.000;272.20000
 987.10;  255.200;    0.000;    0.000;255.20000
 987.27;  204.200;    0.000;    0.000;204.20000
 987.43;  227.200;    0.000;    0.000;227.20000
 987.60;  203.200;    0.000;    0.000;203.20000
 987.76;  237.200;    0.000;    0.000;237.20000
 987.92;  223.200;    0.000;    0.000;223.20000
 988.09;  205.200;    0.000;    0.000;205.20000
 988.25;  215.200;    0.000;    0.000;215.20000
 988.42;  235.200;    0.000;    0.000;235.20000
 988.58;  218.200;    0.000;    0.000;218.20000
 988.75;  197.200;    0.000;    0.000;197.20000
 988.91;  188.200;    0.000;    0.000;188.20000
 989.07;  197.200;    0.000;    0.000;197.20000
 989.24;  223.200;    0.000;    0.000;223.20000
 989.40;  242.200;    0.000;    0.000;242.20000
 989.57;  220.200;    0.000;    0.000;220.20000
 989.73;  229.200;    0.000;    0.000;229.20000
 989.89;  218.200;    0.000;    0.000;218.20000
 990.06;  207.200;    0.000;    0.000;207.20000
 990.22;  184.200;    0.000;    0.000;184.20000
 990.39;  197.200;    0.000;    0.000;197.20000
 990.55;  176.200;    0.000;    0.000;176.20000
 990.71;  202.200;    0.000;    0.000;202.20000
 990.88;  149.200;    0.000;    0.000;149.20000
 991.04;  201.200;    0.000;    0.000;201.20000
 991.21;  226.200;    0.000;    0.000;226.20000
 991.37;  243.200;    0.000;    0.000;243.20000
 991.53;  170.200;    0.000;    0.000;170.20000
 991.70;  212.200;    0.000;    0.000;212.20000
 991.86;  224.200;    0.000;    0.000;224.20000
 992.02;  206.200;    0.000;    0.000;206.20000
 992.19;  177.200;    0.000;    0.000;177.20000
 992.35;  164.200;    0.000;    0.000;164.20000
 992.52;  181.200;    0.000;    0.000;181.20000
 992.68;  189.200;    0.000;    0.000;189.20000
 992.84;  176.200;    0.000;    0.000;176.20000
 993.01;  184.200;    0.000;    0.000;184.20000
 993.17;  235.200;    0.000;    0.000;235.20000
 993.33;  156.200;    0.000;    0.000;156.20000
 993.50;  206.200;    0.000;    0.000;206.20000
 993.66;  197.200;    0.000;    0.000;197.20000
 993.82;  183.200;    0.000;    0.000;183.20000
 993.99;  217.200;    0.000;    0.000;217.20000
 994.15;  153.200;    0.000;    0.000;153.20000
 994.31;  208.200;    0.000;    0.000;208.20000
 994.48;  202.200;    0.000;    0.000;202.20000
 994.64;  223.200;    0.000;    0.000;223.20000
 994.80;  198.200;    0.000;    0.000;198.20000
 994.97;  204.200;    0.000;    0.000;204.20000
 995.13;  205.200;    0.000;    0.000;205.20000
 995.29;  212.200;    0.000;    0.000;212.20000
 995.46;  201.200;    0.000;    0.000;201.20000
 995.62;  250.200;    0.000;    0.000;250.20000
 995.78;  199.200;    0.000;    0.000;199.20000
 995.95;  174.200;    0.000;    0.000;174.20000
 996.11;  189.200;    0.000;    0.000;189.20000
 996.27;  202.200;    0.000;    0.000;202.20000
 996.43;  198.200;    0.000;    0.000;198.20000
 996.60;  203.200;    0.000;    0.000;203.20000
 996.76;  200.200;    0.000;    0.000;200.20000
 996.92;  186.200;    0.000;    0.000;186.20000
 997.09;  220.200;    0.000;    0.000;220.20000
 997.25;  268.200;    0.000;    0.000;268.20000
 997.41;  197.200;    0.000;    0.000;197.20000
 997.57;  201.200;    0.000;    0.000;201.20000
 997.74;  210.200;    0.000;    0.000;210.20000
 997.90;  193.200;    0.000;    0.000;193.20000
 998.06;  161.200;    0.000;    0.000;161.20000
 998.22;  164.200;    0.000;    0.000;164.20000
 998.39;  212.200;    0.000;    0.000;212.20000
 998.55;  176.200;    0.000;    0.000;176.20000
 998.71;  204.200;    0.000;    0.000;204.20000
 998.87;  216.200;    0.000;    0.000;216.20000
 999.04;  207.200;    0.000;    0.000;207.20000
 999.20;  229.200;    0.000;    0.000;229.20000
 999.36;  201.200;    0.000;    0.000;201.20000
 999.52;  209.200;    0.000;    0.000;209.20000
 999.69;  173.200;    0.000;    0.000;173.20000
 999.85;  187.200;    0.000;    0.000;187.20000
1000.01;  202.200;    0.000;    0.000;202.20000
1000.17;  180.200;    0.000;    0.000;180.20000
1000.34;  184.200;    0.000;    0.000;184.20000
1000.50;  210.200;    0.000;    0.000;210.20000
1000.66;  209.200;    0.000;    0.000;209.20000
1000.82;  194.200;    0.000;    0.000;194.20000
1000.99;  181.200;    0.000;    0.000;181.20000
1001.15;  215.200;    0.000;    0.000;215.20000
1001.31;  216.200;    0.000;    0.000;216.20000
1001.47;  234.200;    0.000;    0.000;234.20000
1001.63;  234.200;    0.000;    0.000;234.20000
1001.80;  172.200;    0.000;    0.000;172.20000
1001.96;  187.200;    0.000;    0.000;187.20000
1002.12;  163.200;    0.000;    0.000;163.20000
1002.28;  214.200;    0.000;    0.000;214.20000
1002.44;  246.200;    0.000;    0.000;246.20000
1002.61;  193.200;    0.000;    0.000;193.20000
1002.77;  235.200;    0.000;    0.000;235.20000
1002.93;  211.200;    0.000;    0.000;211.20000
1003.09;  208.200;    0.000;    0.000;208.20000
1003.25;  210.200;    0.000;    0.000;210.20000
1003.41;  220.200;    0.000;    0.000;220.20000
1003.58;  185.200;    0.000;    0.000;185.20000
1003.74;  171.200;    0.000;    0.000;171.20000
1003.90;  213.200;    0.000;    0.000;213.20000
1004.06;  214.200;    0.000;    0.000;214.20000
1004.22;  235.200;    0.000;    0.000;235.20000
1004.38;  200.200;    0.000;    0.000;200.20000
1004.55;  213.200;    0.000;    0.000;213.20000
1004.71;  204.200;    0.000;    0.000;204.20000
1004.87;  232.200;    0.000;    0.000;232.20000
1005.03;  173.200;    0.000;    0.000;173.20000
1005.19;  191.200;    0.000;    0.000;191.20000
1005.35;  238.200;    0.000;    0.000;238.20000
1005.51;  199.200;    0.000;    0.000;199.20000
1005.68;  215.200;    0.000;    0.000;215.20000
1005.84;  216.200;    0.000;    0.000;216.20000
1006.00;  215.200;    0.000;    0.000;215.20000
1006.16;  204.200;    0.000;    0.000;204.20000
1006.32;  211.200;    0.000;    0.000;211.20000
1006.48;  223.200;    0.000;    0.000;223.20000
1006.64;  235.200;    0.000;    0.000;235.20000
1006.80;  195.200;    0.000;    0.000;195.20000
1006.97;  217.200;    0.000;    0.000;217.20000
1007.13;  243.200;    0.000;    0.000;243.20000
1007.29;  227.200;    0.000;    0.000;227.20000
1007.45;  239.200;    0.000;    0.000;239.20000
1007.61;  229.200;    0.000;    0.000;229.20000
1007.77;  226.200;    0.000;    0.000;226.20000
1007.93;  267.200;    0.000;    0.000;267.20000
1008.09;  193.200;    0.000;    0.000;193.20000
1008.25;  245.200;    0.000;    0.000;245.20000
1008.41;  186.200;    0.000;    0.000;186.20000
1008.57;  214.200;    0.000;    0.000;214.20000
1008.74;  217.200;    0.000;    0.000;217.20000
1008.90;  244.200;    0.000;    0.000;244.20000
1009.06;  256.200;    0.000;    0.000;256.20000
1009.22;  254.200;    0.000;    0.000;254.20000
1009.38;  240.200;    0.000;    0.000;240.20000
1009.54;  226.200;    0.000;    0.000;226.20000
1009.70;  225.200;    0.000;    0.000;225.20000
1009.86;  217.200;    0.000;    0.000;217.20000
1010.02;  226.200;    0.000;    0.000;226.20000
1010.18;  209.200;    0.000;    0.000;209.20000
1010.34;  198.200;    0.000;    0.000;198.20000
1010.50;  224.200;    0.000;    0.000;224.20000
1010.66;  218.200;    0.000;    0.000;218.20000
1010.82;  214.200;    0.000;    0.000;214.20000
1010.98;  244.200;    0.000;    0.000;244.20000
1011.14;  220.200;    0.000;    0.000;220.20000
1011.30;  259.200;    0.000;    0.000;259.20000
1011.46;  242.200;    0.000;    0.000;242.20000
1011.63;  214.200;    0.000;    0.000;214.20000
1011.79;  241.200;    0.000;    0.000;241.20000
1011.95;  191.200;    0.000;    0.000;191.20000
1012.11;  197.200;    0.000;    0.000;197.20000
1012.27;  238.200;    0.000;    0.000;238.20000
1012.43;  260.200;    0.000;    0.000;260.20000
1012.59;  216.200;    0.000;    0.000;216.20000
1012.75;  229.200;    0.000;    0.000;229.20000
1012.91;  238.200;    0.000;    0.000;238.20000
1013.07;  256.200;    0.000;    0.000;256.20000
1013.23;  209.200;    0.000;    0.000;209.20000
1013.39;  235.200;    0.000;    0.000;235.20000
1013.55;  222.200;    0.000;    0.000;222.20000
1013.71;  198.200;    0.000;    0.000;198.20000
1013.87;  241.200;    0.000;    0.000;241.20000
1014.03;  200.200;    0.000;    0.000;200.20000
1014.19;  205.200;    0.000;    0.000;205.20000
1014.35;  226.200;    0.000;    0.000;226.20000
1014.51;  250.200;    0.000;    0.000;250.20000
1014.67;  252.200;    0.000;    0.000;252.20000
1014.82;  235.200;    0.000;    0.000;235.20000
1014.98;  236.200;    0.000;    0.000;236.20000
1015.14;  248.200;    0.000;    0.000;248.20000
1015.30;  224.200;    0.000;    0.000;224.20000
1015.46;  215.200;    0.000;    0.000;215.20000
1015.62;  217.200;    0.000;    0.000;217.20000
1015.78;  217.200;    0.000;    0.000;217.20000
1015.94;  197.200;    0.000;    0.000;197.20000
1016.10;  227.200;    0.000;    0.000;227.20000
1016.26;  221.200;    0.000;    0.000;221.20000
1016.42;  220.200;    0.000;    0.000;220.20000
1016.58;  190.200;    0.000;    0.000;190.20000
1016.74;  226.200;    0.000;    0.000;226.20000
1016.90;  231.200;    0.000;    0.000;231.20000
1017.06;  204.200;    0.000;    0.000;204.20000
1017.22;  233.200;    0.000;    0.000;233.20000
1017.38;  216.200;    0.000;    0.000;216.20000
1017.54;  224.200;    0.000;    0.000;224.20000
1017.69;  193.200;    0.000;    0.000;193.20000
1017.85;  189.200;    0.000;    0.000;189.20000
1018.01;  212.200;    0.000;    0.000;212.20000
1018.17;  219.200;    0.000;    0.000;219.20000
1018.33;  223.200;    0.000;    0.000;223.20000
1018.49;  224.200;    0.000;    0.000;224.20000
1018.65;  218.200;    0.000;    0.000;218.20000
1018.81;  229.200;    0.000;    0.000;229.20000
1018.97;  209.200;    0.000;    0.000;209.20000
1019.13;  235.200;    0.000;    0.000;235.20000
1019.29;  227.200;    0.000;    0.000;227.20000
1019.44;  256.200;    0.000;    0.000;256.20000
1019.60;  228.200;    0.000;    0.000;228.20000
1019.76;  222.200;    0.000;    0.000;222.20000
1019.92;  215.200;    0.000;    0.000;215.20000
1020.08;  215.200;    0.000;    0.000;215.20000
1020.24;  221.200;    0.000;    0.000;221.20000
1020.40;  257.200;    0.000;    0.000;257.20000
1020.56;  216.200;    0.000;    0.000;216.20000
1020.71;  237.200;    0.000;    0.000;237.20000
1020.87;  237.200;    0.000;    0.000;237.20000
1021.03;  250.200;    0.000;    0.000;250.20000
1021.19;  214.200;    0.000;    0.000;214.20000
1021.35;  203.200;    0.000;    0.000;203.20000
1021.51;  194.200;    0.000;    0.000;194.20000
1021.67;  184.200;    0.000;    0.000;184.20000
1021.82;  212.200;    0.000;    0.000;212.20000
1021.98;  230.200;    0.000;    0.000;230.20000
1022.14;  223.200;    0.000;    0.000;223.20000
1022.30;  224.200;    0.000;    0.000;224.20000
1022.46;  207.200;    0.000;    0.000;207.20000
1022.62;  219.200;    0.000;    0.000;219.20000
1022.77;  216.200;    0.000;    0.000;216.20000
1022.93;  211.200;    0.000;    0.000;211.20000
1023.09;  209.200;    0.000;    0.000;209.20000
1023.25;  207.200;    0.000;    0.000;207.20000
1023.41;  229.200;    0.000;    0.000;229.20000
1023.56;  209.200;    0.000;    0.000;209.20000
1023.72;  189.200;    0.000;    0.000;189.20000
1023.88;  220.200;    0.000;    0.000;220.20000
1024.04;  221.200;    0.000;    0.000;221.20000
1024.20;  254.200;    0.000;    0.000;254.20000
1024.36;  242.200;    0.000;    0.000;242.20000
1024.51;  244.200;    0.000;    0.000;244.20000
1024.67;  233.200;    0.000;    0.000;233.20000
1024.83;  212.200;    0.000;    0.000;212.20000
1024.99;  214.200;    0.000;    0.000;214.20000
1025.14;  192.200;    0.000;    0.000;192.20000
1025.30;  205.200;    0.000;    0.000;205.20000
1025.46;  214.200;    0.000;    0.000;214.20000
1025.62;  205.200;    0.000;    0.000;205.20000
1025.78;  222.200;    0.000;    0.000;222.20000
1025.93;  219.200;    0.000;    0.000;219.20000
1026.09;  190.200;    0.000;    0.000;190.20000
1026.25;  218.200;    0.000;    0.000;218.20000
1026.41;  238.200;    0.000;    0.000;238.20000
1026.56;  264.200;    0.000;    0.000;264.20000
1026.72;  213.200;    0.000;    0.000;213.20000
1026.88;  208.200;    0.000;    0.000;208.20000
1027.04;  210.200;    0.000;    0.000;210.20000
1027.19;  240.200;    0.000;    0.000;240.20000
1027.35;  263.200;    0.000;    0.000;263.20000
1027.51;  258.200;    0.000;    0.000;258.20000
1027.67;  245.200;    0.000;    0.000;245.20000
1027.82;  228.200;    0.000;    0.000;228.20000
1027.98;  263.200;    0.000;    0.000;263.20000
1028.14;  245.200;    0.000;    0.000;245.20000
1028.30;  240.200;    0.000;    0.000;240.20000
1028.45;  240.200;    0.000;    0.000;240.20000
1028.61;  251.200;    0.000;    0.000;251.20000
1028.77;  223.200;    0.000;    0.000;223.20000
1028.92;  238.200;    0.000;    0.000;238.20000
1029.08;  227.200;    0.000;    0.000;227.20000
1029.24;  225.200;    0.000;    0.000;225.20000
1029.40;  247.200;    0.000;    0.000;247.20000
1029.55;  225.200;    0.000;    0.000;225.20000
1029.71;  226.200;    0.000;    0.000;226.20000
1029.87;  251.200;    0.000;    0.000;251.20000
1030.02;  232.200;    0.000;    0.000;232.20000
1030.18;  237.200;    0.000;    0.000;237.20000
1030.34;  268.200;    0.000;    0.000;268.20000
1030.49;  228.200;    0.000;    0.000;228.20000
1030.65;  191.200;    0.000;    0.000;191.20000
1030.81;  205.200;    0.000;    0.000;205.20000
1030.96;  198.200;    0.000;    0.000;198.20000
1031.12;  247.200;    0.000;    0.000;247.20000
1031.28;  229.200;    0.000;    0.000;229.20000
1031.43;  263.200;    0.000;    0.000;263.20000
1031.59;  254.200;    0.000;    0.000;254.20000
1031.75;  210.200;    0.000;    0.000;210.20000
1031.90;  209.200;    0.000;    0.000;209.20000
1032.06;  204.200;    0.000;    0.000;204.20000
1032.22;  209.200;    0.000;    0.000;209.20000
1032.37;  212.200;    0.000;    0.000;212.20000
1032.53;  242.200;    0.000;    0.000;242.20000
1032.69;  224.200;    0.000;    0.000;224.20000
1032.84;  215.200;    0.000;    0.000;215.20000
1033.00;  208.200;    0.000;    0.000;208.20000
1033.16;  221.200;    0.000;    0.000;221.20000
1033.31;  186.200;    0.000;    0.000;186.20000
1033.47;  223.200;    0.000;    0.000;223.20000
1033.62;  233.200;    0.000;    0.000;233.20000
1033.78;  237.200;    0.000;    0.000;237.20000
1033.94;  230.200;    0.000;    0.000;230.20000
1034.09;  240.200;    0.000;    0.000;240.20000
1034.25;  215.200;    0.000;    0.000;215.20000
1034.40;  252.200;    0.000;    0.000;252.20000
1034.56;  214.200;    0.000;    0.000;214.20000
1034.72;  202.200;    0.000;    0.000;202.20000
1034.87;  251.200;    0.000;    0.000;251.20000
1035.03;  191.200;    0.000;    0.000;191.20000
1035.19;  213.200;    0.000;    0.000;213.20000
1035.34;  248.200;    0.000;    0.000;248.20000
1035.50;  260.200;    0.000;    0.000;260.20000
1035.65;  209.200;    0.000;    0.000;209.20000
1035.81;  235.200;    0.000;    0.000;235.20000
1035.96;  236.200;    0.000;    0.000;236.20000
1036.12;  215.200;    0.000;    0.000;215.20000
1036.28;  201.200;    0.000;    0.000;201.20000
1036.43;  212.200;    0.000;    0.000;212.20000
1036.59;  215.200;    0.000;    0.000;215.20000
1036.74;  207.200;    0.000;    0.000;207.20000
1036.90;  213.200;    0.000;    0.000;213.20000
1037.05;  210.200;    0.000;    0.000;210.20000
1037.21;  225.200;    0.000;    0.000;225.20000
1037.37;  231.200;    0.000;    0.000;231.20000
1037.52;  255.200;    0.000;    0.000;255.20000
1037.68;  228.200;    0.000;    0.000;228.20000
1037.83;  220.200;    0.000;    0.000;220.20000
1037.99;  272.200;    0.000;    0.000;272.20000
1038.14;  195.200;    0.000;    0.000;195.20000
1038.30;  237.200;    0.000;    0.000;237.20000
1038.45;  219.200;    0.000;    0.000;219.20000
1038.61;  229.200;    0.000;    0.000;229.20000
1038.76;  237.200;    0.000;    0.000;237.20000
1038.92;  201.200;    0.000;    0.000;201.20000
1039.07;  218.200;    0.000;    0.000;218.20000
1039.23;  221.200;    0.000;    0.000;221.20000
1039.38;  254.200;    0.000;    0.000;254.20000
1039.54;  220.200;    0.000;    0.000;220.20000
1039.69;  228.200;    0.000;    0.000;228.20000
1039.85;  222.200;    0.000;    0.000;222.20000
1040.00;  226.200;    0.000;    0.000;226.20000
1040.16;  236.200;    0.000;    0.000;236.20000
1040.31;  207.200;    0.000;    0.000;207.20000
1040.47;  199.200;    0.000;    0.000;199.20000
1040.62;  224.200;    0.000;    0.000;224.20000
1040.78;  252.200;    0.000;    0.000;252.20000
1040.93;  255.200;    0.000;    0.000;255.20000
1041.09;  271.200;    0.000;    0.000;271.20000
1041.24;  225.200;    0.000;    0.000;225.20000
1041.40;  225.200;    0.000;    0.000;225.20000
1041.55;  249.200;    0.000;    0.000;249.20000
1041.71;  223.200;    0.000;    0.000;223.20000
1041.86;  229.200;    0.000;    0.000;229.20000
1042.02;  236.200;    0.000;    0.000;236.20000
1042.17;  218.200;    0.000;    0.000;218.20000
1042.33;  248.200;    0.000;    0.000;248.20000
1042.48;  229.200;    0.000;    0.000;229.20000
1042.64;  250.200;    0.000;    0.000;250.20000
1042.79;  229.200;    0.000;    0.000;229.20000
1042.94;  280.200;    0.000;    0.000;280.20000
1043.10;  219.200;    0.000;    0.000;219.20000
1043.25;  166.200;    0.000;    0.000;166.20000
1043.41;  284.200;    0.000;    0.000;284.20000
1043.56;  218.200;    0.000;    0.000;218.20000
1043.72;  243.200;    0.000;    0.000;243.20000
1043.87;  227.200;    0.000;    0.000;227.20000
1044.03;  238.200;    0.000;    0.000;238.20000
1044.18;  213.200;    0.000;    0.000;213.20000
1044.33;  246.200;    0.000;    0.000;246.20000
1044.49;  265.200;    0.000;    0.000;265.20000
1044.64;  239.200;    0.000;    0.000;239.20000
1044.80;  228.200;    0.000;    0.000;228.20000
1044.95;  212.200;    0.000;    0.000;212.20000
1045.10;  228.200;    0.000;    0.000;228.20000
1045.26;  226.200;    0.000;    0.000;226.20000
1045.41;  243.200;    0.000;    0.000;243.20000
1045.57;  223.200;    0.000;    0.000;223.20000
1045.72;  215.200;    0.000;    0.000;215.20000
1045.87;  255.200;    0.000;    0.000;255.20000
1046.03;  262.200;    0.000;    0.000;262.20000
1046.18;  223.200;    0.000;    0.000;223.20000
1046.34;  255.200;    0.000;    0.000;255.20000
1046.49;  247.200;    0.000;    0.000;247.20000
1046.64;  273.200;    0.000;    0.000;273.20000
1046.80;  222.200;    0.000;    0.000;222.20000
1046.95;  247.200;    0.000;    0.000;247.20000
1047.10;  263.200;    0.000;    0.000;263.20000
1047.26;  237.200;    0.000;    0.000;237.20000
1047.41;  266.200;    0.000;    0.000;266.20000
1047.57;  248.200;    0.000;    0.000;248.20000
1047.72;  219.200;    0.000;    0.000;219.20000
1047.87;  225.200;    0.000;    0.000;225.20000
1048.03;  272.200;    0.000;    0.000;272.20000
1048.18;  232.200;    0.000;    0.000;232.20000
1048.33;  247.200;    0.000;    0.000;247.20000
1048.49;  229.200;    0.000;    0.000;229.20000
1048.64;  220.200;    0.000;    0.000;220.20000
1048.79;  253.200;    0.000;    0.000;253.20000
1048.95;  201.200;    0.000;    0.000;201.20000
1049.10;  219.200;    0.000;    0.000;219.20000
1049.25;  234.200;    0.000;    0.000;234.20000
1049.41;  259.200;    0.000;    0.000;259.20000
1049.56;  222.200;    0.000;    0.000;222.20000
1049.71;  254.200;    0.000;    0.000;254.20000
1049.86;  247.200;    0.000;    0.000;247.20000
1050.02;  256.200;    0.000;    0.000;256.20000
1050.17;  231.200;    0.000;    0.000;231.20000
1050.32;  246.200;    0.000;    0.000;246.20000
1050.48;  252.200;    0.000;    0.000;252.20000
1050.63;  245.200;    0.000;    0.000;245.20000
1050.78;  215.200;    0.000;    0.000;215.20000
1050.94;  249.200;    0.000;    0.000;249.20000
1051.09;  252.200;    0.000;    0.000;252.20000
1051.24;  261.200;    0.000;    0.000;261.20000
1051.39;  294.200;    0.000;    0.000;294.20000
1051.55;  257.200;    0.000;    0.000;257.20000
1051.70;  236.200;    0.000;    0.000;236.20000
1051.85;  283.200;    0.000;    0.000;283.20000
1052.01;  258.200;    0.000;    0.000;258.20000
1052.16;  304.200;    0.000;    0.000;304.20000
1052.31;  266.200;    0.000;    0.000;266.20000
1052.46;  281.200;    0.000;    0.000;281.20000
1052.62;  281.200;    0.000;    0.000;281.20000
1052.77;  324.200;    0.000;    0.000;324.20000
1052.92;  283.200;    0.000;    0.000;283.20000
1053.07;  330.200;    0.000;    0.000;330.20000
1053.23;  246.200;    0.000;    0.000;246.20000
1053.38;  284.200;    0.000;    0.000;284.20000
1053.53;  319.200;    0.000;    0.000;319.20000
1053.68;  283.200;    0.000;    0.000;283.20000
1053.84;  282.200;    0.000;    0.000;282.20000
1053.99;  280.200;    0.000;    0.000;280.20000
1054.14;  299.200;    0.000;    0.000;299.20000
1054.29;  355.200;    0.000;    0.000;355.20000
1054.44;  267.200;    0.000;    0.000;267.20000
1054.60;  312.200;    0.000;    0.000;312.20000
1054.75;  301.200;    0.000;    0.000;301.20000
1054.90;  315.200;    0.000;    0.000;315.20000
1055.05;  271.200;    0.000;    0.000;271.20000
1055.20;  295.200;    0.000;    0.000;295.20000
1055.36;  301.200;    0.000;    0.000;301.20000
1055.51;  294.200;    0.000;    0.000;294.20000
1055.66;  315.200;    0.000;    0.000;315.20000
1055.81;  273.200;    0.000;    0.000;273.20000
1055.96;  311.200;    0.000;    0.000;311.20000
1056.12;  284.200;    0.000;    0.000;284.20000
1056.27;  328.200;    0.000;    0.000;328.20000
1056.42;  333.200;    0.000;    0.000;333.20000

