dark_400us
Integration time [ms]:   0.400
Averaging Nr. [scans]: 1
Smoothing Nr. [pixels]: 0
Data measured with spectrometer [name]: UV2
Wave   ;Sample   ;Dark     ;Reference
[nm]   ;[counts] ;[counts] ;[counts] 

353.533;  250.500;    0.000;    0.000
353.597;  227.500;    0.000;    0.000
353.660;  214.500;    0.000;    0.000
353.723;  176.500;    0.000;    0.000
353.786;  194.500;    0.000;    0.000
353.850;  234.500;    0.000;    0.000
353.913;  190.500;    0.000;    0.000
353.976;  182.500;    0.000;    0.000
354.039;  207.500;    0.000;    0.000
354.102;  224.500;    0.000;    0.000
354.166;  230.500;    0.000;    0.000
354.229;  206.500;    0.000;    0.000
354.292;  188.500;    0.000;    0.000
354.355;  208.500;    0.000;    0.000
354.418;  161.500;    0.000;    0.000
354.481;  204.500;    0.000;    0.000
354.545;  202.500;    0.000;    0.000
354.608;  205.500;    0.000;    0.000
354.671;  175.500;    0.000;    0.000
354.734;  197.500;    0.000;    0.000
354.797;  209.500;    0.000;    0.000
354.860;  214.500;    0.000;    0.000
354.923;  173.500;    0.000;    0.000
354.986;  180.500;    0.000;    0.000
355.050;  197.500;    0.000;    0.000
355.113;  207.500;    0.000;    0.000
355.176;  196.500;    0.000;    0.000
355.239;  205.500;    0.000;    0.000
355.302;  203.500;    0.000;    0.000
355.365;  205.500;    0.000;    0.000
355.428;  200.500;    0.000;    0.000
355.491;  247.500;    0.000;    0.000
355.554;  201.500;    0.000;    0.000
355.617;  200.500;    0.000;    0.000
355.680;  153.500;    0.000;    0.000
355.743;  203.500;    0.000;    0.000
355.806;  146.500;    0.000;    0.000
355.869;  181.500;    0.000;    0.000
355.932;  167.500;    0.000;    0.000
355.995;  193.500;    0.000;    0.000
356.058;  178.500;    0.000;    0.000
356.121;  242.500;    0.000;    0.000
356.184;  201.500;    0.000;    0.000
356.247;  172.500;    0.000;    0.000
356.310;  165.500;    0.000;    0.000
356.373;  196.500;    0.000;    0.000
356.436;  194.500;    0.000;    0.000
356.498;  167.500;    0.000;    0.000
356.561;  165.500;    0.000;    0.000
356.624;  177.500;    0.000;    0.000
356.687;  181.500;    0.000;    0.000
356.750;  156.500;    0.000;    0.000
356.813;  156.500;    0.000;    0.000
356.876;  165.500;    0.000;    0.000
356.939;  153.500;    0.000;    0.000
357.001;  173.500;    0.000;    0.000
357.064;  199.500;    0.000;    0.000
357.127;  195.500;    0.000;    0.000
357.190;  207.500;    0.000;    0.000
357.253;  201.500;    0.000;    0.000
357.316;  181.500;    0.000;    0.000
357.378;  150.500;    0.000;    0.000
357.441;  178.500;    0.000;    0.000
357.504;  176.500;    0.000;    0.000
357.567;  109.500;    0.000;    0.000
357.629;  211.500;    0.000;    0.000
357.692;  118.500;    0.000;    0.000
357.755;  204.500;    0.000;    0.000
357.818;  151.500;    0.000;    0.000
357.880;  147.500;    0.000;    0.000
357.943;  156.500;    0.000;    0.000
358.006;  174.500;    0.000;    0.000
358.069;  171.500;    0.000;    0.000
358.131;  156.500;    0.000;    0.000
358.194;  144.500;    0.000;    0.000
358.257;  121.500;    0.000;    0.000
358.319;  148.500;    0.000;    0.000
358.382;  172.500;    0.000;    0.000
358.445;  147.500;    0.000;    0.000
358.507;  187.500;    0.000;    0.000
358.570;  151.500;    0.000;    0.000
358.633;  131.500;    0.000;    0.000
358.695;  163.500;    0.000;    0.000
358.758;  132.500;    0.000;    0.000
358.821;   98.500;    0.000;    0.000
358.883;  132.500;    0.000;    0.000
358.946;  142.500;    0.000;    0.000
359.008;  184.500;    0.000;    0.000
359.071;  147.500;    0.000;    0.000
359.134;  140.500;    0.000;    0.000
359.196;  141.500;    0.000;    0.000
359.259;  148.500;    0.000;    0.000
359.321;  149.500;    0.000;    0.000
359.384;  156.500;    0.000;    0.000
359.446;  165.500;    0.000;    0.000
359.509;  149.500;    0.000;    0.000
359.571;  151.500;    0.000;    0.000
359.634;  119.500;    0.000;    0.000
359.696;  113.500;    0.000;    0.000
359.759;  141.500;    0.000;    0.000
359.821;  139.500;    0.000;    0.000
359.884;  158.500;    0.000;    0.000
359.946;  150.500;    0.000;    0.000
360.009;  141.500;    0.000;    0.000
360.071;  129.500;    0.000;    0.000
360.134;  198.500;    0.000;    0.000
360.196;  116.500;    0.000;    0.000
360.259;  150.500;    0.000;    0.000
360.321;  167.500;    0.000;    0.000
360.384;  111.500;    0.000;    0.000
360.446;  130.500;    0.000;    0.000
360.508;  171.500;    0.000;    0.000
360.571;  136.500;    0.000;    0.000
360.633;  158.500;    0.000;    0.000
360.696;  112.500;    0.000;    0.000
360.758;  164.500;    0.000;    0.000
360.820;  140.500;    0.000;    0.000
360.883;  141.500;    0.000;    0.000
360.945;  174.500;    0.000;    0.000
361.007;  183.500;    0.000;    0.000
361.070;  125.500;    0.000;    0.000
361.132;  191.500;    0.000;    0.000
361.194;  153.500;    0.000;    0.000
361.257;  126.500;    0.000;    0.000
361.319;  138.500;    0.000;    0.000
361.381;  151.500;    0.000;    0.000
361.443;  114.500;    0.000;    0.000
361.506;  177.500;    0.000;    0.000
361.568;  148.500;    0.000;    0.000
361.630;  170.500;    0.000;    0.000
361.693;  172.500;    0.000;    0.000
361.755;  150.500;    0.000;    0.000
361.817;  173.500;    0.000;    0.000
361.879;  173.500;    0.000;    0.000
361.941;  154.500;    0.000;    0.000
362.004;  205.500;    0.000;    0.000
362.066;  134.500;    0.000;    0.000
362.128;  161.500;    0.000;    0.000
362.190;  159.500;    0.000;    0.000
362.252;  152.500;    0.000;    0.000
362.315;  127.500;    0.000;    0.000
362.377;  154.500;    0.000;    0.000
362.439;  157.500;    0.000;    0.000
362.501;  132.500;    0.000;    0.000
362.563;  159.500;    0.000;    0.000
362.625;  138.500;    0.000;    0.000
362.688;  164.500;    0.000;    0.000
362.750;  183.500;    0.000;    0.000
362.812;  165.500;    0.000;    0.000
362.874;  130.500;    0.000;    0.000
362.936;  162.500;    0.000;    0.000
362.998;  133.500;    0.000;    0.000
363.060;  180.500;    0.000;    0.000
363.122;  151.500;    0.000;    0.000
363.184;  182.500;    0.000;    0.000
363.246;  164.500;    0.000;    0.000
363.308;  141.500;    0.000;    0.000
363.370;  169.500;    0.000;    0.000
363.432;  154.500;    0.000;    0.000
363.494;  158.500;    0.000;    0.000
363.556;  147.500;    0.000;    0.000
363.618;  131.500;    0.000;    0.000
363.680;  143.500;    0.000;    0.000
363.742;  160.500;    0.000;    0.000
363.804;  156.500;    0.000;    0.000
363.866;  182.500;    0.000;    0.000
363.928;  124.500;    0.000;    0.000
363.990;  150.500;    0.000;    0.000
364.052;  173.500;    0.000;    0.000
364.114;  129.500;    0.000;    0.000
364.176;  210.500;    0.000;    0.000
364.238;  155.500;    0.000;    0.000
364.300;  180.500;    0.000;    0.000
364.362;  145.500;    0.000;    0.000
364.424;  139.500;    0.000;    0.000
364.486;  140.500;    0.000;    0.000
364.548;  154.500;    0.000;    0.000
364.609;  201.500;    0.000;    0.000
364.671;  211.500;    0.000;    0.000
364.733;  154.500;    0.000;    0.000
364.795;  151.500;    0.000;    0.000
364.857;  134.500;    0.000;    0.000
364.919;  151.500;    0.000;    0.000
364.981;  140.500;    0.000;    0.000
365.042;  152.500;    0.000;    0.000
365.104;  146.500;    0.000;    0.000
365.166;  126.500;    0.000;    0.000
365.228;  148.500;    0.000;    0.000
365.290;  137.500;    0.000;    0.000
365.351;  155.500;    0.000;    0.000
365.413;  130.500;    0.000;    0.000
365.475;  180.500;    0.000;    0.000
365.537;  137.500;    0.000;    0.000
365.598;  135.500;    0.000;    0.000
365.660;  116.500;    0.000;    0.000
365.722;  186.500;    0.000;    0.000
365.784;  129.500;    0.000;    0.000
365.845;  129.500;    0.000;    0.000
365.907;  118.500;    0.000;    0.000
365.969;  147.500;    0.000;    0.000
366.030;  154.500;    0.000;    0.000
366.092;  121.500;    0.000;    0.000
366.154;  147.500;    0.000;    0.000
366.215;  180.500;    0.000;    0.000
366.277;  148.500;    0.000;    0.000
366.339;  142.500;    0.000;    0.000
366.400;  127.500;    0.000;    0.000
366.462;  124.500;    0.000;    0.000
366.524;  147.500;    0.000;    0.000
366.585;  113.500;    0.000;    0.000
366.647;  154.500;    0.000;    0.000
366.708;  100.500;    0.000;    0.000
366.770;  131.500;    0.000;    0.000
366.832;  144.500;    0.000;    0.000
366.893;  163.500;    0.000;    0.000
366.955;  124.500;    0.000;    0.000
367.016;  149.500;    0.000;    0.000
367.078;  126.500;    0.000;    0.000
367.139;  111.500;    0.000;    0.000
367.201;  164.500;    0.000;    0.000
367.262;  157.500;    0.000;    0.000
367.324;  143.500;    0.000;    0.000
367.385;  114.500;    0.000;    0.000
367.447;  170.500;    0.000;    0.000
367.508;  145.500;    0.000;    0.000
367.570;  159.500;    0.000;    0.000
367.631;  140.500;    0.000;    0.000
367.693;  160.500;    0.000;    0.000
367.754;  170.500;    0.000;    0.000
367.816;  137.500;    0.000;    0.000
367.877;  180.500;    0.000;    0.000
367.939;  199.500;    0.000;    0.000
368.000;  151.500;    0.000;    0.000
368.062;  178.500;    0.000;    0.000
368.123;  131.500;    0.000;    0.000
368.184;  147.500;    0.000;    0.000
368.246;  134.500;    0.000;    0.000
368.307;  138.500;    0.000;    0.000
368.369;  136.500;    0.000;    0.000
368.430;  140.500;    0.000;    0.000
368.491;  146.500;    0.000;    0.000
368.553;  200.500;    0.000;    0.000
368.614;  166.500;    0.000;    0.000
368.675;  133.500;    0.000;    0.000
368.737;  147.500;    0.000;    0.000
368.798;  166.500;    0.000;    0.000
368.859;  155.500;    0.000;    0.000
368.921;  144.500;    0.000;    0.000
368.982;  151.500;    0.000;    0.000
369.043;  188.500;    0.000;    0.000
369.104;  140.500;    0.000;    0.000
369.166;  180.500;    0.000;    0.000
369.227;  101.500;    0.000;    0.000
369.288;  140.500;    0.000;    0.000
369.349;  155.500;    0.000;    0.000
369.411;  183.500;    0.000;    0.000
369.472;  201.500;    0.000;    0.000
369.533;  153.500;    0.000;    0.000
369.594;  141.500;    0.000;    0.000
369.656;  200.500;    0.000;    0.000
369.717;  146.500;    0.000;    0.000
369.778;  159.500;    0.000;    0.000
369.839;  157.500;    0.000;    0.000
369.900;  165.500;    0.000;    0.000
369.961;  163.500;    0.000;    0.000
370.023;  174.500;    0.000;    0.000
370.084;  146.500;    0.000;    0.000
370.145;  121.500;    0.000;    0.000
370.206;  191.500;    0.000;    0.000
370.267;  162.500;    0.000;    0.000
370.328;  140.500;    0.000;    0.000
370.389;  162.500;    0.000;    0.000
370.451;  129.500;    0.000;    0.000
370.512;  134.500;    0.000;    0.000
370.573;  160.500;    0.000;    0.000
370.634;  149.500;    0.000;    0.000
370.695;  138.500;    0.000;    0.000
370.756;  167.500;    0.000;    0.000
370.817;  176.500;    0.000;    0.000
370.878;  183.500;    0.000;    0.000
370.939;  175.500;    0.000;    0.000
371.000;  176.500;    0.000;    0.000
371.061;  170.500;    0.000;    0.000
371.122;  131.500;    0.000;    0.000
371.183;  120.500;    0.000;    0.000
371.244;  174.500;    0.000;    0.000
371.305;  105.500;    0.000;    0.000
371.366;  170.500;    0.000;    0.000
371.427;  150.500;    0.000;    0.000
371.488;  163.500;    0.000;    0.000
371.549;  128.500;    0.000;    0.000
371.610;  165.500;    0.000;    0.000
371.671;  140.500;    0.000;    0.000
371.732;  144.500;    0.000;    0.000
371.793;  194.500;    0.000;    0.000
371.853;  135.500;    0.000;    0.000
371.914;  159.500;    0.000;    0.000
371.975;  109.500;    0.000;    0.000
372.036;  173.500;    0.000;    0.000
372.097;  110.500;    0.000;    0.000
372.158;  136.500;    0.000;    0.000
372.219;  160.500;    0.000;    0.000
372.280;  141.500;    0.000;    0.000
372.340;  169.500;    0.000;    0.000
372.401;  148.500;    0.000;    0.000
372.462;  145.500;    0.000;    0.000
372.523;  145.500;    0.000;    0.000
372.584;  149.500;    0.000;    0.000
372.645;  131.500;    0.000;    0.000
372.705;  171.500;    0.000;    0.000
372.766;  157.500;    0.000;    0.000
372.827;  167.500;    0.000;    0.000
372.888;  147.500;    0.000;    0.000
372.948;  142.500;    0.000;    0.000
373.009;  150.500;    0.000;    0.000
373.070;  145.500;    0.000;    0.000
373.131;  130.500;    0.000;    0.000
373.191;  162.500;    0.000;    0.000
373.252;  130.500;    0.000;    0.000
373.313;  154.500;    0.000;    0.000
373.373;  119.500;    0.000;    0.000
373.434;  180.500;    0.000;    0.000
373.495;  124.500;    0.000;    0.000
373.555;  140.500;    0.000;    0.000
373.616;  138.500;    0.000;    0.000
373.677;  160.500;    0.000;    0.000
373.737;  145.500;    0.000;    0.000
373.798;  141.500;    0.000;    0.000
373.859;  157.500;    0.000;    0.000
373.919;  160.500;    0.000;    0.000
373.980;  151.500;    0.000;    0.000
374.041;  179.500;    0.000;    0.000
374.101;  157.500;    0.000;    0.000
374.162;  161.500;    0.000;    0.000
374.222;  157.500;    0.000;    0.000
374.283;  186.500;    0.000;    0.000
374.343;  180.500;    0.000;    0.000
374.404;  155.500;    0.000;    0.000
374.465;  149.500;    0.000;    0.000
374.525;  157.500;    0.000;    0.000
374.586;  166.500;    0.000;    0.000
374.646;  169.500;    0.000;    0.000
374.707;  216.500;    0.000;    0.000
374.767;  143.500;    0.000;    0.000
374.828;  147.500;    0.000;    0.000
374.888;  154.500;    0.000;    0.000
374.949;  167.500;    0.000;    0.000
375.009;  157.500;    0.000;    0.000
375.070;  136.500;    0.000;    0.000
375.130;  162.500;    0.000;    0.000
375.190;  192.500;    0.000;    0.000
375.251;  160.500;    0.000;    0.000
375.311;  163.500;    0.000;    0.000
375.372;  143.500;    0.000;    0.000
375.432;  152.500;    0.000;    0.000
375.493;  159.500;    0.000;    0.000
375.553;  139.500;    0.000;    0.000
375.613;  150.500;    0.000;    0.000
375.674;  168.500;    0.000;    0.000
375.734;  159.500;    0.000;    0.000
375.794;  130.500;    0.000;    0.000
375.855;  184.500;    0.000;    0.000
375.915;  140.500;    0.000;    0.000
375.975;  165.500;    0.000;    0.000
376.036;  144.500;    0.000;    0.000
376.096;  140.500;    0.000;    0.000
376.156;  171.500;    0.000;    0.000
376.217;  147.500;    0.000;    0.000
376.277;  177.500;    0.000;    0.000
376.337;  123.500;    0.000;    0.000
376.398;  179.500;    0.000;    0.000
376.458;  140.500;    0.000;    0.000
376.518;  140.500;    0.000;    0.000
376.578;  133.500;    0.000;    0.000
376.639;  140.500;    0.000;    0.000
376.699;  162.500;    0.000;    0.000
376.759;  177.500;    0.000;    0.000
376.819;  157.500;    0.000;    0.000
376.880;  153.500;    0.000;    0.000
376.940;  183.500;    0.000;    0.000
377.000;  122.500;    0.000;    0.000
377.060;  161.500;    0.000;    0.000
377.120;  153.500;    0.000;    0.000
377.180;  161.500;    0.000;    0.000
377.241;  126.500;    0.000;    0.000
377.301;  178.500;    0.000;    0.000
377.361;  149.500;    0.000;    0.000
377.421;  189.500;    0.000;    0.000
377.481;  175.500;    0.000;    0.000
377.541;  158.500;    0.000;    0.000
377.601;  144.500;    0.000;    0.000
377.661;  165.500;    0.000;    0.000
377.722;  181.500;    0.000;    0.000
377.782;  172.500;    0.000;    0.000
377.842;  182.500;    0.000;    0.000
377.902;  167.500;    0.000;    0.000
377.962;  145.500;    0.000;    0.000
378.022;  135.500;    0.000;    0.000
378.082;  165.500;    0.000;    0.000
378.142;  164.500;    0.000;    0.000
378.202;  158.500;    0.000;    0.000
378.262;  191.500;    0.000;    0.000
378.322;  182.500;    0.000;    0.000
378.382;  145.500;    0.000;    0.000
378.442;  159.500;    0.000;    0.000
378.502;  122.500;    0.000;    0.000
378.562;  122.500;    0.000;    0.000
378.622;  182.500;    0.000;    0.000
378.682;  173.500;    0.000;    0.000
378.742;  134.500;    0.000;    0.000
378.802;  148.500;    0.000;    0.000
378.862;  206.500;    0.000;    0.000
378.921;  188.500;    0.000;    0.000
378.981;  175.500;    0.000;    0.000
379.041;  122.500;    0.000;    0.000
379.101;  169.500;    0.000;    0.000
379.161;  142.500;    0.000;    0.000
379.221;  155.500;    0.000;    0.000
379.281;  172.500;    0.000;    0.000
379.341;  128.500;    0.000;    0.000
379.401;  139.500;    0.000;    0.000
379.460;  152.500;    0.000;    0.000
379.520;  140.500;    0.000;    0.000
379.580;  131.500;    0.000;    0.000
379.640;  139.500;    0.000;    0.000
379.700;  118.500;    0.000;    0.000
379.759;  205.500;    0.000;    0.000
379.819;  149.500;    0.000;    0.000
379.879;  138.500;    0.000;    0.000
379.939;  176.500;    0.000;    0.000
379.999;  154.500;    0.000;    0.000
380.058;  153.500;    0.000;    0.000
380.118;  163.500;    0.000;    0.000
380.178;  162.500;    0.000;    0.000
380.237;  179.500;    0.000;    0.000
380.297;  162.500;    0.000;    0.000
380.357;  161.500;    0.000;    0.000
380.417;  180.500;    0.000;    0.000
380.476;  208.500;    0.000;    0.000
380.536;  152.500;    0.000;    0.000
380.596;  180.500;    0.000;    0.000
380.655;  179.500;    0.000;    0.000
380.715;  217.500;    0.000;    0.000
380.775;  193.500;    0.000;    0.000
380.834;  173.500;    0.000;    0.000
380.894;  185.500;    0.000;    0.000
380.954;  146.500;    0.000;    0.000
381.013;  187.500;    0.000;    0.000
381.073;  155.500;    0.000;    0.000
381.132;  207.500;    0.000;    0.000
381.192;  209.500;    0.000;    0.000
381.252;  168.500;    0.000;    0.000
381.311;  166.500;    0.000;    0.000
381.371;  158.500;    0.000;    0.000
381.430;  178.500;    0.000;    0.000
381.490;  153.500;    0.000;    0.000
381.549;  147.500;    0.000;    0.000
381.609;  176.500;    0.000;    0.000
381.668;  154.500;    0.000;    0.000
381.728;  178.500;    0.000;    0.000
381.787;  195.500;    0.000;    0.000
381.847;  156.500;    0.000;    0.000
381.906;  201.500;    0.000;    0.000
381.966;  138.500;    0.000;    0.000
382.025;  184.500;    0.000;    0.000
382.085;  148.500;    0.000;    0.000
382.144;  179.500;    0.000;    0.000
382.204;  193.500;    0.000;    0.000
382.263;  170.500;    0.000;    0.000
382.322;  155.500;    0.000;    0.000
382.382;  159.500;    0.000;    0.000
382.441;  160.500;    0.000;    0.000
382.501;  151.500;    0.000;    0.000
382.560;  190.500;    0.000;    0.000
382.619;  152.500;    0.000;    0.000
382.679;  190.500;    0.000;    0.000
382.738;  215.500;    0.000;    0.000
382.798;  190.500;    0.000;    0.000
382.857;  168.500;    0.000;    0.000
382.916;  187.500;    0.000;    0.000
382.976;  166.500;    0.000;    0.000
383.035;  168.500;    0.000;    0.000
383.094;  174.500;    0.000;    0.000
383.154;  187.500;    0.000;    0.000
383.213;  166.500;    0.000;    0.000
383.272;  156.500;    0.000;    0.000
383.331;  161.500;    0.000;    0.000
383.391;  164.500;    0.000;    0.000
383.450;  164.500;    0.000;    0.000
383.509;  188.500;    0.000;    0.000
383.568;  191.500;    0.000;    0.000
383.628;  149.500;    0.000;    0.000
383.687;  139.500;    0.000;    0.000
383.746;  135.500;    0.000;    0.000
383.805;  197.500;    0.000;    0.000
383.864;  152.500;    0.000;    0.000
383.924;  193.500;    0.000;    0.000
383.983;  152.500;    0.000;    0.000
384.042;  172.500;    0.000;    0.000
384.101;  199.500;    0.000;    0.000
384.160;  127.500;    0.000;    0.000
384.219;  149.500;    0.000;    0.000
384.279;  165.500;    0.000;    0.000
384.338;  181.500;    0.000;    0.000
384.397;  152.500;    0.000;    0.000
384.456;  180.500;    0.000;    0.000
384.515;  175.500;    0.000;    0.000
384.574;  179.500;    0.000;    0.000
384.633;  167.500;    0.000;    0.000
384.692;  179.500;    0.000;    0.000
384.751;  185.500;    0.000;    0.000
384.810;  196.500;    0.000;    0.000
384.869;  138.500;    0.000;    0.000
384.929;  144.500;    0.000;    0.000
384.988;  206.500;    0.000;    0.000
385.047;  149.500;    0.000;    0.000
385.106;  145.500;    0.000;    0.000
385.165;  134.500;    0.000;    0.000
385.224;  171.500;    0.000;    0.000
385.283;  172.500;    0.000;    0.000
385.342;  101.500;    0.000;    0.000
385.401;  159.500;    0.000;    0.000
385.459;  134.500;    0.000;    0.000
385.518;  136.500;    0.000;    0.000
385.577;  119.500;    0.000;    0.000
385.636;  167.500;    0.000;    0.000
385.695;  116.500;    0.000;    0.000
385.754;  140.500;    0.000;    0.000
385.813;  127.500;    0.000;    0.000
385.872;  150.500;    0.000;    0.000
385.931;  166.500;    0.000;    0.000
385.990;  149.500;    0.000;    0.000
386.049;  163.500;    0.000;    0.000
386.107;  138.500;    0.000;    0.000
386.166;  136.500;    0.000;    0.000
386.225;  168.500;    0.000;    0.000
386.284;  135.500;    0.000;    0.000
386.343;  178.500;    0.000;    0.000
386.402;  196.500;    0.000;    0.000
386.460;  153.500;    0.000;    0.000
386.519;  123.500;    0.000;    0.000
386.578;  164.500;    0.000;    0.000
386.637;  150.500;    0.000;    0.000
386.696;  153.500;    0.000;    0.000
386.754;  127.500;    0.000;    0.000
386.813;  120.500;    0.000;    0.000
386.872;  129.500;    0.000;    0.000
386.931;  180.500;    0.000;    0.000
386.989;  177.500;    0.000;    0.000
387.048;  146.500;    0.000;    0.000
387.107;  213.500;    0.000;    0.000
387.165;  147.500;    0.000;    0.000
387.224;  179.500;    0.000;    0.000
387.283;  175.500;    0.000;    0.000
387.342;  184.500;    0.000;    0.000
387.400;  177.500;    0.000;    0.000
387.459;  160.500;    0.000;    0.000
387.517;  142.500;    0.000;    0.000
387.576;  160.500;    0.000;    0.000
387.635;  187.500;    0.000;    0.000
387.693;  201.500;    0.000;    0.000
387.752;  151.500;    0.000;    0.000
387.811;  148.500;    0.000;    0.000
387.869;  153.500;    0.000;    0.000
387.928;  142.500;    0.000;    0.000
387.986;  179.500;    0.000;    0.000
388.045;  138.500;    0.000;    0.000
388.103;  127.500;    0.000;    0.000
388.162;  153.500;    0.000;    0.000
388.221;  170.500;    0.000;    0.000
388.279;  128.500;    0.000;    0.000
388.338;  198.500;    0.000;    0.000
388.396;  128.500;    0.000;    0.000
388.455;  191.500;    0.000;    0.000
388.513;  148.500;    0.000;    0.000
388.572;  175.500;    0.000;    0.000
388.630;  154.500;    0.000;    0.000
388.689;  103.500;    0.000;    0.000
388.747;  158.500;    0.000;    0.000
388.806;  151.500;    0.000;    0.000
388.864;  180.500;    0.000;    0.000
388.922;  162.500;    0.000;    0.000
388.981;  166.500;    0.000;    0.000
389.039;  138.500;    0.000;    0.000
389.098;  166.500;    0.000;    0.000
389.156;  157.500;    0.000;    0.000
389.214;  188.500;    0.000;    0.000
389.273;  158.500;    0.000;    0.000
389.331;  194.500;    0.000;    0.000
389.390;  132.500;    0.000;    0.000
389.448;  139.500;    0.000;    0.000
389.506;  173.500;    0.000;    0.000
389.565;  166.500;    0.000;    0.000
389.623;  150.500;    0.000;    0.000
389.681;  171.500;    0.000;    0.000
389.740;  234.500;    0.000;    0.000
389.798;  139.500;    0.000;    0.000
389.856;  198.500;    0.000;    0.000
389.914;  160.500;    0.000;    0.000
389.973;  134.500;    0.000;    0.000
390.031;  172.500;    0.000;    0.000
390.089;  152.500;    0.000;    0.000
390.147;  130.500;    0.000;    0.000
390.206;  113.500;    0.000;    0.000
390.264;  184.500;    0.000;    0.000
390.322;  159.500;    0.000;    0.000
390.380;  141.500;    0.000;    0.000
390.439;  162.500;    0.000;    0.000
390.497;  195.500;    0.000;    0.000
390.555;  165.500;    0.000;    0.000
390.613;  166.500;    0.000;    0.000
390.671;  209.500;    0.000;    0.000
390.729;  156.500;    0.000;    0.000
390.788;  182.500;    0.000;    0.000
390.846;  163.500;    0.000;    0.000
390.904;  172.500;    0.000;    0.000
390.962;  195.500;    0.000;    0.000
391.020;  197.500;    0.000;    0.000
391.078;  180.500;    0.000;    0.000
391.136;  184.500;    0.000;    0.000
391.194;  171.500;    0.000;    0.000
391.252;  220.500;    0.000;    0.000
391.311;  139.500;    0.000;    0.000
391.369;  209.500;    0.000;    0.000
391.427;  189.500;    0.000;    0.000
391.485;  200.500;    0.000;    0.000
391.543;  181.500;    0.000;    0.000
391.601;  160.500;    0.000;    0.000
391.659;  189.500;    0.000;    0.000
391.717;  211.500;    0.000;    0.000
391.775;  145.500;    0.000;    0.000
391.833;  141.500;    0.000;    0.000
391.891;  165.500;    0.000;    0.000
391.949;  171.500;    0.000;    0.000
392.007;  196.500;    0.000;    0.000
392.065;  169.500;    0.000;    0.000
392.123;  135.500;    0.000;    0.000
392.180;  185.500;    0.000;    0.000
392.238;  192.500;    0.000;    0.000
392.296;  171.500;    0.000;    0.000
392.354;  149.500;    0.000;    0.000
392.412;  186.500;    0.000;    0.000
392.470;  183.500;    0.000;    0.000
392.528;  193.500;    0.000;    0.000
392.586;  194.500;    0.000;    0.000
392.644;  191.500;    0.000;    0.000
392.701;  172.500;    0.000;    0.000
392.759;  174.500;    0.000;    0.000
392.817;  161.500;    0.000;    0.000
392.875;  188.500;    0.000;    0.000
392.933;  136.500;    0.000;    0.000
392.991;  187.500;    0.000;    0.000
393.048;  172.500;    0.000;    0.000
393.106;  217.500;    0.000;    0.000
393.164;  163.500;    0.000;    0.000
393.222;  155.500;    0.000;    0.000
393.279;  216.500;    0.000;    0.000
393.337;  181.500;    0.000;    0.000
393.395;  177.500;    0.000;    0.000
393.453;  160.500;    0.000;    0.000
393.510;  144.500;    0.000;    0.000
393.568;  193.500;    0.000;    0.000
393.626;  161.500;    0.000;    0.000
393.684;  191.500;    0.000;    0.000
393.741;  177.500;    0.000;    0.000
393.799;  165.500;    0.000;    0.000
393.857;  141.500;    0.000;    0.000
393.914;  189.500;    0.000;    0.000
393.972;  156.500;    0.000;    0.000
394.030;  157.500;    0.000;    0.000
394.087;  179.500;    0.000;    0.000
394.145;  201.500;    0.000;    0.000
394.202;  179.500;    0.000;    0.000
394.260;  155.500;    0.000;    0.000
394.318;  165.500;    0.000;    0.000
394.375;  156.500;    0.000;    0.000
394.433;  173.500;    0.000;    0.000
394.490;  170.500;    0.000;    0.000
394.548;  164.500;    0.000;    0.000
394.605;  175.500;    0.000;    0.000
394.663;  167.500;    0.000;    0.000
394.720;  161.500;    0.000;    0.000
394.778;  168.500;    0.000;    0.000
394.836;  141.500;    0.000;    0.000
394.893;  128.500;    0.000;    0.000
394.951;  174.500;    0.000;    0.000
395.008;  173.500;    0.000;    0.000
395.065;  157.500;    0.000;    0.000
395.123;  171.500;    0.000;    0.000
395.180;  149.500;    0.000;    0.000
395.238;  160.500;    0.000;    0.000
395.295;  145.500;    0.000;    0.000
395.353;  175.500;    0.000;    0.000
395.410;  188.500;    0.000;    0.000
395.468;  151.500;    0.000;    0.000
395.525;  157.500;    0.000;    0.000
395.582;  177.500;    0.000;    0.000
395.640;  182.500;    0.000;    0.000
395.697;  167.500;    0.000;    0.000
395.754;  174.500;    0.000;    0.000
395.812;  165.500;    0.000;    0.000
395.869;  199.500;    0.000;    0.000
395.927;  168.500;    0.000;    0.000
395.984;  184.500;    0.000;    0.000
396.041;  150.500;    0.000;    0.000
396.098;  163.500;    0.000;    0.000
396.156;  168.500;    0.000;    0.000
396.213;  187.500;    0.000;    0.000
396.270;  189.500;    0.000;    0.000
396.328;  144.500;    0.000;    0.000
396.385;  172.500;    0.000;    0.000
396.442;  181.500;    0.000;    0.000
396.499;  144.500;    0.000;    0.000
396.557;  139.500;    0.000;    0.000
396.614;  191.500;    0.000;    0.000
396.671;  181.500;    0.000;    0.000
396.728;  207.500;    0.000;    0.000
396.785;  167.500;    0.000;    0.000
396.843;  148.500;    0.000;    0.000
396.900;  148.500;    0.000;    0.000
396.957;  159.500;    0.000;    0.000
397.014;  186.500;    0.000;    0.000
397.071;  182.500;    0.000;    0.000
397.128;  181.500;    0.000;    0.000
397.186;  183.500;    0.000;    0.000
397.243;  204.500;    0.000;    0.000
397.300;  160.500;    0.000;    0.000
397.357;  194.500;    0.000;    0.000
397.414;  169.500;    0.000;    0.000
397.471;  156.500;    0.000;    0.000
397.528;  171.500;    0.000;    0.000
397.585;  181.500;    0.000;    0.000
397.642;  150.500;    0.000;    0.000
397.699;  185.500;    0.000;    0.000
397.756;  177.500;    0.000;    0.000
397.813;  186.500;    0.000;    0.000
397.871;  147.500;    0.000;    0.000
397.928;  184.500;    0.000;    0.000
397.985;  169.500;    0.000;    0.000
398.042;  193.500;    0.000;    0.000
398.099;  148.500;    0.000;    0.000
398.156;  194.500;    0.000;    0.000
398.212;  189.500;    0.000;    0.000
398.269;  183.500;    0.000;    0.000
398.326;   99.500;    0.000;    0.000
398.383;  191.500;    0.000;    0.000
398.440;  152.500;    0.000;    0.000
398.497;  211.500;    0.000;    0.000
398.554;  160.500;    0.000;    0.000
398.611;  164.500;    0.000;    0.000
398.668;  136.500;    0.000;    0.000
398.725;  153.500;    0.000;    0.000
398.782;  172.500;    0.000;    0.000
398.839;  193.500;    0.000;    0.000
398.895;  147.500;    0.000;    0.000
398.952;  183.500;    0.000;    0.000
399.009;  177.500;    0.000;    0.000
399.066;  189.500;    0.000;    0.000
399.123;  167.500;    0.000;    0.000
399.180;  152.500;    0.000;    0.000
399.236;  162.500;    0.000;    0.000
399.293;  147.500;    0.000;    0.000
399.350;  161.500;    0.000;    0.000
399.407;  218.500;    0.000;    0.000
399.463;  173.500;    0.000;    0.000
399.520;  126.500;    0.000;    0.000
399.577;  164.500;    0.000;    0.000
399.634;  191.500;    0.000;    0.000
399.690;  190.500;    0.000;    0.000
399.747;  177.500;    0.000;    0.000
399.804;  178.500;    0.000;    0.000
399.861;  181.500;    0.000;    0.000
399.917;  214.500;    0.000;    0.000
399.974;  184.500;    0.000;    0.000
400.031;  217.500;    0.000;    0.000
400.087;  140.500;    0.000;    0.000
400.144;  195.500;    0.000;    0.000
400.201;  202.500;    0.000;    0.000
400.257;  157.500;    0.000;    0.000
400.314;  199.500;    0.000;    0.000
400.370;  181.500;    0.000;    0.000
400.427;  224.500;    0.000;    0.000
400.484;  166.500;    0.000;    0.000
400.540;  165.500;    0.000;    0.000
400.597;  192.500;    0.000;    0.000
400.653;  201.500;    0.000;    0.000
400.710;  199.500;    0.000;    0.000
400.766;  194.500;    0.000;    0.000
400.823;  187.500;    0.000;    0.000
400.879;  155.500;    0.000;    0.000
400.936;  177.500;    0.000;    0.000
400.993;  168.500;    0.000;    0.000
401.049;  172.500;    0.000;    0.000
401.106;  206.500;    0.000;    0.000
401.162;  206.500;    0.000;    0.000
401.218;  171.500;    0.000;    0.000
401.275;  173.500;    0.000;    0.000
401.331;  199.500;    0.000;    0.000
401.388;  206.500;    0.000;    0.000
401.444;  182.500;    0.000;    0.000
401.501;  200.500;    0.000;    0.000
401.557;  153.500;    0.000;    0.000
401.614;  194.500;    0.000;    0.000
401.670;  144.500;    0.000;    0.000
401.726;  192.500;    0.000;    0.000
401.783;  181.500;    0.000;    0.000
401.839;  189.500;    0.000;    0.000
401.895;  174.500;    0.000;    0.000
401.952;  151.500;    0.000;    0.000
402.008;  151.500;    0.000;    0.000
402.064;  135.500;    0.000;    0.000
402.121;  181.500;    0.000;    0.000
402.177;  130.500;    0.000;    0.000
402.233;  174.500;    0.000;    0.000
402.290;  158.500;    0.000;    0.000
402.346;  166.500;    0.000;    0.000
402.402;  155.500;    0.000;    0.000
402.459;  182.500;    0.000;    0.000
402.515;  186.500;    0.000;    0.000
402.571;  224.500;    0.000;    0.000
402.627;  164.500;    0.000;    0.000
402.683;  198.500;    0.000;    0.000
402.740;  158.500;    0.000;    0.000
402.796;  178.500;    0.000;    0.000
402.852;  177.500;    0.000;    0.000
402.908;  177.500;    0.000;    0.000
402.964;  168.500;    0.000;    0.000
403.021;  202.500;    0.000;    0.000
403.077;  180.500;    0.000;    0.000
403.133;  147.500;    0.000;    0.000
403.189;  199.500;    0.000;    0.000
403.245;  191.500;    0.000;    0.000
403.301;  212.500;    0.000;    0.000
403.357;  223.500;    0.000;    0.000
403.414;  232.500;    0.000;    0.000
403.470;  204.500;    0.000;    0.000
403.526;  178.500;    0.000;    0.000
403.582;  161.500;    0.000;    0.000
403.638;  176.500;    0.000;    0.000
403.694;  205.500;    0.000;    0.000
403.750;  197.500;    0.000;    0.000
403.806;  178.500;    0.000;    0.000
403.862;  183.500;    0.000;    0.000
403.918;  161.500;    0.000;    0.000
403.974;  183.500;    0.000;    0.000
404.030;  195.500;    0.000;    0.000
404.086;  190.500;    0.000;    0.000
404.142;  190.500;    0.000;    0.000
404.198;  175.500;    0.000;    0.000
404.254;  194.500;    0.000;    0.000
404.310;  156.500;    0.000;    0.000
404.366;  154.500;    0.000;    0.000
404.422;  152.500;    0.000;    0.000
404.478;  198.500;    0.000;    0.000
404.534;  166.500;    0.000;    0.000
404.590;  193.500;    0.000;    0.000
404.646;  174.500;    0.000;    0.000
404.701;  177.500;    0.000;    0.000
404.757;  192.500;    0.000;    0.000
404.813;  180.500;    0.000;    0.000
404.869;  181.500;    0.000;    0.000
404.925;  178.500;    0.000;    0.000
404.981;  185.500;    0.000;    0.000
405.037;  175.500;    0.000;    0.000
405.092;  131.500;    0.000;    0.000
405.148;  153.500;    0.000;    0.000
405.204;  152.500;    0.000;    0.000
405.260;  189.500;    0.000;    0.000
405.316;  178.500;    0.000;    0.000
405.371;  160.500;    0.000;    0.000
405.427;  197.500;    0.000;    0.000
405.483;  213.500;    0.000;    0.000
405.539;  179.500;    0.000;    0.000
405.594;  176.500;    0.000;    0.000
405.650;  115.500;    0.000;    0.000
405.706;  195.500;    0.000;    0.000
405.761;  149.500;    0.000;    0.000
405.817;  132.500;    0.000;    0.000
405.873;  165.500;    0.000;    0.000
405.928;  178.500;    0.000;    0.000
405.984;  228.500;    0.000;    0.000
406.040;  207.500;    0.000;    0.000
406.095;  153.500;    0.000;    0.000
406.151;  183.500;    0.000;    0.000
406.207;  196.500;    0.000;    0.000
406.262;  147.500;    0.000;    0.000
406.318;  168.500;    0.000;    0.000
406.374;  157.500;    0.000;    0.000
406.429;  174.500;    0.000;    0.000
406.485;  203.500;    0.000;    0.000
406.540;  198.500;    0.000;    0.000
406.596;  173.500;    0.000;    0.000
406.651;  173.500;    0.000;    0.000
406.707;  182.500;    0.000;    0.000
406.763;  174.500;    0.000;    0.000
406.818;  164.500;    0.000;    0.000
406.874;  135.500;    0.000;    0.000
406.929;  213.500;    0.000;    0.000
406.985;  172.500;    0.000;    0.000
407.040;  178.500;    0.000;    0.000
407.095;  159.500;    0.000;    0.000
407.151;  166.500;    0.000;    0.000
407.206;  153.500;    0.000;    0.000
407.262;  183.500;    0.000;    0.000
407.317;  182.500;    0.000;    0.000
407.373;  174.500;    0.000;    0.000
407.428;  198.500;    0.000;    0.000
407.484;  167.500;    0.000;    0.000
407.539;  174.500;    0.000;    0.000
407.594;  224.500;    0.000;    0.000
407.650;  188.500;    0.000;    0.000
407.705;  166.500;    0.000;    0.000
407.760;  174.500;    0.000;    0.000
407.816;  178.500;    0.000;    0.000
407.871;  171.500;    0.000;    0.000
407.926;  205.500;    0.000;    0.000
407.982;  182.500;    0.000;    0.000
408.037;  172.500;    0.000;    0.000
408.092;  164.500;    0.000;    0.000
408.148;  194.500;    0.000;    0.000
408.203;  173.500;    0.000;    0.000
408.258;  156.500;    0.000;    0.000
408.314;  211.500;    0.000;    0.000
408.369;  187.500;    0.000;    0.000
408.424;  190.500;    0.000;    0.000
408.479;  193.500;    0.000;    0.000
408.534;  209.500;    0.000;    0.000
408.590;  174.500;    0.000;    0.000
408.645;  168.500;    0.000;    0.000
408.700;  232.500;    0.000;    0.000
408.755;  173.500;    0.000;    0.000
408.810;  171.500;    0.000;    0.000
408.866;  186.500;    0.000;    0.000
408.921;  157.500;    0.000;    0.000
408.976;  183.500;    0.000;    0.000
409.031;  171.500;    0.000;    0.000
409.086;  180.500;    0.000;    0.000
409.141;  210.500;    0.000;    0.000
409.196;  185.500;    0.000;    0.000
409.252;  162.500;    0.000;    0.000
409.307;  140.500;    0.000;    0.000
409.362;  165.500;    0.000;    0.000
409.417;  168.500;    0.000;    0.000
409.472;  165.500;    0.000;    0.000
409.527;  196.500;    0.000;    0.000
409.582;  199.500;    0.000;    0.000
409.637;  219.500;    0.000;    0.000
409.692;  179.500;    0.000;    0.000
409.747;  151.500;    0.000;    0.000
409.802;  157.500;    0.000;    0.000
409.857;  124.500;    0.000;    0.000
409.912;  216.500;    0.000;    0.000
409.967;  190.500;    0.000;    0.000
410.022;  210.500;    0.000;    0.000
410.077;  167.500;    0.000;    0.000
410.132;  177.500;    0.000;    0.000
410.187;  149.500;    0.000;    0.000
410.242;  196.500;    0.000;    0.000
410.297;  160.500;    0.000;    0.000
410.351;  184.500;    0.000;    0.000
410.406;  215.500;    0.000;    0.000
410.461;  207.500;    0.000;    0.000
410.516;  187.500;    0.000;    0.000
410.571;  185.500;    0.000;    0.000
410.626;  183.500;    0.000;    0.000
410.681;  188.500;    0.000;    0.000
410.736;  172.500;    0.000;    0.000
410.790;  194.500;    0.000;    0.000
410.845;  215.500;    0.000;    0.000
410.900;  214.500;    0.000;    0.000
410.955;  153.500;    0.000;    0.000
411.010;  147.500;    0.000;    0.000
411.064;  198.500;    0.000;    0.000
411.119;  202.500;    0.000;    0.000
411.174;  202.500;    0.000;    0.000
411.229;  215.500;    0.000;    0.000
411.283;  186.500;    0.000;    0.000
411.338;  198.500;    0.000;    0.000
411.393;  182.500;    0.000;    0.000
411.447;  214.500;    0.000;    0.000
411.502;  224.500;    0.000;    0.000
411.557;  204.500;    0.000;    0.000
411.612;  198.500;    0.000;    0.000
411.666;  206.500;    0.000;    0.000
411.721;  182.500;    0.000;    0.000
411.776;  195.500;    0.000;    0.000
411.830;  229.500;    0.000;    0.000
411.885;  190.500;    0.000;    0.000
411.939;  228.500;    0.000;    0.000
411.994;  208.500;    0.000;    0.000
412.049;  178.500;    0.000;    0.000
412.103;  211.500;    0.000;    0.000
412.158;  238.500;    0.000;    0.000
412.212;  209.500;    0.000;    0.000
412.267;  193.500;    0.000;    0.000
412.322;  222.500;    0.000;    0.000
412.376;  184.500;    0.000;    0.000
412.431;  196.500;    0.000;    0.000
412.485;  213.500;    0.000;    0.000
412.540;  177.500;    0.000;    0.000
412.594;  168.500;    0.000;    0.000
412.649;  165.500;    0.000;    0.000
412.703;  211.500;    0.000;    0.000
412.758;  223.500;    0.000;    0.000
412.812;  177.500;    0.000;    0.000
412.866;  151.500;    0.000;    0.000
412.921;  203.500;    0.000;    0.000
412.975;  188.500;    0.000;    0.000
413.030;  226.500;    0.000;    0.000
413.084;  181.500;    0.000;    0.000
413.139;  234.500;    0.000;    0.000
413.193;  180.500;    0.000;    0.000
413.247;  221.500;    0.000;    0.000
413.302;  206.500;    0.000;    0.000
413.356;  199.500;    0.000;    0.000
413.410;  182.500;    0.000;    0.000
413.465;  191.500;    0.000;    0.000
413.519;  165.500;    0.000;    0.000
413.573;  216.500;    0.000;    0.000
413.628;  184.500;    0.000;    0.000
413.682;  226.500;    0.000;    0.000
413.736;  192.500;    0.000;    0.000
413.791;  205.500;    0.000;    0.000
413.845;  169.500;    0.000;    0.000
413.899;  203.500;    0.000;    0.000
413.953;  158.500;    0.000;    0.000
414.008;  205.500;    0.000;    0.000
414.062;  209.500;    0.000;    0.000
414.116;  193.500;    0.000;    0.000
414.170;  192.500;    0.000;    0.000
414.225;  164.500;    0.000;    0.000
414.279;  195.500;    0.000;    0.000
414.333;  215.500;    0.000;    0.000
414.387;  203.500;    0.000;    0.000
414.441;  217.500;    0.000;    0.000
414.496;  197.500;    0.000;    0.000
414.550;  210.500;    0.000;    0.000
414.604;  230.500;    0.000;    0.000
414.658;  152.500;    0.000;    0.000
414.712;  175.500;    0.000;    0.000
414.766;  227.500;    0.000;    0.000
414.820;  182.500;    0.000;    0.000
414.874;  166.500;    0.000;    0.000
414.928;  193.500;    0.000;    0.000
414.982;  184.500;    0.000;    0.000
415.037;  210.500;    0.000;    0.000
415.091;  214.500;    0.000;    0.000
415.145;  162.500;    0.000;    0.000
415.199;  185.500;    0.000;    0.000
415.253;  207.500;    0.000;    0.000
415.307;  218.500;    0.000;    0.000
415.361;  188.500;    0.000;    0.000
415.415;  220.500;    0.000;    0.000
415.469;  235.500;    0.000;    0.000
415.523;  258.500;    0.000;    0.000
415.577;  182.500;    0.000;    0.000
415.631;  231.500;    0.000;    0.000
415.684;  223.500;    0.000;    0.000
415.738;  196.500;    0.000;    0.000
415.792;  214.500;    0.000;    0.000
415.846;  240.500;    0.000;    0.000
415.900;  208.500;    0.000;    0.000
415.954;  192.500;    0.000;    0.000
416.008;  235.500;    0.000;    0.000
416.062;  192.500;    0.000;    0.000
416.116;  183.500;    0.000;    0.000
416.169;  227.500;    0.000;    0.000
416.223;  217.500;    0.000;    0.000
416.277;  190.500;    0.000;    0.000
416.331;  175.500;    0.000;    0.000
416.385;  198.500;    0.000;    0.000
416.439;  240.500;    0.000;    0.000
416.492;  209.500;    0.000;    0.000
416.546;  224.500;    0.000;    0.000
416.600;  186.500;    0.000;    0.000
416.654;  244.500;    0.000;    0.000
416.707;  223.500;    0.000;    0.000
416.761;  187.500;    0.000;    0.000
416.815;  193.500;    0.000;    0.000
416.869;  248.500;    0.000;    0.000
416.922;  191.500;    0.000;    0.000
416.976;  228.500;    0.000;    0.000
417.030;  242.500;    0.000;    0.000
417.083;  201.500;    0.000;    0.000
417.137;  215.500;    0.000;    0.000
417.191;  210.500;    0.000;    0.000
417.244;  205.500;    0.000;    0.000
417.298;  170.500;    0.000;    0.000
417.352;  205.500;    0.000;    0.000
417.405;  232.500;    0.000;    0.000
417.459;  224.500;    0.000;    0.000
417.512;  209.500;    0.000;    0.000
417.566;  238.500;    0.000;    0.000
417.620;  231.500;    0.000;    0.000
417.673;  175.500;    0.000;    0.000
417.727;  199.500;    0.000;    0.000
417.780;  211.500;    0.000;    0.000
417.834;  236.500;    0.000;    0.000
417.887;  226.500;    0.000;    0.000
417.941;  232.500;    0.000;    0.000
417.994;  220.500;    0.000;    0.000
418.048;  230.500;    0.000;    0.000
418.101;  209.500;    0.000;    0.000
418.155;  212.500;    0.000;    0.000
418.208;  251.500;    0.000;    0.000
418.262;  223.500;    0.000;    0.000
418.315;  234.500;    0.000;    0.000
418.369;  205.500;    0.000;    0.000
418.422;  225.500;    0.000;    0.000
418.476;  216.500;    0.000;    0.000
418.529;  246.500;    0.000;    0.000
418.582;  224.500;    0.000;    0.000
418.636;  187.500;    0.000;    0.000
418.689;  205.500;    0.000;    0.000
418.743;  187.500;    0.000;    0.000
418.796;  194.500;    0.000;    0.000
418.849;  231.500;    0.000;    0.000
418.903;  220.500;    0.000;    0.000
418.956;  245.500;    0.000;    0.000
419.009;  242.500;    0.000;    0.000
419.063;  208.500;    0.000;    0.000
419.116;  210.500;    0.000;    0.000
419.169;  233.500;    0.000;    0.000
419.222;  213.500;    0.000;    0.000
419.276;  208.500;    0.000;    0.000
419.329;  221.500;    0.000;    0.000
419.382;  172.500;    0.000;    0.000
419.435;  243.500;    0.000;    0.000
419.489;  227.500;    0.000;    0.000
419.542;  243.500;    0.000;    0.000
419.595;  231.500;    0.000;    0.000
419.648;  251.500;    0.000;    0.000
419.701;  210.500;    0.000;    0.000
419.755;  208.500;    0.000;    0.000
419.808;  222.500;    0.000;    0.000
419.861;  222.500;    0.000;    0.000
419.914;  282.500;    0.000;    0.000
419.967;  220.500;    0.000;    0.000
420.020;  211.500;    0.000;    0.000
420.073;  194.500;    0.000;    0.000
420.127;  242.500;    0.000;    0.000
420.180;  240.500;    0.000;    0.000
420.233;  217.500;    0.000;    0.000
420.286;  234.500;    0.000;    0.000
420.339;  230.500;    0.000;    0.000
420.392;  244.500;    0.000;    0.000
420.445;  191.500;    0.000;    0.000
420.498;  221.500;    0.000;    0.000
420.551;  184.500;    0.000;    0.000
420.604;  218.500;    0.000;    0.000
420.657;  235.500;    0.000;    0.000
420.710;  214.500;    0.000;    0.000
420.763;  253.500;    0.000;    0.000
420.816;  229.500;    0.000;    0.000
420.869;  236.500;    0.000;    0.000
420.922;  202.500;    0.000;    0.000
420.975;  264.500;    0.000;    0.000
421.028;  217.500;    0.000;    0.000
421.081;  207.500;    0.000;    0.000
421.134;  235.500;    0.000;    0.000
421.187;  184.500;    0.000;    0.000
421.239;  201.500;    0.000;    0.000
421.292;  235.500;    0.000;    0.000
421.345;  222.500;    0.000;    0.000
421.398;  222.500;    0.000;    0.000
421.451;  249.500;    0.000;    0.000
421.504;  207.500;    0.000;    0.000
421.557;  196.500;    0.000;    0.000
421.609;  200.500;    0.000;    0.000
421.662;  226.500;    0.000;    0.000
421.715;  241.500;    0.000;    0.000
421.768;  216.500;    0.000;    0.000
421.821;  215.500;    0.000;    0.000
421.873;  199.500;    0.000;    0.000
421.926;  238.500;    0.000;    0.000
421.979;  251.500;    0.000;    0.000
422.032;  223.500;    0.000;    0.000
422.084;  234.500;    0.000;    0.000
422.137;  192.500;    0.000;    0.000
422.190;  220.500;    0.000;    0.000
422.243;  204.500;    0.000;    0.000
422.295;  218.500;    0.000;    0.000
422.348;  252.500;    0.000;    0.000
422.401;  215.500;    0.000;    0.000
422.453;  213.500;    0.000;    0.000
422.506;  227.500;    0.000;    0.000
422.558;  178.500;    0.000;    0.000
422.611;  207.500;    0.000;    0.000
422.664;  220.500;    0.000;    0.000
422.716;  207.500;    0.000;    0.000
422.769;  200.500;    0.000;    0.000
422.822;  220.500;    0.000;    0.000
422.874;  208.500;    0.000;    0.000
422.927;  273.500;    0.000;    0.000
422.979;  192.500;    0.000;    0.000
423.032;  211.500;    0.000;    0.000
423.084;  211.500;    0.000;    0.000
423.137;  217.500;    0.000;    0.000
423.189;  233.500;    0.000;    0.000
423.242;  221.500;    0.000;    0.000
423.294;  226.500;    0.000;    0.000
423.347;  214.500;    0.000;    0.000
423.399;  251.500;    0.000;    0.000
423.452;  255.500;    0.000;    0.000
423.504;  225.500;    0.000;    0.000
423.557;  206.500;    0.000;    0.000
423.609;  210.500;    0.000;    0.000
423.662;  258.500;    0.000;    0.000
423.714;  216.500;    0.000;    0.000
423.766;  247.500;    0.000;    0.000
423.819;  210.500;    0.000;    0.000
423.871;  240.500;    0.000;    0.000
423.923;  214.500;    0.000;    0.000
423.976;  221.500;    0.000;    0.000
424.028;  214.500;    0.000;    0.000
424.081;  192.500;    0.000;    0.000
424.133;  213.500;    0.000;    0.000
424.185;  214.500;    0.000;    0.000
424.238;  215.500;    0.000;    0.000
424.290;  232.500;    0.000;    0.000
424.342;  227.500;    0.000;    0.000
424.394;  203.500;    0.000;    0.000
424.447;  234.500;    0.000;    0.000
424.499;  218.500;    0.000;    0.000
424.551;  247.500;    0.000;    0.000
424.603;  228.500;    0.000;    0.000
424.656;  254.500;    0.000;    0.000
424.708;  232.500;    0.000;    0.000
424.760;  220.500;    0.000;    0.000
424.812;  266.500;    0.000;    0.000
424.864;  243.500;    0.000;    0.000
424.917;  188.500;    0.000;    0.000
424.969;  241.500;    0.000;    0.000
425.021;  261.500;    0.000;    0.000
425.073;  232.500;    0.000;    0.000
425.125;  230.500;    0.000;    0.000
425.177;  251.500;    0.000;    0.000
425.229;  255.500;    0.000;    0.000
425.282;  241.500;    0.000;    0.000
425.334;  217.500;    0.000;    0.000
425.386;  238.500;    0.000;    0.000
425.438;  240.500;    0.000;    0.000
425.490;  228.500;    0.000;    0.000
425.542;  261.500;    0.000;    0.000
425.594;  215.500;    0.000;    0.000
425.646;  244.500;    0.000;    0.000
425.698;  217.500;    0.000;    0.000
425.750;  227.500;    0.000;    0.000
425.802;  201.500;    0.000;    0.000
425.854;  222.500;    0.000;    0.000
425.906;  225.500;    0.000;    0.000
425.958;  225.500;    0.000;    0.000
426.010;  242.500;    0.000;    0.000
426.062;  229.500;    0.000;    0.000
426.114;  234.500;    0.000;    0.000
426.166;  271.500;    0.000;    0.000
426.218;  249.500;    0.000;    0.000
426.270;  210.500;    0.000;    0.000
426.321;  243.500;    0.000;    0.000
426.373;  194.500;    0.000;    0.000
426.425;  234.500;    0.000;    0.000
426.477;  243.500;    0.000;    0.000
426.529;  248.500;    0.000;    0.000
426.581;  200.500;    0.000;    0.000
426.633;  244.500;    0.000;    0.000
426.684;  206.500;    0.000;    0.000
426.736;  230.500;    0.000;    0.000
426.788;  221.500;    0.000;    0.000
426.840;  193.500;    0.000;    0.000
426.892;  217.500;    0.000;    0.000
426.943;  232.500;    0.000;    0.000
426.995;  222.500;    0.000;    0.000
427.047;  195.500;    0.000;    0.000
427.099;  237.500;    0.000;    0.000
427.150;  205.500;    0.000;    0.000
427.202;  169.500;    0.000;    0.000
427.254;  182.500;    0.000;    0.000
427.306;  176.500;    0.000;    0.000
427.357;  221.500;    0.000;    0.000
427.409;  205.500;    0.000;    0.000
427.461;  185.500;    0.000;    0.000
427.512;  238.500;    0.000;    0.000
427.564;  209.500;    0.000;    0.000
427.616;  225.500;    0.000;    0.000
427.667;  243.500;    0.000;    0.000
427.719;  219.500;    0.000;    0.000
427.770;  222.500;    0.000;    0.000
427.822;  267.500;    0.000;    0.000
427.874;  207.500;    0.000;    0.000
427.925;  208.500;    0.000;    0.000
427.977;  222.500;    0.000;    0.000
428.028;  202.500;    0.000;    0.000
428.080;  236.500;    0.000;    0.000
428.131;  238.500;    0.000;    0.000
428.183;  275.500;    0.000;    0.000
428.234;  248.500;    0.000;    0.000
428.286;  222.500;    0.000;    0.000
428.337;  211.500;    0.000;    0.000
428.389;  194.500;    0.000;    0.000
428.440;  220.500;    0.000;    0.000
428.492;  221.500;    0.000;    0.000
428.543;  214.500;    0.000;    0.000
428.595;  196.500;    0.000;    0.000
428.646;  214.500;    0.000;    0.000
428.697;  233.500;    0.000;    0.000
428.749;  253.500;    0.000;    0.000
428.800;  220.500;    0.000;    0.000
428.852;  243.500;    0.000;    0.000
428.903;  198.500;    0.000;    0.000
428.954;  209.500;    0.000;    0.000
429.006;  253.500;    0.000;    0.000
429.057;  219.500;    0.000;    0.000
429.108;  192.500;    0.000;    0.000
429.160;  212.500;    0.000;    0.000
429.211;  241.500;    0.000;    0.000
429.262;  181.500;    0.000;    0.000
429.314;  224.500;    0.000;    0.000
429.365;  205.500;    0.000;    0.000
429.416;  237.500;    0.000;    0.000
429.467;  229.500;    0.000;    0.000
429.519;  203.500;    0.000;    0.000
429.570;  251.500;    0.000;    0.000
429.621;  251.500;    0.000;    0.000
429.672;  185.500;    0.000;    0.000
429.724;  197.500;    0.000;    0.000
429.775;  242.500;    0.000;    0.000
429.826;  194.500;    0.000;    0.000
429.877;  212.500;    0.000;    0.000
429.928;  247.500;    0.000;    0.000
429.980;  207.500;    0.000;    0.000
430.031;  218.500;    0.000;    0.000
430.082;  208.500;    0.000;    0.000
430.133;  191.500;    0.000;    0.000
430.184;  248.500;    0.000;    0.000
430.235;  196.500;    0.000;    0.000
430.286;  220.500;    0.000;    0.000
430.337;  207.500;    0.000;    0.000
430.388;  188.500;    0.000;    0.000
430.439;  229.500;    0.000;    0.000
430.490;  205.500;    0.000;    0.000
430.542;  205.500;    0.000;    0.000
430.593;  224.500;    0.000;    0.000
430.644;  223.500;    0.000;    0.000
430.695;  187.500;    0.000;    0.000
430.746;  199.500;    0.000;    0.000
430.797;  207.500;    0.000;    0.000
430.848;  211.500;    0.000;    0.000
430.899;  232.500;    0.000;    0.000
430.949;  218.500;    0.000;    0.000
431.000;  224.500;    0.000;    0.000
431.051;  240.500;    0.000;    0.000
431.102;  184.500;    0.000;    0.000
431.153;  215.500;    0.000;    0.000
431.204;  198.500;    0.000;    0.000
431.255;  201.500;    0.000;    0.000
431.306;  227.500;    0.000;    0.000
431.357;  205.500;    0.000;    0.000
431.408;  210.500;    0.000;    0.000
431.458;  206.500;    0.000;    0.000
431.509;  197.500;    0.000;    0.000
431.560;  236.500;    0.000;    0.000
431.611;  211.500;    0.000;    0.000
431.662;  256.500;    0.000;    0.000
431.713;  236.500;    0.000;    0.000
431.763;  223.500;    0.000;    0.000
431.814;  211.500;    0.000;    0.000
431.865;  230.500;    0.000;    0.000
431.916;  165.500;    0.000;    0.000
431.966;  205.500;    0.000;    0.000
432.017;  238.500;    0.000;    0.000
432.068;  240.500;    0.000;    0.000
432.118;  230.500;    0.000;    0.000
432.169;  217.500;    0.000;    0.000
432.220;  223.500;    0.000;    0.000
432.271;  226.500;    0.000;    0.000
432.321;  223.500;    0.000;    0.000
432.372;  228.500;    0.000;    0.000
432.423;  209.500;    0.000;    0.000
432.473;  202.500;    0.000;    0.000
432.524;  226.500;    0.000;    0.000
432.574;  252.500;    0.000;    0.000
432.625;  213.500;    0.000;    0.000
432.676;  199.500;    0.000;    0.000
432.726;  236.500;    0.000;    0.000
432.777;  236.500;    0.000;    0.000
432.827;  241.500;    0.000;    0.000
432.878;  205.500;    0.000;    0.000
432.928;  206.500;    0.000;    0.000
432.979;  231.500;    0.000;    0.000
433.029;  159.500;    0.000;    0.000
433.080;  195.500;    0.000;    0.000
433.130;  233.500;    0.000;    0.000
433.181;  244.500;    0.000;    0.000
433.231;  218.500;    0.000;    0.000
433.282;  230.500;    0.000;    0.000
433.332;  254.500;    0.000;    0.000
433.383;  285.500;    0.000;    0.000
433.433;  303.500;    0.000;    0.000
433.484;  270.500;    0.000;    0.000
433.534;  306.500;    0.000;    0.000
433.585;  240.500;    0.000;    0.000
433.635;  207.500;    0.000;    0.000
433.685;  244.500;    0.000;    0.000
433.736;  258.500;    0.000;    0.000
433.786;  248.500;    0.000;    0.000
433.836;  249.500;    0.000;    0.000
433.887;  236.500;    0.000;    0.000
433.937;  259.500;    0.000;    0.000
433.987;  220.500;    0.000;    0.000
434.038;  255.500;    0.000;    0.000
434.088;  231.500;    0.000;    0.000
434.138;  231.500;    0.000;    0.000
434.188;  236.500;    0.000;    0.000
434.239;  191.500;    0.000;    0.000
434.289;  278.500;    0.000;    0.000
434.339;  240.500;    0.000;    0.000
434.389;  258.500;    0.000;    0.000
434.440;  267.500;    0.000;    0.000
434.490;  218.500;    0.000;    0.000
434.540;  260.500;    0.000;    0.000
434.590;  253.500;    0.000;    0.000
434.640;  242.500;    0.000;    0.000
434.691;  254.500;    0.000;    0.000
434.741;  232.500;    0.000;    0.000
434.791;  247.500;    0.000;    0.000
434.841;  255.500;    0.000;    0.000
434.891;  286.500;    0.000;    0.000
434.941;  252.500;    0.000;    0.000
434.991;  259.500;    0.000;    0.000
435.042;  250.500;    0.000;    0.000
435.092;  284.500;    0.000;    0.000
435.142;  234.500;    0.000;    0.000
435.192;  209.500;    0.000;    0.000
435.242;  242.500;    0.000;    0.000
435.292;  242.500;    0.000;    0.000
435.342;  269.500;    0.000;    0.000
435.392;  248.500;    0.000;    0.000
435.442;  241.500;    0.000;    0.000
435.492;  244.500;    0.000;    0.000
435.542;  232.500;    0.000;    0.000
435.592;  219.500;    0.000;    0.000
435.642;  259.500;    0.000;    0.000
435.692;  211.500;    0.000;    0.000
435.742;  273.500;    0.000;    0.000
435.792;  239.500;    0.000;    0.000
435.842;  276.500;    0.000;    0.000
435.891;  228.500;    0.000;    0.000
435.941;  240.500;    0.000;    0.000
435.991;  279.500;    0.000;    0.000
436.041;  230.500;    0.000;    0.000
436.091;  225.500;    0.000;    0.000
436.141;  185.500;    0.000;    0.000
436.191;  229.500;    0.000;    0.000
436.241;  236.500;    0.000;    0.000
436.290;  238.500;    0.000;    0.000
436.340;  235.500;    0.000;    0.000
436.390;  253.500;    0.000;    0.000
436.440;  229.500;    0.000;    0.000
436.490;  243.500;    0.000;    0.000
436.539;  246.500;    0.000;    0.000
436.589;  256.500;    0.000;    0.000
436.639;  245.500;    0.000;    0.000
436.689;  219.500;    0.000;    0.000
436.738;  246.500;    0.000;    0.000
436.788;  210.500;    0.000;    0.000
436.838;  207.500;    0.000;    0.000
436.887;  277.500;    0.000;    0.000
436.937;  206.500;    0.000;    0.000
436.987;  224.500;    0.000;    0.000
437.036;  214.500;    0.000;    0.000
437.086;  234.500;    0.000;    0.000
437.136;  247.500;    0.000;    0.000
437.185;  192.500;    0.000;    0.000
437.235;  303.500;    0.000;    0.000
437.285;  254.500;    0.000;    0.000
437.334;  200.500;    0.000;    0.000
437.384;  242.500;    0.000;    0.000
437.433;  231.500;    0.000;    0.000
437.483;  208.500;    0.000;    0.000
437.532;  258.500;    0.000;    0.000
437.582;  209.500;    0.000;    0.000
437.631;  242.500;    0.000;    0.000
437.681;  244.500;    0.000;    0.000
437.731;  251.500;    0.000;    0.000
437.780;  212.500;    0.000;    0.000
437.829;  223.500;    0.000;    0.000
437.879;  222.500;    0.000;    0.000
437.928;  229.500;    0.000;    0.000
437.978;  222.500;    0.000;    0.000
438.027;  241.500;    0.000;    0.000
438.077;  222.500;    0.000;    0.000
438.126;  210.500;    0.000;    0.000
438.176;  193.500;    0.000;    0.000
438.225;  194.500;    0.000;    0.000
438.274;  251.500;    0.000;    0.000
438.324;  260.500;    0.000;    0.000
438.373;  228.500;    0.000;    0.000
438.422;  201.500;    0.000;    0.000
438.472;  184.500;    0.000;    0.000
438.521;  196.500;    0.000;    0.000
438.571;  237.500;    0.000;    0.000
438.620;  249.500;    0.000;    0.000
438.669;  235.500;    0.000;    0.000
438.718;  235.500;    0.000;    0.000
438.768;  219.500;    0.000;    0.000
438.817;  203.500;    0.000;    0.000
438.866;  199.500;    0.000;    0.000
438.915;  238.500;    0.000;    0.000
438.965;  228.500;    0.000;    0.000
439.014;  240.500;    0.000;    0.000
439.063;  264.500;    0.000;    0.000
439.112;  186.500;    0.000;    0.000
439.162;  294.500;    0.000;    0.000
439.211;  281.500;    0.000;    0.000
439.260;  225.500;    0.000;    0.000
439.309;  213.500;    0.000;    0.000
439.358;  232.500;    0.000;    0.000
439.407;  224.500;    0.000;    0.000
439.456;  219.500;    0.000;    0.000
439.506;  243.500;    0.000;    0.000
439.555;  261.500;    0.000;    0.000
439.604;  237.500;    0.000;    0.000
439.653;  237.500;    0.000;    0.000
439.702;  212.500;    0.000;    0.000
439.751;  222.500;    0.000;    0.000
439.800;  223.500;    0.000;    0.000
439.849;  227.500;    0.000;    0.000
439.898;  229.500;    0.000;    0.000
439.947;  217.500;    0.000;    0.000
439.996;  252.500;    0.000;    0.000
440.045;  230.500;    0.000;    0.000
440.094;  250.500;    0.000;    0.000
440.143;  259.500;    0.000;    0.000
440.192;  243.500;    0.000;    0.000
440.241;  275.500;    0.000;    0.000
440.290;  268.500;    0.000;    0.000
440.339;  238.500;    0.000;    0.000
440.388;  230.500;    0.000;    0.000
440.437;  240.500;    0.000;    0.000
440.486;  224.500;    0.000;    0.000
440.535;  275.500;    0.000;    0.000
440.583;  242.500;    0.000;    0.000
440.632;  220.500;    0.000;    0.000
440.681;  171.500;    0.000;    0.000
440.730;  271.500;    0.000;    0.000
440.779;  240.500;    0.000;    0.000
440.828;  242.500;    0.000;    0.000
440.876;  227.500;    0.000;    0.000
440.925;  206.500;    0.000;    0.000
440.974;  238.500;    0.000;    0.000
441.023;  207.500;    0.000;    0.000
441.072;  210.500;    0.000;    0.000
441.120;  266.500;    0.000;    0.000
441.169;  234.500;    0.000;    0.000
441.218;  238.500;    0.000;    0.000
441.267;  272.500;    0.000;    0.000
441.315;  236.500;    0.000;    0.000
441.364;  262.500;    0.000;    0.000
441.413;  232.500;    0.000;    0.000
441.461;  236.500;    0.000;    0.000
441.510;  249.500;    0.000;    0.000
441.559;  219.500;    0.000;    0.000
441.607;  200.500;    0.000;    0.000
441.656;  223.500;    0.000;    0.000
441.705;  221.500;    0.000;    0.000
441.753;  281.500;    0.000;    0.000
441.802;  232.500;    0.000;    0.000
441.850;  217.500;    0.000;    0.000
441.899;  236.500;    0.000;    0.000
441.948;  277.500;    0.000;    0.000
441.996;  235.500;    0.000;    0.000
442.045;  257.500;    0.000;    0.000
442.093;  229.500;    0.000;    0.000
442.142;  233.500;    0.000;    0.000
442.190;  249.500;    0.000;    0.000
442.239;  232.500;    0.000;    0.000
442.287;  261.500;    0.000;    0.000
442.336;  243.500;    0.000;    0.000
442.384;  259.500;    0.000;    0.000
442.433;  261.500;    0.000;    0.000
442.481;  289.500;    0.000;    0.000
442.529;  245.500;    0.000;    0.000
442.578;  246.500;    0.000;    0.000
442.626;  238.500;    0.000;    0.000
442.675;  297.500;    0.000;    0.000
442.723;  235.500;    0.000;    0.000
442.771;  247.500;    0.000;    0.000
442.820;  272.500;    0.000;    0.000
442.868;  230.500;    0.000;    0.000
442.917;  265.500;    0.000;    0.000
442.965;  256.500;    0.000;    0.000
443.013;  276.500;    0.000;    0.000
443.062;  227.500;    0.000;    0.000
443.110;  220.500;    0.000;    0.000
443.158;  205.500;    0.000;    0.000
443.206;  219.500;    0.000;    0.000
443.255;  269.500;    0.000;    0.000
443.303;  228.500;    0.000;    0.000
443.351;  257.500;    0.000;    0.000
443.399;  251.500;    0.000;    0.000
443.448;  258.500;    0.000;    0.000
443.496;  209.500;    0.000;    0.000
443.544;  219.500;    0.000;    0.000
443.592;  287.500;    0.000;    0.000
443.640;  262.500;    0.000;    0.000
443.689;  226.500;    0.000;    0.000
443.737;  261.500;    0.000;    0.000
443.785;  220.500;    0.000;    0.000
443.833;  236.500;    0.000;    0.000
443.881;  220.500;    0.000;    0.000
443.929;  248.500;    0.000;    0.000
443.977;  223.500;    0.000;    0.000
444.025;  225.500;    0.000;    0.000
444.074;  251.500;    0.000;    0.000
444.122;  235.500;    0.000;    0.000
444.170;  229.500;    0.000;    0.000
444.218;  220.500;    0.000;    0.000
444.266;  265.500;    0.000;    0.000
444.314;  260.500;    0.000;    0.000
444.362;  236.500;    0.000;    0.000
444.410;  255.500;    0.000;    0.000
444.458;  251.500;    0.000;    0.000
444.506;  251.500;    0.000;    0.000
444.554;  249.500;    0.000;    0.000
444.602;  249.500;    0.000;    0.000
444.650;  240.500;    0.000;    0.000
444.698;  234.500;    0.000;    0.000
444.746;  224.500;    0.000;    0.000
444.793;  215.500;    0.000;    0.000
444.841;  275.500;    0.000;    0.000
444.889;  235.500;    0.000;    0.000
444.937;  196.500;    0.000;    0.000
444.985;  245.500;    0.000;    0.000
445.033;  218.500;    0.000;    0.000
445.081;  180.500;    0.000;    0.000
445.129;  202.500;    0.000;    0.000
445.176;  177.500;    0.000;    0.000
445.224;  229.500;    0.000;    0.000
445.272;  202.500;    0.000;    0.000
445.320;  239.500;    0.000;    0.000
445.368;  232.500;    0.000;    0.000
445.415;  209.500;    0.000;    0.000
445.463;  223.500;    0.000;    0.000
445.511;  214.500;    0.000;    0.000
445.559;  218.500;    0.000;    0.000
445.606;  235.500;    0.000;    0.000
445.654;  219.500;    0.000;    0.000
445.702;  182.500;    0.000;    0.000
445.749;  266.500;    0.000;    0.000
445.797;  200.500;    0.000;    0.000
445.845;  222.500;    0.000;    0.000
445.892;  244.500;    0.000;    0.000
445.940;  238.500;    0.000;    0.000
445.988;  230.500;    0.000;    0.000
446.035;  243.500;    0.000;    0.000
446.083;  240.500;    0.000;    0.000
446.131;  185.500;    0.000;    0.000
446.178;  222.500;    0.000;    0.000
446.226;  198.500;    0.000;    0.000
446.273;  224.500;    0.000;    0.000
446.321;  169.500;    0.000;    0.000
446.368;  223.500;    0.000;    0.000
446.416;  208.500;    0.000;    0.000
446.463;  198.500;    0.000;    0.000
446.511;  205.500;    0.000;    0.000
446.558;  195.500;    0.000;    0.000
446.606;  182.500;    0.000;    0.000
446.653;  209.500;    0.000;    0.000
446.701;  228.500;    0.000;    0.000
446.748;  217.500;    0.000;    0.000
446.796;  220.500;    0.000;    0.000
446.843;  302.500;    0.000;    0.000
446.891;  249.500;    0.000;    0.000
446.938;  247.500;    0.000;    0.000
446.985;  223.500;    0.000;    0.000
447.033;  261.500;    0.000;    0.000
447.080;  246.500;    0.000;    0.000
447.128;  243.500;    0.000;    0.000
447.175;  254.500;    0.000;    0.000
447.222;  200.500;    0.000;    0.000
447.270;  275.500;    0.000;    0.000
447.317;  196.500;    0.000;    0.000
447.364;  230.500;    0.000;    0.000
447.411;  264.500;    0.000;    0.000
447.459;  233.500;    0.000;    0.000
447.506;  198.500;    0.000;    0.000
447.553;  251.500;    0.000;    0.000
447.601;  270.500;    0.000;    0.000
447.648;  245.500;    0.000;    0.000
447.695;  225.500;    0.000;    0.000
447.742;  242.500;    0.000;    0.000
447.789;  250.500;    0.000;    0.000
447.837;  248.500;    0.000;    0.000
447.884;  235.500;    0.000;    0.000
447.931;  233.500;    0.000;    0.000
447.978;  234.500;    0.000;    0.000
448.025;  228.500;    0.000;    0.000
448.072;  245.500;    0.000;    0.000
448.120;  236.500;    0.000;    0.000
448.167;  273.500;    0.000;    0.000
448.214;  246.500;    0.000;    0.000
448.261;  227.500;    0.000;    0.000
448.308;  221.500;    0.000;    0.000
448.355;  247.500;    0.000;    0.000
448.402;  247.500;    0.000;    0.000
448.449;  234.500;    0.000;    0.000
448.496;  208.500;    0.000;    0.000
448.543;  201.500;    0.000;    0.000
448.590;  226.500;    0.000;    0.000
448.637;  230.500;    0.000;    0.000
448.684;  246.500;    0.000;    0.000
448.731;  223.500;    0.000;    0.000
448.778;  265.500;    0.000;    0.000
448.825;  222.500;    0.000;    0.000
448.872;  204.500;    0.000;    0.000
448.919;  244.500;    0.000;    0.000
448.966;  258.500;    0.000;    0.000
449.013;  255.500;    0.000;    0.000
449.060;  238.500;    0.000;    0.000
449.107;  209.500;    0.000;    0.000
449.154;  235.500;    0.000;    0.000
449.200;  228.500;    0.000;    0.000
449.247;  270.500;    0.000;    0.000
449.294;  278.500;    0.000;    0.000
449.341;  237.500;    0.000;    0.000
449.388;  208.500;    0.000;    0.000
449.435;  253.500;    0.000;    0.000
449.481;  262.500;    0.000;    0.000
449.528;  290.500;    0.000;    0.000
449.575;  243.500;    0.000;    0.000
449.622;  237.500;    0.000;    0.000
449.668;  195.500;    0.000;    0.000
449.715;  266.500;    0.000;    0.000
449.762;  260.500;    0.000;    0.000
449.809;  266.500;    0.000;    0.000
449.855;  265.500;    0.000;    0.000
449.902;  262.500;    0.000;    0.000
449.949;  264.500;    0.000;    0.000
449.995;  265.500;    0.000;    0.000
450.042;  234.500;    0.000;    0.000
450.089;  291.500;    0.000;    0.000
450.135;  298.500;    0.000;    0.000
450.182;  265.500;    0.000;    0.000
450.229;  239.500;    0.000;    0.000
450.275;  294.500;    0.000;    0.000
450.322;  236.500;    0.000;    0.000
450.368;  240.500;    0.000;    0.000
450.415;  303.500;    0.000;    0.000
450.462;  242.500;    0.000;    0.000
450.508;  246.500;    0.000;    0.000
450.555;  275.500;    0.000;    0.000
450.601;  263.500;    0.000;    0.000
450.648;  254.500;    0.000;    0.000
450.694;  260.500;    0.000;    0.000
450.741;  260.500;    0.000;    0.000
450.787;  256.500;    0.000;    0.000
450.834;  240.500;    0.000;    0.000
450.880;  262.500;    0.000;    0.000
450.927;  259.500;    0.000;    0.000
450.973;  271.500;    0.000;    0.000
451.019;  229.500;    0.000;    0.000
451.066;  261.500;    0.000;    0.000
451.112;  306.500;    0.000;    0.000
451.159;  258.500;    0.000;    0.000
451.205;  254.500;    0.000;    0.000
451.251;  281.500;    0.000;    0.000
451.298;  241.500;    0.000;    0.000
451.344;  256.500;    0.000;    0.000
451.390;  270.500;    0.000;    0.000
451.437;  272.500;    0.000;    0.000
451.483;  299.500;    0.000;    0.000
451.529;  251.500;    0.000;    0.000
451.576;  241.500;    0.000;    0.000
451.622;  224.500;    0.000;    0.000
451.668;  265.500;    0.000;    0.000
451.714;  270.500;    0.000;    0.000
451.761;  238.500;    0.000;    0.000
451.807;  259.500;    0.000;    0.000
451.853;  261.500;    0.000;    0.000
451.899;  207.500;    0.000;    0.000
451.945;  278.500;    0.000;    0.000
451.992;  222.500;    0.000;    0.000
452.038;  254.500;    0.000;    0.000
452.084;  235.500;    0.000;    0.000
452.130;  252.500;    0.000;    0.000
452.176;  246.500;    0.000;    0.000
452.222;  218.500;    0.000;    0.000
452.268;  258.500;    0.000;    0.000
452.315;  274.500;    0.000;    0.000
452.361;  251.500;    0.000;    0.000
452.407;  286.500;    0.000;    0.000
452.453;  220.500;    0.000;    0.000
452.499;  254.500;    0.000;    0.000
452.545;  228.500;    0.000;    0.000
452.591;  276.500;    0.000;    0.000
452.637;  218.500;    0.000;    0.000
452.683;  259.500;    0.000;    0.000
452.729;  246.500;    0.000;    0.000
452.775;  259.500;    0.000;    0.000
452.821;  255.500;    0.000;    0.000
452.867;  234.500;    0.000;    0.000
452.913;  240.500;    0.000;    0.000
452.959;  204.500;    0.000;    0.000
453.005;  274.500;    0.000;    0.000
453.051;  264.500;    0.000;    0.000
453.097;  264.500;    0.000;    0.000
453.142;  227.500;    0.000;    0.000
453.188;  253.500;    0.000;    0.000
453.234;  228.500;    0.000;    0.000
453.280;  251.500;    0.000;    0.000
453.326;  249.500;    0.000;    0.000
453.372;  236.500;    0.000;    0.000
453.418;  245.500;    0.000;    0.000
453.463;  227.500;    0.000;    0.000
453.509;  232.500;    0.000;    0.000
453.555;  239.500;    0.000;    0.000
453.601;  217.500;    0.000;    0.000
453.647;  277.500;    0.000;    0.000
453.692;  206.500;    0.000;    0.000
453.738;  263.500;    0.000;    0.000
453.784;  232.500;    0.000;    0.000
453.829;  237.500;    0.000;    0.000
453.875;  233.500;    0.000;    0.000
453.921;  214.500;    0.000;    0.000
453.967;  250.500;    0.000;    0.000
454.012;  249.500;    0.000;    0.000
454.058;  257.500;    0.000;    0.000
454.104;  261.500;    0.000;    0.000
454.149;  284.500;    0.000;    0.000
454.195;  240.500;    0.000;    0.000
454.240;  273.500;    0.000;    0.000
454.286;  257.500;    0.000;    0.000
454.332;  261.500;    0.000;    0.000
454.377;  261.500;    0.000;    0.000
454.423;  251.500;    0.000;    0.000
454.468;  247.500;    0.000;    0.000
454.514;  213.500;    0.000;    0.000
454.559;  267.500;    0.000;    0.000
454.605;  235.500;    0.000;    0.000
454.650;  268.500;    0.000;    0.000
454.696;  216.500;    0.000;    0.000
454.741;  287.500;    0.000;    0.000
454.787;  268.500;    0.000;    0.000
454.832;  262.500;    0.000;    0.000
454.878;  279.500;    0.000;    0.000
454.923;  235.500;    0.000;    0.000
454.969;  250.500;    0.000;    0.000
455.014;  241.500;    0.000;    0.000
455.060;  230.500;    0.000;    0.000
455.105;  246.500;    0.000;    0.000
455.150;  260.500;    0.000;    0.000
455.196;  244.500;    0.000;    0.000
455.241;  249.500;    0.000;    0.000
455.286;  252.500;    0.000;    0.000
455.332;  228.500;    0.000;    0.000
455.377;  213.500;    0.000;    0.000
455.422;  263.500;    0.000;    0.000
455.468;  295.500;    0.000;    0.000
455.513;  281.500;    0.000;    0.000
455.558;  237.500;    0.000;    0.000
455.604;  245.500;    0.000;    0.000
455.649;  248.500;    0.000;    0.000
455.694;  234.500;    0.000;    0.000
455.739;  245.500;    0.000;    0.000
455.785;  257.500;    0.000;    0.000
455.830;  259.500;    0.000;    0.000
455.875;  261.500;    0.000;    0.000
455.920;  234.500;    0.000;    0.000
455.965;  233.500;    0.000;    0.000
456.010;  283.500;    0.000;    0.000
456.056;  256.500;    0.000;    0.000
456.101;  233.500;    0.000;    0.000
456.146;  244.500;    0.000;    0.000
456.191;  255.500;    0.000;    0.000
456.236;  206.500;    0.000;    0.000
456.281;  209.500;    0.000;    0.000
456.326;  233.500;    0.000;    0.000
456.371;  249.500;    0.000;    0.000
456.416;  290.500;    0.000;    0.000
456.461;  270.500;    0.000;    0.000
456.506;  217.500;    0.000;    0.000
456.552;  243.500;    0.000;    0.000
456.597;  247.500;    0.000;    0.000
456.642;  244.500;    0.000;    0.000
456.687;  274.500;    0.000;    0.000
456.732;  277.500;    0.000;    0.000
456.776;  264.500;    0.000;    0.000
456.821;  260.500;    0.000;    0.000
456.866;  253.500;    0.000;    0.000
456.911;  206.500;    0.000;    0.000
456.956;  259.500;    0.000;    0.000
457.001;  215.500;    0.000;    0.000
457.046;  227.500;    0.000;    0.000
457.091;  241.500;    0.000;    0.000
457.136;  214.500;    0.000;    0.000
457.181;  218.500;    0.000;    0.000
457.225;  242.500;    0.000;    0.000
457.270;  260.500;    0.000;    0.000
457.315;  259.500;    0.000;    0.000
457.360;  218.500;    0.000;    0.000
457.405;  218.500;    0.000;    0.000
457.450;  262.500;    0.000;    0.000
457.494;  249.500;    0.000;    0.000
457.539;  252.500;    0.000;    0.000
457.584;  240.500;    0.000;    0.000
457.629;  228.500;    0.000;    0.000
457.673;  216.500;    0.000;    0.000
457.718;  243.500;    0.000;    0.000
457.763;  245.500;    0.000;    0.000
457.807;  267.500;    0.000;    0.000
457.852;  249.500;    0.000;    0.000
457.897;  227.500;    0.000;    0.000
457.941;  274.500;    0.000;    0.000
457.986;  267.500;    0.000;    0.000
458.031;  264.500;    0.000;    0.000
458.075;  219.500;    0.000;    0.000
458.120;  272.500;    0.000;    0.000
458.165;  256.500;    0.000;    0.000
458.209;  270.500;    0.000;    0.000
458.254;  259.500;    0.000;    0.000
458.298;  280.500;    0.000;    0.000
458.343;  225.500;    0.000;    0.000
458.387;  267.500;    0.000;    0.000
458.432;  280.500;    0.000;    0.000
458.476;  278.500;    0.000;    0.000
458.521;  235.500;    0.000;    0.000
458.565;  291.500;    0.000;    0.000
458.610;  260.500;    0.000;    0.000
458.654;  249.500;    0.000;    0.000
458.699;  230.500;    0.000;    0.000
458.743;  244.500;    0.000;    0.000
458.788;  262.500;    0.000;    0.000
458.832;  299.500;    0.000;    0.000
458.877;  271.500;    0.000;    0.000
458.921;  216.500;    0.000;    0.000
458.965;  235.500;    0.000;    0.000
459.010;  258.500;    0.000;    0.000
459.054;  280.500;    0.000;    0.000
459.098;  246.500;    0.000;    0.000
459.143;  297.500;    0.000;    0.000
459.187;  236.500;    0.000;    0.000
459.231;  254.500;    0.000;    0.000
459.276;  245.500;    0.000;    0.000
459.320;  274.500;    0.000;    0.000
459.364;  293.500;    0.000;    0.000
459.409;  249.500;    0.000;    0.000
459.453;  246.500;    0.000;    0.000
459.497;  277.500;    0.000;    0.000
459.541;  294.500;    0.000;    0.000
459.586;  199.500;    0.000;    0.000
459.630;  271.500;    0.000;    0.000
459.674;  248.500;    0.000;    0.000
459.718;  241.500;    0.000;    0.000
459.762;  226.500;    0.000;    0.000
459.807;  260.500;    0.000;    0.000
459.851;  286.500;    0.000;    0.000
459.895;  215.500;    0.000;    0.000
459.939;  249.500;    0.000;    0.000
459.983;  272.500;    0.000;    0.000
460.027;  249.500;    0.000;    0.000
460.071;  312.500;    0.000;    0.000
460.115;  258.500;    0.000;    0.000
460.159;  265.500;    0.000;    0.000
460.204;  289.500;    0.000;    0.000
460.248;  221.500;    0.000;    0.000
460.292;  283.500;    0.000;    0.000
460.336;  262.500;    0.000;    0.000
460.380;  261.500;    0.000;    0.000
460.424;  273.500;    0.000;    0.000
460.468;  249.500;    0.000;    0.000
460.512;  258.500;    0.000;    0.000
460.556;  260.500;    0.000;    0.000
460.600;  239.500;    0.000;    0.000
460.643;  251.500;    0.000;    0.000
460.687;  243.500;    0.000;    0.000
460.731;  256.500;    0.000;    0.000
460.775;  249.500;    0.000;    0.000
460.819;  250.500;    0.000;    0.000
460.863;  264.500;    0.000;    0.000
460.907;  220.500;    0.000;    0.000
460.951;  255.500;    0.000;    0.000
460.995;  275.500;    0.000;    0.000
461.038;  256.500;    0.000;    0.000
461.082;  287.500;    0.000;    0.000
461.126;  293.500;    0.000;    0.000
461.170;  236.500;    0.000;    0.000
461.214;  258.500;    0.000;    0.000
461.257;  295.500;    0.000;    0.000
461.301;  298.500;    0.000;    0.000
461.345;  269.500;    0.000;    0.000
461.389;  243.500;    0.000;    0.000
461.432;  270.500;    0.000;    0.000
461.476;  238.500;    0.000;    0.000
461.520;  280.500;    0.000;    0.000
461.563;  271.500;    0.000;    0.000
461.607;  272.500;    0.000;    0.000
461.651;  266.500;    0.000;    0.000
461.694;  230.500;    0.000;    0.000
461.738;  259.500;    0.000;    0.000
461.782;  244.500;    0.000;    0.000
461.825;  257.500;    0.000;    0.000
461.869;  292.500;    0.000;    0.000
461.913;  240.500;    0.000;    0.000
461.956;  262.500;    0.000;    0.000
462.000;  245.500;    0.000;    0.000
462.043;  293.500;    0.000;    0.000
462.087;  235.500;    0.000;    0.000
462.130;  261.500;    0.000;    0.000
462.174;  284.500;    0.000;    0.000
462.217;  259.500;    0.000;    0.000
462.261;  259.500;    0.000;    0.000
462.304;  238.500;    0.000;    0.000
462.348;  261.500;    0.000;    0.000
462.391;  293.500;    0.000;    0.000
462.435;  310.500;    0.000;    0.000
462.478;  242.500;    0.000;    0.000
462.522;  244.500;    0.000;    0.000
462.565;  311.500;    0.000;    0.000
462.608;  311.500;    0.000;    0.000
462.652;  276.500;    0.000;    0.000
462.695;  290.500;    0.000;    0.000
462.739;  287.500;    0.000;    0.000
462.782;  290.500;    0.000;    0.000
462.825;  302.500;    0.000;    0.000
462.869;  285.500;    0.000;    0.000
462.912;  354.500;    0.000;    0.000
462.955;  280.500;    0.000;    0.000
462.998;  284.500;    0.000;    0.000
463.042;  312.500;    0.000;    0.000
463.085;  281.500;    0.000;    0.000
463.128;  288.500;    0.000;    0.000
463.172;  313.500;    0.000;    0.000
463.215;  327.500;    0.000;    0.000
463.258;  291.500;    0.000;    0.000
463.301;  291.500;    0.000;    0.000
463.344;  323.500;    0.000;    0.000
463.388;  329.500;    0.000;    0.000
463.431;  266.500;    0.000;    0.000
463.474;  304.500;    0.000;    0.000
463.517;  304.500;    0.000;    0.000
463.560;  296.500;    0.000;    0.000
463.603;  345.500;    0.000;    0.000
463.646;  324.500;    0.000;    0.000
463.690;  313.500;    0.000;    0.000
463.733;  307.500;    0.000;    0.000
463.776;  289.500;    0.000;    0.000
463.819;  347.500;    0.000;    0.000
463.862;  293.500;    0.000;    0.000

