dark_400us
Integration time [ms]:   0.400
Averaging Nr. [scans]: 1
Smoothing Nr. [pixels]: 0
Data measured with spectrometer [name]: VIS
Wave   ;Sample   ;Dark     ;Reference
[nm]   ;[counts] ;[counts] ;[counts] 

450.961;  207.550;    0.000;    0.000
451.100;  229.550;    0.000;    0.000
451.239;  209.550;    0.000;    0.000
451.377;  252.550;    0.000;    0.000
451.516;  217.550;    0.000;    0.000
451.655;  224.550;    0.000;    0.000
451.794;  233.550;    0.000;    0.000
451.932;  227.550;    0.000;    0.000
452.071;  222.550;    0.000;    0.000
452.210;  229.550;    0.000;    0.000
452.348;  234.550;    0.000;    0.000
452.487;  243.550;    0.000;    0.000
452.626;  248.550;    0.000;    0.000
452.764;  261.550;    0.000;    0.000
452.903;  209.550;    0.000;    0.000
453.042;  197.550;    0.000;    0.000
453.180;  258.550;    0.000;    0.000
453.319;  274.550;    0.000;    0.000
453.458;  229.550;    0.000;    0.000
453.596;  269.550;    0.000;    0.000
453.735;  249.550;    0.000;    0.000
453.873;  199.550;    0.000;    0.000
454.012;  245.550;    0.000;    0.000
454.150;  221.550;    0.000;    0.000
454.289;  227.550;    0.000;    0.000
454.427;  203.550;    0.000;    0.000
454.566;  224.550;    0.000;    0.000
454.705;  225.550;    0.000;    0.000
454.843;  229.550;    0.000;    0.000
454.981;  258.550;    0.000;    0.000
455.120;  190.550;    0.000;    0.000
455.258;  220.550;    0.000;    0.000
455.397;  205.550;    0.000;    0.000
455.535;  193.550;    0.000;    0.000
455.674;  181.550;    0.000;    0.000
455.812;  223.550;    0.000;    0.000
455.950;  198.550;    0.000;    0.000
456.089;  201.550;    0.000;    0.000
456.227;  179.550;    0.000;    0.000
456.366;  207.550;    0.000;    0.000
456.504;  240.550;    0.000;    0.000
456.642;  199.550;    0.000;    0.000
456.781;  147.550;    0.000;    0.000
456.919;  162.550;    0.000;    0.000
457.057;  172.550;    0.000;    0.000
457.196;  200.550;    0.000;    0.000
457.334;  164.550;    0.000;    0.000
457.472;  194.550;    0.000;    0.000
457.610;  221.550;    0.000;    0.000
457.749;  202.550;    0.000;    0.000
457.887;  178.550;    0.000;    0.000
458.025;  170.550;    0.000;    0.000
458.163;  183.550;    0.000;    0.000
458.301;  217.550;    0.000;    0.000
458.440;  195.550;    0.000;    0.000
458.578;  191.550;    0.000;    0.000
458.716;  197.550;    0.000;    0.000
458.854;  214.550;    0.000;    0.000
458.992;  139.550;    0.000;    0.000
459.130;  248.550;    0.000;    0.000
459.269;  232.550;    0.000;    0.000
459.407;  213.550;    0.000;    0.000
459.545;  181.550;    0.000;    0.000
459.683;  192.550;    0.000;    0.000
459.821;  152.550;    0.000;    0.000
459.959;  202.550;    0.000;    0.000
460.097;  211.550;    0.000;    0.000
460.235;  195.550;    0.000;    0.000
460.373;  190.550;    0.000;    0.000
460.511;  206.550;    0.000;    0.000
460.649;  173.550;    0.000;    0.000
460.787;  226.550;    0.000;    0.000
460.925;  164.550;    0.000;    0.000
461.063;  243.550;    0.000;    0.000
461.201;  161.550;    0.000;    0.000
461.339;  203.550;    0.000;    0.000
461.477;  177.550;    0.000;    0.000
461.615;  188.550;    0.000;    0.000
461.753;  200.550;    0.000;    0.000
461.891;  185.550;    0.000;    0.000
462.029;  196.550;    0.000;    0.000
462.166;  181.550;    0.000;    0.000
462.304;  178.550;    0.000;    0.000
462.442;  210.550;    0.000;    0.000
462.580;  177.550;    0.000;    0.000
462.718;  200.550;    0.000;    0.000
462.856;  221.550;    0.000;    0.000
462.993;  223.550;    0.000;    0.000
463.131;  151.550;    0.000;    0.000
463.269;  183.550;    0.000;    0.000
463.407;  196.550;    0.000;    0.000
463.545;  213.550;    0.000;    0.000
463.682;  154.550;    0.000;    0.000
463.820;  184.550;    0.000;    0.000
463.958;  194.550;    0.000;    0.000
464.095;  178.550;    0.000;    0.000
464.233;  203.550;    0.000;    0.000
464.371;  203.550;    0.000;    0.000
464.509;  178.550;    0.000;    0.000
464.646;  217.550;    0.000;    0.000
464.784;  183.550;    0.000;    0.000
464.921;  184.550;    0.000;    0.000
465.059;  180.550;    0.000;    0.000
465.197;  209.550;    0.000;    0.000
465.334;  155.550;    0.000;    0.000
465.472;  162.550;    0.000;    0.000
465.609;  180.550;    0.000;    0.000
465.747;  194.550;    0.000;    0.000
465.885;  207.550;    0.000;    0.000
466.022;  206.550;    0.000;    0.000
466.160;  199.550;    0.000;    0.000
466.297;  230.550;    0.000;    0.000
466.435;  187.550;    0.000;    0.000
466.572;  198.550;    0.000;    0.000
466.710;  225.550;    0.000;    0.000
466.847;  220.550;    0.000;    0.000
466.985;  195.550;    0.000;    0.000
467.122;  196.550;    0.000;    0.000
467.260;  167.550;    0.000;    0.000
467.397;  197.550;    0.000;    0.000
467.534;  212.550;    0.000;    0.000
467.672;  210.550;    0.000;    0.000
467.809;  132.550;    0.000;    0.000
467.947;  214.550;    0.000;    0.000
468.084;  177.550;    0.000;    0.000
468.221;  210.550;    0.000;    0.000
468.359;  187.550;    0.000;    0.000
468.496;  186.550;    0.000;    0.000
468.633;  173.550;    0.000;    0.000
468.771;  201.550;    0.000;    0.000
468.908;  181.550;    0.000;    0.000
469.045;  206.550;    0.000;    0.000
469.183;  181.550;    0.000;    0.000
469.320;  197.550;    0.000;    0.000
469.457;  193.550;    0.000;    0.000
469.594;  189.550;    0.000;    0.000
469.732;  195.550;    0.000;    0.000
469.869;  219.550;    0.000;    0.000
470.006;  213.550;    0.000;    0.000
470.143;  229.550;    0.000;    0.000
470.280;  187.550;    0.000;    0.000
470.417;  206.550;    0.000;    0.000
470.555;  188.550;    0.000;    0.000
470.692;  261.550;    0.000;    0.000
470.829;  225.550;    0.000;    0.000
470.966;  234.550;    0.000;    0.000
471.103;  219.550;    0.000;    0.000
471.240;  210.550;    0.000;    0.000
471.377;  197.550;    0.000;    0.000
471.514;  231.550;    0.000;    0.000
471.651;  203.550;    0.000;    0.000
471.789;  222.550;    0.000;    0.000
471.926;  203.550;    0.000;    0.000
472.063;  211.550;    0.000;    0.000
472.200;  224.550;    0.000;    0.000
472.337;  224.550;    0.000;    0.000
472.474;  207.550;    0.000;    0.000
472.611;  216.550;    0.000;    0.000
472.748;  218.550;    0.000;    0.000
472.884;  194.550;    0.000;    0.000
473.021;  192.550;    0.000;    0.000
473.158;  182.550;    0.000;    0.000
473.295;  196.550;    0.000;    0.000
473.432;  211.550;    0.000;    0.000
473.569;  221.550;    0.000;    0.000
473.706;  178.550;    0.000;    0.000
473.843;  171.550;    0.000;    0.000
473.980;  186.550;    0.000;    0.000
474.117;  198.550;    0.000;    0.000
474.253;  227.550;    0.000;    0.000
474.390;  183.550;    0.000;    0.000
474.527;  216.550;    0.000;    0.000
474.664;  217.550;    0.000;    0.000
474.801;  219.550;    0.000;    0.000
474.937;  188.550;    0.000;    0.000
475.074;  196.550;    0.000;    0.000
475.211;  206.550;    0.000;    0.000
475.348;  223.550;    0.000;    0.000
475.484;  212.550;    0.000;    0.000
475.621;  220.550;    0.000;    0.000
475.758;  186.550;    0.000;    0.000
475.894;  177.550;    0.000;    0.000
476.031;  208.550;    0.000;    0.000
476.168;  200.550;    0.000;    0.000
476.304;  222.550;    0.000;    0.000
476.441;  215.550;    0.000;    0.000
476.578;  179.550;    0.000;    0.000
476.714;  190.550;    0.000;    0.000
476.851;  188.550;    0.000;    0.000
476.987;  243.550;    0.000;    0.000
477.124;  240.550;    0.000;    0.000
477.261;  216.550;    0.000;    0.000
477.397;  205.550;    0.000;    0.000
477.534;  194.550;    0.000;    0.000
477.670;  174.550;    0.000;    0.000
477.807;  184.550;    0.000;    0.000
477.943;  228.550;    0.000;    0.000
478.080;  201.550;    0.000;    0.000
478.216;  193.550;    0.000;    0.000
478.353;  183.550;    0.000;    0.000
478.489;  168.550;    0.000;    0.000
478.626;  182.550;    0.000;    0.000
478.762;  169.550;    0.000;    0.000
478.898;  213.550;    0.000;    0.000
479.035;  212.550;    0.000;    0.000
479.171;  182.550;    0.000;    0.000
479.308;  183.550;    0.000;    0.000
479.444;  199.550;    0.000;    0.000
479.580;  203.550;    0.000;    0.000
479.717;  220.550;    0.000;    0.000
479.853;  195.550;    0.000;    0.000
479.989;  208.550;    0.000;    0.000
480.126;  162.550;    0.000;    0.000
480.262;  208.550;    0.000;    0.000
480.398;  166.550;    0.000;    0.000
480.535;  166.550;    0.000;    0.000
480.671;  214.550;    0.000;    0.000
480.807;  165.550;    0.000;    0.000
480.943;  142.550;    0.000;    0.000
481.080;  187.550;    0.000;    0.000
481.216;  177.550;    0.000;    0.000
481.352;  207.550;    0.000;    0.000
481.488;  181.550;    0.000;    0.000
481.624;  183.550;    0.000;    0.000
481.761;  178.550;    0.000;    0.000
481.897;  181.550;    0.000;    0.000
482.033;  226.550;    0.000;    0.000
482.169;  195.550;    0.000;    0.000
482.305;  162.550;    0.000;    0.000
482.441;  171.550;    0.000;    0.000
482.577;  157.550;    0.000;    0.000
482.713;  231.550;    0.000;    0.000
482.849;  172.550;    0.000;    0.000
482.985;  195.550;    0.000;    0.000
483.121;  198.550;    0.000;    0.000
483.257;  219.550;    0.000;    0.000
483.394;  166.550;    0.000;    0.000
483.530;  168.550;    0.000;    0.000
483.666;  178.550;    0.000;    0.000
483.801;  159.550;    0.000;    0.000
483.937;  172.550;    0.000;    0.000
484.073;  213.550;    0.000;    0.000
484.209;  184.550;    0.000;    0.000
484.345;  221.550;    0.000;    0.000
484.481;  190.550;    0.000;    0.000
484.617;  194.550;    0.000;    0.000
484.753;  221.550;    0.000;    0.000
484.889;  260.550;    0.000;    0.000
485.025;  189.550;    0.000;    0.000
485.161;  173.550;    0.000;    0.000
485.296;  203.550;    0.000;    0.000
485.432;  225.550;    0.000;    0.000
485.568;  190.550;    0.000;    0.000
485.704;  173.550;    0.000;    0.000
485.840;  231.550;    0.000;    0.000
485.975;  218.550;    0.000;    0.000
486.111;  181.550;    0.000;    0.000
486.247;  215.550;    0.000;    0.000
486.383;  217.550;    0.000;    0.000
486.518;  182.550;    0.000;    0.000
486.654;  197.550;    0.000;    0.000
486.790;  233.550;    0.000;    0.000
486.926;  212.550;    0.000;    0.000
487.061;  243.550;    0.000;    0.000
487.197;  195.550;    0.000;    0.000
487.333;  181.550;    0.000;    0.000
487.468;  187.550;    0.000;    0.000
487.604;  202.550;    0.000;    0.000
487.739;  224.550;    0.000;    0.000
487.875;  262.550;    0.000;    0.000
488.011;  191.550;    0.000;    0.000
488.146;  196.550;    0.000;    0.000
488.282;  259.550;    0.000;    0.000
488.417;  200.550;    0.000;    0.000
488.553;  203.550;    0.000;    0.000
488.688;  214.550;    0.000;    0.000
488.824;  206.550;    0.000;    0.000
488.960;  232.550;    0.000;    0.000
489.095;  180.550;    0.000;    0.000
489.230;  212.550;    0.000;    0.000
489.366;  175.550;    0.000;    0.000
489.501;  191.550;    0.000;    0.000
489.637;  226.550;    0.000;    0.000
489.772;  212.550;    0.000;    0.000
489.908;  206.550;    0.000;    0.000
490.043;  202.550;    0.000;    0.000
490.179;  182.550;    0.000;    0.000
490.314;  237.550;    0.000;    0.000
490.449;  184.550;    0.000;    0.000
490.585;  229.550;    0.000;    0.000
490.720;  169.550;    0.000;    0.000
490.855;  193.550;    0.000;    0.000
490.991;  181.550;    0.000;    0.000
491.126;  236.550;    0.000;    0.000
491.261;  197.550;    0.000;    0.000
491.396;  159.550;    0.000;    0.000
491.532;  167.550;    0.000;    0.000
491.667;  201.550;    0.000;    0.000
491.802;  182.550;    0.000;    0.000
491.937;  223.550;    0.000;    0.000
492.073;  234.550;    0.000;    0.000
492.208;  198.550;    0.000;    0.000
492.343;  179.550;    0.000;    0.000
492.478;  275.550;    0.000;    0.000
492.613;  214.550;    0.000;    0.000
492.749;  191.550;    0.000;    0.000
492.884;  173.550;    0.000;    0.000
493.019;  220.550;    0.000;    0.000
493.154;  218.550;    0.000;    0.000
493.289;  203.550;    0.000;    0.000
493.424;  210.550;    0.000;    0.000
493.559;  191.550;    0.000;    0.000
493.694;  212.550;    0.000;    0.000
493.829;  217.550;    0.000;    0.000
493.964;  208.550;    0.000;    0.000
494.099;  209.550;    0.000;    0.000
494.234;  200.550;    0.000;    0.000
494.369;  214.550;    0.000;    0.000
494.504;  191.550;    0.000;    0.000
494.639;  212.550;    0.000;    0.000
494.774;  209.550;    0.000;    0.000
494.909;  224.550;    0.000;    0.000
495.044;  195.550;    0.000;    0.000
495.179;  188.550;    0.000;    0.000
495.314;  228.550;    0.000;    0.000
495.449;  241.550;    0.000;    0.000
495.584;  192.550;    0.000;    0.000
495.719;  212.550;    0.000;    0.000
495.854;  214.550;    0.000;    0.000
495.988;  210.550;    0.000;    0.000
496.123;  177.550;    0.000;    0.000
496.258;  218.550;    0.000;    0.000
496.393;  226.550;    0.000;    0.000
496.528;  177.550;    0.000;    0.000
496.663;  183.550;    0.000;    0.000
496.797;  215.550;    0.000;    0.000
496.932;  211.550;    0.000;    0.000
497.067;  241.550;    0.000;    0.000
497.202;  197.550;    0.000;    0.000
497.336;  198.550;    0.000;    0.000
497.471;  190.550;    0.000;    0.000
497.606;  208.550;    0.000;    0.000
497.740;  207.550;    0.000;    0.000
497.875;  183.550;    0.000;    0.000
498.010;  191.550;    0.000;    0.000
498.144;  209.550;    0.000;    0.000
498.279;  204.550;    0.000;    0.000
498.414;  218.550;    0.000;    0.000
498.548;  160.550;    0.000;    0.000
498.683;  204.550;    0.000;    0.000
498.817;  187.550;    0.000;    0.000
498.952;  214.550;    0.000;    0.000
499.087;  221.550;    0.000;    0.000
499.221;  248.550;    0.000;    0.000
499.356;  188.550;    0.000;    0.000
499.490;  192.550;    0.000;    0.000
499.625;  193.550;    0.000;    0.000
499.759;  233.550;    0.000;    0.000
499.894;  246.550;    0.000;    0.000
500.028;  226.550;    0.000;    0.000
500.162;  230.550;    0.000;    0.000
500.297;  197.550;    0.000;    0.000
500.431;  231.550;    0.000;    0.000
500.566;  217.550;    0.000;    0.000
500.700;  233.550;    0.000;    0.000
500.835;  285.550;    0.000;    0.000
500.969;  195.550;    0.000;    0.000
501.103;  190.550;    0.000;    0.000
501.238;  235.550;    0.000;    0.000
501.372;  233.550;    0.000;    0.000
501.506;  253.550;    0.000;    0.000
501.641;  256.550;    0.000;    0.000
501.775;  229.550;    0.000;    0.000
501.909;  194.550;    0.000;    0.000
502.043;  193.550;    0.000;    0.000
502.178;  271.550;    0.000;    0.000
502.312;  194.550;    0.000;    0.000
502.446;  273.550;    0.000;    0.000
502.580;  209.550;    0.000;    0.000
502.715;  229.550;    0.000;    0.000
502.849;  218.550;    0.000;    0.000
502.983;  215.550;    0.000;    0.000
503.117;  207.550;    0.000;    0.000
503.251;  219.550;    0.000;    0.000
503.385;  237.550;    0.000;    0.000
503.520;  183.550;    0.000;    0.000
503.654;  188.550;    0.000;    0.000
503.788;  238.550;    0.000;    0.000
503.922;  194.550;    0.000;    0.000
504.056;  199.550;    0.000;    0.000
504.190;  234.550;    0.000;    0.000
504.324;  230.550;    0.000;    0.000
504.458;  195.550;    0.000;    0.000
504.592;  243.550;    0.000;    0.000
504.726;  176.550;    0.000;    0.000
504.860;  211.550;    0.000;    0.000
504.994;  165.550;    0.000;    0.000
505.128;  238.550;    0.000;    0.000
505.262;  240.550;    0.000;    0.000
505.396;  168.550;    0.000;    0.000
505.530;  170.550;    0.000;    0.000
505.664;  191.550;    0.000;    0.000
505.798;  219.550;    0.000;    0.000
505.932;  214.550;    0.000;    0.000
506.066;  238.550;    0.000;    0.000
506.199;  225.550;    0.000;    0.000
506.333;  234.550;    0.000;    0.000
506.467;  224.550;    0.000;    0.000
506.601;  187.550;    0.000;    0.000
506.735;  235.550;    0.000;    0.000
506.869;  249.550;    0.000;    0.000
507.002;  223.550;    0.000;    0.000
507.136;  232.550;    0.000;    0.000
507.270;  220.550;    0.000;    0.000
507.404;  184.550;    0.000;    0.000
507.537;  201.550;    0.000;    0.000
507.671;  246.550;    0.000;    0.000
507.805;  220.550;    0.000;    0.000
507.939;  218.550;    0.000;    0.000
508.072;  198.550;    0.000;    0.000
508.206;  199.550;    0.000;    0.000
508.340;  205.550;    0.000;    0.000
508.473;  204.550;    0.000;    0.000
508.607;  211.550;    0.000;    0.000
508.740;  211.550;    0.000;    0.000
508.874;  224.550;    0.000;    0.000
509.008;  233.550;    0.000;    0.000
509.141;  210.550;    0.000;    0.000
509.275;  172.550;    0.000;    0.000
509.408;  234.550;    0.000;    0.000
509.542;  198.550;    0.000;    0.000
509.675;  225.550;    0.000;    0.000
509.809;  233.550;    0.000;    0.000
509.942;  208.550;    0.000;    0.000
510.076;  163.550;    0.000;    0.000
510.209;  225.550;    0.000;    0.000
510.343;  207.550;    0.000;    0.000
510.476;  249.550;    0.000;    0.000
510.610;  182.550;    0.000;    0.000
510.743;  240.550;    0.000;    0.000
510.877;  231.550;    0.000;    0.000
511.010;  196.550;    0.000;    0.000
511.143;  219.550;    0.000;    0.000
511.277;  219.550;    0.000;    0.000
511.410;  210.550;    0.000;    0.000
511.543;  212.550;    0.000;    0.000
511.677;  218.550;    0.000;    0.000
511.810;  196.550;    0.000;    0.000
511.943;  198.550;    0.000;    0.000
512.077;  217.550;    0.000;    0.000
512.210;  220.550;    0.000;    0.000
512.343;  199.550;    0.000;    0.000
512.476;  204.550;    0.000;    0.000
512.610;  229.550;    0.000;    0.000
512.743;  203.550;    0.000;    0.000
512.876;  238.550;    0.000;    0.000
513.009;  230.550;    0.000;    0.000
513.142;  208.550;    0.000;    0.000
513.276;  207.550;    0.000;    0.000
513.409;  234.550;    0.000;    0.000
513.542;  243.550;    0.000;    0.000
513.675;  175.550;    0.000;    0.000
513.808;  174.550;    0.000;    0.000
513.941;  222.550;    0.000;    0.000
514.074;  235.550;    0.000;    0.000
514.207;  216.550;    0.000;    0.000
514.340;  214.550;    0.000;    0.000
514.474;  223.550;    0.000;    0.000
514.607;  233.550;    0.000;    0.000
514.740;  218.550;    0.000;    0.000
514.873;  226.550;    0.000;    0.000
515.006;  207.550;    0.000;    0.000
515.139;  204.550;    0.000;    0.000
515.272;  217.550;    0.000;    0.000
515.404;  233.550;    0.000;    0.000
515.537;  229.550;    0.000;    0.000
515.670;  228.550;    0.000;    0.000
515.803;  198.550;    0.000;    0.000
515.936;  243.550;    0.000;    0.000
516.069;  203.550;    0.000;    0.000
516.202;  209.550;    0.000;    0.000
516.335;  212.550;    0.000;    0.000
516.468;  227.550;    0.000;    0.000
516.600;  208.550;    0.000;    0.000
516.733;  220.550;    0.000;    0.000
516.866;  217.550;    0.000;    0.000
516.999;  224.550;    0.000;    0.000
517.132;  246.550;    0.000;    0.000
517.264;  256.550;    0.000;    0.000
517.397;  224.550;    0.000;    0.000
517.530;  245.550;    0.000;    0.000
517.663;  260.550;    0.000;    0.000
517.795;  253.550;    0.000;    0.000
517.928;  238.550;    0.000;    0.000
518.061;  230.550;    0.000;    0.000
518.193;  223.550;    0.000;    0.000
518.326;  230.550;    0.000;    0.000
518.459;  213.550;    0.000;    0.000
518.591;  265.550;    0.000;    0.000
518.724;  223.550;    0.000;    0.000
518.857;  194.550;    0.000;    0.000
518.989;  243.550;    0.000;    0.000
519.122;  227.550;    0.000;    0.000
519.254;  235.550;    0.000;    0.000
519.387;  224.550;    0.000;    0.000
519.519;  233.550;    0.000;    0.000
519.652;  212.550;    0.000;    0.000
519.784;  226.550;    0.000;    0.000
519.917;  228.550;    0.000;    0.000
520.049;  226.550;    0.000;    0.000
520.182;  197.550;    0.000;    0.000
520.314;  264.550;    0.000;    0.000
520.447;  199.550;    0.000;    0.000
520.579;  248.550;    0.000;    0.000
520.712;  181.550;    0.000;    0.000
520.844;  247.550;    0.000;    0.000
520.976;  186.550;    0.000;    0.000
521.109;  162.550;    0.000;    0.000
521.241;  184.550;    0.000;    0.000
521.373;  191.550;    0.000;    0.000
521.506;  238.550;    0.000;    0.000
521.638;  241.550;    0.000;    0.000
521.770;  247.550;    0.000;    0.000
521.903;  214.550;    0.000;    0.000
522.035;  248.550;    0.000;    0.000
522.167;  217.550;    0.000;    0.000
522.300;  255.550;    0.000;    0.000
522.432;  230.550;    0.000;    0.000
522.564;  267.550;    0.000;    0.000
522.696;  234.550;    0.000;    0.000
522.828;  225.550;    0.000;    0.000
522.961;  234.550;    0.000;    0.000
523.093;  219.550;    0.000;    0.000
523.225;  228.550;    0.000;    0.000
523.357;  241.550;    0.000;    0.000
523.489;  209.550;    0.000;    0.000
523.621;  233.550;    0.000;    0.000
523.753;  216.550;    0.000;    0.000
523.886;  206.550;    0.000;    0.000
524.018;  211.550;    0.000;    0.000
524.150;  215.550;    0.000;    0.000
524.282;  257.550;    0.000;    0.000
524.414;  248.550;    0.000;    0.000
524.546;  221.550;    0.000;    0.000
524.678;  224.550;    0.000;    0.000
524.810;  216.550;    0.000;    0.000
524.942;  197.550;    0.000;    0.000
525.074;  214.550;    0.000;    0.000
525.206;  181.550;    0.000;    0.000
525.338;  226.550;    0.000;    0.000
525.470;  198.550;    0.000;    0.000
525.601;  233.550;    0.000;    0.000
525.733;  171.550;    0.000;    0.000
525.865;  241.550;    0.000;    0.000
525.997;  197.550;    0.000;    0.000
526.129;  237.550;    0.000;    0.000
526.261;  227.550;    0.000;    0.000
526.393;  206.550;    0.000;    0.000
526.524;  189.550;    0.000;    0.000
526.656;  209.550;    0.000;    0.000
526.788;  271.550;    0.000;    0.000
526.920;  194.550;    0.000;    0.000
527.052;  171.550;    0.000;    0.000
527.183;  179.550;    0.000;    0.000
527.315;  215.550;    0.000;    0.000
527.447;  174.550;    0.000;    0.000
527.578;  185.550;    0.000;    0.000
527.710;  188.550;    0.000;    0.000
527.842;  204.550;    0.000;    0.000
527.973;  206.550;    0.000;    0.000
528.105;  197.550;    0.000;    0.000
528.237;  187.550;    0.000;    0.000
528.368;  160.550;    0.000;    0.000
528.500;  216.550;    0.000;    0.000
528.632;  209.550;    0.000;    0.000
528.763;  207.550;    0.000;    0.000
528.895;  176.550;    0.000;    0.000
529.026;  202.550;    0.000;    0.000
529.158;  194.550;    0.000;    0.000
529.289;  219.550;    0.000;    0.000
529.421;  184.550;    0.000;    0.000
529.552;  206.550;    0.000;    0.000
529.684;  213.550;    0.000;    0.000
529.815;  255.550;    0.000;    0.000
529.947;  170.550;    0.000;    0.000
530.078;  240.550;    0.000;    0.000
530.210;  205.550;    0.000;    0.000
530.341;  197.550;    0.000;    0.000
530.472;  202.550;    0.000;    0.000
530.604;  219.550;    0.000;    0.000
530.735;  210.550;    0.000;    0.000
530.867;  235.550;    0.000;    0.000
530.998;  245.550;    0.000;    0.000
531.129;  203.550;    0.000;    0.000
531.261;  198.550;    0.000;    0.000
531.392;  217.550;    0.000;    0.000
531.523;  214.550;    0.000;    0.000
531.654;  247.550;    0.000;    0.000
531.786;  196.550;    0.000;    0.000
531.917;  215.550;    0.000;    0.000
532.048;  165.550;    0.000;    0.000
532.179;  223.550;    0.000;    0.000
532.311;  210.550;    0.000;    0.000
532.442;  228.550;    0.000;    0.000
532.573;  226.550;    0.000;    0.000
532.704;  219.550;    0.000;    0.000
532.835;  220.550;    0.000;    0.000
532.966;  205.550;    0.000;    0.000
533.097;  210.550;    0.000;    0.000
533.229;  223.550;    0.000;    0.000
533.360;  222.550;    0.000;    0.000
533.491;  246.550;    0.000;    0.000
533.622;  227.550;    0.000;    0.000
533.753;  241.550;    0.000;    0.000
533.884;  250.550;    0.000;    0.000
534.015;  233.550;    0.000;    0.000
534.146;  237.550;    0.000;    0.000
534.277;  248.550;    0.000;    0.000
534.408;  213.550;    0.000;    0.000
534.539;  261.550;    0.000;    0.000
534.670;  237.550;    0.000;    0.000
534.801;  229.550;    0.000;    0.000
534.932;  198.550;    0.000;    0.000
535.063;  215.550;    0.000;    0.000
535.194;  285.550;    0.000;    0.000
535.324;  193.550;    0.000;    0.000
535.455;  217.550;    0.000;    0.000
535.586;  273.550;    0.000;    0.000
535.717;  200.550;    0.000;    0.000
535.848;  251.550;    0.000;    0.000
535.979;  213.550;    0.000;    0.000
536.109;  215.550;    0.000;    0.000
536.240;  235.550;    0.000;    0.000
536.371;  232.550;    0.000;    0.000
536.502;  260.550;    0.000;    0.000
536.632;  199.550;    0.000;    0.000
536.763;  236.550;    0.000;    0.000
536.894;  230.550;    0.000;    0.000
537.025;  176.550;    0.000;    0.000
537.155;  222.550;    0.000;    0.000
537.286;  224.550;    0.000;    0.000
537.417;  248.550;    0.000;    0.000
537.547;  197.550;    0.000;    0.000
537.678;  248.550;    0.000;    0.000
537.808;  191.550;    0.000;    0.000
537.939;  206.550;    0.000;    0.000
538.070;  232.550;    0.000;    0.000
538.200;  235.550;    0.000;    0.000
538.331;  218.550;    0.000;    0.000
538.461;  212.550;    0.000;    0.000
538.592;  261.550;    0.000;    0.000
538.722;  242.550;    0.000;    0.000
538.853;  204.550;    0.000;    0.000
538.983;  199.550;    0.000;    0.000
539.114;  224.550;    0.000;    0.000
539.244;  193.550;    0.000;    0.000
539.375;  207.550;    0.000;    0.000
539.505;  220.550;    0.000;    0.000
539.636;  204.550;    0.000;    0.000
539.766;  238.550;    0.000;    0.000
539.896;  195.550;    0.000;    0.000
540.027;  250.550;    0.000;    0.000
540.157;  206.550;    0.000;    0.000
540.287;  212.550;    0.000;    0.000
540.418;  235.550;    0.000;    0.000
540.548;  196.550;    0.000;    0.000
540.678;  223.550;    0.000;    0.000
540.809;  191.550;    0.000;    0.000
540.939;  208.550;    0.000;    0.000
541.069;  204.550;    0.000;    0.000
541.199;  180.550;    0.000;    0.000
541.330;  208.550;    0.000;    0.000
541.460;  202.550;    0.000;    0.000
541.590;  220.550;    0.000;    0.000
541.720;  184.550;    0.000;    0.000
541.851;  186.550;    0.000;    0.000
541.981;  186.550;    0.000;    0.000
542.111;  221.550;    0.000;    0.000
542.241;  200.550;    0.000;    0.000
542.371;  184.550;    0.000;    0.000
542.501;  193.550;    0.000;    0.000
542.631;  197.550;    0.000;    0.000
542.761;  215.550;    0.000;    0.000
542.891;  206.550;    0.000;    0.000
543.021;  188.550;    0.000;    0.000
543.151;  207.550;    0.000;    0.000
543.281;  193.550;    0.000;    0.000
543.411;  206.550;    0.000;    0.000
543.541;  207.550;    0.000;    0.000
543.671;  200.550;    0.000;    0.000
543.801;  184.550;    0.000;    0.000
543.931;  211.550;    0.000;    0.000
544.061;  247.550;    0.000;    0.000
544.191;  196.550;    0.000;    0.000
544.321;  190.550;    0.000;    0.000
544.451;  204.550;    0.000;    0.000
544.581;  184.550;    0.000;    0.000
544.711;  248.550;    0.000;    0.000
544.841;  198.550;    0.000;    0.000
544.970;  193.550;    0.000;    0.000
545.100;  206.550;    0.000;    0.000
545.230;  194.550;    0.000;    0.000
545.360;  184.550;    0.000;    0.000
545.490;  193.550;    0.000;    0.000
545.619;  179.550;    0.000;    0.000
545.749;  159.550;    0.000;    0.000
545.879;  173.550;    0.000;    0.000
546.009;  204.550;    0.000;    0.000
546.138;  179.550;    0.000;    0.000
546.268;  202.550;    0.000;    0.000
546.398;  180.550;    0.000;    0.000
546.527;  193.550;    0.000;    0.000
546.657;  146.550;    0.000;    0.000
546.787;  168.550;    0.000;    0.000
546.916;  159.550;    0.000;    0.000
547.046;  208.550;    0.000;    0.000
547.175;  161.550;    0.000;    0.000
547.305;  195.550;    0.000;    0.000
547.434;  136.550;    0.000;    0.000
547.564;  146.550;    0.000;    0.000
547.694;  166.550;    0.000;    0.000
547.823;  173.550;    0.000;    0.000
547.953;  166.550;    0.000;    0.000
548.082;  176.550;    0.000;    0.000
548.211;  157.550;    0.000;    0.000
548.341;  203.550;    0.000;    0.000
548.470;  145.550;    0.000;    0.000
548.600;  179.550;    0.000;    0.000
548.729;  172.550;    0.000;    0.000
548.859;  159.550;    0.000;    0.000
548.988;  144.550;    0.000;    0.000
549.117;  179.550;    0.000;    0.000
549.247;  176.550;    0.000;    0.000
549.376;  158.550;    0.000;    0.000
549.505;  152.550;    0.000;    0.000
549.635;  168.550;    0.000;    0.000
549.764;  118.550;    0.000;    0.000
549.893;  162.550;    0.000;    0.000
550.023;  145.550;    0.000;    0.000
550.152;  152.550;    0.000;    0.000
550.281;  152.550;    0.000;    0.000
550.410;  155.550;    0.000;    0.000
550.539;  169.550;    0.000;    0.000
550.669;  157.550;    0.000;    0.000
550.798;  164.550;    0.000;    0.000
550.927;  166.550;    0.000;    0.000
551.056;  140.550;    0.000;    0.000
551.185;  189.550;    0.000;    0.000
551.314;  173.550;    0.000;    0.000
551.443;  134.550;    0.000;    0.000
551.573;  163.550;    0.000;    0.000
551.702;  198.550;    0.000;    0.000
551.831;  179.550;    0.000;    0.000
551.960;  187.550;    0.000;    0.000
552.089;  175.550;    0.000;    0.000
552.218;  174.550;    0.000;    0.000
552.347;  223.550;    0.000;    0.000
552.476;  152.550;    0.000;    0.000
552.605;  152.550;    0.000;    0.000
552.734;  194.550;    0.000;    0.000
552.863;  141.550;    0.000;    0.000
552.992;  174.550;    0.000;    0.000
553.121;  174.550;    0.000;    0.000
553.249;  174.550;    0.000;    0.000
553.378;  149.550;    0.000;    0.000
553.507;  137.550;    0.000;    0.000
553.636;  159.550;    0.000;    0.000
553.765;  151.550;    0.000;    0.000
553.894;  177.550;    0.000;    0.000
554.023;  157.550;    0.000;    0.000
554.151;  175.550;    0.000;    0.000
554.280;  158.550;    0.000;    0.000
554.409;  138.550;    0.000;    0.000
554.538;  179.550;    0.000;    0.000
554.666;  181.550;    0.000;    0.000
554.795;  164.550;    0.000;    0.000
554.924;  161.550;    0.000;    0.000
555.053;  213.550;    0.000;    0.000
555.181;  196.550;    0.000;    0.000
555.310;  163.550;    0.000;    0.000
555.439;  162.550;    0.000;    0.000
555.567;  141.550;    0.000;    0.000
555.696;  133.550;    0.000;    0.000
555.824;  154.550;    0.000;    0.000
555.953;  200.550;    0.000;    0.000
556.082;  147.550;    0.000;    0.000
556.210;  163.550;    0.000;    0.000
556.339;  183.550;    0.000;    0.000
556.467;  145.550;    0.000;    0.000
556.596;  166.550;    0.000;    0.000
556.724;  164.550;    0.000;    0.000
556.853;  158.550;    0.000;    0.000
556.981;  180.550;    0.000;    0.000
557.110;  179.550;    0.000;    0.000
557.238;  175.550;    0.000;    0.000
557.367;  128.550;    0.000;    0.000
557.495;  199.550;    0.000;    0.000
557.623;  134.550;    0.000;    0.000
557.752;  138.550;    0.000;    0.000
557.880;  140.550;    0.000;    0.000
558.008;  200.550;    0.000;    0.000
558.137;  158.550;    0.000;    0.000
558.265;  163.550;    0.000;    0.000
558.393;  185.550;    0.000;    0.000
558.522;  146.550;    0.000;    0.000
558.650;  196.550;    0.000;    0.000
558.778;  161.550;    0.000;    0.000
558.907;  198.550;    0.000;    0.000
559.035;  165.550;    0.000;    0.000
559.163;  167.550;    0.000;    0.000
559.291;  154.550;    0.000;    0.000
559.419;  157.550;    0.000;    0.000
559.548;  123.550;    0.000;    0.000
559.676;  151.550;    0.000;    0.000
559.804;  170.550;    0.000;    0.000
559.932;  175.550;    0.000;    0.000
560.060;  149.550;    0.000;    0.000
560.188;  224.550;    0.000;    0.000
560.316;  184.550;    0.000;    0.000
560.444;  161.550;    0.000;    0.000
560.572;  174.550;    0.000;    0.000
560.700;  183.550;    0.000;    0.000
560.828;  138.550;    0.000;    0.000
560.957;  188.550;    0.000;    0.000
561.085;  191.550;    0.000;    0.000
561.212;  169.550;    0.000;    0.000
561.340;  160.550;    0.000;    0.000
561.468;  155.550;    0.000;    0.000
561.596;  176.550;    0.000;    0.000
561.724;  176.550;    0.000;    0.000
561.852;  145.550;    0.000;    0.000
561.980;  202.550;    0.000;    0.000
562.108;  156.550;    0.000;    0.000
562.236;  196.550;    0.000;    0.000
562.364;  188.550;    0.000;    0.000
562.492;  165.550;    0.000;    0.000
562.619;  167.550;    0.000;    0.000
562.747;  184.550;    0.000;    0.000
562.875;  178.550;    0.000;    0.000
563.003;  174.550;    0.000;    0.000
563.130;  175.550;    0.000;    0.000
563.258;  168.550;    0.000;    0.000
563.386;  186.550;    0.000;    0.000
563.514;  203.550;    0.000;    0.000
563.641;  183.550;    0.000;    0.000
563.769;  178.550;    0.000;    0.000
563.897;  128.550;    0.000;    0.000
564.024;  143.550;    0.000;    0.000
564.152;  188.550;    0.000;    0.000
564.280;  172.550;    0.000;    0.000
564.407;  173.550;    0.000;    0.000
564.535;  144.550;    0.000;    0.000
564.662;  190.550;    0.000;    0.000
564.790;  194.550;    0.000;    0.000
564.917;  136.550;    0.000;    0.000
565.045;  169.550;    0.000;    0.000
565.173;  166.550;    0.000;    0.000
565.300;  145.550;    0.000;    0.000
565.428;  159.550;    0.000;    0.000
565.555;  184.550;    0.000;    0.000
565.682;  151.550;    0.000;    0.000
565.810;  185.550;    0.000;    0.000
565.937;  159.550;    0.000;    0.000
566.065;  166.550;    0.000;    0.000
566.192;  132.550;    0.000;    0.000
566.320;  180.550;    0.000;    0.000
566.447;  167.550;    0.000;    0.000
566.574;  144.550;    0.000;    0.000
566.702;  155.550;    0.000;    0.000
566.829;  164.550;    0.000;    0.000
566.956;  158.550;    0.000;    0.000
567.084;  168.550;    0.000;    0.000
567.211;  154.550;    0.000;    0.000
567.338;  144.550;    0.000;    0.000
567.465;  130.550;    0.000;    0.000
567.593;  143.550;    0.000;    0.000
567.720;  144.550;    0.000;    0.000
567.847;  151.550;    0.000;    0.000
567.974;  128.550;    0.000;    0.000
568.101;  153.550;    0.000;    0.000
568.228;  218.550;    0.000;    0.000
568.356;  138.550;    0.000;    0.000
568.483;  154.550;    0.000;    0.000
568.610;  138.550;    0.000;    0.000
568.737;  151.550;    0.000;    0.000
568.864;  193.550;    0.000;    0.000
568.991;  129.550;    0.000;    0.000
569.118;  155.550;    0.000;    0.000
569.245;  129.550;    0.000;    0.000
569.372;  144.550;    0.000;    0.000
569.499;  135.550;    0.000;    0.000
569.626;  147.550;    0.000;    0.000
569.753;  138.550;    0.000;    0.000
569.880;  203.550;    0.000;    0.000
570.007;  126.550;    0.000;    0.000
570.134;  146.550;    0.000;    0.000
570.261;  158.550;    0.000;    0.000
570.388;  169.550;    0.000;    0.000
570.515;  180.550;    0.000;    0.000
570.642;  161.550;    0.000;    0.000
570.768;  127.550;    0.000;    0.000
570.895;  105.550;    0.000;    0.000
571.022;  141.550;    0.000;    0.000
571.149;  170.550;    0.000;    0.000
571.276;  147.550;    0.000;    0.000
571.402;  140.550;    0.000;    0.000
571.529;  165.550;    0.000;    0.000
571.656;  143.550;    0.000;    0.000
571.783;  143.550;    0.000;    0.000
571.909;  200.550;    0.000;    0.000
572.036;  152.550;    0.000;    0.000
572.163;  169.550;    0.000;    0.000
572.289;  160.550;    0.000;    0.000
572.416;  142.550;    0.000;    0.000
572.543;  162.550;    0.000;    0.000
572.669;  144.550;    0.000;    0.000
572.796;  161.550;    0.000;    0.000
572.922;  168.550;    0.000;    0.000
573.049;  145.550;    0.000;    0.000
573.176;  175.550;    0.000;    0.000
573.302;  154.550;    0.000;    0.000
573.429;  183.550;    0.000;    0.000
573.555;  182.550;    0.000;    0.000
573.682;  153.550;    0.000;    0.000
573.808;  188.550;    0.000;    0.000
573.935;  181.550;    0.000;    0.000
574.061;  198.550;    0.000;    0.000
574.188;  165.550;    0.000;    0.000
574.314;  171.550;    0.000;    0.000
574.440;  172.550;    0.000;    0.000
574.567;  187.550;    0.000;    0.000
574.693;  153.550;    0.000;    0.000
574.820;  135.550;    0.000;    0.000
574.946;  174.550;    0.000;    0.000
575.072;  172.550;    0.000;    0.000
575.198;  174.550;    0.000;    0.000
575.325;  167.550;    0.000;    0.000
575.451;  164.550;    0.000;    0.000
575.577;  167.550;    0.000;    0.000
575.704;  182.550;    0.000;    0.000
575.830;  201.550;    0.000;    0.000
575.956;  146.550;    0.000;    0.000
576.082;  182.550;    0.000;    0.000
576.208;  150.550;    0.000;    0.000
576.335;  145.550;    0.000;    0.000
576.461;  175.550;    0.000;    0.000
576.587;  151.550;    0.000;    0.000
576.713;  143.550;    0.000;    0.000
576.839;  207.550;    0.000;    0.000
576.965;  189.550;    0.000;    0.000
577.091;  166.550;    0.000;    0.000
577.217;  202.550;    0.000;    0.000
577.343;  158.550;    0.000;    0.000
577.470;  190.550;    0.000;    0.000
577.596;  179.550;    0.000;    0.000
577.722;  153.550;    0.000;    0.000
577.848;  173.550;    0.000;    0.000
577.973;  153.550;    0.000;    0.000
578.099;  165.550;    0.000;    0.000
578.225;  148.550;    0.000;    0.000
578.351;  201.550;    0.000;    0.000
578.477;  165.550;    0.000;    0.000
578.603;  153.550;    0.000;    0.000
578.729;  153.550;    0.000;    0.000
578.855;  136.550;    0.000;    0.000
578.981;  191.550;    0.000;    0.000
579.107;  159.550;    0.000;    0.000
579.232;  157.550;    0.000;    0.000
579.358;  161.550;    0.000;    0.000
579.484;  158.550;    0.000;    0.000
579.610;  180.550;    0.000;    0.000
579.735;  194.550;    0.000;    0.000
579.861;  157.550;    0.000;    0.000
579.987;  217.550;    0.000;    0.000
580.113;  179.550;    0.000;    0.000
580.238;  164.550;    0.000;    0.000
580.364;  197.550;    0.000;    0.000
580.490;  191.550;    0.000;    0.000
580.615;  187.550;    0.000;    0.000
580.741;  174.550;    0.000;    0.000
580.867;  180.550;    0.000;    0.000
580.992;  209.550;    0.000;    0.000
581.118;  124.550;    0.000;    0.000
581.243;  172.550;    0.000;    0.000
581.369;  177.550;    0.000;    0.000
581.494;  168.550;    0.000;    0.000
581.620;  169.550;    0.000;    0.000
581.745;  166.550;    0.000;    0.000
581.871;  186.550;    0.000;    0.000
581.996;  161.550;    0.000;    0.000
582.122;  174.550;    0.000;    0.000
582.247;  169.550;    0.000;    0.000
582.373;  157.550;    0.000;    0.000
582.498;  147.550;    0.000;    0.000
582.624;  163.550;    0.000;    0.000
582.749;  181.550;    0.000;    0.000
582.874;  181.550;    0.000;    0.000
583.000;  205.550;    0.000;    0.000
583.125;  100.550;    0.000;    0.000
583.250;  212.550;    0.000;    0.000
583.376;  207.550;    0.000;    0.000
583.501;  171.550;    0.000;    0.000
583.626;  179.550;    0.000;    0.000
583.751;  174.550;    0.000;    0.000
583.877;  174.550;    0.000;    0.000
584.002;  144.550;    0.000;    0.000
584.127;  156.550;    0.000;    0.000
584.252;  164.550;    0.000;    0.000
584.377;  181.550;    0.000;    0.000
584.503;  155.550;    0.000;    0.000
584.628;  158.550;    0.000;    0.000
584.753;  204.550;    0.000;    0.000
584.878;  156.550;    0.000;    0.000
585.003;  167.550;    0.000;    0.000
585.128;  192.550;    0.000;    0.000
585.253;  185.550;    0.000;    0.000
585.378;  154.550;    0.000;    0.000
585.503;  168.550;    0.000;    0.000
585.628;  170.550;    0.000;    0.000
585.753;  174.550;    0.000;    0.000
585.878;  133.550;    0.000;    0.000
586.003;  205.550;    0.000;    0.000
586.128;  166.550;    0.000;    0.000
586.253;  187.550;    0.000;    0.000
586.378;  155.550;    0.000;    0.000
586.503;  197.550;    0.000;    0.000
586.628;  153.550;    0.000;    0.000
586.753;  199.550;    0.000;    0.000
586.878;  138.550;    0.000;    0.000
587.003;  186.550;    0.000;    0.000
587.127;  153.550;    0.000;    0.000
587.252;  167.550;    0.000;    0.000
587.377;  186.550;    0.000;    0.000
587.502;  209.550;    0.000;    0.000
587.627;  191.550;    0.000;    0.000
587.751;  169.550;    0.000;    0.000
587.876;  172.550;    0.000;    0.000
588.001;  181.550;    0.000;    0.000
588.125;  165.550;    0.000;    0.000
588.250;  148.550;    0.000;    0.000
588.375;  203.550;    0.000;    0.000
588.499;  152.550;    0.000;    0.000
588.624;  149.550;    0.000;    0.000
588.749;  159.550;    0.000;    0.000
588.873;  120.550;    0.000;    0.000
588.998;  138.550;    0.000;    0.000
589.122;  174.550;    0.000;    0.000
589.247;  195.550;    0.000;    0.000
589.372;  174.550;    0.000;    0.000
589.496;  172.550;    0.000;    0.000
589.621;  155.550;    0.000;    0.000
589.745;  203.550;    0.000;    0.000
589.870;  170.550;    0.000;    0.000
589.994;  189.550;    0.000;    0.000
590.118;  168.550;    0.000;    0.000
590.243;  212.550;    0.000;    0.000
590.367;  212.550;    0.000;    0.000
590.492;  175.550;    0.000;    0.000
590.616;  165.550;    0.000;    0.000
590.740;  146.550;    0.000;    0.000
590.865;  200.550;    0.000;    0.000
590.989;  152.550;    0.000;    0.000
591.114;  162.550;    0.000;    0.000
591.238;  169.550;    0.000;    0.000
591.362;  193.550;    0.000;    0.000
591.486;  176.550;    0.000;    0.000
591.611;  152.550;    0.000;    0.000
591.735;  199.550;    0.000;    0.000
591.859;  157.550;    0.000;    0.000
591.983;  195.550;    0.000;    0.000
592.107;  140.550;    0.000;    0.000
592.232;  166.550;    0.000;    0.000
592.356;  148.550;    0.000;    0.000
592.480;  165.550;    0.000;    0.000
592.604;  126.550;    0.000;    0.000
592.728;  166.550;    0.000;    0.000
592.852;  147.550;    0.000;    0.000
592.976;  146.550;    0.000;    0.000
593.100;  201.550;    0.000;    0.000
593.224;  195.550;    0.000;    0.000
593.349;  193.550;    0.000;    0.000
593.473;  194.550;    0.000;    0.000
593.597;  191.550;    0.000;    0.000
593.721;  197.550;    0.000;    0.000
593.844;  204.550;    0.000;    0.000
593.968;  209.550;    0.000;    0.000
594.092;  149.550;    0.000;    0.000
594.216;  170.550;    0.000;    0.000
594.340;  177.550;    0.000;    0.000
594.464;  190.550;    0.000;    0.000
594.588;  197.550;    0.000;    0.000
594.712;  183.550;    0.000;    0.000
594.836;  191.550;    0.000;    0.000
594.959;  135.550;    0.000;    0.000
595.083;  183.550;    0.000;    0.000
595.207;  165.550;    0.000;    0.000
595.331;  180.550;    0.000;    0.000
595.455;  194.550;    0.000;    0.000
595.578;  182.550;    0.000;    0.000
595.702;  180.550;    0.000;    0.000
595.826;  187.550;    0.000;    0.000
595.949;  180.550;    0.000;    0.000
596.073;  175.550;    0.000;    0.000
596.197;  199.550;    0.000;    0.000
596.320;  200.550;    0.000;    0.000
596.444;  200.550;    0.000;    0.000
596.568;  134.550;    0.000;    0.000
596.691;  206.550;    0.000;    0.000
596.815;  184.550;    0.000;    0.000
596.938;  174.550;    0.000;    0.000
597.062;  164.550;    0.000;    0.000
597.186;  175.550;    0.000;    0.000
597.309;  151.550;    0.000;    0.000
597.433;  182.550;    0.000;    0.000
597.556;  181.550;    0.000;    0.000
597.679;  194.550;    0.000;    0.000
597.803;  140.550;    0.000;    0.000
597.926;  202.550;    0.000;    0.000
598.050;  187.550;    0.000;    0.000
598.173;  189.550;    0.000;    0.000
598.297;  155.550;    0.000;    0.000
598.420;  220.550;    0.000;    0.000
598.543;  205.550;    0.000;    0.000
598.667;  178.550;    0.000;    0.000
598.790;  167.550;    0.000;    0.000
598.913;  168.550;    0.000;    0.000
599.037;  160.550;    0.000;    0.000
599.160;  191.550;    0.000;    0.000
599.283;  177.550;    0.000;    0.000
599.406;  162.550;    0.000;    0.000
599.530;  188.550;    0.000;    0.000
599.653;  168.550;    0.000;    0.000
599.776;  166.550;    0.000;    0.000
599.899;  167.550;    0.000;    0.000
600.022;  173.550;    0.000;    0.000
600.145;  162.550;    0.000;    0.000
600.269;  198.550;    0.000;    0.000
600.392;  173.550;    0.000;    0.000
600.515;  170.550;    0.000;    0.000
600.638;  179.550;    0.000;    0.000
600.761;  217.550;    0.000;    0.000
600.884;  197.550;    0.000;    0.000
601.007;  225.550;    0.000;    0.000
601.130;  199.550;    0.000;    0.000
601.253;  192.550;    0.000;    0.000
601.376;  205.550;    0.000;    0.000
601.499;  191.550;    0.000;    0.000
601.622;  197.550;    0.000;    0.000
601.745;  146.550;    0.000;    0.000
601.868;  196.550;    0.000;    0.000
601.991;  173.550;    0.000;    0.000
602.113;  178.550;    0.000;    0.000
602.236;  179.550;    0.000;    0.000
602.359;  185.550;    0.000;    0.000
602.482;  196.550;    0.000;    0.000
602.605;  199.550;    0.000;    0.000
602.728;  193.550;    0.000;    0.000
602.850;  192.550;    0.000;    0.000
602.973;  165.550;    0.000;    0.000
603.096;  188.550;    0.000;    0.000
603.219;  184.550;    0.000;    0.000
603.341;  141.550;    0.000;    0.000
603.464;  164.550;    0.000;    0.000
603.587;  179.550;    0.000;    0.000
603.709;  186.550;    0.000;    0.000
603.832;  226.550;    0.000;    0.000
603.955;  181.550;    0.000;    0.000
604.077;  180.550;    0.000;    0.000
604.200;  168.550;    0.000;    0.000
604.322;  193.550;    0.000;    0.000
604.445;  135.550;    0.000;    0.000
604.568;  183.550;    0.000;    0.000
604.690;  172.550;    0.000;    0.000
604.813;  160.550;    0.000;    0.000
604.935;  151.550;    0.000;    0.000
605.058;  152.550;    0.000;    0.000
605.180;  162.550;    0.000;    0.000
605.303;  192.550;    0.000;    0.000
605.425;  208.550;    0.000;    0.000
605.547;  208.550;    0.000;    0.000
605.670;  186.550;    0.000;    0.000
605.792;  165.550;    0.000;    0.000
605.915;  164.550;    0.000;    0.000
606.037;  164.550;    0.000;    0.000
606.159;  152.550;    0.000;    0.000
606.282;  163.550;    0.000;    0.000
606.404;  175.550;    0.000;    0.000
606.526;  178.550;    0.000;    0.000
606.648;  162.550;    0.000;    0.000
606.771;  158.550;    0.000;    0.000
606.893;  166.550;    0.000;    0.000
607.015;  144.550;    0.000;    0.000
607.137;  155.550;    0.000;    0.000
607.260;  143.550;    0.000;    0.000
607.382;  161.550;    0.000;    0.000
607.504;  171.550;    0.000;    0.000
607.626;  196.550;    0.000;    0.000
607.748;  192.550;    0.000;    0.000
607.870;  170.550;    0.000;    0.000
607.992;  191.550;    0.000;    0.000
608.114;  200.550;    0.000;    0.000
608.236;  190.550;    0.000;    0.000
608.359;  166.550;    0.000;    0.000
608.481;  173.550;    0.000;    0.000
608.603;  140.550;    0.000;    0.000
608.725;  190.550;    0.000;    0.000
608.847;  197.550;    0.000;    0.000
608.968;  183.550;    0.000;    0.000
609.090;  191.550;    0.000;    0.000
609.212;  150.550;    0.000;    0.000
609.334;  181.550;    0.000;    0.000
609.456;  193.550;    0.000;    0.000
609.578;  204.550;    0.000;    0.000
609.700;  146.550;    0.000;    0.000
609.822;  113.550;    0.000;    0.000
609.944;  185.550;    0.000;    0.000
610.065;  201.550;    0.000;    0.000
610.187;  176.550;    0.000;    0.000
610.309;  171.550;    0.000;    0.000
610.431;  177.550;    0.000;    0.000
610.552;  185.550;    0.000;    0.000
610.674;  199.550;    0.000;    0.000
610.796;  180.550;    0.000;    0.000
610.918;  184.550;    0.000;    0.000
611.039;  157.550;    0.000;    0.000
611.161;  169.550;    0.000;    0.000
611.282;  194.550;    0.000;    0.000
611.404;  196.550;    0.000;    0.000
611.526;  156.550;    0.000;    0.000
611.647;  179.550;    0.000;    0.000
611.769;  185.550;    0.000;    0.000
611.890;  155.550;    0.000;    0.000
612.012;  202.550;    0.000;    0.000
612.134;  162.550;    0.000;    0.000
612.255;  190.550;    0.000;    0.000
612.377;  179.550;    0.000;    0.000
612.498;  192.550;    0.000;    0.000
612.619;  177.550;    0.000;    0.000
612.741;  191.550;    0.000;    0.000
612.862;  229.550;    0.000;    0.000
612.984;  142.550;    0.000;    0.000
613.105;  188.550;    0.000;    0.000
613.226;  185.550;    0.000;    0.000
613.348;  200.550;    0.000;    0.000
613.469;  221.550;    0.000;    0.000
613.590;  165.550;    0.000;    0.000
613.712;  210.550;    0.000;    0.000
613.833;  193.550;    0.000;    0.000
613.954;  178.550;    0.000;    0.000
614.076;  189.550;    0.000;    0.000
614.197;  193.550;    0.000;    0.000
614.318;  197.550;    0.000;    0.000
614.439;  169.550;    0.000;    0.000
614.560;  207.550;    0.000;    0.000
614.682;  197.550;    0.000;    0.000
614.803;  175.550;    0.000;    0.000
614.924;  177.550;    0.000;    0.000
615.045;  193.550;    0.000;    0.000
615.166;  222.550;    0.000;    0.000
615.287;  175.550;    0.000;    0.000
615.408;  160.550;    0.000;    0.000
615.529;  177.550;    0.000;    0.000
615.650;  151.550;    0.000;    0.000
615.771;  155.550;    0.000;    0.000
615.892;  172.550;    0.000;    0.000
616.013;  158.550;    0.000;    0.000
616.134;  193.550;    0.000;    0.000
616.255;  204.550;    0.000;    0.000
616.376;  158.550;    0.000;    0.000
616.497;  188.550;    0.000;    0.000
616.618;  151.550;    0.000;    0.000
616.739;  171.550;    0.000;    0.000
616.860;  196.550;    0.000;    0.000
616.981;  183.550;    0.000;    0.000
617.101;  212.550;    0.000;    0.000
617.222;  210.550;    0.000;    0.000
617.343;  192.550;    0.000;    0.000
617.464;  226.550;    0.000;    0.000
617.585;  186.550;    0.000;    0.000
617.705;  196.550;    0.000;    0.000
617.826;  193.550;    0.000;    0.000
617.947;  206.550;    0.000;    0.000
618.068;  221.550;    0.000;    0.000
618.188;  183.550;    0.000;    0.000
618.309;  204.550;    0.000;    0.000
618.430;  171.550;    0.000;    0.000
618.550;  209.550;    0.000;    0.000
618.671;  177.550;    0.000;    0.000
618.791;  150.550;    0.000;    0.000
618.912;  196.550;    0.000;    0.000
619.033;  208.550;    0.000;    0.000
619.153;  201.550;    0.000;    0.000
619.274;  191.550;    0.000;    0.000
619.394;  221.550;    0.000;    0.000
619.515;  168.550;    0.000;    0.000
619.635;  176.550;    0.000;    0.000
619.756;  223.550;    0.000;    0.000
619.876;  218.550;    0.000;    0.000
619.996;  211.550;    0.000;    0.000
620.117;  186.550;    0.000;    0.000
620.237;  200.550;    0.000;    0.000
620.358;  220.550;    0.000;    0.000
620.478;  195.550;    0.000;    0.000
620.598;  232.550;    0.000;    0.000
620.719;  197.550;    0.000;    0.000
620.839;  170.550;    0.000;    0.000
620.959;  206.550;    0.000;    0.000
621.079;  190.550;    0.000;    0.000
621.200;  186.550;    0.000;    0.000
621.320;  229.550;    0.000;    0.000
621.440;  209.550;    0.000;    0.000
621.560;  189.550;    0.000;    0.000
621.681;  181.550;    0.000;    0.000
621.801;  211.550;    0.000;    0.000
621.921;  203.550;    0.000;    0.000
622.041;  213.550;    0.000;    0.000
622.161;  213.550;    0.000;    0.000
622.281;  195.550;    0.000;    0.000
622.401;  206.550;    0.000;    0.000
622.521;  198.550;    0.000;    0.000
622.641;  183.550;    0.000;    0.000
622.761;  201.550;    0.000;    0.000
622.882;  218.550;    0.000;    0.000
623.002;  203.550;    0.000;    0.000
623.121;  197.550;    0.000;    0.000
623.241;  236.550;    0.000;    0.000
623.361;  161.550;    0.000;    0.000
623.481;  181.550;    0.000;    0.000
623.601;  222.550;    0.000;    0.000
623.721;  199.550;    0.000;    0.000
623.841;  228.550;    0.000;    0.000
623.961;  187.550;    0.000;    0.000
624.081;  159.550;    0.000;    0.000
624.201;  159.550;    0.000;    0.000
624.320;  196.550;    0.000;    0.000
624.440;  178.550;    0.000;    0.000
624.560;  194.550;    0.000;    0.000
624.680;  192.550;    0.000;    0.000
624.799;  174.550;    0.000;    0.000
624.919;  192.550;    0.000;    0.000
625.039;  199.550;    0.000;    0.000
625.159;  195.550;    0.000;    0.000
625.278;  152.550;    0.000;    0.000
625.398;  199.550;    0.000;    0.000
625.518;  160.550;    0.000;    0.000
625.637;  224.550;    0.000;    0.000
625.757;  188.550;    0.000;    0.000
625.876;  142.550;    0.000;    0.000
625.996;  210.550;    0.000;    0.000
626.115;  176.550;    0.000;    0.000
626.235;  182.550;    0.000;    0.000
626.355;  186.550;    0.000;    0.000
626.474;  185.550;    0.000;    0.000
626.593;  157.550;    0.000;    0.000
626.713;  176.550;    0.000;    0.000
626.832;  215.550;    0.000;    0.000
626.952;  155.550;    0.000;    0.000
627.071;  205.550;    0.000;    0.000
627.191;  161.550;    0.000;    0.000
627.310;  196.550;    0.000;    0.000
627.429;  192.550;    0.000;    0.000
627.549;  182.550;    0.000;    0.000
627.668;  159.550;    0.000;    0.000
627.787;  217.550;    0.000;    0.000
627.907;  196.550;    0.000;    0.000
628.026;  204.550;    0.000;    0.000
628.145;  195.550;    0.000;    0.000
628.264;  188.550;    0.000;    0.000
628.384;  183.550;    0.000;    0.000
628.503;  182.550;    0.000;    0.000
628.622;  186.550;    0.000;    0.000
628.741;  188.550;    0.000;    0.000
628.860;  192.550;    0.000;    0.000
628.980;  192.550;    0.000;    0.000
629.099;  185.550;    0.000;    0.000
629.218;  191.550;    0.000;    0.000
629.337;  182.550;    0.000;    0.000
629.456;  178.550;    0.000;    0.000
629.575;  166.550;    0.000;    0.000
629.694;  181.550;    0.000;    0.000
629.813;  210.550;    0.000;    0.000
629.932;  187.550;    0.000;    0.000
630.051;  229.550;    0.000;    0.000
630.170;  211.550;    0.000;    0.000
630.289;  211.550;    0.000;    0.000
630.408;  197.550;    0.000;    0.000
630.527;  262.550;    0.000;    0.000
630.646;  163.550;    0.000;    0.000
630.764;  190.550;    0.000;    0.000
630.883;  180.550;    0.000;    0.000
631.002;  203.550;    0.000;    0.000
631.121;  181.550;    0.000;    0.000
631.240;  238.550;    0.000;    0.000
631.359;  203.550;    0.000;    0.000
631.477;  166.550;    0.000;    0.000
631.596;  222.550;    0.000;    0.000
631.715;  209.550;    0.000;    0.000
631.834;  219.550;    0.000;    0.000
631.952;  190.550;    0.000;    0.000
632.071;  159.550;    0.000;    0.000
632.190;  165.550;    0.000;    0.000
632.308;  199.550;    0.000;    0.000
632.427;  184.550;    0.000;    0.000
632.546;  217.550;    0.000;    0.000
632.664;  188.550;    0.000;    0.000
632.783;  245.550;    0.000;    0.000
632.901;  224.550;    0.000;    0.000
633.020;  212.550;    0.000;    0.000
633.138;  205.550;    0.000;    0.000
633.257;  192.550;    0.000;    0.000
633.375;  195.550;    0.000;    0.000
633.494;  182.550;    0.000;    0.000
633.612;  224.550;    0.000;    0.000
633.731;  191.550;    0.000;    0.000
633.849;  214.550;    0.000;    0.000
633.968;  200.550;    0.000;    0.000
634.086;  223.550;    0.000;    0.000
634.204;  208.550;    0.000;    0.000
634.323;  190.550;    0.000;    0.000
634.441;  221.550;    0.000;    0.000
634.559;  200.550;    0.000;    0.000
634.678;  190.550;    0.000;    0.000
634.796;  178.550;    0.000;    0.000
634.914;  221.550;    0.000;    0.000
635.032;  231.550;    0.000;    0.000
635.151;  212.550;    0.000;    0.000
635.269;  195.550;    0.000;    0.000
635.387;  233.550;    0.000;    0.000
635.505;  205.550;    0.000;    0.000
635.623;  236.550;    0.000;    0.000
635.742;  184.550;    0.000;    0.000
635.860;  204.550;    0.000;    0.000
635.978;  211.550;    0.000;    0.000
636.096;  203.550;    0.000;    0.000
636.214;  212.550;    0.000;    0.000
636.332;  168.550;    0.000;    0.000
636.450;  208.550;    0.000;    0.000
636.568;  212.550;    0.000;    0.000
636.686;  176.550;    0.000;    0.000
636.804;  186.550;    0.000;    0.000
636.922;  182.550;    0.000;    0.000
637.040;  210.550;    0.000;    0.000
637.158;  220.550;    0.000;    0.000
637.276;  228.550;    0.000;    0.000
637.394;  191.550;    0.000;    0.000
637.512;  189.550;    0.000;    0.000
637.629;  237.550;    0.000;    0.000
637.747;  186.550;    0.000;    0.000
637.865;  186.550;    0.000;    0.000
637.983;  194.550;    0.000;    0.000
638.101;  193.550;    0.000;    0.000
638.218;  159.550;    0.000;    0.000
638.336;  217.550;    0.000;    0.000
638.454;  217.550;    0.000;    0.000
638.572;  223.550;    0.000;    0.000
638.689;  255.550;    0.000;    0.000
638.807;  228.550;    0.000;    0.000
638.925;  211.550;    0.000;    0.000
639.042;  191.550;    0.000;    0.000
639.160;  228.550;    0.000;    0.000
639.278;  144.550;    0.000;    0.000
639.395;  190.550;    0.000;    0.000
639.513;  198.550;    0.000;    0.000
639.630;  178.550;    0.000;    0.000
639.748;  202.550;    0.000;    0.000
639.865;  206.550;    0.000;    0.000
639.983;  189.550;    0.000;    0.000
640.100;  197.550;    0.000;    0.000
640.218;  185.550;    0.000;    0.000
640.335;  193.550;    0.000;    0.000
640.453;  171.550;    0.000;    0.000
640.570;  215.550;    0.000;    0.000
640.687;  167.550;    0.000;    0.000
640.805;  173.550;    0.000;    0.000
640.922;  219.550;    0.000;    0.000
641.040;  184.550;    0.000;    0.000
641.157;  200.550;    0.000;    0.000
641.274;  166.550;    0.000;    0.000
641.391;  213.550;    0.000;    0.000
641.509;  184.550;    0.000;    0.000
641.626;  200.550;    0.000;    0.000
641.743;  192.550;    0.000;    0.000
641.860;  179.550;    0.000;    0.000
641.978;  185.550;    0.000;    0.000
642.095;  206.550;    0.000;    0.000
642.212;  166.550;    0.000;    0.000
642.329;  232.550;    0.000;    0.000
642.446;  204.550;    0.000;    0.000
642.563;  235.550;    0.000;    0.000
642.681;  195.550;    0.000;    0.000
642.798;  191.550;    0.000;    0.000
642.915;  208.550;    0.000;    0.000
643.032;  210.550;    0.000;    0.000
643.149;  210.550;    0.000;    0.000
643.266;  190.550;    0.000;    0.000
643.383;  190.550;    0.000;    0.000
643.500;  168.550;    0.000;    0.000
643.617;  167.550;    0.000;    0.000
643.734;  201.550;    0.000;    0.000
643.850;  185.550;    0.000;    0.000
643.967;  233.550;    0.000;    0.000
644.084;  232.550;    0.000;    0.000
644.201;  190.550;    0.000;    0.000
644.318;  217.550;    0.000;    0.000
644.435;  199.550;    0.000;    0.000
644.552;  189.550;    0.000;    0.000
644.668;  206.550;    0.000;    0.000
644.785;  185.550;    0.000;    0.000
644.902;  209.550;    0.000;    0.000
645.019;  222.550;    0.000;    0.000
645.135;  189.550;    0.000;    0.000
645.252;  143.550;    0.000;    0.000
645.369;  207.550;    0.000;    0.000
645.485;  199.550;    0.000;    0.000
645.602;  157.550;    0.000;    0.000
645.719;  193.550;    0.000;    0.000
645.835;  198.550;    0.000;    0.000
645.952;  204.550;    0.000;    0.000
646.068;  182.550;    0.000;    0.000
646.185;  205.550;    0.000;    0.000
646.302;  219.550;    0.000;    0.000
646.418;  185.550;    0.000;    0.000
646.535;  202.550;    0.000;    0.000
646.651;  177.550;    0.000;    0.000
646.768;  211.550;    0.000;    0.000
646.884;  192.550;    0.000;    0.000
647.000;  223.550;    0.000;    0.000
647.117;  179.550;    0.000;    0.000
647.233;  195.550;    0.000;    0.000
647.350;  202.550;    0.000;    0.000
647.466;  180.550;    0.000;    0.000
647.582;  192.550;    0.000;    0.000
647.699;  216.550;    0.000;    0.000
647.815;  198.550;    0.000;    0.000
647.931;  197.550;    0.000;    0.000
648.047;  182.550;    0.000;    0.000
648.164;  206.550;    0.000;    0.000
648.280;  206.550;    0.000;    0.000
648.396;  201.550;    0.000;    0.000
648.512;  217.550;    0.000;    0.000
648.629;  211.550;    0.000;    0.000
648.745;  199.550;    0.000;    0.000
648.861;  187.550;    0.000;    0.000
648.977;  215.550;    0.000;    0.000
649.093;  203.550;    0.000;    0.000
649.209;  226.550;    0.000;    0.000
649.325;  198.550;    0.000;    0.000
649.441;  206.550;    0.000;    0.000
649.557;  246.550;    0.000;    0.000
649.673;  224.550;    0.000;    0.000
649.789;  215.550;    0.000;    0.000
649.905;  177.550;    0.000;    0.000
650.021;  247.550;    0.000;    0.000
650.137;  199.550;    0.000;    0.000
650.253;  190.550;    0.000;    0.000
650.369;  194.550;    0.000;    0.000
650.485;  237.550;    0.000;    0.000
650.601;  230.550;    0.000;    0.000
650.717;  168.550;    0.000;    0.000
650.833;  223.550;    0.000;    0.000
650.948;  215.550;    0.000;    0.000
651.064;  211.550;    0.000;    0.000
651.180;  213.550;    0.000;    0.000
651.296;  226.550;    0.000;    0.000
651.411;  210.550;    0.000;    0.000
651.527;  188.550;    0.000;    0.000
651.643;  228.550;    0.000;    0.000
651.759;  213.550;    0.000;    0.000
651.874;  185.550;    0.000;    0.000
651.990;  241.550;    0.000;    0.000
652.105;  188.550;    0.000;    0.000
652.221;  214.550;    0.000;    0.000
652.337;  189.550;    0.000;    0.000
652.452;  203.550;    0.000;    0.000
652.568;  203.550;    0.000;    0.000
652.683;  200.550;    0.000;    0.000
652.799;  163.550;    0.000;    0.000
652.914;  169.550;    0.000;    0.000
653.030;  190.550;    0.000;    0.000
653.145;  196.550;    0.000;    0.000
653.261;  226.550;    0.000;    0.000
653.376;  198.550;    0.000;    0.000
653.492;  209.550;    0.000;    0.000
653.607;  227.550;    0.000;    0.000
653.722;  254.550;    0.000;    0.000
653.838;  257.550;    0.000;    0.000
653.953;  181.550;    0.000;    0.000
654.068;  237.550;    0.000;    0.000
654.184;  198.550;    0.000;    0.000
654.299;  203.550;    0.000;    0.000
654.414;  173.550;    0.000;    0.000
654.530;  209.550;    0.000;    0.000
654.645;  213.550;    0.000;    0.000
654.760;  199.550;    0.000;    0.000
654.875;  184.550;    0.000;    0.000
654.990;  191.550;    0.000;    0.000
655.106;  233.550;    0.000;    0.000
655.221;  221.550;    0.000;    0.000
655.336;  216.550;    0.000;    0.000
655.451;  198.550;    0.000;    0.000
655.566;  226.550;    0.000;    0.000
655.681;  207.550;    0.000;    0.000
655.796;  211.550;    0.000;    0.000
655.911;  200.550;    0.000;    0.000
656.026;  245.550;    0.000;    0.000
656.141;  217.550;    0.000;    0.000
656.256;  204.550;    0.000;    0.000
656.371;  184.550;    0.000;    0.000
656.486;  222.550;    0.000;    0.000
656.601;  235.550;    0.000;    0.000
656.716;  203.550;    0.000;    0.000
656.831;  214.550;    0.000;    0.000
656.946;  188.550;    0.000;    0.000
657.060;  235.550;    0.000;    0.000
657.175;  234.550;    0.000;    0.000
657.290;  214.550;    0.000;    0.000
657.405;  245.550;    0.000;    0.000
657.520;  238.550;    0.000;    0.000
657.634;  226.550;    0.000;    0.000
657.749;  213.550;    0.000;    0.000
657.864;  195.550;    0.000;    0.000
657.979;  235.550;    0.000;    0.000
658.093;  191.550;    0.000;    0.000
658.208;  227.550;    0.000;    0.000
658.323;  201.550;    0.000;    0.000
658.437;  202.550;    0.000;    0.000
658.552;  222.550;    0.000;    0.000
658.666;  230.550;    0.000;    0.000
658.781;  192.550;    0.000;    0.000
658.895;  209.550;    0.000;    0.000
659.010;  255.550;    0.000;    0.000
659.125;  183.550;    0.000;    0.000
659.239;  187.550;    0.000;    0.000
659.353;  216.550;    0.000;    0.000
659.468;  215.550;    0.000;    0.000
659.582;  228.550;    0.000;    0.000
659.697;  200.550;    0.000;    0.000
659.811;  214.550;    0.000;    0.000
659.926;  202.550;    0.000;    0.000
660.040;  172.550;    0.000;    0.000
660.154;  220.550;    0.000;    0.000
660.269;  200.550;    0.000;    0.000
660.383;  193.550;    0.000;    0.000
660.497;  245.550;    0.000;    0.000
660.612;  234.550;    0.000;    0.000
660.726;  240.550;    0.000;    0.000
660.840;  210.550;    0.000;    0.000
660.954;  181.550;    0.000;    0.000
661.068;  209.550;    0.000;    0.000
661.183;  203.550;    0.000;    0.000
661.297;  202.550;    0.000;    0.000
661.411;  223.550;    0.000;    0.000
661.525;  209.550;    0.000;    0.000
661.639;  215.550;    0.000;    0.000
661.753;  198.550;    0.000;    0.000
661.867;  239.550;    0.000;    0.000
661.981;  200.550;    0.000;    0.000
662.095;  183.550;    0.000;    0.000
662.209;  208.550;    0.000;    0.000
662.323;  221.550;    0.000;    0.000
662.437;  190.550;    0.000;    0.000
662.551;  236.550;    0.000;    0.000
662.665;  222.550;    0.000;    0.000
662.779;  218.550;    0.000;    0.000
662.893;  217.550;    0.000;    0.000
663.007;  189.550;    0.000;    0.000
663.121;  238.550;    0.000;    0.000
663.235;  201.550;    0.000;    0.000
663.348;  211.550;    0.000;    0.000
663.462;  203.550;    0.000;    0.000
663.576;  193.550;    0.000;    0.000
663.690;  213.550;    0.000;    0.000
663.804;  195.550;    0.000;    0.000
663.917;  182.550;    0.000;    0.000
664.031;  194.550;    0.000;    0.000
664.145;  213.550;    0.000;    0.000
664.258;  201.550;    0.000;    0.000
664.372;  194.550;    0.000;    0.000
664.486;  183.550;    0.000;    0.000
664.599;  189.550;    0.000;    0.000
664.713;  275.550;    0.000;    0.000
664.827;  177.550;    0.000;    0.000
664.940;  221.550;    0.000;    0.000
665.054;  216.550;    0.000;    0.000
665.167;  191.550;    0.000;    0.000
665.281;  228.550;    0.000;    0.000
665.394;  181.550;    0.000;    0.000
665.508;  163.550;    0.000;    0.000
665.621;  208.550;    0.000;    0.000
665.735;  236.550;    0.000;    0.000
665.848;  186.550;    0.000;    0.000
665.961;  209.550;    0.000;    0.000
666.075;  228.550;    0.000;    0.000
666.188;  202.550;    0.000;    0.000
666.301;  216.550;    0.000;    0.000
666.415;  207.550;    0.000;    0.000
666.528;  203.550;    0.000;    0.000
666.641;  202.550;    0.000;    0.000
666.755;  219.550;    0.000;    0.000
666.868;  200.550;    0.000;    0.000
666.981;  238.550;    0.000;    0.000
667.094;  248.550;    0.000;    0.000
667.207;  221.550;    0.000;    0.000
667.321;  166.550;    0.000;    0.000
667.434;  184.550;    0.000;    0.000
667.547;  263.550;    0.000;    0.000
667.660;  206.550;    0.000;    0.000
667.773;  233.550;    0.000;    0.000
667.886;  161.550;    0.000;    0.000
667.999;  224.550;    0.000;    0.000
668.112;  204.550;    0.000;    0.000
668.225;  193.550;    0.000;    0.000
668.338;  197.550;    0.000;    0.000
668.451;  245.550;    0.000;    0.000
668.564;  252.550;    0.000;    0.000
668.677;  192.550;    0.000;    0.000
668.790;  205.550;    0.000;    0.000
668.903;  227.550;    0.000;    0.000
669.016;  165.550;    0.000;    0.000
669.129;  222.550;    0.000;    0.000
669.242;  188.550;    0.000;    0.000
669.355;  207.550;    0.000;    0.000
669.467;  200.550;    0.000;    0.000
669.580;  243.550;    0.000;    0.000
669.693;  221.550;    0.000;    0.000
669.806;  220.550;    0.000;    0.000
669.918;  168.550;    0.000;    0.000
670.031;  226.550;    0.000;    0.000
670.144;  200.550;    0.000;    0.000
670.256;  205.550;    0.000;    0.000
670.369;  226.550;    0.000;    0.000
670.482;  262.550;    0.000;    0.000
670.594;  241.550;    0.000;    0.000
670.707;  220.550;    0.000;    0.000
670.820;  249.550;    0.000;    0.000
670.932;  233.550;    0.000;    0.000
671.045;  213.550;    0.000;    0.000
671.157;  229.550;    0.000;    0.000
671.270;  220.550;    0.000;    0.000
671.382;  223.550;    0.000;    0.000
671.495;  241.550;    0.000;    0.000
671.607;  235.550;    0.000;    0.000
671.720;  199.550;    0.000;    0.000
671.832;  162.550;    0.000;    0.000
671.944;  222.550;    0.000;    0.000
672.057;  211.550;    0.000;    0.000
672.169;  214.550;    0.000;    0.000
672.282;  224.550;    0.000;    0.000
672.394;  203.550;    0.000;    0.000
672.506;  207.550;    0.000;    0.000
672.618;  220.550;    0.000;    0.000
672.731;  245.550;    0.000;    0.000
672.843;  256.550;    0.000;    0.000
672.955;  222.550;    0.000;    0.000
673.067;  232.550;    0.000;    0.000
673.180;  214.550;    0.000;    0.000
673.292;  235.550;    0.000;    0.000
673.404;  208.550;    0.000;    0.000
673.516;  253.550;    0.000;    0.000
673.628;  236.550;    0.000;    0.000
673.740;  229.550;    0.000;    0.000
673.852;  286.550;    0.000;    0.000
673.964;  264.550;    0.000;    0.000
674.076;  219.550;    0.000;    0.000
674.188;  216.550;    0.000;    0.000
674.300;  239.550;    0.000;    0.000
674.412;  189.550;    0.000;    0.000
674.524;  264.550;    0.000;    0.000
674.636;  224.550;    0.000;    0.000
674.748;  218.550;    0.000;    0.000
674.860;  236.550;    0.000;    0.000
674.972;  233.550;    0.000;    0.000
675.084;  220.550;    0.000;    0.000
675.196;  250.550;    0.000;    0.000
675.307;  211.550;    0.000;    0.000
675.419;  210.550;    0.000;    0.000
675.531;  281.550;    0.000;    0.000
675.643;  182.550;    0.000;    0.000
675.755;  265.550;    0.000;    0.000
675.866;  176.550;    0.000;    0.000
675.978;  203.550;    0.000;    0.000
676.090;  215.550;    0.000;    0.000
676.201;  249.550;    0.000;    0.000
676.313;  195.550;    0.000;    0.000
676.425;  232.550;    0.000;    0.000
676.536;  230.550;    0.000;    0.000
676.648;  222.550;    0.000;    0.000
676.759;  239.550;    0.000;    0.000
676.871;  230.550;    0.000;    0.000
676.983;  232.550;    0.000;    0.000
677.094;  243.550;    0.000;    0.000
677.206;  247.550;    0.000;    0.000
677.317;  240.550;    0.000;    0.000
677.429;  229.550;    0.000;    0.000
677.540;  246.550;    0.000;    0.000
677.651;  198.550;    0.000;    0.000
677.763;  206.550;    0.000;    0.000
677.874;  238.550;    0.000;    0.000
677.986;  195.550;    0.000;    0.000
678.097;  173.550;    0.000;    0.000
678.208;  235.550;    0.000;    0.000
678.320;  237.550;    0.000;    0.000
678.431;  217.550;    0.000;    0.000
678.542;  166.550;    0.000;    0.000
678.653;  201.550;    0.000;    0.000
678.765;  224.550;    0.000;    0.000
678.876;  195.550;    0.000;    0.000
678.987;  203.550;    0.000;    0.000
679.098;  193.550;    0.000;    0.000
679.209;  199.550;    0.000;    0.000
679.320;  208.550;    0.000;    0.000
679.432;  230.550;    0.000;    0.000
679.543;  180.550;    0.000;    0.000
679.654;  177.550;    0.000;    0.000
679.765;  200.550;    0.000;    0.000
679.876;  206.550;    0.000;    0.000
679.987;  165.550;    0.000;    0.000
680.098;  214.550;    0.000;    0.000
680.209;  171.550;    0.000;    0.000
680.320;  184.550;    0.000;    0.000
680.431;  181.550;    0.000;    0.000
680.542;  187.550;    0.000;    0.000
680.653;  209.550;    0.000;    0.000
680.763;  178.550;    0.000;    0.000
680.874;  200.550;    0.000;    0.000
680.985;  237.550;    0.000;    0.000
681.096;  228.550;    0.000;    0.000
681.207;  177.550;    0.000;    0.000
681.318;  185.550;    0.000;    0.000
681.428;  198.550;    0.000;    0.000
681.539;  169.550;    0.000;    0.000
681.650;  176.550;    0.000;    0.000
681.761;  211.550;    0.000;    0.000
681.871;  195.550;    0.000;    0.000
681.982;  203.550;    0.000;    0.000
682.093;  177.550;    0.000;    0.000
682.203;  214.550;    0.000;    0.000
682.314;  202.550;    0.000;    0.000
682.424;  208.550;    0.000;    0.000
682.535;  206.550;    0.000;    0.000
682.645;  237.550;    0.000;    0.000
682.756;  229.550;    0.000;    0.000
682.867;  203.550;    0.000;    0.000
682.977;  240.550;    0.000;    0.000
683.087;  205.550;    0.000;    0.000
683.198;  199.550;    0.000;    0.000
683.308;  179.550;    0.000;    0.000
683.419;  220.550;    0.000;    0.000
683.529;  218.550;    0.000;    0.000
683.640;  205.550;    0.000;    0.000
683.750;  196.550;    0.000;    0.000
683.860;  218.550;    0.000;    0.000
683.971;  224.550;    0.000;    0.000
684.081;  185.550;    0.000;    0.000
684.191;  249.550;    0.000;    0.000
684.301;  198.550;    0.000;    0.000
684.412;  211.550;    0.000;    0.000
684.522;  206.550;    0.000;    0.000
684.632;  221.550;    0.000;    0.000
684.742;  241.550;    0.000;    0.000
684.852;  189.550;    0.000;    0.000
684.963;  224.550;    0.000;    0.000
685.073;  187.550;    0.000;    0.000
685.183;  209.550;    0.000;    0.000
685.293;  189.550;    0.000;    0.000
685.403;  197.550;    0.000;    0.000
685.513;  224.550;    0.000;    0.000
685.623;  220.550;    0.000;    0.000
685.733;  215.550;    0.000;    0.000
685.843;  253.550;    0.000;    0.000
685.953;  225.550;    0.000;    0.000
686.063;  198.550;    0.000;    0.000
686.173;  228.550;    0.000;    0.000
686.283;  228.550;    0.000;    0.000
686.393;  209.550;    0.000;    0.000
686.503;  225.550;    0.000;    0.000
686.612;  215.550;    0.000;    0.000
686.722;  258.550;    0.000;    0.000
686.832;  266.550;    0.000;    0.000
686.942;  247.550;    0.000;    0.000
687.052;  215.550;    0.000;    0.000
687.161;  234.550;    0.000;    0.000
687.271;  187.550;    0.000;    0.000
687.381;  205.550;    0.000;    0.000
687.491;  202.550;    0.000;    0.000
687.600;  212.550;    0.000;    0.000
687.710;  189.550;    0.000;    0.000
687.820;  202.550;    0.000;    0.000
687.929;  221.550;    0.000;    0.000
688.039;  213.550;    0.000;    0.000
688.148;  230.550;    0.000;    0.000
688.258;  221.550;    0.000;    0.000
688.367;  197.550;    0.000;    0.000
688.477;  169.550;    0.000;    0.000
688.586;  189.550;    0.000;    0.000
688.696;  213.550;    0.000;    0.000
688.805;  239.550;    0.000;    0.000
688.915;  205.550;    0.000;    0.000
689.024;  183.550;    0.000;    0.000
689.134;  195.550;    0.000;    0.000
689.243;  203.550;    0.000;    0.000
689.352;  232.550;    0.000;    0.000
689.462;  201.550;    0.000;    0.000
689.571;  204.550;    0.000;    0.000
689.680;  244.550;    0.000;    0.000
689.790;  190.550;    0.000;    0.000
689.899;  184.550;    0.000;    0.000
690.008;  207.550;    0.000;    0.000
690.117;  188.550;    0.000;    0.000
690.227;  196.550;    0.000;    0.000
690.336;  189.550;    0.000;    0.000
690.445;  196.550;    0.000;    0.000
690.554;  204.550;    0.000;    0.000
690.663;  180.550;    0.000;    0.000
690.772;  192.550;    0.000;    0.000
690.881;  251.550;    0.000;    0.000
690.990;  184.550;    0.000;    0.000
691.100;  196.550;    0.000;    0.000
691.209;  202.550;    0.000;    0.000
691.318;  184.550;    0.000;    0.000
691.427;  174.550;    0.000;    0.000
691.535;  204.550;    0.000;    0.000
691.644;  230.550;    0.000;    0.000
691.753;  203.550;    0.000;    0.000
691.862;  226.550;    0.000;    0.000
691.971;  211.550;    0.000;    0.000
692.080;  216.550;    0.000;    0.000
692.189;  231.550;    0.000;    0.000
692.298;  192.550;    0.000;    0.000
692.407;  231.550;    0.000;    0.000
692.515;  242.550;    0.000;    0.000
692.624;  184.550;    0.000;    0.000
692.733;  222.550;    0.000;    0.000
692.842;  224.550;    0.000;    0.000
692.950;  196.550;    0.000;    0.000
693.059;  169.550;    0.000;    0.000
693.168;  224.550;    0.000;    0.000
693.276;  187.550;    0.000;    0.000
693.385;  200.550;    0.000;    0.000
693.494;  232.550;    0.000;    0.000
693.602;  201.550;    0.000;    0.000
693.711;  180.550;    0.000;    0.000
693.819;  214.550;    0.000;    0.000
693.928;  250.550;    0.000;    0.000
694.036;  198.550;    0.000;    0.000
694.145;  221.550;    0.000;    0.000
694.253;  242.550;    0.000;    0.000
694.362;  201.550;    0.000;    0.000
694.470;  251.550;    0.000;    0.000
694.579;  233.550;    0.000;    0.000
694.687;  275.550;    0.000;    0.000
694.795;  247.550;    0.000;    0.000
694.904;  201.550;    0.000;    0.000
695.012;  276.550;    0.000;    0.000
695.120;  205.550;    0.000;    0.000
695.229;  246.550;    0.000;    0.000
695.337;  224.550;    0.000;    0.000
695.445;  251.550;    0.000;    0.000
695.553;  228.550;    0.000;    0.000
695.662;  211.550;    0.000;    0.000
695.770;  221.550;    0.000;    0.000
695.878;  240.550;    0.000;    0.000
695.986;  274.550;    0.000;    0.000
696.094;  204.550;    0.000;    0.000
696.202;  190.550;    0.000;    0.000
696.310;  263.550;    0.000;    0.000
696.419;  226.550;    0.000;    0.000
696.527;  251.550;    0.000;    0.000
696.635;  212.550;    0.000;    0.000
696.743;  207.550;    0.000;    0.000
696.851;  238.550;    0.000;    0.000
696.959;  211.550;    0.000;    0.000
697.067;  198.550;    0.000;    0.000
697.174;  232.550;    0.000;    0.000
697.282;  204.550;    0.000;    0.000
697.390;  251.550;    0.000;    0.000
697.498;  198.550;    0.000;    0.000
697.606;  195.550;    0.000;    0.000
697.714;  208.550;    0.000;    0.000
697.822;  218.550;    0.000;    0.000
697.929;  222.550;    0.000;    0.000
698.037;  195.550;    0.000;    0.000
698.145;  222.550;    0.000;    0.000
698.253;  216.550;    0.000;    0.000
698.360;  265.550;    0.000;    0.000
698.468;  221.550;    0.000;    0.000
698.576;  266.550;    0.000;    0.000
698.683;  241.550;    0.000;    0.000
698.791;  218.550;    0.000;    0.000
698.899;  241.550;    0.000;    0.000
699.006;  239.550;    0.000;    0.000
699.114;  269.550;    0.000;    0.000
699.221;  265.550;    0.000;    0.000
699.329;  247.550;    0.000;    0.000
699.436;  233.550;    0.000;    0.000
699.544;  246.550;    0.000;    0.000
699.651;  215.550;    0.000;    0.000
699.759;  225.550;    0.000;    0.000
699.866;  262.550;    0.000;    0.000
699.974;  243.550;    0.000;    0.000
700.081;  267.550;    0.000;    0.000
700.188;  240.550;    0.000;    0.000
700.296;  217.550;    0.000;    0.000
700.403;  243.550;    0.000;    0.000
700.510;  240.550;    0.000;    0.000
700.618;  250.550;    0.000;    0.000
700.725;  222.550;    0.000;    0.000
700.832;  215.550;    0.000;    0.000
700.940;  246.550;    0.000;    0.000
701.047;  224.550;    0.000;    0.000
701.154;  199.550;    0.000;    0.000
701.261;  255.550;    0.000;    0.000
701.368;  282.550;    0.000;    0.000
701.475;  255.550;    0.000;    0.000
701.582;  252.550;    0.000;    0.000
701.690;  232.550;    0.000;    0.000
701.797;  264.550;    0.000;    0.000
701.904;  287.550;    0.000;    0.000
702.011;  300.550;    0.000;    0.000
702.118;  272.550;    0.000;    0.000
702.225;  288.550;    0.000;    0.000
702.332;  280.550;    0.000;    0.000
702.439;  318.550;    0.000;    0.000
702.546;  318.550;    0.000;    0.000
702.652;  286.550;    0.000;    0.000
702.759;  324.550;    0.000;    0.000
702.866;  316.550;    0.000;    0.000
702.973;  307.550;    0.000;    0.000
703.080;  293.550;    0.000;    0.000
703.187;  319.550;    0.000;    0.000
703.293;  312.550;    0.000;    0.000
703.400;  314.550;    0.000;    0.000
703.507;  352.550;    0.000;    0.000
703.614;  293.550;    0.000;    0.000
703.720;  338.550;    0.000;    0.000
703.827;  316.550;    0.000;    0.000
703.934;  311.550;    0.000;    0.000
704.040;  294.550;    0.000;    0.000
704.147;  311.550;    0.000;    0.000
704.254;  307.550;    0.000;    0.000
704.360;  320.550;    0.000;    0.000
704.467;  340.550;    0.000;    0.000
704.573;  347.550;    0.000;    0.000
704.680;  320.550;    0.000;    0.000
704.786;  338.550;    0.000;    0.000
704.893;  318.550;    0.000;    0.000
704.999;  306.550;    0.000;    0.000
705.106;  322.550;    0.000;    0.000

