dark_500us
Integration time [ms]:   0.500
Averaging Nr. [scans]: 1
Smoothing Nr. [pixels]: 0
Data measured with spectrometer [name]: UV2
Wave   ;Sample   ;Dark     ;Reference;Scope Corrected for Dark
[nm]   ;[counts] ;[counts] ;[counts] ;[counts] 

 353.53;  246.200;    0.000;    0.000;246.20000
 353.60;  239.200;    0.000;    0.000;239.20000
 353.66;  179.200;    0.000;    0.000;179.20000
 353.72;  201.200;    0.000;    0.000;201.20000
 353.79;  195.200;    0.000;    0.000;195.20000
 353.85;  232.200;    0.000;    0.000;232.20000
 353.91;  158.200;    0.000;    0.000;158.20000
 353.98;  202.200;    0.000;    0.000;202.20000
 354.04;  177.200;    0.000;    0.000;177.20000
 354.10;  210.200;    0.000;    0.000;210.20000
 354.17;  197.200;    0.000;    0.000;197.20000
 354.23;  218.200;    0.000;    0.000;218.20000
 354.29;  194.200;    0.000;    0.000;194.20000
 354.36;  195.200;    0.000;    0.000;195.20000
 354.42;  168.200;    0.000;    0.000;168.20000
 354.48;  183.200;    0.000;    0.000;183.20000
 354.54;  204.200;    0.000;    0.000;204.20000
 354.61;  232.200;    0.000;    0.000;232.20000
 354.67;  222.200;    0.000;    0.000;222.20000
 354.73;  167.200;    0.000;    0.000;167.20000
 354.80;  198.200;    0.000;    0.000;198.20000
 354.86;  153.200;    0.000;    0.000;153.20000
 354.92;  207.200;    0.000;    0.000;207.20000
 354.99;  158.200;    0.000;    0.000;158.20000
 355.05;  194.200;    0.000;    0.000;194.20000
 355.11;  162.200;    0.000;    0.000;162.20000
 355.18;  197.200;    0.000;    0.000;197.20000
 355.24;  174.200;    0.000;    0.000;174.20000
 355.30;  202.200;    0.000;    0.000;202.20000
 355.36;  208.200;    0.000;    0.000;208.20000
 355.43;  184.200;    0.000;    0.000;184.20000
 355.49;  213.200;    0.000;    0.000;213.20000
 355.55;  166.200;    0.000;    0.000;166.20000
 355.62;  182.200;    0.000;    0.000;182.20000
 355.68;  189.200;    0.000;    0.000;189.20000
 355.74;  159.200;    0.000;    0.000;159.20000
 355.81;  151.200;    0.000;    0.000;151.20000
 355.87;  168.200;    0.000;    0.000;168.20000
 355.93;  202.200;    0.000;    0.000;202.20000
 355.99;  173.200;    0.000;    0.000;173.20000
 356.06;  188.200;    0.000;    0.000;188.20000
 356.12;  182.200;    0.000;    0.000;182.20000
 356.18;  211.200;    0.000;    0.000;211.20000
 356.25;  202.200;    0.000;    0.000;202.20000
 356.31;  121.200;    0.000;    0.000;121.20000
 356.37;  181.200;    0.000;    0.000;181.20000
 356.44;  182.200;    0.000;    0.000;182.20000
 356.50;  180.200;    0.000;    0.000;180.20000
 356.56;  158.200;    0.000;    0.000;158.20000
 356.62;  165.200;    0.000;    0.000;165.20000
 356.69;  129.200;    0.000;    0.000;129.20000
 356.75;  168.200;    0.000;    0.000;168.20000
 356.81;  131.200;    0.000;    0.000;131.20000
 356.88;  174.200;    0.000;    0.000;174.20000
 356.94;  159.200;    0.000;    0.000;159.20000
 357.00;  207.200;    0.000;    0.000;207.20000
 357.06;  121.200;    0.000;    0.000;121.20000
 357.13;  156.200;    0.000;    0.000;156.20000
 357.19;  168.200;    0.000;    0.000;168.20000
 357.25;  184.200;    0.000;    0.000;184.20000
 357.32;  184.200;    0.000;    0.000;184.20000
 357.38;  167.200;    0.000;    0.000;167.20000
 357.44;  161.200;    0.000;    0.000;161.20000
 357.50;  173.200;    0.000;    0.000;173.20000
 357.57;  143.200;    0.000;    0.000;143.20000
 357.63;  159.200;    0.000;    0.000;159.20000
 357.69;  150.200;    0.000;    0.000;150.20000
 357.76;  155.200;    0.000;    0.000;155.20000
 357.82;  153.200;    0.000;    0.000;153.20000
 357.88;  192.200;    0.000;    0.000;192.20000
 357.94;  154.200;    0.000;    0.000;154.20000
 358.01;  174.200;    0.000;    0.000;174.20000
 358.07;  120.200;    0.000;    0.000;120.20000
 358.13;  155.200;    0.000;    0.000;155.20000
 358.19;   95.200;    0.000;    0.000;95.20000
 358.26;  138.200;    0.000;    0.000;138.20000
 358.32;  118.200;    0.000;    0.000;118.20000
 358.38;  177.200;    0.000;    0.000;177.20000
 358.44;  134.200;    0.000;    0.000;134.20000
 358.51;  154.200;    0.000;    0.000;154.20000
 358.57;  142.200;    0.000;    0.000;142.20000
 358.63;  172.200;    0.000;    0.000;172.20000
 358.70;  133.200;    0.000;    0.000;133.20000
 358.76;  150.200;    0.000;    0.000;150.20000
 358.82;  144.200;    0.000;    0.000;144.20000
 358.88;  132.200;    0.000;    0.000;132.20000
 358.95;  157.200;    0.000;    0.000;157.20000
 359.01;  191.200;    0.000;    0.000;191.20000
 359.07;  154.200;    0.000;    0.000;154.20000
 359.13;  129.200;    0.000;    0.000;129.20000
 359.20;  139.200;    0.000;    0.000;139.20000
 359.26;  135.200;    0.000;    0.000;135.20000
 359.32;  144.200;    0.000;    0.000;144.20000
 359.38;  158.200;    0.000;    0.000;158.20000
 359.45;  157.200;    0.000;    0.000;157.20000
 359.51;  144.200;    0.000;    0.000;144.20000
 359.57;  140.200;    0.000;    0.000;140.20000
 359.63;  147.200;    0.000;    0.000;147.20000
 359.70;  152.200;    0.000;    0.000;152.20000
 359.76;  155.200;    0.000;    0.000;155.20000
 359.82;  141.200;    0.000;    0.000;141.20000
 359.88;  101.200;    0.000;    0.000;101.20000
 359.95;  150.200;    0.000;    0.000;150.20000
 360.01;  159.200;    0.000;    0.000;159.20000
 360.07;  126.200;    0.000;    0.000;126.20000
 360.13;  153.200;    0.000;    0.000;153.20000
 360.20;  157.200;    0.000;    0.000;157.20000
 360.26;  160.200;    0.000;    0.000;160.20000
 360.32;  146.200;    0.000;    0.000;146.20000
 360.38;  174.200;    0.000;    0.000;174.20000
 360.45;  119.200;    0.000;    0.000;119.20000
 360.51;  173.200;    0.000;    0.000;173.20000
 360.57;  137.200;    0.000;    0.000;137.20000
 360.63;  152.200;    0.000;    0.000;152.20000
 360.70;  116.200;    0.000;    0.000;116.20000
 360.76;  164.200;    0.000;    0.000;164.20000
 360.82;  135.200;    0.000;    0.000;135.20000
 360.88;  137.200;    0.000;    0.000;137.20000
 360.94;  151.200;    0.000;    0.000;151.20000
 361.01;  135.200;    0.000;    0.000;135.20000
 361.07;  157.200;    0.000;    0.000;157.20000
 361.13;  158.200;    0.000;    0.000;158.20000
 361.19;  171.200;    0.000;    0.000;171.20000
 361.26;  148.200;    0.000;    0.000;148.20000
 361.32;  164.200;    0.000;    0.000;164.20000
 361.38;  123.200;    0.000;    0.000;123.20000
 361.44;  118.200;    0.000;    0.000;118.20000
 361.51;  150.200;    0.000;    0.000;150.20000
 361.57;  107.200;    0.000;    0.000;107.20000
 361.63;  155.200;    0.000;    0.000;155.20000
 361.69;  150.200;    0.000;    0.000;150.20000
 361.75;  146.200;    0.000;    0.000;146.20000
 361.82;  170.200;    0.000;    0.000;170.20000
 361.88;  126.200;    0.000;    0.000;126.20000
 361.94;  146.200;    0.000;    0.000;146.20000
 362.00;  154.200;    0.000;    0.000;154.20000
 362.07;  136.200;    0.000;    0.000;136.20000
 362.13;  168.200;    0.000;    0.000;168.20000
 362.19;  162.200;    0.000;    0.000;162.20000
 362.25;  156.200;    0.000;    0.000;156.20000
 362.31;  138.200;    0.000;    0.000;138.20000
 362.38;  153.200;    0.000;    0.000;153.20000
 362.44;  161.200;    0.000;    0.000;161.20000
 362.50;  136.200;    0.000;    0.000;136.20000
 362.56;  185.200;    0.000;    0.000;185.20000
 362.63;  184.200;    0.000;    0.000;184.20000
 362.69;  171.200;    0.000;    0.000;171.20000
 362.75;  173.200;    0.000;    0.000;173.20000
 362.81;  155.200;    0.000;    0.000;155.20000
 362.87;  179.200;    0.000;    0.000;179.20000
 362.94;  165.200;    0.000;    0.000;165.20000
 363.00;  140.200;    0.000;    0.000;140.20000
 363.06;  149.200;    0.000;    0.000;149.20000
 363.12;  176.200;    0.000;    0.000;176.20000
 363.18;  180.200;    0.000;    0.000;180.20000
 363.25;  125.200;    0.000;    0.000;125.20000
 363.31;  141.200;    0.000;    0.000;141.20000
 363.37;  185.200;    0.000;    0.000;185.20000
 363.43;  131.200;    0.000;    0.000;131.20000
 363.49;  143.200;    0.000;    0.000;143.20000
 363.56;  145.200;    0.000;    0.000;145.20000
 363.62;  149.200;    0.000;    0.000;149.20000
 363.68;  155.200;    0.000;    0.000;155.20000
 363.74;  142.200;    0.000;    0.000;142.20000
 363.80;  168.200;    0.000;    0.000;168.20000
 363.87;  179.200;    0.000;    0.000;179.20000
 363.93;  129.200;    0.000;    0.000;129.20000
 363.99;  152.200;    0.000;    0.000;152.20000
 364.05;  126.200;    0.000;    0.000;126.20000
 364.11;  161.200;    0.000;    0.000;161.20000
 364.18;  190.200;    0.000;    0.000;190.20000
 364.24;  149.200;    0.000;    0.000;149.20000
 364.30;  149.200;    0.000;    0.000;149.20000
 364.36;  166.200;    0.000;    0.000;166.20000
 364.42;   95.200;    0.000;    0.000;95.20000
 364.49;  176.200;    0.000;    0.000;176.20000
 364.55;  153.200;    0.000;    0.000;153.20000
 364.61;  185.200;    0.000;    0.000;185.20000
 364.67;  156.200;    0.000;    0.000;156.20000
 364.73;  136.200;    0.000;    0.000;136.20000
 364.80;  131.200;    0.000;    0.000;131.20000
 364.86;  135.200;    0.000;    0.000;135.20000
 364.92;  121.200;    0.000;    0.000;121.20000
 364.98;  187.200;    0.000;    0.000;187.20000
 365.04;  185.200;    0.000;    0.000;185.20000
 365.10;  170.200;    0.000;    0.000;170.20000
 365.17;  124.200;    0.000;    0.000;124.20000
 365.23;  149.200;    0.000;    0.000;149.20000
 365.29;  118.200;    0.000;    0.000;118.20000
 365.35;  129.200;    0.000;    0.000;129.20000
 365.41;  152.200;    0.000;    0.000;152.20000
 365.47;  149.200;    0.000;    0.000;149.20000
 365.54;  163.200;    0.000;    0.000;163.20000
 365.60;  166.200;    0.000;    0.000;166.20000
 365.66;  125.200;    0.000;    0.000;125.20000
 365.72;  141.200;    0.000;    0.000;141.20000
 365.78;  179.200;    0.000;    0.000;179.20000
 365.85;  148.200;    0.000;    0.000;148.20000
 365.91;  106.200;    0.000;    0.000;106.20000
 365.97;  135.200;    0.000;    0.000;135.20000
 366.03;  149.200;    0.000;    0.000;149.20000
 366.09;  156.200;    0.000;    0.000;156.20000
 366.15;  159.200;    0.000;    0.000;159.20000
 366.22;  150.200;    0.000;    0.000;150.20000
 366.28;  132.200;    0.000;    0.000;132.20000
 366.34;  153.200;    0.000;    0.000;153.20000
 366.40;  143.200;    0.000;    0.000;143.20000
 366.46;  134.200;    0.000;    0.000;134.20000
 366.52;  166.200;    0.000;    0.000;166.20000
 366.59;  125.200;    0.000;    0.000;125.20000
 366.65;  185.200;    0.000;    0.000;185.20000
 366.71;  116.200;    0.000;    0.000;116.20000
 366.77;  164.200;    0.000;    0.000;164.20000
 366.83;  154.200;    0.000;    0.000;154.20000
 366.89;  167.200;    0.000;    0.000;167.20000
 366.95;  151.200;    0.000;    0.000;151.20000
 367.02;  133.200;    0.000;    0.000;133.20000
 367.08;  123.200;    0.000;    0.000;123.20000
 367.14;  128.200;    0.000;    0.000;128.20000
 367.20;  168.200;    0.000;    0.000;168.20000
 367.26;  154.200;    0.000;    0.000;154.20000
 367.32;  177.200;    0.000;    0.000;177.20000
 367.39;  108.200;    0.000;    0.000;108.20000
 367.45;  143.200;    0.000;    0.000;143.20000
 367.51;  101.200;    0.000;    0.000;101.20000
 367.57;  162.200;    0.000;    0.000;162.20000
 367.63;  113.200;    0.000;    0.000;113.20000
 367.69;  135.200;    0.000;    0.000;135.20000
 367.75;  172.200;    0.000;    0.000;172.20000
 367.82;  139.200;    0.000;    0.000;139.20000
 367.88;  150.200;    0.000;    0.000;150.20000
 367.94;  159.200;    0.000;    0.000;159.20000
 368.00;  122.200;    0.000;    0.000;122.20000
 368.06;  139.200;    0.000;    0.000;139.20000
 368.12;  144.200;    0.000;    0.000;144.20000
 368.18;  146.200;    0.000;    0.000;146.20000
 368.25;  158.200;    0.000;    0.000;158.20000
 368.31;  138.200;    0.000;    0.000;138.20000
 368.37;  146.200;    0.000;    0.000;146.20000
 368.43;  125.200;    0.000;    0.000;125.20000
 368.49;  170.200;    0.000;    0.000;170.20000
 368.55;  140.200;    0.000;    0.000;140.20000
 368.61;  164.200;    0.000;    0.000;164.20000
 368.68;  120.200;    0.000;    0.000;120.20000
 368.74;  153.200;    0.000;    0.000;153.20000
 368.80;  148.200;    0.000;    0.000;148.20000
 368.86;  137.200;    0.000;    0.000;137.20000
 368.92;  135.200;    0.000;    0.000;135.20000
 368.98;  123.200;    0.000;    0.000;123.20000
 369.04;  147.200;    0.000;    0.000;147.20000
 369.10;  139.200;    0.000;    0.000;139.20000
 369.17;  139.200;    0.000;    0.000;139.20000
 369.23;  148.200;    0.000;    0.000;148.20000
 369.29;  158.200;    0.000;    0.000;158.20000
 369.35;  164.200;    0.000;    0.000;164.20000
 369.41;  176.200;    0.000;    0.000;176.20000
 369.47;  158.200;    0.000;    0.000;158.20000
 369.53;  157.200;    0.000;    0.000;157.20000
 369.59;  192.200;    0.000;    0.000;192.20000
 369.66;  179.200;    0.000;    0.000;179.20000
 369.72;   85.200;    0.000;    0.000;85.20000
 369.78;  154.200;    0.000;    0.000;154.20000
 369.84;  157.200;    0.000;    0.000;157.20000
 369.90;  179.200;    0.000;    0.000;179.20000
 369.96;  168.200;    0.000;    0.000;168.20000
 370.02;  135.200;    0.000;    0.000;135.20000
 370.08;  136.200;    0.000;    0.000;136.20000
 370.14;  113.200;    0.000;    0.000;113.20000
 370.21;  148.200;    0.000;    0.000;148.20000
 370.27;  159.200;    0.000;    0.000;159.20000
 370.33;  166.200;    0.000;    0.000;166.20000
 370.39;  143.200;    0.000;    0.000;143.20000
 370.45;  153.200;    0.000;    0.000;153.20000
 370.51;  157.200;    0.000;    0.000;157.20000
 370.57;  110.200;    0.000;    0.000;110.20000
 370.63;  188.200;    0.000;    0.000;188.20000
 370.69;  130.200;    0.000;    0.000;130.20000
 370.76;  161.200;    0.000;    0.000;161.20000
 370.82;  149.200;    0.000;    0.000;149.20000
 370.88;  196.200;    0.000;    0.000;196.20000
 370.94;  149.200;    0.000;    0.000;149.20000
 371.00;  144.200;    0.000;    0.000;144.20000
 371.06;  149.200;    0.000;    0.000;149.20000
 371.12;  159.200;    0.000;    0.000;159.20000
 371.18;  119.200;    0.000;    0.000;119.20000
 371.24;  127.200;    0.000;    0.000;127.20000
 371.31;  139.200;    0.000;    0.000;139.20000
 371.37;  159.200;    0.000;    0.000;159.20000
 371.43;  142.200;    0.000;    0.000;142.20000
 371.49;  156.200;    0.000;    0.000;156.20000
 371.55;  150.200;    0.000;    0.000;150.20000
 371.61;  138.200;    0.000;    0.000;138.20000
 371.67;  154.200;    0.000;    0.000;154.20000
 371.73;  154.200;    0.000;    0.000;154.20000
 371.79;  175.200;    0.000;    0.000;175.20000
 371.85;  150.200;    0.000;    0.000;150.20000
 371.91;  176.200;    0.000;    0.000;176.20000
 371.98;  120.200;    0.000;    0.000;120.20000
 372.04;  138.200;    0.000;    0.000;138.20000
 372.10;  122.200;    0.000;    0.000;122.20000
 372.16;  124.200;    0.000;    0.000;124.20000
 372.22;  167.200;    0.000;    0.000;167.20000
 372.28;  157.200;    0.000;    0.000;157.20000
 372.34;  140.200;    0.000;    0.000;140.20000
 372.40;  152.200;    0.000;    0.000;152.20000
 372.46;  119.200;    0.000;    0.000;119.20000
 372.52;  126.200;    0.000;    0.000;126.20000
 372.58;  163.200;    0.000;    0.000;163.20000
 372.64;  121.200;    0.000;    0.000;121.20000
 372.71;  153.200;    0.000;    0.000;153.20000
 372.77;  132.200;    0.000;    0.000;132.20000
 372.83;  142.200;    0.000;    0.000;142.20000
 372.89;  160.200;    0.000;    0.000;160.20000
 372.95;  189.200;    0.000;    0.000;189.20000
 373.01;  131.200;    0.000;    0.000;131.20000
 373.07;  133.200;    0.000;    0.000;133.20000
 373.13;  148.200;    0.000;    0.000;148.20000
 373.19;  177.200;    0.000;    0.000;177.20000
 373.25;  155.200;    0.000;    0.000;155.20000
 373.31;  158.200;    0.000;    0.000;158.20000
 373.37;  133.200;    0.000;    0.000;133.20000
 373.43;  179.200;    0.000;    0.000;179.20000
 373.49;  109.200;    0.000;    0.000;109.20000
 373.56;  132.200;    0.000;    0.000;132.20000
 373.62;  146.200;    0.000;    0.000;146.20000
 373.68;  161.200;    0.000;    0.000;161.20000
 373.74;  150.200;    0.000;    0.000;150.20000
 373.80;  159.200;    0.000;    0.000;159.20000
 373.86;  159.200;    0.000;    0.000;159.20000
 373.92;  206.200;    0.000;    0.000;206.20000
 373.98;  139.200;    0.000;    0.000;139.20000
 374.04;  150.200;    0.000;    0.000;150.20000
 374.10;  158.200;    0.000;    0.000;158.20000
 374.16;  150.200;    0.000;    0.000;150.20000
 374.22;  128.200;    0.000;    0.000;128.20000
 374.28;  172.200;    0.000;    0.000;172.20000
 374.34;  188.200;    0.000;    0.000;188.20000
 374.40;  164.200;    0.000;    0.000;164.20000
 374.46;  148.200;    0.000;    0.000;148.20000
 374.53;  135.200;    0.000;    0.000;135.20000
 374.59;  143.200;    0.000;    0.000;143.20000
 374.65;  159.200;    0.000;    0.000;159.20000
 374.71;  213.200;    0.000;    0.000;213.20000
 374.77;  153.200;    0.000;    0.000;153.20000
 374.83;  138.200;    0.000;    0.000;138.20000
 374.89;  160.200;    0.000;    0.000;160.20000
 374.95;  132.200;    0.000;    0.000;132.20000
 375.01;  141.200;    0.000;    0.000;141.20000
 375.07;  151.200;    0.000;    0.000;151.20000
 375.13;  148.200;    0.000;    0.000;148.20000
 375.19;  155.200;    0.000;    0.000;155.20000
 375.25;  189.200;    0.000;    0.000;189.20000
 375.31;  161.200;    0.000;    0.000;161.20000
 375.37;  160.200;    0.000;    0.000;160.20000
 375.43;  157.200;    0.000;    0.000;157.20000
 375.49;  156.200;    0.000;    0.000;156.20000
 375.55;  171.200;    0.000;    0.000;171.20000
 375.61;  147.200;    0.000;    0.000;147.20000
 375.67;  135.200;    0.000;    0.000;135.20000
 375.73;  153.200;    0.000;    0.000;153.20000
 375.79;  133.200;    0.000;    0.000;133.20000
 375.85;  146.200;    0.000;    0.000;146.20000
 375.92;  186.200;    0.000;    0.000;186.20000
 375.98;  122.200;    0.000;    0.000;122.20000
 376.04;  139.200;    0.000;    0.000;139.20000
 376.10;  143.200;    0.000;    0.000;143.20000
 376.16;  152.200;    0.000;    0.000;152.20000
 376.22;  132.200;    0.000;    0.000;132.20000
 376.28;  176.200;    0.000;    0.000;176.20000
 376.34;  154.200;    0.000;    0.000;154.20000
 376.40;  146.200;    0.000;    0.000;146.20000
 376.46;  177.200;    0.000;    0.000;177.20000
 376.52;  155.200;    0.000;    0.000;155.20000
 376.58;  131.200;    0.000;    0.000;131.20000
 376.64;  148.200;    0.000;    0.000;148.20000
 376.70;  174.200;    0.000;    0.000;174.20000
 376.76;  185.200;    0.000;    0.000;185.20000
 376.82;  152.200;    0.000;    0.000;152.20000
 376.88;  194.200;    0.000;    0.000;194.20000
 376.94;  191.200;    0.000;    0.000;191.20000
 377.00;  130.200;    0.000;    0.000;130.20000
 377.06;  167.200;    0.000;    0.000;167.20000
 377.12;  127.200;    0.000;    0.000;127.20000
 377.18;  156.200;    0.000;    0.000;156.20000
 377.24;  138.200;    0.000;    0.000;138.20000
 377.30;  182.200;    0.000;    0.000;182.20000
 377.36;   92.200;    0.000;    0.000;92.20000
 377.42;  180.200;    0.000;    0.000;180.20000
 377.48;  151.200;    0.000;    0.000;151.20000
 377.54;  178.200;    0.000;    0.000;178.20000
 377.60;  158.200;    0.000;    0.000;158.20000
 377.66;  151.200;    0.000;    0.000;151.20000
 377.72;  159.200;    0.000;    0.000;159.20000
 377.78;  148.200;    0.000;    0.000;148.20000
 377.84;  164.200;    0.000;    0.000;164.20000
 377.90;  140.200;    0.000;    0.000;140.20000
 377.96;   80.200;    0.000;    0.000;80.20000
 378.02;  156.200;    0.000;    0.000;156.20000
 378.08;  131.200;    0.000;    0.000;131.20000
 378.14;  169.200;    0.000;    0.000;169.20000
 378.20;  145.200;    0.000;    0.000;145.20000
 378.26;  139.200;    0.000;    0.000;139.20000
 378.32;  179.200;    0.000;    0.000;179.20000
 378.38;  120.200;    0.000;    0.000;120.20000
 378.44;  197.200;    0.000;    0.000;197.20000
 378.50;  111.200;    0.000;    0.000;111.20000
 378.56;  136.200;    0.000;    0.000;136.20000
 378.62;  160.200;    0.000;    0.000;160.20000
 378.68;  181.200;    0.000;    0.000;181.20000
 378.74;  131.200;    0.000;    0.000;131.20000
 378.80;  112.200;    0.000;    0.000;112.20000
 378.86;  191.200;    0.000;    0.000;191.20000
 378.92;  223.200;    0.000;    0.000;223.20000
 378.98;  193.200;    0.000;    0.000;193.20000
 379.04;  128.200;    0.000;    0.000;128.20000
 379.10;  163.200;    0.000;    0.000;163.20000
 379.16;  106.200;    0.000;    0.000;106.20000
 379.22;  142.200;    0.000;    0.000;142.20000
 379.28;  185.200;    0.000;    0.000;185.20000
 379.34;  145.200;    0.000;    0.000;145.20000
 379.40;  138.200;    0.000;    0.000;138.20000
 379.46;  144.200;    0.000;    0.000;144.20000
 379.52;  116.200;    0.000;    0.000;116.20000
 379.58;  129.200;    0.000;    0.000;129.20000
 379.64;  167.200;    0.000;    0.000;167.20000
 379.70;  132.200;    0.000;    0.000;132.20000
 379.76;  187.200;    0.000;    0.000;187.20000
 379.82;  173.200;    0.000;    0.000;173.20000
 379.88;  157.200;    0.000;    0.000;157.20000
 379.94;  184.200;    0.000;    0.000;184.20000
 380.00;  127.200;    0.000;    0.000;127.20000
 380.06;  162.200;    0.000;    0.000;162.20000
 380.12;  149.200;    0.000;    0.000;149.20000
 380.18;  183.200;    0.000;    0.000;183.20000
 380.24;  161.200;    0.000;    0.000;161.20000
 380.30;  156.200;    0.000;    0.000;156.20000
 380.36;  194.200;    0.000;    0.000;194.20000
 380.42;  157.200;    0.000;    0.000;157.20000
 380.48;  178.200;    0.000;    0.000;178.20000
 380.54;  183.200;    0.000;    0.000;183.20000
 380.60;  199.200;    0.000;    0.000;199.20000
 380.66;  178.200;    0.000;    0.000;178.20000
 380.71;  177.200;    0.000;    0.000;177.20000
 380.77;  184.200;    0.000;    0.000;184.20000
 380.83;  228.200;    0.000;    0.000;228.20000
 380.89;  166.200;    0.000;    0.000;166.20000
 380.95;  154.200;    0.000;    0.000;154.20000
 381.01;  209.200;    0.000;    0.000;209.20000
 381.07;  187.200;    0.000;    0.000;187.20000
 381.13;  159.200;    0.000;    0.000;159.20000
 381.19;  180.200;    0.000;    0.000;180.20000
 381.25;  154.200;    0.000;    0.000;154.20000
 381.31;  167.200;    0.000;    0.000;167.20000
 381.37;  174.200;    0.000;    0.000;174.20000
 381.43;  132.200;    0.000;    0.000;132.20000
 381.49;  165.200;    0.000;    0.000;165.20000
 381.55;  150.200;    0.000;    0.000;150.20000
 381.61;  176.200;    0.000;    0.000;176.20000
 381.67;  160.200;    0.000;    0.000;160.20000
 381.73;  185.200;    0.000;    0.000;185.20000
 381.79;  195.200;    0.000;    0.000;195.20000
 381.85;  164.200;    0.000;    0.000;164.20000
 381.91;  147.200;    0.000;    0.000;147.20000
 381.97;  145.200;    0.000;    0.000;145.20000
 382.03;  171.200;    0.000;    0.000;171.20000
 382.08;  178.200;    0.000;    0.000;178.20000
 382.14;  155.200;    0.000;    0.000;155.20000
 382.20;  166.200;    0.000;    0.000;166.20000
 382.26;  151.200;    0.000;    0.000;151.20000
 382.32;  164.200;    0.000;    0.000;164.20000
 382.38;  144.200;    0.000;    0.000;144.20000
 382.44;  156.200;    0.000;    0.000;156.20000
 382.50;  172.200;    0.000;    0.000;172.20000
 382.56;  172.200;    0.000;    0.000;172.20000
 382.62;  173.200;    0.000;    0.000;173.20000
 382.68;  187.200;    0.000;    0.000;187.20000
 382.74;  191.200;    0.000;    0.000;191.20000
 382.80;  187.200;    0.000;    0.000;187.20000
 382.86;  181.200;    0.000;    0.000;181.20000
 382.92;  169.200;    0.000;    0.000;169.20000
 382.98;  164.200;    0.000;    0.000;164.20000
 383.03;  134.200;    0.000;    0.000;134.20000
 383.09;  174.200;    0.000;    0.000;174.20000
 383.15;  193.200;    0.000;    0.000;193.20000
 383.21;  163.200;    0.000;    0.000;163.20000
 383.27;  143.200;    0.000;    0.000;143.20000
 383.33;  150.200;    0.000;    0.000;150.20000
 383.39;  196.200;    0.000;    0.000;196.20000
 383.45;  151.200;    0.000;    0.000;151.20000
 383.51;  156.200;    0.000;    0.000;156.20000
 383.57;  188.200;    0.000;    0.000;188.20000
 383.63;  162.200;    0.000;    0.000;162.20000
 383.69;  147.200;    0.000;    0.000;147.20000
 383.75;  142.200;    0.000;    0.000;142.20000
 383.81;  165.200;    0.000;    0.000;165.20000
 383.86;  117.200;    0.000;    0.000;117.20000
 383.92;  200.200;    0.000;    0.000;200.20000
 383.98;  150.200;    0.000;    0.000;150.20000
 384.04;  142.200;    0.000;    0.000;142.20000
 384.10;  187.200;    0.000;    0.000;187.20000
 384.16;  135.200;    0.000;    0.000;135.20000
 384.22;  163.200;    0.000;    0.000;163.20000
 384.28;  162.200;    0.000;    0.000;162.20000
 384.34;  142.200;    0.000;    0.000;142.20000
 384.40;  134.200;    0.000;    0.000;134.20000
 384.46;  152.200;    0.000;    0.000;152.20000
 384.52;  184.200;    0.000;    0.000;184.20000
 384.57;  180.200;    0.000;    0.000;180.20000
 384.63;  146.200;    0.000;    0.000;146.20000
 384.69;  114.200;    0.000;    0.000;114.20000
 384.75;  173.200;    0.000;    0.000;173.20000
 384.81;  183.200;    0.000;    0.000;183.20000
 384.87;   97.200;    0.000;    0.000;97.20000
 384.93;  144.200;    0.000;    0.000;144.20000
 384.99;  170.200;    0.000;    0.000;170.20000
 385.05;  135.200;    0.000;    0.000;135.20000
 385.11;  138.200;    0.000;    0.000;138.20000
 385.16;  139.200;    0.000;    0.000;139.20000
 385.22;  163.200;    0.000;    0.000;163.20000
 385.28;  138.200;    0.000;    0.000;138.20000
 385.34;  118.200;    0.000;    0.000;118.20000
 385.40;  142.200;    0.000;    0.000;142.20000
 385.46;  168.200;    0.000;    0.000;168.20000
 385.52;  116.200;    0.000;    0.000;116.20000
 385.58;  136.200;    0.000;    0.000;136.20000
 385.64;  168.200;    0.000;    0.000;168.20000
 385.70;  136.200;    0.000;    0.000;136.20000
 385.75;  131.200;    0.000;    0.000;131.20000
 385.81;  147.200;    0.000;    0.000;147.20000
 385.87;  123.200;    0.000;    0.000;123.20000
 385.93;  167.200;    0.000;    0.000;167.20000
 385.99;  159.200;    0.000;    0.000;159.20000
 386.05;  180.200;    0.000;    0.000;180.20000
 386.11;  168.200;    0.000;    0.000;168.20000
 386.17;  170.200;    0.000;    0.000;170.20000
 386.23;  164.200;    0.000;    0.000;164.20000
 386.28;  132.200;    0.000;    0.000;132.20000
 386.34;  203.200;    0.000;    0.000;203.20000
 386.40;  179.200;    0.000;    0.000;179.20000
 386.46;  152.200;    0.000;    0.000;152.20000
 386.52;  133.200;    0.000;    0.000;133.20000
 386.58;  149.200;    0.000;    0.000;149.20000
 386.64;  212.200;    0.000;    0.000;212.20000
 386.70;  180.200;    0.000;    0.000;180.20000
 386.75;  163.200;    0.000;    0.000;163.20000
 386.81;  139.200;    0.000;    0.000;139.20000
 386.87;  163.200;    0.000;    0.000;163.20000
 386.93;  153.200;    0.000;    0.000;153.20000
 386.99;  173.200;    0.000;    0.000;173.20000
 387.05;  130.200;    0.000;    0.000;130.20000
 387.11;  194.200;    0.000;    0.000;194.20000
 387.17;  138.200;    0.000;    0.000;138.20000
 387.22;  145.200;    0.000;    0.000;145.20000
 387.28;  185.200;    0.000;    0.000;185.20000
 387.34;  150.200;    0.000;    0.000;150.20000
 387.40;  150.200;    0.000;    0.000;150.20000
 387.46;  136.200;    0.000;    0.000;136.20000
 387.52;  181.200;    0.000;    0.000;181.20000
 387.58;  185.200;    0.000;    0.000;185.20000
 387.63;  140.200;    0.000;    0.000;140.20000
 387.69;  214.200;    0.000;    0.000;214.20000
 387.75;  173.200;    0.000;    0.000;173.20000
 387.81;  159.200;    0.000;    0.000;159.20000
 387.87;  211.200;    0.000;    0.000;211.20000
 387.93;  161.200;    0.000;    0.000;161.20000
 387.99;  176.200;    0.000;    0.000;176.20000
 388.04;  131.200;    0.000;    0.000;131.20000
 388.10;  134.200;    0.000;    0.000;134.20000
 388.16;  134.200;    0.000;    0.000;134.20000
 388.22;  159.200;    0.000;    0.000;159.20000
 388.28;  111.200;    0.000;    0.000;111.20000
 388.34;  184.200;    0.000;    0.000;184.20000
 388.40;  142.200;    0.000;    0.000;142.20000
 388.45;  198.200;    0.000;    0.000;198.20000
 388.51;  126.200;    0.000;    0.000;126.20000
 388.57;  186.200;    0.000;    0.000;186.20000
 388.63;  137.200;    0.000;    0.000;137.20000
 388.69;   98.200;    0.000;    0.000;98.20000
 388.75;  124.200;    0.000;    0.000;124.20000
 388.81;  146.200;    0.000;    0.000;146.20000
 388.86;  158.200;    0.000;    0.000;158.20000
 388.92;  193.200;    0.000;    0.000;193.20000
 388.98;  138.200;    0.000;    0.000;138.20000
 389.04;  157.200;    0.000;    0.000;157.20000
 389.10;  174.200;    0.000;    0.000;174.20000
 389.16;  164.200;    0.000;    0.000;164.20000
 389.21;  165.200;    0.000;    0.000;165.20000
 389.27;  138.200;    0.000;    0.000;138.20000
 389.33;  145.200;    0.000;    0.000;145.20000
 389.39;  162.200;    0.000;    0.000;162.20000
 389.45;  119.200;    0.000;    0.000;119.20000
 389.51;  149.200;    0.000;    0.000;149.20000
 389.56;  168.200;    0.000;    0.000;168.20000
 389.62;  191.200;    0.000;    0.000;191.20000
 389.68;  160.200;    0.000;    0.000;160.20000
 389.74;  168.200;    0.000;    0.000;168.20000
 389.80;  139.200;    0.000;    0.000;139.20000
 389.86;  181.200;    0.000;    0.000;181.20000
 389.91;  186.200;    0.000;    0.000;186.20000
 389.97;  161.200;    0.000;    0.000;161.20000
 390.03;  171.200;    0.000;    0.000;171.20000
 390.09;  190.200;    0.000;    0.000;190.20000
 390.15;  129.200;    0.000;    0.000;129.20000
 390.21;  148.200;    0.000;    0.000;148.20000
 390.26;  173.200;    0.000;    0.000;173.20000
 390.32;  178.200;    0.000;    0.000;178.20000
 390.38;  150.200;    0.000;    0.000;150.20000
 390.44;  163.200;    0.000;    0.000;163.20000
 390.50;  197.200;    0.000;    0.000;197.20000
 390.55;  169.200;    0.000;    0.000;169.20000
 390.61;  152.200;    0.000;    0.000;152.20000
 390.67;  194.200;    0.000;    0.000;194.20000
 390.73;  116.200;    0.000;    0.000;116.20000
 390.79;  169.200;    0.000;    0.000;169.20000
 390.85;  163.200;    0.000;    0.000;163.20000
 390.90;  181.200;    0.000;    0.000;181.20000
 390.96;  192.200;    0.000;    0.000;192.20000
 391.02;  189.200;    0.000;    0.000;189.20000
 391.08;  209.200;    0.000;    0.000;209.20000
 391.14;  196.200;    0.000;    0.000;196.20000
 391.19;  171.200;    0.000;    0.000;171.20000
 391.25;  195.200;    0.000;    0.000;195.20000
 391.31;  179.200;    0.000;    0.000;179.20000
 391.37;  169.200;    0.000;    0.000;169.20000
 391.43;  185.200;    0.000;    0.000;185.20000
 391.48;  206.200;    0.000;    0.000;206.20000
 391.54;  214.200;    0.000;    0.000;214.20000
 391.60;  162.200;    0.000;    0.000;162.20000
 391.66;  171.200;    0.000;    0.000;171.20000
 391.72;  211.200;    0.000;    0.000;211.20000
 391.77;  162.200;    0.000;    0.000;162.20000
 391.83;  158.200;    0.000;    0.000;158.20000
 391.89;  162.200;    0.000;    0.000;162.20000
 391.95;  178.200;    0.000;    0.000;178.20000
 392.01;  168.200;    0.000;    0.000;168.20000
 392.06;  156.200;    0.000;    0.000;156.20000
 392.12;  188.200;    0.000;    0.000;188.20000
 392.18;  192.200;    0.000;    0.000;192.20000
 392.24;  184.200;    0.000;    0.000;184.20000
 392.30;  159.200;    0.000;    0.000;159.20000
 392.35;  153.200;    0.000;    0.000;153.20000
 392.41;  205.200;    0.000;    0.000;205.20000
 392.47;  191.200;    0.000;    0.000;191.20000
 392.53;  175.200;    0.000;    0.000;175.20000
 392.59;  170.200;    0.000;    0.000;170.20000
 392.64;  191.200;    0.000;    0.000;191.20000
 392.70;  171.200;    0.000;    0.000;171.20000
 392.76;  180.200;    0.000;    0.000;180.20000
 392.82;  158.200;    0.000;    0.000;158.20000
 392.87;  182.200;    0.000;    0.000;182.20000
 392.93;  180.200;    0.000;    0.000;180.20000
 392.99;  216.200;    0.000;    0.000;216.20000
 393.05;  193.200;    0.000;    0.000;193.20000
 393.11;  188.200;    0.000;    0.000;188.20000
 393.16;  180.200;    0.000;    0.000;180.20000
 393.22;  169.200;    0.000;    0.000;169.20000
 393.28;  191.200;    0.000;    0.000;191.20000
 393.34;  175.200;    0.000;    0.000;175.20000
 393.39;  155.200;    0.000;    0.000;155.20000
 393.45;  185.200;    0.000;    0.000;185.20000
 393.51;  153.200;    0.000;    0.000;153.20000
 393.57;  206.200;    0.000;    0.000;206.20000
 393.63;  160.200;    0.000;    0.000;160.20000
 393.68;  196.200;    0.000;    0.000;196.20000
 393.74;  185.200;    0.000;    0.000;185.20000
 393.80;  203.200;    0.000;    0.000;203.20000
 393.86;  166.200;    0.000;    0.000;166.20000
 393.91;  177.200;    0.000;    0.000;177.20000
 393.97;  173.200;    0.000;    0.000;173.20000
 394.03;  167.200;    0.000;    0.000;167.20000
 394.09;  172.200;    0.000;    0.000;172.20000
 394.14;  164.200;    0.000;    0.000;164.20000
 394.20;  169.200;    0.000;    0.000;169.20000
 394.26;  159.200;    0.000;    0.000;159.20000
 394.32;  170.200;    0.000;    0.000;170.20000
 394.38;  137.200;    0.000;    0.000;137.20000
 394.43;  173.200;    0.000;    0.000;173.20000
 394.49;  105.200;    0.000;    0.000;105.20000
 394.55;  186.200;    0.000;    0.000;186.20000
 394.61;  182.200;    0.000;    0.000;182.20000
 394.66;  135.200;    0.000;    0.000;135.20000
 394.72;  163.200;    0.000;    0.000;163.20000
 394.78;  179.200;    0.000;    0.000;179.20000
 394.84;  160.200;    0.000;    0.000;160.20000
 394.89;  136.200;    0.000;    0.000;136.20000
 394.95;  196.200;    0.000;    0.000;196.20000
 395.01;  222.200;    0.000;    0.000;222.20000
 395.07;  162.200;    0.000;    0.000;162.20000
 395.12;  179.200;    0.000;    0.000;179.20000
 395.18;  145.200;    0.000;    0.000;145.20000
 395.24;  159.200;    0.000;    0.000;159.20000
 395.30;  176.200;    0.000;    0.000;176.20000
 395.35;  156.200;    0.000;    0.000;156.20000
 395.41;  164.200;    0.000;    0.000;164.20000
 395.47;  147.200;    0.000;    0.000;147.20000
 395.52;  162.200;    0.000;    0.000;162.20000
 395.58;  171.200;    0.000;    0.000;171.20000
 395.64;  197.200;    0.000;    0.000;197.20000
 395.70;  175.200;    0.000;    0.000;175.20000
 395.75;  182.200;    0.000;    0.000;182.20000
 395.81;  166.200;    0.000;    0.000;166.20000
 395.87;  198.200;    0.000;    0.000;198.20000
 395.93;  183.200;    0.000;    0.000;183.20000
 395.98;  188.200;    0.000;    0.000;188.20000
 396.04;  168.200;    0.000;    0.000;168.20000
 396.10;  154.200;    0.000;    0.000;154.20000
 396.16;  182.200;    0.000;    0.000;182.20000
 396.21;  170.200;    0.000;    0.000;170.20000
 396.27;  191.200;    0.000;    0.000;191.20000
 396.33;  163.200;    0.000;    0.000;163.20000
 396.38;  154.200;    0.000;    0.000;154.20000
 396.44;  170.200;    0.000;    0.000;170.20000
 396.50;  144.200;    0.000;    0.000;144.20000
 396.56;  150.200;    0.000;    0.000;150.20000
 396.61;  172.200;    0.000;    0.000;172.20000
 396.67;  182.200;    0.000;    0.000;182.20000
 396.73;  178.200;    0.000;    0.000;178.20000
 396.79;  151.200;    0.000;    0.000;151.20000
 396.84;  158.200;    0.000;    0.000;158.20000
 396.90;  167.200;    0.000;    0.000;167.20000
 396.96;  196.200;    0.000;    0.000;196.20000
 397.01;  172.200;    0.000;    0.000;172.20000
 397.07;  174.200;    0.000;    0.000;174.20000
 397.13;  176.200;    0.000;    0.000;176.20000
 397.19;  204.200;    0.000;    0.000;204.20000
 397.24;  175.200;    0.000;    0.000;175.20000
 397.30;  187.200;    0.000;    0.000;187.20000
 397.36;  204.200;    0.000;    0.000;204.20000
 397.41;  187.200;    0.000;    0.000;187.20000
 397.47;  115.200;    0.000;    0.000;115.20000
 397.53;  176.200;    0.000;    0.000;176.20000
 397.59;  192.200;    0.000;    0.000;192.20000
 397.64;  169.200;    0.000;    0.000;169.20000
 397.70;  176.200;    0.000;    0.000;176.20000
 397.76;  162.200;    0.000;    0.000;162.20000
 397.81;  181.200;    0.000;    0.000;181.20000
 397.87;  175.200;    0.000;    0.000;175.20000
 397.93;  179.200;    0.000;    0.000;179.20000
 397.98;  137.200;    0.000;    0.000;137.20000
 398.04;  170.200;    0.000;    0.000;170.20000
 398.10;  149.200;    0.000;    0.000;149.20000
 398.16;  188.200;    0.000;    0.000;188.20000
 398.21;  182.200;    0.000;    0.000;182.20000
 398.27;  195.200;    0.000;    0.000;195.20000
 398.33;  204.200;    0.000;    0.000;204.20000
 398.38;  169.200;    0.000;    0.000;169.20000
 398.44;  173.200;    0.000;    0.000;173.20000
 398.50;  180.200;    0.000;    0.000;180.20000
 398.55;  174.200;    0.000;    0.000;174.20000
 398.61;  141.200;    0.000;    0.000;141.20000
 398.67;  145.200;    0.000;    0.000;145.20000
 398.72;  189.200;    0.000;    0.000;189.20000
 398.78;  197.200;    0.000;    0.000;197.20000
 398.84;  186.200;    0.000;    0.000;186.20000
 398.90;  183.200;    0.000;    0.000;183.20000
 398.95;  173.200;    0.000;    0.000;173.20000
 399.01;  151.200;    0.000;    0.000;151.20000
 399.07;  173.200;    0.000;    0.000;173.20000
 399.12;  166.200;    0.000;    0.000;166.20000
 399.18;  180.200;    0.000;    0.000;180.20000
 399.24;  185.200;    0.000;    0.000;185.20000
 399.29;  172.200;    0.000;    0.000;172.20000
 399.35;  151.200;    0.000;    0.000;151.20000
 399.41;  196.200;    0.000;    0.000;196.20000
 399.46;  137.200;    0.000;    0.000;137.20000
 399.52;  147.200;    0.000;    0.000;147.20000
 399.58;  161.200;    0.000;    0.000;161.20000
 399.63;  182.200;    0.000;    0.000;182.20000
 399.69;  143.200;    0.000;    0.000;143.20000
 399.75;  185.200;    0.000;    0.000;185.20000
 399.80;  166.200;    0.000;    0.000;166.20000
 399.86;  193.200;    0.000;    0.000;193.20000
 399.92;  196.200;    0.000;    0.000;196.20000
 399.97;  206.200;    0.000;    0.000;206.20000
 400.03;  221.200;    0.000;    0.000;221.20000
 400.09;  154.200;    0.000;    0.000;154.20000
 400.14;  211.200;    0.000;    0.000;211.20000
 400.20;  193.200;    0.000;    0.000;193.20000
 400.26;  140.200;    0.000;    0.000;140.20000
 400.31;  187.200;    0.000;    0.000;187.20000
 400.37;  198.200;    0.000;    0.000;198.20000
 400.43;  186.200;    0.000;    0.000;186.20000
 400.48;  161.200;    0.000;    0.000;161.20000
 400.54;  163.200;    0.000;    0.000;163.20000
 400.60;  182.200;    0.000;    0.000;182.20000
 400.65;  192.200;    0.000;    0.000;192.20000
 400.71;  168.200;    0.000;    0.000;168.20000
 400.77;  209.200;    0.000;    0.000;209.20000
 400.82;  184.200;    0.000;    0.000;184.20000
 400.88;  190.200;    0.000;    0.000;190.20000
 400.94;  177.200;    0.000;    0.000;177.20000
 400.99;  193.200;    0.000;    0.000;193.20000
 401.05;  165.200;    0.000;    0.000;165.20000
 401.11;  167.200;    0.000;    0.000;167.20000
 401.16;  224.200;    0.000;    0.000;224.20000
 401.22;  185.200;    0.000;    0.000;185.20000
 401.27;  169.200;    0.000;    0.000;169.20000
 401.33;  187.200;    0.000;    0.000;187.20000
 401.39;  208.200;    0.000;    0.000;208.20000
 401.44;  185.200;    0.000;    0.000;185.20000
 401.50;  195.200;    0.000;    0.000;195.20000
 401.56;  153.200;    0.000;    0.000;153.20000
 401.61;  130.200;    0.000;    0.000;130.20000
 401.67;  167.200;    0.000;    0.000;167.20000
 401.73;  175.200;    0.000;    0.000;175.20000
 401.78;  152.200;    0.000;    0.000;152.20000
 401.84;  205.200;    0.000;    0.000;205.20000
 401.90;  172.200;    0.000;    0.000;172.20000
 401.95;  186.200;    0.000;    0.000;186.20000
 402.01;  158.200;    0.000;    0.000;158.20000
 402.06;  165.200;    0.000;    0.000;165.20000
 402.12;  195.200;    0.000;    0.000;195.20000
 402.18;  153.200;    0.000;    0.000;153.20000
 402.23;  172.200;    0.000;    0.000;172.20000
 402.29;  186.200;    0.000;    0.000;186.20000
 402.35;  191.200;    0.000;    0.000;191.20000
 402.40;  172.200;    0.000;    0.000;172.20000
 402.46;  157.200;    0.000;    0.000;157.20000
 402.51;  179.200;    0.000;    0.000;179.20000
 402.57;  174.200;    0.000;    0.000;174.20000
 402.63;  196.200;    0.000;    0.000;196.20000
 402.68;  165.200;    0.000;    0.000;165.20000
 402.74;  157.200;    0.000;    0.000;157.20000
 402.80;  200.200;    0.000;    0.000;200.20000
 402.85;  170.200;    0.000;    0.000;170.20000
 402.91;  177.200;    0.000;    0.000;177.20000
 402.96;  199.200;    0.000;    0.000;199.20000
 403.02;  179.200;    0.000;    0.000;179.20000
 403.08;  179.200;    0.000;    0.000;179.20000
 403.13;  166.200;    0.000;    0.000;166.20000
 403.19;  199.200;    0.000;    0.000;199.20000
 403.25;  186.200;    0.000;    0.000;186.20000
 403.30;  200.200;    0.000;    0.000;200.20000
 403.36;  168.200;    0.000;    0.000;168.20000
 403.41;  198.200;    0.000;    0.000;198.20000
 403.47;  180.200;    0.000;    0.000;180.20000
 403.53;  164.200;    0.000;    0.000;164.20000
 403.58;  195.200;    0.000;    0.000;195.20000
 403.64;  217.200;    0.000;    0.000;217.20000
 403.69;  142.200;    0.000;    0.000;142.20000
 403.75;  205.200;    0.000;    0.000;205.20000
 403.81;  151.200;    0.000;    0.000;151.20000
 403.86;  204.200;    0.000;    0.000;204.20000
 403.92;  203.200;    0.000;    0.000;203.20000
 403.97;  190.200;    0.000;    0.000;190.20000
 404.03;  149.200;    0.000;    0.000;149.20000
 404.09;  194.200;    0.000;    0.000;194.20000
 404.14;  193.200;    0.000;    0.000;193.20000
 404.20;  206.200;    0.000;    0.000;206.20000
 404.25;  188.200;    0.000;    0.000;188.20000
 404.31;  179.200;    0.000;    0.000;179.20000
 404.37;  168.200;    0.000;    0.000;168.20000
 404.42;  193.200;    0.000;    0.000;193.20000
 404.48;  196.200;    0.000;    0.000;196.20000
 404.53;  179.200;    0.000;    0.000;179.20000
 404.59;  218.200;    0.000;    0.000;218.20000
 404.65;  161.200;    0.000;    0.000;161.20000
 404.70;  157.200;    0.000;    0.000;157.20000
 404.76;  197.200;    0.000;    0.000;197.20000
 404.81;  172.200;    0.000;    0.000;172.20000
 404.87;  192.200;    0.000;    0.000;192.20000
 404.92;  199.200;    0.000;    0.000;199.20000
 404.98;  195.200;    0.000;    0.000;195.20000
 405.04;  175.200;    0.000;    0.000;175.20000
 405.09;  171.200;    0.000;    0.000;171.20000
 405.15;  171.200;    0.000;    0.000;171.20000
 405.20;  120.200;    0.000;    0.000;120.20000
 405.26;  176.200;    0.000;    0.000;176.20000
 405.32;  148.200;    0.000;    0.000;148.20000
 405.37;  166.200;    0.000;    0.000;166.20000
 405.43;  182.200;    0.000;    0.000;182.20000
 405.48;  211.200;    0.000;    0.000;211.20000
 405.54;  187.200;    0.000;    0.000;187.20000
 405.59;  195.200;    0.000;    0.000;195.20000
 405.65;  176.200;    0.000;    0.000;176.20000
 405.71;  170.200;    0.000;    0.000;170.20000
 405.76;  190.200;    0.000;    0.000;190.20000
 405.82;  158.200;    0.000;    0.000;158.20000
 405.87;  156.200;    0.000;    0.000;156.20000
 405.93;  159.200;    0.000;    0.000;159.20000
 405.98;  198.200;    0.000;    0.000;198.20000
 406.04;  188.200;    0.000;    0.000;188.20000
 406.10;  152.200;    0.000;    0.000;152.20000
 406.15;  191.200;    0.000;    0.000;191.20000
 406.21;  194.200;    0.000;    0.000;194.20000
 406.26;  162.200;    0.000;    0.000;162.20000
 406.32;  157.200;    0.000;    0.000;157.20000
 406.37;  169.200;    0.000;    0.000;169.20000
 406.43;  210.200;    0.000;    0.000;210.20000
 406.48;  226.200;    0.000;    0.000;226.20000
 406.54;  150.200;    0.000;    0.000;150.20000
 406.60;  191.200;    0.000;    0.000;191.20000
 406.65;  203.200;    0.000;    0.000;203.20000
 406.71;  202.200;    0.000;    0.000;202.20000
 406.76;  152.200;    0.000;    0.000;152.20000
 406.82;  168.200;    0.000;    0.000;168.20000
 406.87;  138.200;    0.000;    0.000;138.20000
 406.93;  200.200;    0.000;    0.000;200.20000
 406.98;  196.200;    0.000;    0.000;196.20000
 407.04;  207.200;    0.000;    0.000;207.20000
 407.10;  175.200;    0.000;    0.000;175.20000
 407.15;  216.200;    0.000;    0.000;216.20000
 407.21;  189.200;    0.000;    0.000;189.20000
 407.26;  161.200;    0.000;    0.000;161.20000
 407.32;  182.200;    0.000;    0.000;182.20000
 407.37;  236.200;    0.000;    0.000;236.20000
 407.43;  179.200;    0.000;    0.000;179.20000
 407.48;  159.200;    0.000;    0.000;159.20000
 407.54;  179.200;    0.000;    0.000;179.20000
 407.59;  226.200;    0.000;    0.000;226.20000
 407.65;  181.200;    0.000;    0.000;181.20000
 407.71;  190.200;    0.000;    0.000;190.20000
 407.76;  214.200;    0.000;    0.000;214.20000
 407.82;  180.200;    0.000;    0.000;180.20000
 407.87;  192.200;    0.000;    0.000;192.20000
 407.93;  185.200;    0.000;    0.000;185.20000
 407.98;  194.200;    0.000;    0.000;194.20000
 408.04;  182.200;    0.000;    0.000;182.20000
 408.09;  177.200;    0.000;    0.000;177.20000
 408.15;  193.200;    0.000;    0.000;193.20000
 408.20;  189.200;    0.000;    0.000;189.20000
 408.26;  176.200;    0.000;    0.000;176.20000
 408.31;  218.200;    0.000;    0.000;218.20000
 408.37;  161.200;    0.000;    0.000;161.20000
 408.42;  215.200;    0.000;    0.000;215.20000
 408.48;  175.200;    0.000;    0.000;175.20000
 408.53;  191.200;    0.000;    0.000;191.20000
 408.59;  184.200;    0.000;    0.000;184.20000
 408.64;  167.200;    0.000;    0.000;167.20000
 408.70;  192.200;    0.000;    0.000;192.20000
 408.76;  190.200;    0.000;    0.000;190.20000
 408.81;  172.200;    0.000;    0.000;172.20000
 408.87;  155.200;    0.000;    0.000;155.20000
 408.92;  224.200;    0.000;    0.000;224.20000
 408.98;  153.200;    0.000;    0.000;153.20000
 409.03;  204.200;    0.000;    0.000;204.20000
 409.09;  179.200;    0.000;    0.000;179.20000
 409.14;  166.200;    0.000;    0.000;166.20000
 409.20;  207.200;    0.000;    0.000;207.20000
 409.25;  171.200;    0.000;    0.000;171.20000
 409.31;  137.200;    0.000;    0.000;137.20000
 409.36;  150.200;    0.000;    0.000;150.20000
 409.42;  146.200;    0.000;    0.000;146.20000
 409.47;  172.200;    0.000;    0.000;172.20000
 409.53;  194.200;    0.000;    0.000;194.20000
 409.58;  201.200;    0.000;    0.000;201.20000
 409.64;  182.200;    0.000;    0.000;182.20000
 409.69;  172.200;    0.000;    0.000;172.20000
 409.75;  171.200;    0.000;    0.000;171.20000
 409.80;  178.200;    0.000;    0.000;178.20000
 409.86;  173.200;    0.000;    0.000;173.20000
 409.91;  198.200;    0.000;    0.000;198.20000
 409.97;  179.200;    0.000;    0.000;179.20000
 410.02;  198.200;    0.000;    0.000;198.20000
 410.08;  154.200;    0.000;    0.000;154.20000
 410.13;  191.200;    0.000;    0.000;191.20000
 410.19;  156.200;    0.000;    0.000;156.20000
 410.24;  166.200;    0.000;    0.000;166.20000
 410.30;  214.200;    0.000;    0.000;214.20000
 410.35;  222.200;    0.000;    0.000;222.20000
 410.41;  174.200;    0.000;    0.000;174.20000
 410.46;  193.200;    0.000;    0.000;193.20000
 410.52;  190.200;    0.000;    0.000;190.20000
 410.57;  176.200;    0.000;    0.000;176.20000
 410.63;  188.200;    0.000;    0.000;188.20000
 410.68;  188.200;    0.000;    0.000;188.20000
 410.74;  165.200;    0.000;    0.000;165.20000
 410.79;  190.200;    0.000;    0.000;190.20000
 410.85;  183.200;    0.000;    0.000;183.20000
 410.90;  215.200;    0.000;    0.000;215.20000
 410.95;  199.200;    0.000;    0.000;199.20000
 411.01;  181.200;    0.000;    0.000;181.20000
 411.06;  212.200;    0.000;    0.000;212.20000
 411.12;  236.200;    0.000;    0.000;236.20000
 411.17;  200.200;    0.000;    0.000;200.20000
 411.23;  218.200;    0.000;    0.000;218.20000
 411.28;  225.200;    0.000;    0.000;225.20000
 411.34;  209.200;    0.000;    0.000;209.20000
 411.39;  167.200;    0.000;    0.000;167.20000
 411.45;  197.200;    0.000;    0.000;197.20000
 411.50;  236.200;    0.000;    0.000;236.20000
 411.56;  187.200;    0.000;    0.000;187.20000
 411.61;  177.200;    0.000;    0.000;177.20000
 411.67;  230.200;    0.000;    0.000;230.20000
 411.72;  177.200;    0.000;    0.000;177.20000
 411.78;  235.200;    0.000;    0.000;235.20000
 411.83;  244.200;    0.000;    0.000;244.20000
 411.88;  195.200;    0.000;    0.000;195.20000
 411.94;  200.200;    0.000;    0.000;200.20000
 411.99;  171.200;    0.000;    0.000;171.20000
 412.05;  214.200;    0.000;    0.000;214.20000
 412.10;  211.200;    0.000;    0.000;211.20000
 412.16;  224.200;    0.000;    0.000;224.20000
 412.21;  183.200;    0.000;    0.000;183.20000
 412.27;  202.200;    0.000;    0.000;202.20000
 412.32;  214.200;    0.000;    0.000;214.20000
 412.38;  220.200;    0.000;    0.000;220.20000
 412.43;  199.200;    0.000;    0.000;199.20000
 412.49;  244.200;    0.000;    0.000;244.20000
 412.54;  220.200;    0.000;    0.000;220.20000
 412.59;  172.200;    0.000;    0.000;172.20000
 412.65;  249.200;    0.000;    0.000;249.20000
 412.70;  176.200;    0.000;    0.000;176.20000
 412.76;  229.200;    0.000;    0.000;229.20000
 412.81;  169.200;    0.000;    0.000;169.20000
 412.87;  147.200;    0.000;    0.000;147.20000
 412.92;  183.200;    0.000;    0.000;183.20000
 412.98;  179.200;    0.000;    0.000;179.20000
 413.03;  195.200;    0.000;    0.000;195.20000
 413.08;  199.200;    0.000;    0.000;199.20000
 413.14;  206.200;    0.000;    0.000;206.20000
 413.19;  170.200;    0.000;    0.000;170.20000
 413.25;  192.200;    0.000;    0.000;192.20000
 413.30;  182.200;    0.000;    0.000;182.20000
 413.36;  174.200;    0.000;    0.000;174.20000
 413.41;  196.200;    0.000;    0.000;196.20000
 413.46;  176.200;    0.000;    0.000;176.20000
 413.52;  195.200;    0.000;    0.000;195.20000
 413.57;  162.200;    0.000;    0.000;162.20000
 413.63;  204.200;    0.000;    0.000;204.20000
 413.68;  199.200;    0.000;    0.000;199.20000
 413.74;  161.200;    0.000;    0.000;161.20000
 413.79;  206.200;    0.000;    0.000;206.20000
 413.84;  172.200;    0.000;    0.000;172.20000
 413.90;  209.200;    0.000;    0.000;209.20000
 413.95;  172.200;    0.000;    0.000;172.20000
 414.01;  161.200;    0.000;    0.000;161.20000
 414.06;  210.200;    0.000;    0.000;210.20000
 414.12;  171.200;    0.000;    0.000;171.20000
 414.17;  191.200;    0.000;    0.000;191.20000
 414.22;  177.200;    0.000;    0.000;177.20000
 414.28;  177.200;    0.000;    0.000;177.20000
 414.33;  204.200;    0.000;    0.000;204.20000
 414.39;  212.200;    0.000;    0.000;212.20000
 414.44;  186.200;    0.000;    0.000;186.20000
 414.50;  217.200;    0.000;    0.000;217.20000
 414.55;  189.200;    0.000;    0.000;189.20000
 414.60;  213.200;    0.000;    0.000;213.20000
 414.66;  139.200;    0.000;    0.000;139.20000
 414.71;  192.200;    0.000;    0.000;192.20000
 414.77;  211.200;    0.000;    0.000;211.20000
 414.82;  197.200;    0.000;    0.000;197.20000
 414.87;  189.200;    0.000;    0.000;189.20000
 414.93;  182.200;    0.000;    0.000;182.20000
 414.98;  183.200;    0.000;    0.000;183.20000
 415.04;  210.200;    0.000;    0.000;210.20000
 415.09;  213.200;    0.000;    0.000;213.20000
 415.14;  191.200;    0.000;    0.000;191.20000
 415.20;  232.200;    0.000;    0.000;232.20000
 415.25;  146.200;    0.000;    0.000;146.20000
 415.31;  170.200;    0.000;    0.000;170.20000
 415.36;  187.200;    0.000;    0.000;187.20000
 415.41;  214.200;    0.000;    0.000;214.20000
 415.47;  179.200;    0.000;    0.000;179.20000
 415.52;  210.200;    0.000;    0.000;210.20000
 415.58;  168.200;    0.000;    0.000;168.20000
 415.63;  230.200;    0.000;    0.000;230.20000
 415.68;  220.200;    0.000;    0.000;220.20000
 415.74;  204.200;    0.000;    0.000;204.20000
 415.79;  182.200;    0.000;    0.000;182.20000
 415.85;  219.200;    0.000;    0.000;219.20000
 415.90;  188.200;    0.000;    0.000;188.20000
 415.95;  191.200;    0.000;    0.000;191.20000
 416.01;  219.200;    0.000;    0.000;219.20000
 416.06;  176.200;    0.000;    0.000;176.20000
 416.12;  216.200;    0.000;    0.000;216.20000
 416.17;  235.200;    0.000;    0.000;235.20000
 416.22;  218.200;    0.000;    0.000;218.20000
 416.28;  214.200;    0.000;    0.000;214.20000
 416.33;  201.200;    0.000;    0.000;201.20000
 416.38;  191.200;    0.000;    0.000;191.20000
 416.44;  202.200;    0.000;    0.000;202.20000
 416.49;  240.200;    0.000;    0.000;240.20000
 416.55;  222.200;    0.000;    0.000;222.20000
 416.60;  221.200;    0.000;    0.000;221.20000
 416.65;  232.200;    0.000;    0.000;232.20000
 416.71;  192.200;    0.000;    0.000;192.20000
 416.76;  207.200;    0.000;    0.000;207.20000
 416.81;  204.200;    0.000;    0.000;204.20000
 416.87;  235.200;    0.000;    0.000;235.20000
 416.92;  225.200;    0.000;    0.000;225.20000
 416.98;  197.200;    0.000;    0.000;197.20000
 417.03;  262.200;    0.000;    0.000;262.20000
 417.08;  213.200;    0.000;    0.000;213.20000
 417.14;  216.200;    0.000;    0.000;216.20000
 417.19;  197.200;    0.000;    0.000;197.20000
 417.24;  245.200;    0.000;    0.000;245.20000
 417.30;  222.200;    0.000;    0.000;222.20000
 417.35;  205.200;    0.000;    0.000;205.20000
 417.41;  239.200;    0.000;    0.000;239.20000
 417.46;  231.200;    0.000;    0.000;231.20000
 417.51;  247.200;    0.000;    0.000;247.20000
 417.57;  176.200;    0.000;    0.000;176.20000
 417.62;  221.200;    0.000;    0.000;221.20000
 417.67;  192.200;    0.000;    0.000;192.20000
 417.73;  216.200;    0.000;    0.000;216.20000
 417.78;  210.200;    0.000;    0.000;210.20000
 417.83;  221.200;    0.000;    0.000;221.20000
 417.89;  231.200;    0.000;    0.000;231.20000
 417.94;  219.200;    0.000;    0.000;219.20000
 417.99;  237.200;    0.000;    0.000;237.20000
 418.05;  226.200;    0.000;    0.000;226.20000
 418.10;  203.200;    0.000;    0.000;203.20000
 418.15;  232.200;    0.000;    0.000;232.20000
 418.21;  268.200;    0.000;    0.000;268.20000
 418.26;  241.200;    0.000;    0.000;241.20000
 418.32;  216.200;    0.000;    0.000;216.20000
 418.37;  226.200;    0.000;    0.000;226.20000
 418.42;  229.200;    0.000;    0.000;229.20000
 418.48;  211.200;    0.000;    0.000;211.20000
 418.53;  221.200;    0.000;    0.000;221.20000
 418.58;  219.200;    0.000;    0.000;219.20000
 418.64;  180.200;    0.000;    0.000;180.20000
 418.69;  215.200;    0.000;    0.000;215.20000
 418.74;  210.200;    0.000;    0.000;210.20000
 418.80;  219.200;    0.000;    0.000;219.20000
 418.85;  210.200;    0.000;    0.000;210.20000
 418.90;  233.200;    0.000;    0.000;233.20000
 418.96;  218.200;    0.000;    0.000;218.20000
 419.01;  220.200;    0.000;    0.000;220.20000
 419.06;  218.200;    0.000;    0.000;218.20000
 419.12;  204.200;    0.000;    0.000;204.20000
 419.17;  221.200;    0.000;    0.000;221.20000
 419.22;  232.200;    0.000;    0.000;232.20000
 419.28;  217.200;    0.000;    0.000;217.20000
 419.33;  208.200;    0.000;    0.000;208.20000
 419.38;  159.200;    0.000;    0.000;159.20000
 419.44;  199.200;    0.000;    0.000;199.20000
 419.49;  237.200;    0.000;    0.000;237.20000
 419.54;  215.200;    0.000;    0.000;215.20000
 419.60;  201.200;    0.000;    0.000;201.20000
 419.65;  242.200;    0.000;    0.000;242.20000
 419.70;  202.200;    0.000;    0.000;202.20000
 419.75;  223.200;    0.000;    0.000;223.20000
 419.81;  222.200;    0.000;    0.000;222.20000
 419.86;  211.200;    0.000;    0.000;211.20000
 419.91;  244.200;    0.000;    0.000;244.20000
 419.97;  202.200;    0.000;    0.000;202.20000
 420.02;  176.200;    0.000;    0.000;176.20000
 420.07;  210.200;    0.000;    0.000;210.20000
 420.13;  256.200;    0.000;    0.000;256.20000
 420.18;  227.200;    0.000;    0.000;227.20000
 420.23;  226.200;    0.000;    0.000;226.20000
 420.29;  215.200;    0.000;    0.000;215.20000
 420.34;  216.200;    0.000;    0.000;216.20000
 420.39;  227.200;    0.000;    0.000;227.20000
 420.45;  188.200;    0.000;    0.000;188.20000
 420.50;  200.200;    0.000;    0.000;200.20000
 420.55;  202.200;    0.000;    0.000;202.20000
 420.60;  243.200;    0.000;    0.000;243.20000
 420.66;  236.200;    0.000;    0.000;236.20000
 420.71;  217.200;    0.000;    0.000;217.20000
 420.76;  215.200;    0.000;    0.000;215.20000
 420.82;  210.200;    0.000;    0.000;210.20000
 420.87;  196.200;    0.000;    0.000;196.20000
 420.92;  211.200;    0.000;    0.000;211.20000
 420.97;  225.200;    0.000;    0.000;225.20000
 421.03;  216.200;    0.000;    0.000;216.20000
 421.08;  202.200;    0.000;    0.000;202.20000
 421.13;  197.200;    0.000;    0.000;197.20000
 421.19;  222.200;    0.000;    0.000;222.20000
 421.24;  191.200;    0.000;    0.000;191.20000
 421.29;  219.200;    0.000;    0.000;219.20000
 421.35;  178.200;    0.000;    0.000;178.20000
 421.40;  217.200;    0.000;    0.000;217.20000
 421.45;  258.200;    0.000;    0.000;258.20000
 421.50;  222.200;    0.000;    0.000;222.20000
 421.56;  192.200;    0.000;    0.000;192.20000
 421.61;  222.200;    0.000;    0.000;222.20000
 421.66;  213.200;    0.000;    0.000;213.20000
 421.72;  216.200;    0.000;    0.000;216.20000
 421.77;  194.200;    0.000;    0.000;194.20000
 421.82;  221.200;    0.000;    0.000;221.20000
 421.87;  210.200;    0.000;    0.000;210.20000
 421.93;  197.200;    0.000;    0.000;197.20000
 421.98;  235.200;    0.000;    0.000;235.20000
 422.03;  236.200;    0.000;    0.000;236.20000
 422.08;  241.200;    0.000;    0.000;241.20000
 422.14;  202.200;    0.000;    0.000;202.20000
 422.19;  213.200;    0.000;    0.000;213.20000
 422.24;  204.200;    0.000;    0.000;204.20000
 422.30;  181.200;    0.000;    0.000;181.20000
 422.35;  207.200;    0.000;    0.000;207.20000
 422.40;  192.200;    0.000;    0.000;192.20000
 422.45;  231.200;    0.000;    0.000;231.20000
 422.51;  221.200;    0.000;    0.000;221.20000
 422.56;  207.200;    0.000;    0.000;207.20000
 422.61;  220.200;    0.000;    0.000;220.20000
 422.66;  213.200;    0.000;    0.000;213.20000
 422.72;  212.200;    0.000;    0.000;212.20000
 422.77;  213.200;    0.000;    0.000;213.20000
 422.82;  202.200;    0.000;    0.000;202.20000
 422.87;  221.200;    0.000;    0.000;221.20000
 422.93;  249.200;    0.000;    0.000;249.20000
 422.98;  201.200;    0.000;    0.000;201.20000
 423.03;  191.200;    0.000;    0.000;191.20000
 423.08;  206.200;    0.000;    0.000;206.20000
 423.14;  219.200;    0.000;    0.000;219.20000
 423.19;  227.200;    0.000;    0.000;227.20000
 423.24;  193.200;    0.000;    0.000;193.20000
 423.29;  196.200;    0.000;    0.000;196.20000
 423.35;  176.200;    0.000;    0.000;176.20000
 423.40;  224.200;    0.000;    0.000;224.20000
 423.45;  238.200;    0.000;    0.000;238.20000
 423.50;  219.200;    0.000;    0.000;219.20000
 423.56;  201.200;    0.000;    0.000;201.20000
 423.61;  215.200;    0.000;    0.000;215.20000
 423.66;  187.200;    0.000;    0.000;187.20000
 423.71;  218.200;    0.000;    0.000;218.20000
 423.77;  210.200;    0.000;    0.000;210.20000
 423.82;  197.200;    0.000;    0.000;197.20000
 423.87;  222.200;    0.000;    0.000;222.20000
 423.92;  196.200;    0.000;    0.000;196.20000
 423.98;  226.200;    0.000;    0.000;226.20000
 424.03;  216.200;    0.000;    0.000;216.20000
 424.08;  221.200;    0.000;    0.000;221.20000
 424.13;  210.200;    0.000;    0.000;210.20000
 424.19;  199.200;    0.000;    0.000;199.20000
 424.24;  226.200;    0.000;    0.000;226.20000
 424.29;  243.200;    0.000;    0.000;243.20000
 424.34;  221.200;    0.000;    0.000;221.20000
 424.39;  234.200;    0.000;    0.000;234.20000
 424.45;  242.200;    0.000;    0.000;242.20000
 424.50;  218.200;    0.000;    0.000;218.20000
 424.55;  220.200;    0.000;    0.000;220.20000
 424.60;  207.200;    0.000;    0.000;207.20000
 424.66;  230.200;    0.000;    0.000;230.20000
 424.71;  260.200;    0.000;    0.000;260.20000
 424.76;  232.200;    0.000;    0.000;232.20000
 424.81;  253.200;    0.000;    0.000;253.20000
 424.86;  222.200;    0.000;    0.000;222.20000
 424.92;  184.200;    0.000;    0.000;184.20000
 424.97;  259.200;    0.000;    0.000;259.20000
 425.02;  209.200;    0.000;    0.000;209.20000
 425.07;  203.200;    0.000;    0.000;203.20000
 425.13;  242.200;    0.000;    0.000;242.20000
 425.18;  247.200;    0.000;    0.000;247.20000
 425.23;  264.200;    0.000;    0.000;264.20000
 425.28;  249.200;    0.000;    0.000;249.20000
 425.33;  242.200;    0.000;    0.000;242.20000
 425.39;  246.200;    0.000;    0.000;246.20000
 425.44;  224.200;    0.000;    0.000;224.20000
 425.49;  207.200;    0.000;    0.000;207.20000
 425.54;  229.200;    0.000;    0.000;229.20000
 425.59;  208.200;    0.000;    0.000;208.20000
 425.65;  238.200;    0.000;    0.000;238.20000
 425.70;  203.200;    0.000;    0.000;203.20000
 425.75;  224.200;    0.000;    0.000;224.20000
 425.80;  209.200;    0.000;    0.000;209.20000
 425.85;  241.200;    0.000;    0.000;241.20000
 425.91;  246.200;    0.000;    0.000;246.20000
 425.96;  242.200;    0.000;    0.000;242.20000
 426.01;  219.200;    0.000;    0.000;219.20000
 426.06;  217.200;    0.000;    0.000;217.20000
 426.11;  255.200;    0.000;    0.000;255.20000
 426.17;  206.200;    0.000;    0.000;206.20000
 426.22;  238.200;    0.000;    0.000;238.20000
 426.27;  216.200;    0.000;    0.000;216.20000
 426.32;  251.200;    0.000;    0.000;251.20000
 426.37;  186.200;    0.000;    0.000;186.20000
 426.43;  254.200;    0.000;    0.000;254.20000
 426.48;  184.200;    0.000;    0.000;184.20000
 426.53;  243.200;    0.000;    0.000;243.20000
 426.58;  192.200;    0.000;    0.000;192.20000
 426.63;  216.200;    0.000;    0.000;216.20000
 426.68;  210.200;    0.000;    0.000;210.20000
 426.74;  229.200;    0.000;    0.000;229.20000
 426.79;  240.200;    0.000;    0.000;240.20000
 426.84;  215.200;    0.000;    0.000;215.20000
 426.89;  245.200;    0.000;    0.000;245.20000
 426.94;  190.200;    0.000;    0.000;190.20000
 427.00;  235.200;    0.000;    0.000;235.20000
 427.05;  215.200;    0.000;    0.000;215.20000
 427.10;  210.200;    0.000;    0.000;210.20000
 427.15;  227.200;    0.000;    0.000;227.20000
 427.20;  186.200;    0.000;    0.000;186.20000
 427.25;  204.200;    0.000;    0.000;204.20000
 427.31;  240.200;    0.000;    0.000;240.20000
 427.36;  190.200;    0.000;    0.000;190.20000
 427.41;  242.200;    0.000;    0.000;242.20000
 427.46;  164.200;    0.000;    0.000;164.20000
 427.51;  253.200;    0.000;    0.000;253.20000
 427.56;  239.200;    0.000;    0.000;239.20000
 427.62;  230.200;    0.000;    0.000;230.20000
 427.67;  224.200;    0.000;    0.000;224.20000
 427.72;  195.200;    0.000;    0.000;195.20000
 427.77;  225.200;    0.000;    0.000;225.20000
 427.82;  232.200;    0.000;    0.000;232.20000
 427.87;  232.200;    0.000;    0.000;232.20000
 427.93;  217.200;    0.000;    0.000;217.20000
 427.98;  188.200;    0.000;    0.000;188.20000
 428.03;  205.200;    0.000;    0.000;205.20000
 428.08;  211.200;    0.000;    0.000;211.20000
 428.13;  245.200;    0.000;    0.000;245.20000
 428.18;  227.200;    0.000;    0.000;227.20000
 428.23;  245.200;    0.000;    0.000;245.20000
 428.29;  241.200;    0.000;    0.000;241.20000
 428.34;  232.200;    0.000;    0.000;232.20000
 428.39;  207.200;    0.000;    0.000;207.20000
 428.44;  222.200;    0.000;    0.000;222.20000
 428.49;  265.200;    0.000;    0.000;265.20000
 428.54;  223.200;    0.000;    0.000;223.20000
 428.59;  197.200;    0.000;    0.000;197.20000
 428.65;  222.200;    0.000;    0.000;222.20000
 428.70;  200.200;    0.000;    0.000;200.20000
 428.75;  227.200;    0.000;    0.000;227.20000
 428.80;  240.200;    0.000;    0.000;240.20000
 428.85;  237.200;    0.000;    0.000;237.20000
 428.90;  202.200;    0.000;    0.000;202.20000
 428.95;  209.200;    0.000;    0.000;209.20000
 429.01;  202.200;    0.000;    0.000;202.20000
 429.06;  217.200;    0.000;    0.000;217.20000
 429.11;  217.200;    0.000;    0.000;217.20000
 429.16;  204.200;    0.000;    0.000;204.20000
 429.21;  243.200;    0.000;    0.000;243.20000
 429.26;  212.200;    0.000;    0.000;212.20000
 429.31;  219.200;    0.000;    0.000;219.20000
 429.36;  211.200;    0.000;    0.000;211.20000
 429.42;  241.200;    0.000;    0.000;241.20000
 429.47;  238.200;    0.000;    0.000;238.20000
 429.52;  215.200;    0.000;    0.000;215.20000
 429.57;  178.200;    0.000;    0.000;178.20000
 429.62;  236.200;    0.000;    0.000;236.20000
 429.67;  217.200;    0.000;    0.000;217.20000
 429.72;  178.200;    0.000;    0.000;178.20000
 429.77;  202.200;    0.000;    0.000;202.20000
 429.83;  170.200;    0.000;    0.000;170.20000
 429.88;  211.200;    0.000;    0.000;211.20000
 429.93;  195.200;    0.000;    0.000;195.20000
 429.98;  164.200;    0.000;    0.000;164.20000
 430.03;  184.200;    0.000;    0.000;184.20000
 430.08;  184.200;    0.000;    0.000;184.20000
 430.13;  198.200;    0.000;    0.000;198.20000
 430.18;  226.200;    0.000;    0.000;226.20000
 430.24;  241.200;    0.000;    0.000;241.20000
 430.29;  223.200;    0.000;    0.000;223.20000
 430.34;  203.200;    0.000;    0.000;203.20000
 430.39;  200.200;    0.000;    0.000;200.20000
 430.44;  222.200;    0.000;    0.000;222.20000
 430.49;  205.200;    0.000;    0.000;205.20000
 430.54;  196.200;    0.000;    0.000;196.20000
 430.59;  208.200;    0.000;    0.000;208.20000
 430.64;  213.200;    0.000;    0.000;213.20000
 430.69;  218.200;    0.000;    0.000;218.20000
 430.75;  195.200;    0.000;    0.000;195.20000
 430.80;  259.200;    0.000;    0.000;259.20000
 430.85;  213.200;    0.000;    0.000;213.20000
 430.90;  207.200;    0.000;    0.000;207.20000
 430.95;  210.200;    0.000;    0.000;210.20000
 431.00;  224.200;    0.000;    0.000;224.20000
 431.05;  244.200;    0.000;    0.000;244.20000
 431.10;  183.200;    0.000;    0.000;183.20000
 431.15;  218.200;    0.000;    0.000;218.20000
 431.20;  194.200;    0.000;    0.000;194.20000
 431.25;  203.200;    0.000;    0.000;203.20000
 431.31;  179.200;    0.000;    0.000;179.20000
 431.36;  228.200;    0.000;    0.000;228.20000
 431.41;  236.200;    0.000;    0.000;236.20000
 431.46;  240.200;    0.000;    0.000;240.20000
 431.51;  164.200;    0.000;    0.000;164.20000
 431.56;  212.200;    0.000;    0.000;212.20000
 431.61;  199.200;    0.000;    0.000;199.20000
 431.66;  237.200;    0.000;    0.000;237.20000
 431.71;  207.200;    0.000;    0.000;207.20000
 431.76;  217.200;    0.000;    0.000;217.20000
 431.81;  187.200;    0.000;    0.000;187.20000
 431.86;  210.200;    0.000;    0.000;210.20000
 431.92;  199.200;    0.000;    0.000;199.20000
 431.97;  198.200;    0.000;    0.000;198.20000
 432.02;  213.200;    0.000;    0.000;213.20000
 432.07;  244.200;    0.000;    0.000;244.20000
 432.12;  224.200;    0.000;    0.000;224.20000
 432.17;  210.200;    0.000;    0.000;210.20000
 432.22;  184.200;    0.000;    0.000;184.20000
 432.27;  203.200;    0.000;    0.000;203.20000
 432.32;  227.200;    0.000;    0.000;227.20000
 432.37;  201.200;    0.000;    0.000;201.20000
 432.42;  204.200;    0.000;    0.000;204.20000
 432.47;  235.200;    0.000;    0.000;235.20000
 432.52;  218.200;    0.000;    0.000;218.20000
 432.57;  234.200;    0.000;    0.000;234.20000
 432.63;  201.200;    0.000;    0.000;201.20000
 432.68;  193.200;    0.000;    0.000;193.20000
 432.73;  242.200;    0.000;    0.000;242.20000
 432.78;  228.200;    0.000;    0.000;228.20000
 432.83;  254.200;    0.000;    0.000;254.20000
 432.88;  231.200;    0.000;    0.000;231.20000
 432.93;  207.200;    0.000;    0.000;207.20000
 432.98;  236.200;    0.000;    0.000;236.20000
 433.03;  207.200;    0.000;    0.000;207.20000
 433.08;  228.200;    0.000;    0.000;228.20000
 433.13;  230.200;    0.000;    0.000;230.20000
 433.18;  222.200;    0.000;    0.000;222.20000
 433.23;  215.200;    0.000;    0.000;215.20000
 433.28;  218.200;    0.000;    0.000;218.20000
 433.33;  213.200;    0.000;    0.000;213.20000
 433.38;  274.200;    0.000;    0.000;274.20000
 433.43;  256.200;    0.000;    0.000;256.20000
 433.48;  228.200;    0.000;    0.000;228.20000
 433.53;  250.200;    0.000;    0.000;250.20000
 433.58;  237.200;    0.000;    0.000;237.20000
 433.63;  254.200;    0.000;    0.000;254.20000
 433.69;  231.200;    0.000;    0.000;231.20000
 433.74;  287.200;    0.000;    0.000;287.20000
 433.79;  266.200;    0.000;    0.000;266.20000
 433.84;  273.200;    0.000;    0.000;273.20000
 433.89;  236.200;    0.000;    0.000;236.20000
 433.94;  270.200;    0.000;    0.000;270.20000
 433.99;  240.200;    0.000;    0.000;240.20000
 434.04;  246.200;    0.000;    0.000;246.20000
 434.09;  219.200;    0.000;    0.000;219.20000
 434.14;  209.200;    0.000;    0.000;209.20000
 434.19;  230.200;    0.000;    0.000;230.20000
 434.24;  211.200;    0.000;    0.000;211.20000
 434.29;  244.200;    0.000;    0.000;244.20000
 434.34;  254.200;    0.000;    0.000;254.20000
 434.39;  257.200;    0.000;    0.000;257.20000
 434.44;  266.200;    0.000;    0.000;266.20000
 434.49;  272.200;    0.000;    0.000;272.20000
 434.54;  263.200;    0.000;    0.000;263.20000
 434.59;  220.200;    0.000;    0.000;220.20000
 434.64;  205.200;    0.000;    0.000;205.20000
 434.69;  236.200;    0.000;    0.000;236.20000
 434.74;  231.200;    0.000;    0.000;231.20000
 434.79;  252.200;    0.000;    0.000;252.20000
 434.84;  251.200;    0.000;    0.000;251.20000
 434.89;  245.200;    0.000;    0.000;245.20000
 434.94;  287.200;    0.000;    0.000;287.20000
 434.99;  246.200;    0.000;    0.000;246.20000
 435.04;  257.200;    0.000;    0.000;257.20000
 435.09;  260.200;    0.000;    0.000;260.20000
 435.14;  251.200;    0.000;    0.000;251.20000
 435.19;  204.200;    0.000;    0.000;204.20000
 435.24;  260.200;    0.000;    0.000;260.20000
 435.29;  265.200;    0.000;    0.000;265.20000
 435.34;  233.200;    0.000;    0.000;233.20000
 435.39;  256.200;    0.000;    0.000;256.20000
 435.44;  237.200;    0.000;    0.000;237.20000
 435.49;  251.200;    0.000;    0.000;251.20000
 435.54;  235.200;    0.000;    0.000;235.20000
 435.59;  247.200;    0.000;    0.000;247.20000
 435.64;  259.200;    0.000;    0.000;259.20000
 435.69;  211.200;    0.000;    0.000;211.20000
 435.74;  272.200;    0.000;    0.000;272.20000
 435.79;  286.200;    0.000;    0.000;286.20000
 435.84;  222.200;    0.000;    0.000;222.20000
 435.89;  224.200;    0.000;    0.000;224.20000
 435.94;  230.200;    0.000;    0.000;230.20000
 435.99;  243.200;    0.000;    0.000;243.20000
 436.04;  186.200;    0.000;    0.000;186.20000
 436.09;  220.200;    0.000;    0.000;220.20000
 436.14;  209.200;    0.000;    0.000;209.20000
 436.19;  210.200;    0.000;    0.000;210.20000
 436.24;  228.200;    0.000;    0.000;228.20000
 436.29;  304.200;    0.000;    0.000;304.20000
 436.34;  237.200;    0.000;    0.000;237.20000
 436.39;  239.200;    0.000;    0.000;239.20000
 436.44;  200.200;    0.000;    0.000;200.20000
 436.49;  237.200;    0.000;    0.000;237.20000
 436.54;  225.200;    0.000;    0.000;225.20000
 436.59;  231.200;    0.000;    0.000;231.20000
 436.64;  178.200;    0.000;    0.000;178.20000
 436.69;  227.200;    0.000;    0.000;227.20000
 436.74;  253.200;    0.000;    0.000;253.20000
 436.79;  237.200;    0.000;    0.000;237.20000
 436.84;  234.200;    0.000;    0.000;234.20000
 436.89;  228.200;    0.000;    0.000;228.20000
 436.94;  204.200;    0.000;    0.000;204.20000
 436.99;  221.200;    0.000;    0.000;221.20000
 437.04;  229.200;    0.000;    0.000;229.20000
 437.09;  232.200;    0.000;    0.000;232.20000
 437.14;  231.200;    0.000;    0.000;231.20000
 437.19;  239.200;    0.000;    0.000;239.20000
 437.23;  251.200;    0.000;    0.000;251.20000
 437.28;  237.200;    0.000;    0.000;237.20000
 437.33;  205.200;    0.000;    0.000;205.20000
 437.38;  208.200;    0.000;    0.000;208.20000
 437.43;  234.200;    0.000;    0.000;234.20000
 437.48;  266.200;    0.000;    0.000;266.20000
 437.53;  249.200;    0.000;    0.000;249.20000
 437.58;  233.200;    0.000;    0.000;233.20000
 437.63;  203.200;    0.000;    0.000;203.20000
 437.68;  234.200;    0.000;    0.000;234.20000
 437.73;  226.200;    0.000;    0.000;226.20000
 437.78;  171.200;    0.000;    0.000;171.20000
 437.83;  243.200;    0.000;    0.000;243.20000
 437.88;  170.200;    0.000;    0.000;170.20000
 437.93;  220.200;    0.000;    0.000;220.20000
 437.98;  212.200;    0.000;    0.000;212.20000
 438.03;  252.200;    0.000;    0.000;252.20000
 438.08;  214.200;    0.000;    0.000;214.20000
 438.13;  216.200;    0.000;    0.000;216.20000
 438.18;  217.200;    0.000;    0.000;217.20000
 438.23;  207.200;    0.000;    0.000;207.20000
 438.27;  247.200;    0.000;    0.000;247.20000
 438.32;  218.200;    0.000;    0.000;218.20000
 438.37;  203.200;    0.000;    0.000;203.20000
 438.42;  235.200;    0.000;    0.000;235.20000
 438.47;  190.200;    0.000;    0.000;190.20000
 438.52;  198.200;    0.000;    0.000;198.20000
 438.57;  234.200;    0.000;    0.000;234.20000
 438.62;  264.200;    0.000;    0.000;264.20000
 438.67;  218.200;    0.000;    0.000;218.20000
 438.72;  220.200;    0.000;    0.000;220.20000
 438.77;  206.200;    0.000;    0.000;206.20000
 438.82;  214.200;    0.000;    0.000;214.20000
 438.87;  209.200;    0.000;    0.000;209.20000
 438.92;  220.200;    0.000;    0.000;220.20000
 438.96;  189.200;    0.000;    0.000;189.20000
 439.01;  214.200;    0.000;    0.000;214.20000
 439.06;  250.200;    0.000;    0.000;250.20000
 439.11;  199.200;    0.000;    0.000;199.20000
 439.16;  247.200;    0.000;    0.000;247.20000
 439.21;  229.200;    0.000;    0.000;229.20000
 439.26;  200.200;    0.000;    0.000;200.20000
 439.31;  196.200;    0.000;    0.000;196.20000
 439.36;  218.200;    0.000;    0.000;218.20000
 439.41;  222.200;    0.000;    0.000;222.20000
 439.46;  193.200;    0.000;    0.000;193.20000
 439.51;  201.200;    0.000;    0.000;201.20000
 439.55;  257.200;    0.000;    0.000;257.20000
 439.60;  256.200;    0.000;    0.000;256.20000
 439.65;  236.200;    0.000;    0.000;236.20000
 439.70;  199.200;    0.000;    0.000;199.20000
 439.75;  217.200;    0.000;    0.000;217.20000
 439.80;  247.200;    0.000;    0.000;247.20000
 439.85;  215.200;    0.000;    0.000;215.20000
 439.90;  185.200;    0.000;    0.000;185.20000
 439.95;  184.200;    0.000;    0.000;184.20000
 440.00;  215.200;    0.000;    0.000;215.20000
 440.05;  210.200;    0.000;    0.000;210.20000
 440.09;  202.200;    0.000;    0.000;202.20000
 440.14;  207.200;    0.000;    0.000;207.20000
 440.19;  259.200;    0.000;    0.000;259.20000
 440.24;  236.200;    0.000;    0.000;236.20000
 440.29;  234.200;    0.000;    0.000;234.20000
 440.34;  222.200;    0.000;    0.000;222.20000
 440.39;  230.200;    0.000;    0.000;230.20000
 440.44;  250.200;    0.000;    0.000;250.20000
 440.49;  207.200;    0.000;    0.000;207.20000
 440.53;  248.200;    0.000;    0.000;248.20000
 440.58;  230.200;    0.000;    0.000;230.20000
 440.63;  242.200;    0.000;    0.000;242.20000
 440.68;  220.200;    0.000;    0.000;220.20000
 440.73;  260.200;    0.000;    0.000;260.20000
 440.78;  223.200;    0.000;    0.000;223.20000
 440.83;  228.200;    0.000;    0.000;228.20000
 440.88;  202.200;    0.000;    0.000;202.20000
 440.93;  249.200;    0.000;    0.000;249.20000
 440.97;  209.200;    0.000;    0.000;209.20000
 441.02;  222.200;    0.000;    0.000;222.20000
 441.07;  225.200;    0.000;    0.000;225.20000
 441.12;  242.200;    0.000;    0.000;242.20000
 441.17;  243.200;    0.000;    0.000;243.20000
 441.22;  241.200;    0.000;    0.000;241.20000
 441.27;  224.200;    0.000;    0.000;224.20000
 441.32;  215.200;    0.000;    0.000;215.20000
 441.36;  240.200;    0.000;    0.000;240.20000
 441.41;  224.200;    0.000;    0.000;224.20000
 441.46;  223.200;    0.000;    0.000;223.20000
 441.51;  221.200;    0.000;    0.000;221.20000
 441.56;  252.200;    0.000;    0.000;252.20000
 441.61;  247.200;    0.000;    0.000;247.20000
 441.66;  217.200;    0.000;    0.000;217.20000
 441.70;  224.200;    0.000;    0.000;224.20000
 441.75;  269.200;    0.000;    0.000;269.20000
 441.80;  231.200;    0.000;    0.000;231.20000
 441.85;  220.200;    0.000;    0.000;220.20000
 441.90;  225.200;    0.000;    0.000;225.20000
 441.95;  231.200;    0.000;    0.000;231.20000
 442.00;  199.200;    0.000;    0.000;199.20000
 442.04;  268.200;    0.000;    0.000;268.20000
 442.09;  253.200;    0.000;    0.000;253.20000
 442.14;  269.200;    0.000;    0.000;269.20000
 442.19;  226.200;    0.000;    0.000;226.20000
 442.24;  256.200;    0.000;    0.000;256.20000
 442.29;  237.200;    0.000;    0.000;237.20000
 442.34;  235.200;    0.000;    0.000;235.20000
 442.38;  209.200;    0.000;    0.000;209.20000
 442.43;  256.200;    0.000;    0.000;256.20000
 442.48;  265.200;    0.000;    0.000;265.20000
 442.53;  217.200;    0.000;    0.000;217.20000
 442.58;  240.200;    0.000;    0.000;240.20000
 442.63;  237.200;    0.000;    0.000;237.20000
 442.67;  241.200;    0.000;    0.000;241.20000
 442.72;  189.200;    0.000;    0.000;189.20000
 442.77;  205.200;    0.000;    0.000;205.20000
 442.82;  279.200;    0.000;    0.000;279.20000
 442.87;  199.200;    0.000;    0.000;199.20000
 442.92;  221.200;    0.000;    0.000;221.20000
 442.96;  249.200;    0.000;    0.000;249.20000
 443.01;  229.200;    0.000;    0.000;229.20000
 443.06;  246.200;    0.000;    0.000;246.20000
 443.11;  224.200;    0.000;    0.000;224.20000
 443.16;  203.200;    0.000;    0.000;203.20000
 443.21;  199.200;    0.000;    0.000;199.20000
 443.25;  247.200;    0.000;    0.000;247.20000
 443.30;  248.200;    0.000;    0.000;248.20000
 443.35;  225.200;    0.000;    0.000;225.20000
 443.40;  224.200;    0.000;    0.000;224.20000
 443.45;  256.200;    0.000;    0.000;256.20000
 443.50;  268.200;    0.000;    0.000;268.20000
 443.54;  199.200;    0.000;    0.000;199.20000
 443.59;  245.200;    0.000;    0.000;245.20000
 443.64;  281.200;    0.000;    0.000;281.20000
 443.69;  221.200;    0.000;    0.000;221.20000
 443.74;  265.200;    0.000;    0.000;265.20000
 443.78;  220.200;    0.000;    0.000;220.20000
 443.83;  233.200;    0.000;    0.000;233.20000
 443.88;  195.200;    0.000;    0.000;195.20000
 443.93;  267.200;    0.000;    0.000;267.20000
 443.98;  237.200;    0.000;    0.000;237.20000
 444.03;  179.200;    0.000;    0.000;179.20000
 444.07;  235.200;    0.000;    0.000;235.20000
 444.12;  250.200;    0.000;    0.000;250.20000
 444.17;  216.200;    0.000;    0.000;216.20000
 444.22;  251.200;    0.000;    0.000;251.20000
 444.27;  276.200;    0.000;    0.000;276.20000
 444.31;  242.200;    0.000;    0.000;242.20000
 444.36;  262.200;    0.000;    0.000;262.20000
 444.41;  227.200;    0.000;    0.000;227.20000
 444.46;  258.200;    0.000;    0.000;258.20000
 444.51;  237.200;    0.000;    0.000;237.20000
 444.55;  224.200;    0.000;    0.000;224.20000
 444.60;  234.200;    0.000;    0.000;234.20000
 444.65;  236.200;    0.000;    0.000;236.20000
 444.70;  196.200;    0.000;    0.000;196.20000
 444.75;  247.200;    0.000;    0.000;247.20000
 444.79;  249.200;    0.000;    0.000;249.20000
 444.84;  292.200;    0.000;    0.000;292.20000
 444.89;  225.200;    0.000;    0.000;225.20000
 444.94;  203.200;    0.000;    0.000;203.20000
 444.98;  230.200;    0.000;    0.000;230.20000
 445.03;  241.200;    0.000;    0.000;241.20000
 445.08;  225.200;    0.000;    0.000;225.20000
 445.13;  181.200;    0.000;    0.000;181.20000
 445.18;  206.200;    0.000;    0.000;206.20000
 445.22;  198.200;    0.000;    0.000;198.20000
 445.27;  253.200;    0.000;    0.000;253.20000
 445.32;  195.200;    0.000;    0.000;195.20000
 445.37;  247.200;    0.000;    0.000;247.20000
 445.42;  208.200;    0.000;    0.000;208.20000
 445.46;  186.200;    0.000;    0.000;186.20000
 445.51;  217.200;    0.000;    0.000;217.20000
 445.56;  214.200;    0.000;    0.000;214.20000
 445.61;  218.200;    0.000;    0.000;218.20000
 445.65;  221.200;    0.000;    0.000;221.20000
 445.70;  228.200;    0.000;    0.000;228.20000
 445.75;  257.200;    0.000;    0.000;257.20000
 445.80;  208.200;    0.000;    0.000;208.20000
 445.84;  224.200;    0.000;    0.000;224.20000
 445.89;  201.200;    0.000;    0.000;201.20000
 445.94;  231.200;    0.000;    0.000;231.20000
 445.99;  203.200;    0.000;    0.000;203.20000
 446.04;  203.200;    0.000;    0.000;203.20000
 446.08;  241.200;    0.000;    0.000;241.20000
 446.13;  191.200;    0.000;    0.000;191.20000
 446.18;  226.200;    0.000;    0.000;226.20000
 446.23;  194.200;    0.000;    0.000;194.20000
 446.27;  202.200;    0.000;    0.000;202.20000
 446.32;  233.200;    0.000;    0.000;233.20000
 446.37;  208.200;    0.000;    0.000;208.20000
 446.42;  236.200;    0.000;    0.000;236.20000
 446.46;  208.200;    0.000;    0.000;208.20000
 446.51;  224.200;    0.000;    0.000;224.20000
 446.56;  203.200;    0.000;    0.000;203.20000
 446.61;  247.200;    0.000;    0.000;247.20000
 446.65;  213.200;    0.000;    0.000;213.20000
 446.70;  245.200;    0.000;    0.000;245.20000
 446.75;  215.200;    0.000;    0.000;215.20000
 446.80;  230.200;    0.000;    0.000;230.20000
 446.84;  296.200;    0.000;    0.000;296.20000
 446.89;  229.200;    0.000;    0.000;229.20000
 446.94;  229.200;    0.000;    0.000;229.20000
 446.99;  218.200;    0.000;    0.000;218.20000
 447.03;  246.200;    0.000;    0.000;246.20000
 447.08;  255.200;    0.000;    0.000;255.20000
 447.13;  219.200;    0.000;    0.000;219.20000
 447.17;  241.200;    0.000;    0.000;241.20000
 447.22;  192.200;    0.000;    0.000;192.20000
 447.27;  270.200;    0.000;    0.000;270.20000
 447.32;  216.200;    0.000;    0.000;216.20000
 447.36;  222.200;    0.000;    0.000;222.20000
 447.41;  259.200;    0.000;    0.000;259.20000
 447.46;  247.200;    0.000;    0.000;247.20000
 447.51;  212.200;    0.000;    0.000;212.20000
 447.55;  233.200;    0.000;    0.000;233.20000
 447.60;  218.200;    0.000;    0.000;218.20000
 447.65;  242.200;    0.000;    0.000;242.20000
 447.70;  280.200;    0.000;    0.000;280.20000
 447.74;  203.200;    0.000;    0.000;203.20000
 447.79;  229.200;    0.000;    0.000;229.20000
 447.84;  242.200;    0.000;    0.000;242.20000
 447.88;  232.200;    0.000;    0.000;232.20000
 447.93;  263.200;    0.000;    0.000;263.20000
 447.98;  234.200;    0.000;    0.000;234.20000
 448.03;  219.200;    0.000;    0.000;219.20000
 448.07;  226.200;    0.000;    0.000;226.20000
 448.12;  251.200;    0.000;    0.000;251.20000
 448.17;  288.200;    0.000;    0.000;288.20000
 448.21;  218.200;    0.000;    0.000;218.20000
 448.26;  250.200;    0.000;    0.000;250.20000
 448.31;  236.200;    0.000;    0.000;236.20000
 448.36;  252.200;    0.000;    0.000;252.20000
 448.40;  259.200;    0.000;    0.000;259.20000
 448.45;  208.200;    0.000;    0.000;208.20000
 448.50;  258.200;    0.000;    0.000;258.20000
 448.54;  239.200;    0.000;    0.000;239.20000
 448.59;  295.200;    0.000;    0.000;295.20000
 448.64;  292.200;    0.000;    0.000;292.20000
 448.68;  223.200;    0.000;    0.000;223.20000
 448.73;  248.200;    0.000;    0.000;248.20000
 448.78;  232.200;    0.000;    0.000;232.20000
 448.83;  218.200;    0.000;    0.000;218.20000
 448.87;  215.200;    0.000;    0.000;215.20000
 448.92;  242.200;    0.000;    0.000;242.20000
 448.97;  251.200;    0.000;    0.000;251.20000
 449.01;  245.200;    0.000;    0.000;245.20000
 449.06;  266.200;    0.000;    0.000;266.20000
 449.11;  228.200;    0.000;    0.000;228.20000
 449.15;  212.200;    0.000;    0.000;212.20000
 449.20;  258.200;    0.000;    0.000;258.20000
 449.25;  249.200;    0.000;    0.000;249.20000
 449.29;  232.200;    0.000;    0.000;232.20000
 449.34;  245.200;    0.000;    0.000;245.20000
 449.39;  235.200;    0.000;    0.000;235.20000
 449.43;  244.200;    0.000;    0.000;244.20000
 449.48;  261.200;    0.000;    0.000;261.20000
 449.53;  243.200;    0.000;    0.000;243.20000
 449.57;  269.200;    0.000;    0.000;269.20000
 449.62;  230.200;    0.000;    0.000;230.20000
 449.67;  211.200;    0.000;    0.000;211.20000
 449.72;  233.200;    0.000;    0.000;233.20000
 449.76;  226.200;    0.000;    0.000;226.20000
 449.81;  281.200;    0.000;    0.000;281.20000
 449.86;  244.200;    0.000;    0.000;244.20000
 449.90;  230.200;    0.000;    0.000;230.20000
 449.95;  247.200;    0.000;    0.000;247.20000
 450.00;  284.200;    0.000;    0.000;284.20000
 450.04;  275.200;    0.000;    0.000;275.20000
 450.09;  305.200;    0.000;    0.000;305.20000
 450.14;  314.200;    0.000;    0.000;314.20000
 450.18;  244.200;    0.000;    0.000;244.20000
 450.23;  257.200;    0.000;    0.000;257.20000
 450.28;  256.200;    0.000;    0.000;256.20000
 450.32;  245.200;    0.000;    0.000;245.20000
 450.37;  262.200;    0.000;    0.000;262.20000
 450.41;  279.200;    0.000;    0.000;279.20000
 450.46;  241.200;    0.000;    0.000;241.20000
 450.51;  293.200;    0.000;    0.000;293.20000
 450.55;  273.200;    0.000;    0.000;273.20000
 450.60;  272.200;    0.000;    0.000;272.20000
 450.65;  270.200;    0.000;    0.000;270.20000
 450.69;  277.200;    0.000;    0.000;277.20000
 450.74;  273.200;    0.000;    0.000;273.20000
 450.79;  269.200;    0.000;    0.000;269.20000
 450.83;  251.200;    0.000;    0.000;251.20000
 450.88;  248.200;    0.000;    0.000;248.20000
 450.93;  281.200;    0.000;    0.000;281.20000
 450.97;  283.200;    0.000;    0.000;283.20000
 451.02;  245.200;    0.000;    0.000;245.20000
 451.07;  256.200;    0.000;    0.000;256.20000
 451.11;  263.200;    0.000;    0.000;263.20000
 451.16;  279.200;    0.000;    0.000;279.20000
 451.20;  262.200;    0.000;    0.000;262.20000
 451.25;  257.200;    0.000;    0.000;257.20000
 451.30;  251.200;    0.000;    0.000;251.20000
 451.34;  220.200;    0.000;    0.000;220.20000
 451.39;  286.200;    0.000;    0.000;286.20000
 451.44;  302.200;    0.000;    0.000;302.20000
 451.48;  289.200;    0.000;    0.000;289.20000
 451.53;  242.200;    0.000;    0.000;242.20000
 451.58;  283.200;    0.000;    0.000;283.20000
 451.62;  188.200;    0.000;    0.000;188.20000
 451.67;  242.200;    0.000;    0.000;242.20000
 451.71;  249.200;    0.000;    0.000;249.20000
 451.76;  268.200;    0.000;    0.000;268.20000
 451.81;  266.200;    0.000;    0.000;266.20000
 451.85;  247.200;    0.000;    0.000;247.20000
 451.90;  232.200;    0.000;    0.000;232.20000
 451.95;  269.200;    0.000;    0.000;269.20000
 451.99;  265.200;    0.000;    0.000;265.20000
 452.04;  232.200;    0.000;    0.000;232.20000
 452.08;  236.200;    0.000;    0.000;236.20000
 452.13;  261.200;    0.000;    0.000;261.20000
 452.18;  255.200;    0.000;    0.000;255.20000
 452.22;  219.200;    0.000;    0.000;219.20000
 452.27;  243.200;    0.000;    0.000;243.20000
 452.31;  237.200;    0.000;    0.000;237.20000
 452.36;  243.200;    0.000;    0.000;243.20000
 452.41;  246.200;    0.000;    0.000;246.20000
 452.45;  280.200;    0.000;    0.000;280.20000
 452.50;  268.200;    0.000;    0.000;268.20000
 452.54;  277.200;    0.000;    0.000;277.20000
 452.59;  260.200;    0.000;    0.000;260.20000
 452.64;  244.200;    0.000;    0.000;244.20000
 452.68;  229.200;    0.000;    0.000;229.20000
 452.73;  267.200;    0.000;    0.000;267.20000
 452.77;  277.200;    0.000;    0.000;277.20000
 452.82;  265.200;    0.000;    0.000;265.20000
 452.87;  207.200;    0.000;    0.000;207.20000
 452.91;  245.200;    0.000;    0.000;245.20000
 452.96;  230.200;    0.000;    0.000;230.20000
 453.00;  287.200;    0.000;    0.000;287.20000
 453.05;  237.200;    0.000;    0.000;237.20000
 453.10;  212.200;    0.000;    0.000;212.20000
 453.14;  225.200;    0.000;    0.000;225.20000
 453.19;  262.200;    0.000;    0.000;262.20000
 453.23;  254.200;    0.000;    0.000;254.20000
 453.28;  219.200;    0.000;    0.000;219.20000
 453.33;  259.200;    0.000;    0.000;259.20000
 453.37;  209.200;    0.000;    0.000;209.20000
 453.42;  240.200;    0.000;    0.000;240.20000
 453.46;  240.200;    0.000;    0.000;240.20000
 453.51;  214.200;    0.000;    0.000;214.20000
 453.55;  282.200;    0.000;    0.000;282.20000
 453.60;  257.200;    0.000;    0.000;257.20000
 453.65;  297.200;    0.000;    0.000;297.20000
 453.69;  253.200;    0.000;    0.000;253.20000
 453.74;  254.200;    0.000;    0.000;254.20000
 453.78;  252.200;    0.000;    0.000;252.20000
 453.83;  237.200;    0.000;    0.000;237.20000
 453.88;  245.200;    0.000;    0.000;245.20000
 453.92;  213.200;    0.000;    0.000;213.20000
 453.97;  238.200;    0.000;    0.000;238.20000
 454.01;  277.200;    0.000;    0.000;277.20000
 454.06;  261.200;    0.000;    0.000;261.20000
 454.10;  263.200;    0.000;    0.000;263.20000
 454.15;  279.200;    0.000;    0.000;279.20000
 454.19;  218.200;    0.000;    0.000;218.20000
 454.24;  259.200;    0.000;    0.000;259.20000
 454.29;  275.200;    0.000;    0.000;275.20000
 454.33;  268.200;    0.000;    0.000;268.20000
 454.38;  274.200;    0.000;    0.000;274.20000
 454.42;  250.200;    0.000;    0.000;250.20000
 454.47;  222.200;    0.000;    0.000;222.20000
 454.51;  246.200;    0.000;    0.000;246.20000
 454.56;  259.200;    0.000;    0.000;259.20000
 454.60;  228.200;    0.000;    0.000;228.20000
 454.65;  270.200;    0.000;    0.000;270.20000
 454.70;  262.200;    0.000;    0.000;262.20000
 454.74;  282.200;    0.000;    0.000;282.20000
 454.79;  288.200;    0.000;    0.000;288.20000
 454.83;  245.200;    0.000;    0.000;245.20000
 454.88;  254.200;    0.000;    0.000;254.20000
 454.92;  272.200;    0.000;    0.000;272.20000
 454.97;  254.200;    0.000;    0.000;254.20000
 455.01;  253.200;    0.000;    0.000;253.20000
 455.06;  245.200;    0.000;    0.000;245.20000
 455.10;  240.200;    0.000;    0.000;240.20000
 455.15;  263.200;    0.000;    0.000;263.20000
 455.20;  242.200;    0.000;    0.000;242.20000
 455.24;  285.200;    0.000;    0.000;285.20000
 455.29;  249.200;    0.000;    0.000;249.20000
 455.33;  251.200;    0.000;    0.000;251.20000
 455.38;  232.200;    0.000;    0.000;232.20000
 455.42;  236.200;    0.000;    0.000;236.20000
 455.47;  243.200;    0.000;    0.000;243.20000
 455.51;  249.200;    0.000;    0.000;249.20000
 455.56;  192.200;    0.000;    0.000;192.20000
 455.60;  223.200;    0.000;    0.000;223.20000
 455.65;  269.200;    0.000;    0.000;269.20000
 455.69;  224.200;    0.000;    0.000;224.20000
 455.74;  255.200;    0.000;    0.000;255.20000
 455.78;  271.200;    0.000;    0.000;271.20000
 455.83;  266.200;    0.000;    0.000;266.20000
 455.87;  221.200;    0.000;    0.000;221.20000
 455.92;  209.200;    0.000;    0.000;209.20000
 455.97;  238.200;    0.000;    0.000;238.20000
 456.01;  282.200;    0.000;    0.000;282.20000
 456.06;  260.200;    0.000;    0.000;260.20000
 456.10;  203.200;    0.000;    0.000;203.20000
 456.15;  263.200;    0.000;    0.000;263.20000
 456.19;  250.200;    0.000;    0.000;250.20000
 456.24;  216.200;    0.000;    0.000;216.20000
 456.28;  179.200;    0.000;    0.000;179.20000
 456.33;  252.200;    0.000;    0.000;252.20000
 456.37;  248.200;    0.000;    0.000;248.20000
 456.42;  260.200;    0.000;    0.000;260.20000
 456.46;  249.200;    0.000;    0.000;249.20000
 456.51;  264.200;    0.000;    0.000;264.20000
 456.55;  285.200;    0.000;    0.000;285.20000
 456.60;  249.200;    0.000;    0.000;249.20000
 456.64;  241.200;    0.000;    0.000;241.20000
 456.69;  249.200;    0.000;    0.000;249.20000
 456.73;  281.200;    0.000;    0.000;281.20000
 456.78;  259.200;    0.000;    0.000;259.20000
 456.82;  255.200;    0.000;    0.000;255.20000
 456.87;  267.200;    0.000;    0.000;267.20000
 456.91;  247.200;    0.000;    0.000;247.20000
 456.96;  249.200;    0.000;    0.000;249.20000
 457.00;  246.200;    0.000;    0.000;246.20000
 457.05;  224.200;    0.000;    0.000;224.20000
 457.09;  240.200;    0.000;    0.000;240.20000
 457.14;  208.200;    0.000;    0.000;208.20000
 457.18;  255.200;    0.000;    0.000;255.20000
 457.23;  262.200;    0.000;    0.000;262.20000
 457.27;  237.200;    0.000;    0.000;237.20000
 457.32;  267.200;    0.000;    0.000;267.20000
 457.36;  205.200;    0.000;    0.000;205.20000
 457.40;  210.200;    0.000;    0.000;210.20000
 457.45;  252.200;    0.000;    0.000;252.20000
 457.49;  221.200;    0.000;    0.000;221.20000
 457.54;  212.200;    0.000;    0.000;212.20000
 457.58;  233.200;    0.000;    0.000;233.20000
 457.63;  200.200;    0.000;    0.000;200.20000
 457.67;  225.200;    0.000;    0.000;225.20000
 457.72;  217.200;    0.000;    0.000;217.20000
 457.76;  263.200;    0.000;    0.000;263.20000
 457.81;  251.200;    0.000;    0.000;251.20000
 457.85;  235.200;    0.000;    0.000;235.20000
 457.90;  245.200;    0.000;    0.000;245.20000
 457.94;  267.200;    0.000;    0.000;267.20000
 457.99;  276.200;    0.000;    0.000;276.20000
 458.03;  238.200;    0.000;    0.000;238.20000
 458.08;  236.200;    0.000;    0.000;236.20000
 458.12;  263.200;    0.000;    0.000;263.20000
 458.16;  190.200;    0.000;    0.000;190.20000
 458.21;  211.200;    0.000;    0.000;211.20000
 458.25;  276.200;    0.000;    0.000;276.20000
 458.30;  229.200;    0.000;    0.000;229.20000
 458.34;  238.200;    0.000;    0.000;238.20000
 458.39;  266.200;    0.000;    0.000;266.20000
 458.43;  270.200;    0.000;    0.000;270.20000
 458.48;  265.200;    0.000;    0.000;265.20000
 458.52;  251.200;    0.000;    0.000;251.20000
 458.57;  292.200;    0.000;    0.000;292.20000
 458.61;  240.200;    0.000;    0.000;240.20000
 458.65;  260.200;    0.000;    0.000;260.20000
 458.70;  253.200;    0.000;    0.000;253.20000
 458.74;  246.200;    0.000;    0.000;246.20000
 458.79;  251.200;    0.000;    0.000;251.20000
 458.83;  263.200;    0.000;    0.000;263.20000
 458.88;  243.200;    0.000;    0.000;243.20000
 458.92;  221.200;    0.000;    0.000;221.20000
 458.97;  274.200;    0.000;    0.000;274.20000
 459.01;  286.200;    0.000;    0.000;286.20000
 459.05;  266.200;    0.000;    0.000;266.20000
 459.10;  250.200;    0.000;    0.000;250.20000
 459.14;  289.200;    0.000;    0.000;289.20000
 459.19;  242.200;    0.000;    0.000;242.20000
 459.23;  262.200;    0.000;    0.000;262.20000
 459.28;  258.200;    0.000;    0.000;258.20000
 459.32;  256.200;    0.000;    0.000;256.20000
 459.36;  287.200;    0.000;    0.000;287.20000
 459.41;  274.200;    0.000;    0.000;274.20000
 459.45;  270.200;    0.000;    0.000;270.20000
 459.50;  288.200;    0.000;    0.000;288.20000
 459.54;  267.200;    0.000;    0.000;267.20000
 459.59;  228.200;    0.000;    0.000;228.20000
 459.63;  266.200;    0.000;    0.000;266.20000
 459.67;  260.200;    0.000;    0.000;260.20000
 459.72;  279.200;    0.000;    0.000;279.20000
 459.76;  242.200;    0.000;    0.000;242.20000
 459.81;  295.200;    0.000;    0.000;295.20000
 459.85;  260.200;    0.000;    0.000;260.20000
 459.89;  231.200;    0.000;    0.000;231.20000
 459.94;  256.200;    0.000;    0.000;256.20000
 459.98;  204.200;    0.000;    0.000;204.20000
 460.03;  214.200;    0.000;    0.000;214.20000
 460.07;  273.200;    0.000;    0.000;273.20000
 460.12;  270.200;    0.000;    0.000;270.20000
 460.16;  257.200;    0.000;    0.000;257.20000
 460.20;  241.200;    0.000;    0.000;241.20000
 460.25;  250.200;    0.000;    0.000;250.20000
 460.29;  267.200;    0.000;    0.000;267.20000
 460.34;  244.200;    0.000;    0.000;244.20000
 460.38;  245.200;    0.000;    0.000;245.20000
 460.42;  255.200;    0.000;    0.000;255.20000
 460.47;  266.200;    0.000;    0.000;266.20000
 460.51;  240.200;    0.000;    0.000;240.20000
 460.56;  259.200;    0.000;    0.000;259.20000
 460.60;  263.200;    0.000;    0.000;263.20000
 460.64;  246.200;    0.000;    0.000;246.20000
 460.69;  242.200;    0.000;    0.000;242.20000
 460.73;  265.200;    0.000;    0.000;265.20000
 460.78;  258.200;    0.000;    0.000;258.20000
 460.82;  258.200;    0.000;    0.000;258.20000
 460.86;  292.200;    0.000;    0.000;292.20000
 460.91;  210.200;    0.000;    0.000;210.20000
 460.95;  261.200;    0.000;    0.000;261.20000
 460.99;  280.200;    0.000;    0.000;280.20000
 461.04;  248.200;    0.000;    0.000;248.20000
 461.08;  291.200;    0.000;    0.000;291.20000
 461.13;  270.200;    0.000;    0.000;270.20000
 461.17;  261.200;    0.000;    0.000;261.20000
 461.21;  257.200;    0.000;    0.000;257.20000
 461.26;  275.200;    0.000;    0.000;275.20000
 461.30;  272.200;    0.000;    0.000;272.20000
 461.34;  274.200;    0.000;    0.000;274.20000
 461.39;  261.200;    0.000;    0.000;261.20000
 461.43;  275.200;    0.000;    0.000;275.20000
 461.48;  288.200;    0.000;    0.000;288.20000
 461.52;  257.200;    0.000;    0.000;257.20000
 461.56;  280.200;    0.000;    0.000;280.20000
 461.61;  291.200;    0.000;    0.000;291.20000
 461.65;  252.200;    0.000;    0.000;252.20000
 461.69;  243.200;    0.000;    0.000;243.20000
 461.74;  225.200;    0.000;    0.000;225.20000
 461.78;  265.200;    0.000;    0.000;265.20000
 461.83;  256.200;    0.000;    0.000;256.20000
 461.87;  289.200;    0.000;    0.000;289.20000
 461.91;  262.200;    0.000;    0.000;262.20000
 461.96;  249.200;    0.000;    0.000;249.20000
 462.00;  263.200;    0.000;    0.000;263.20000
 462.04;  283.200;    0.000;    0.000;283.20000
 462.09;  271.200;    0.000;    0.000;271.20000
 462.13;  292.200;    0.000;    0.000;292.20000
 462.17;  307.200;    0.000;    0.000;307.20000
 462.22;  304.200;    0.000;    0.000;304.20000
 462.26;  308.200;    0.000;    0.000;308.20000
 462.30;  234.200;    0.000;    0.000;234.20000
 462.35;  267.200;    0.000;    0.000;267.20000
 462.39;  298.200;    0.000;    0.000;298.20000
 462.43;  295.200;    0.000;    0.000;295.20000
 462.48;  225.200;    0.000;    0.000;225.20000
 462.52;  250.200;    0.000;    0.000;250.20000
 462.56;  282.200;    0.000;    0.000;282.20000
 462.61;  340.200;    0.000;    0.000;340.20000
 462.65;  326.200;    0.000;    0.000;326.20000
 462.70;  335.200;    0.000;    0.000;335.20000
 462.74;  292.200;    0.000;    0.000;292.20000
 462.78;  306.200;    0.000;    0.000;306.20000
 462.83;  285.200;    0.000;    0.000;285.20000
 462.87;  294.200;    0.000;    0.000;294.20000
 462.91;  312.200;    0.000;    0.000;312.20000
 462.96;  287.200;    0.000;    0.000;287.20000
 463.00;  332.200;    0.000;    0.000;332.20000
 463.04;  311.200;    0.000;    0.000;311.20000
 463.09;  286.200;    0.000;    0.000;286.20000
 463.13;  317.200;    0.000;    0.000;317.20000
 463.17;  306.200;    0.000;    0.000;306.20000
 463.21;  329.200;    0.000;    0.000;329.20000
 463.26;  324.200;    0.000;    0.000;324.20000
 463.30;  286.200;    0.000;    0.000;286.20000
 463.34;  343.200;    0.000;    0.000;343.20000
 463.39;  320.200;    0.000;    0.000;320.20000
 463.43;  275.200;    0.000;    0.000;275.20000
 463.47;  325.200;    0.000;    0.000;325.20000
 463.52;  284.200;    0.000;    0.000;284.20000
 463.56;  300.200;    0.000;    0.000;300.20000
 463.60;  337.200;    0.000;    0.000;337.20000
 463.65;  332.200;    0.000;    0.000;332.20000
 463.69;  341.200;    0.000;    0.000;341.20000
 463.73;  341.200;    0.000;    0.000;341.20000
 463.78;  295.200;    0.000;    0.000;295.20000
 463.82;  343.200;    0.000;    0.000;343.20000
 463.86;  295.200;    0.000;    0.000;295.20000

