dark_35us
Integration time [ms]:   0.035
Averaging Nr. [scans]: 1
Smoothing Nr. [pixels]: 0
Data measured with spectrometer [name]: UV2
Wave   ;Sample   ;Dark     ;Reference
[nm]   ;[counts] ;[counts] ;[counts] 

353.533;  244.225;    0.000;    0.000
353.597;  260.225;    0.000;    0.000
353.660;  212.225;    0.000;    0.000
353.723;  197.225;    0.000;    0.000
353.786;  180.225;    0.000;    0.000
353.850;  198.225;    0.000;    0.000
353.913;  192.225;    0.000;    0.000
353.976;  184.225;    0.000;    0.000
354.039;  190.225;    0.000;    0.000
354.102;  218.225;    0.000;    0.000
354.166;  191.225;    0.000;    0.000
354.229;  186.225;    0.000;    0.000
354.292;  220.225;    0.000;    0.000
354.355;  217.225;    0.000;    0.000
354.418;  191.225;    0.000;    0.000
354.481;  209.225;    0.000;    0.000
354.545;  197.225;    0.000;    0.000
354.608;  192.225;    0.000;    0.000
354.671;  188.225;    0.000;    0.000
354.734;  195.225;    0.000;    0.000
354.797;  184.225;    0.000;    0.000
354.860;  194.225;    0.000;    0.000
354.923;  214.225;    0.000;    0.000
354.986;  212.225;    0.000;    0.000
355.050;  231.225;    0.000;    0.000
355.113;  178.225;    0.000;    0.000
355.176;  203.225;    0.000;    0.000
355.239;  221.225;    0.000;    0.000
355.302;  206.225;    0.000;    0.000
355.365;  243.225;    0.000;    0.000
355.428;  271.225;    0.000;    0.000
355.491;  229.225;    0.000;    0.000
355.554;  188.225;    0.000;    0.000
355.617;  231.225;    0.000;    0.000
355.680;  197.225;    0.000;    0.000
355.743;  185.225;    0.000;    0.000
355.806;  202.225;    0.000;    0.000
355.869;  202.225;    0.000;    0.000
355.932;  191.225;    0.000;    0.000
355.995;  244.225;    0.000;    0.000
356.058;  170.225;    0.000;    0.000
356.121;  229.225;    0.000;    0.000
356.184;  199.225;    0.000;    0.000
356.247;  197.225;    0.000;    0.000
356.310;  206.225;    0.000;    0.000
356.373;  223.225;    0.000;    0.000
356.436;  198.225;    0.000;    0.000
356.498;  195.225;    0.000;    0.000
356.561;  164.225;    0.000;    0.000
356.624;  185.225;    0.000;    0.000
356.687;  191.225;    0.000;    0.000
356.750;  215.225;    0.000;    0.000
356.813;  177.225;    0.000;    0.000
356.876;  196.225;    0.000;    0.000
356.939;  148.225;    0.000;    0.000
357.001;  203.225;    0.000;    0.000
357.064;  211.225;    0.000;    0.000
357.127;  178.225;    0.000;    0.000
357.190;  186.225;    0.000;    0.000
357.253;  196.225;    0.000;    0.000
357.316;  233.225;    0.000;    0.000
357.378;  209.225;    0.000;    0.000
357.441;  163.225;    0.000;    0.000
357.504;  177.225;    0.000;    0.000
357.567;  120.225;    0.000;    0.000
357.629;  204.225;    0.000;    0.000
357.692;  192.225;    0.000;    0.000
357.755;  199.225;    0.000;    0.000
357.818;  160.225;    0.000;    0.000
357.880;  166.225;    0.000;    0.000
357.943;  192.225;    0.000;    0.000
358.006;  168.225;    0.000;    0.000
358.069;  167.225;    0.000;    0.000
358.131;  172.225;    0.000;    0.000
358.194;  139.225;    0.000;    0.000
358.257;  168.225;    0.000;    0.000
358.319;  156.225;    0.000;    0.000
358.382;  213.225;    0.000;    0.000
358.445;  156.225;    0.000;    0.000
358.507;  149.225;    0.000;    0.000
358.570;  182.225;    0.000;    0.000
358.633;  140.225;    0.000;    0.000
358.695;  188.225;    0.000;    0.000
358.758;  188.225;    0.000;    0.000
358.821;  168.225;    0.000;    0.000
358.883;  143.225;    0.000;    0.000
358.946;  178.225;    0.000;    0.000
359.008;  208.225;    0.000;    0.000
359.071;  174.225;    0.000;    0.000
359.134;  180.225;    0.000;    0.000
359.196;  151.225;    0.000;    0.000
359.259;  185.225;    0.000;    0.000
359.321;  152.225;    0.000;    0.000
359.384;  179.225;    0.000;    0.000
359.446;  150.225;    0.000;    0.000
359.509;  139.225;    0.000;    0.000
359.571;  156.225;    0.000;    0.000
359.634;  160.225;    0.000;    0.000
359.696;  135.225;    0.000;    0.000
359.759;  185.225;    0.000;    0.000
359.821;  167.225;    0.000;    0.000
359.884;  158.225;    0.000;    0.000
359.946;  188.225;    0.000;    0.000
360.009;  155.225;    0.000;    0.000
360.071;  166.225;    0.000;    0.000
360.134;  197.225;    0.000;    0.000
360.196;  163.225;    0.000;    0.000
360.259;  176.225;    0.000;    0.000
360.321;  149.225;    0.000;    0.000
360.384;  151.225;    0.000;    0.000
360.446;  154.225;    0.000;    0.000
360.508;  169.225;    0.000;    0.000
360.571;  160.225;    0.000;    0.000
360.633;  152.225;    0.000;    0.000
360.696;  147.225;    0.000;    0.000
360.758;  159.225;    0.000;    0.000
360.820;  172.225;    0.000;    0.000
360.883;  132.225;    0.000;    0.000
360.945;  196.225;    0.000;    0.000
361.007;  161.225;    0.000;    0.000
361.070;  147.225;    0.000;    0.000
361.132;  190.225;    0.000;    0.000
361.194;  172.225;    0.000;    0.000
361.257;  134.225;    0.000;    0.000
361.319;  158.225;    0.000;    0.000
361.381;  195.225;    0.000;    0.000
361.443;  151.225;    0.000;    0.000
361.506;  202.225;    0.000;    0.000
361.568;  199.225;    0.000;    0.000
361.630;  145.225;    0.000;    0.000
361.693;  163.225;    0.000;    0.000
361.755;  143.225;    0.000;    0.000
361.817;  225.225;    0.000;    0.000
361.879;  155.225;    0.000;    0.000
361.941;  112.225;    0.000;    0.000
362.004;  193.225;    0.000;    0.000
362.066;  149.225;    0.000;    0.000
362.128;  172.225;    0.000;    0.000
362.190;  183.225;    0.000;    0.000
362.252;  176.225;    0.000;    0.000
362.315;  152.225;    0.000;    0.000
362.377;  174.225;    0.000;    0.000
362.439;  164.225;    0.000;    0.000
362.501;  173.225;    0.000;    0.000
362.563;  178.225;    0.000;    0.000
362.625;  146.225;    0.000;    0.000
362.688;  215.225;    0.000;    0.000
362.750;  172.225;    0.000;    0.000
362.812;  202.225;    0.000;    0.000
362.874;  203.225;    0.000;    0.000
362.936;  175.225;    0.000;    0.000
362.998;  157.225;    0.000;    0.000
363.060;  198.225;    0.000;    0.000
363.122;  183.225;    0.000;    0.000
363.184;  175.225;    0.000;    0.000
363.246;  183.225;    0.000;    0.000
363.308;  176.225;    0.000;    0.000
363.370;  211.225;    0.000;    0.000
363.432;  169.225;    0.000;    0.000
363.494;  171.225;    0.000;    0.000
363.556;  153.225;    0.000;    0.000
363.618;  166.225;    0.000;    0.000
363.680;  163.225;    0.000;    0.000
363.742;  190.225;    0.000;    0.000
363.804;  171.225;    0.000;    0.000
363.866;  206.225;    0.000;    0.000
363.928;  167.225;    0.000;    0.000
363.990;  161.225;    0.000;    0.000
364.052;  197.225;    0.000;    0.000
364.114;  149.225;    0.000;    0.000
364.176;  215.225;    0.000;    0.000
364.238;  223.225;    0.000;    0.000
364.300;  204.225;    0.000;    0.000
364.362;  180.225;    0.000;    0.000
364.424;  118.225;    0.000;    0.000
364.486;  175.225;    0.000;    0.000
364.548;  173.225;    0.000;    0.000
364.609;  194.225;    0.000;    0.000
364.671;  208.225;    0.000;    0.000
364.733;  187.225;    0.000;    0.000
364.795;  173.225;    0.000;    0.000
364.857;  160.225;    0.000;    0.000
364.919;  157.225;    0.000;    0.000
364.981;  164.225;    0.000;    0.000
365.042;  195.225;    0.000;    0.000
365.104;  152.225;    0.000;    0.000
365.166;  142.225;    0.000;    0.000
365.228;  182.225;    0.000;    0.000
365.290;  154.225;    0.000;    0.000
365.351;  165.225;    0.000;    0.000
365.413;  156.225;    0.000;    0.000
365.475;  157.225;    0.000;    0.000
365.537;  165.225;    0.000;    0.000
365.598;  193.225;    0.000;    0.000
365.660;  162.225;    0.000;    0.000
365.722;  184.225;    0.000;    0.000
365.784;  166.225;    0.000;    0.000
365.845;  164.225;    0.000;    0.000
365.907;  138.225;    0.000;    0.000
365.969;  179.225;    0.000;    0.000
366.030;  156.225;    0.000;    0.000
366.092;  185.225;    0.000;    0.000
366.154;  168.225;    0.000;    0.000
366.215;  199.225;    0.000;    0.000
366.277;  121.225;    0.000;    0.000
366.339;  194.225;    0.000;    0.000
366.400;  152.225;    0.000;    0.000
366.462;  138.225;    0.000;    0.000
366.524;  149.225;    0.000;    0.000
366.585;  146.225;    0.000;    0.000
366.647;  189.225;    0.000;    0.000
366.708;  132.225;    0.000;    0.000
366.770;  173.225;    0.000;    0.000
366.832;  164.225;    0.000;    0.000
366.893;  187.225;    0.000;    0.000
366.955;  178.225;    0.000;    0.000
367.016;  188.225;    0.000;    0.000
367.078;  158.225;    0.000;    0.000
367.139;  180.225;    0.000;    0.000
367.201;  169.225;    0.000;    0.000
367.262;  205.225;    0.000;    0.000
367.324;  194.225;    0.000;    0.000
367.385;  135.225;    0.000;    0.000
367.447;  188.225;    0.000;    0.000
367.508;  160.225;    0.000;    0.000
367.570;  136.225;    0.000;    0.000
367.631;  139.225;    0.000;    0.000
367.693;  173.225;    0.000;    0.000
367.754;  188.225;    0.000;    0.000
367.816;  184.225;    0.000;    0.000
367.877;  212.225;    0.000;    0.000
367.939;  185.225;    0.000;    0.000
368.000;  188.225;    0.000;    0.000
368.062;  158.225;    0.000;    0.000
368.123;  176.225;    0.000;    0.000
368.184;  186.225;    0.000;    0.000
368.246;  176.225;    0.000;    0.000
368.307;  172.225;    0.000;    0.000
368.369;  183.225;    0.000;    0.000
368.430;  182.225;    0.000;    0.000
368.491;  141.225;    0.000;    0.000
368.553;  174.225;    0.000;    0.000
368.614;  192.225;    0.000;    0.000
368.675;  169.225;    0.000;    0.000
368.737;  161.225;    0.000;    0.000
368.798;  178.225;    0.000;    0.000
368.859;  193.225;    0.000;    0.000
368.921;  180.225;    0.000;    0.000
368.982;  208.225;    0.000;    0.000
369.043;  178.225;    0.000;    0.000
369.104;  159.225;    0.000;    0.000
369.166;  172.225;    0.000;    0.000
369.227;  158.225;    0.000;    0.000
369.288;  186.225;    0.000;    0.000
369.349;  175.225;    0.000;    0.000
369.411;  189.225;    0.000;    0.000
369.472;  182.225;    0.000;    0.000
369.533;  169.225;    0.000;    0.000
369.594;  169.225;    0.000;    0.000
369.656;  159.225;    0.000;    0.000
369.717;  126.225;    0.000;    0.000
369.778;  173.225;    0.000;    0.000
369.839;  178.225;    0.000;    0.000
369.900;  210.225;    0.000;    0.000
369.961;  173.225;    0.000;    0.000
370.023;  191.225;    0.000;    0.000
370.084;  140.225;    0.000;    0.000
370.145;  165.225;    0.000;    0.000
370.206;  163.225;    0.000;    0.000
370.267;  182.225;    0.000;    0.000
370.328;  161.225;    0.000;    0.000
370.389;  164.225;    0.000;    0.000
370.451;  184.225;    0.000;    0.000
370.512;  183.225;    0.000;    0.000
370.573;  163.225;    0.000;    0.000
370.634;  162.225;    0.000;    0.000
370.695;  156.225;    0.000;    0.000
370.756;  188.225;    0.000;    0.000
370.817;  171.225;    0.000;    0.000
370.878;  189.225;    0.000;    0.000
370.939;  167.225;    0.000;    0.000
371.000;  158.225;    0.000;    0.000
371.061;  184.225;    0.000;    0.000
371.122;  191.225;    0.000;    0.000
371.183;  154.225;    0.000;    0.000
371.244;  183.225;    0.000;    0.000
371.305;  151.225;    0.000;    0.000
371.366;  174.225;    0.000;    0.000
371.427;  173.225;    0.000;    0.000
371.488;  147.225;    0.000;    0.000
371.549;  159.225;    0.000;    0.000
371.610;  145.225;    0.000;    0.000
371.671;  155.225;    0.000;    0.000
371.732;  176.225;    0.000;    0.000
371.793;  181.225;    0.000;    0.000
371.853;  165.225;    0.000;    0.000
371.914;  180.225;    0.000;    0.000
371.975;  165.225;    0.000;    0.000
372.036;  164.225;    0.000;    0.000
372.097;  148.225;    0.000;    0.000
372.158;  150.225;    0.000;    0.000
372.219;  210.225;    0.000;    0.000
372.280;  172.225;    0.000;    0.000
372.340;  178.225;    0.000;    0.000
372.401;  194.225;    0.000;    0.000
372.462;  167.225;    0.000;    0.000
372.523;  151.225;    0.000;    0.000
372.584;  180.225;    0.000;    0.000
372.645;  167.225;    0.000;    0.000
372.705;  175.225;    0.000;    0.000
372.766;  189.225;    0.000;    0.000
372.827;  191.225;    0.000;    0.000
372.888;  178.225;    0.000;    0.000
372.948;  195.225;    0.000;    0.000
373.009;  183.225;    0.000;    0.000
373.070;  164.225;    0.000;    0.000
373.131;  135.225;    0.000;    0.000
373.191;  217.225;    0.000;    0.000
373.252;  163.225;    0.000;    0.000
373.313;  207.225;    0.000;    0.000
373.373;  166.225;    0.000;    0.000
373.434;  215.225;    0.000;    0.000
373.495;  156.225;    0.000;    0.000
373.555;  173.225;    0.000;    0.000
373.616;  183.225;    0.000;    0.000
373.677;  175.225;    0.000;    0.000
373.737;  187.225;    0.000;    0.000
373.798;  196.225;    0.000;    0.000
373.859;  186.225;    0.000;    0.000
373.919;  213.225;    0.000;    0.000
373.980;  155.225;    0.000;    0.000
374.041;  171.225;    0.000;    0.000
374.101;  222.225;    0.000;    0.000
374.162;  203.225;    0.000;    0.000
374.222;  174.225;    0.000;    0.000
374.283;  181.225;    0.000;    0.000
374.343;  187.225;    0.000;    0.000
374.404;  169.225;    0.000;    0.000
374.465;  175.225;    0.000;    0.000
374.525;  181.225;    0.000;    0.000
374.586;  200.225;    0.000;    0.000
374.646;  199.225;    0.000;    0.000
374.707;  240.225;    0.000;    0.000
374.767;  191.225;    0.000;    0.000
374.828;  176.225;    0.000;    0.000
374.888;  156.225;    0.000;    0.000
374.949;  211.225;    0.000;    0.000
375.009;  188.225;    0.000;    0.000
375.070;  197.225;    0.000;    0.000
375.130;  184.225;    0.000;    0.000
375.190;  174.225;    0.000;    0.000
375.251;  213.225;    0.000;    0.000
375.311;  172.225;    0.000;    0.000
375.372;  186.225;    0.000;    0.000
375.432;  188.225;    0.000;    0.000
375.493;  175.225;    0.000;    0.000
375.553;  214.225;    0.000;    0.000
375.613;  156.225;    0.000;    0.000
375.674;  203.225;    0.000;    0.000
375.734;  196.225;    0.000;    0.000
375.794;  161.225;    0.000;    0.000
375.855;  149.225;    0.000;    0.000
375.915;  190.225;    0.000;    0.000
375.975;  171.225;    0.000;    0.000
376.036;  162.225;    0.000;    0.000
376.096;  184.225;    0.000;    0.000
376.156;  200.225;    0.000;    0.000
376.217;  195.225;    0.000;    0.000
376.277;  199.225;    0.000;    0.000
376.337;  167.225;    0.000;    0.000
376.398;  162.225;    0.000;    0.000
376.458;  160.225;    0.000;    0.000
376.518;  153.225;    0.000;    0.000
376.578;  151.225;    0.000;    0.000
376.639;  187.225;    0.000;    0.000
376.699;  151.225;    0.000;    0.000
376.759;  210.225;    0.000;    0.000
376.819;  160.225;    0.000;    0.000
376.880;  199.225;    0.000;    0.000
376.940;  167.225;    0.000;    0.000
377.000;  131.225;    0.000;    0.000
377.060;  177.225;    0.000;    0.000
377.120;  162.225;    0.000;    0.000
377.180;  177.225;    0.000;    0.000
377.241;  205.225;    0.000;    0.000
377.301;  193.225;    0.000;    0.000
377.361;  160.225;    0.000;    0.000
377.421;  209.225;    0.000;    0.000
377.481;  200.225;    0.000;    0.000
377.541;  190.225;    0.000;    0.000
377.601;  192.225;    0.000;    0.000
377.661;  192.225;    0.000;    0.000
377.722;  182.225;    0.000;    0.000
377.782;  180.225;    0.000;    0.000
377.842;  181.225;    0.000;    0.000
377.902;  178.225;    0.000;    0.000
377.962;  160.225;    0.000;    0.000
378.022;  145.225;    0.000;    0.000
378.082;  194.225;    0.000;    0.000
378.142;  176.225;    0.000;    0.000
378.202;  171.225;    0.000;    0.000
378.262;  190.225;    0.000;    0.000
378.322;  176.225;    0.000;    0.000
378.382;  185.225;    0.000;    0.000
378.442;  194.225;    0.000;    0.000
378.502;  145.225;    0.000;    0.000
378.562;  159.225;    0.000;    0.000
378.622;  196.225;    0.000;    0.000
378.682;  206.225;    0.000;    0.000
378.742;  191.225;    0.000;    0.000
378.802;  154.225;    0.000;    0.000
378.862;  237.225;    0.000;    0.000
378.921;  206.225;    0.000;    0.000
378.981;  215.225;    0.000;    0.000
379.041;  203.225;    0.000;    0.000
379.101;  183.225;    0.000;    0.000
379.161;  150.225;    0.000;    0.000
379.221;  199.225;    0.000;    0.000
379.281;  199.225;    0.000;    0.000
379.341;  163.225;    0.000;    0.000
379.401;  171.225;    0.000;    0.000
379.460;  199.225;    0.000;    0.000
379.520;  173.225;    0.000;    0.000
379.580;  191.225;    0.000;    0.000
379.640;  159.225;    0.000;    0.000
379.700;  177.225;    0.000;    0.000
379.759;  207.225;    0.000;    0.000
379.819;  174.225;    0.000;    0.000
379.879;  185.225;    0.000;    0.000
379.939;  201.225;    0.000;    0.000
379.999;  204.225;    0.000;    0.000
380.058;  211.225;    0.000;    0.000
380.118;  197.225;    0.000;    0.000
380.178;  220.225;    0.000;    0.000
380.237;  166.225;    0.000;    0.000
380.297;  182.225;    0.000;    0.000
380.357;  185.225;    0.000;    0.000
380.417;  198.225;    0.000;    0.000
380.476;  170.225;    0.000;    0.000
380.536;  207.225;    0.000;    0.000
380.596;  199.225;    0.000;    0.000
380.655;  218.225;    0.000;    0.000
380.715;  251.225;    0.000;    0.000
380.775;  195.225;    0.000;    0.000
380.834;  205.225;    0.000;    0.000
380.894;  171.225;    0.000;    0.000
380.954;  151.225;    0.000;    0.000
381.013;  171.225;    0.000;    0.000
381.073;  175.225;    0.000;    0.000
381.132;  222.225;    0.000;    0.000
381.192;  203.225;    0.000;    0.000
381.252;  189.225;    0.000;    0.000
381.311;  209.225;    0.000;    0.000
381.371;  185.225;    0.000;    0.000
381.430;  159.225;    0.000;    0.000
381.490;  179.225;    0.000;    0.000
381.549;  170.225;    0.000;    0.000
381.609;  204.225;    0.000;    0.000
381.668;  190.225;    0.000;    0.000
381.728;  191.225;    0.000;    0.000
381.787;  175.225;    0.000;    0.000
381.847;  189.225;    0.000;    0.000
381.906;  194.225;    0.000;    0.000
381.966;  219.225;    0.000;    0.000
382.025;  203.225;    0.000;    0.000
382.085;  203.225;    0.000;    0.000
382.144;  212.225;    0.000;    0.000
382.204;  187.225;    0.000;    0.000
382.263;  215.225;    0.000;    0.000
382.322;  193.225;    0.000;    0.000
382.382;  179.225;    0.000;    0.000
382.441;  170.225;    0.000;    0.000
382.501;  211.225;    0.000;    0.000
382.560;  225.225;    0.000;    0.000
382.619;  188.225;    0.000;    0.000
382.679;  213.225;    0.000;    0.000
382.738;  193.225;    0.000;    0.000
382.798;  233.225;    0.000;    0.000
382.857;  200.225;    0.000;    0.000
382.916;  184.225;    0.000;    0.000
382.976;  194.225;    0.000;    0.000
383.035;  170.225;    0.000;    0.000
383.094;  192.225;    0.000;    0.000
383.154;  208.225;    0.000;    0.000
383.213;  182.225;    0.000;    0.000
383.272;  199.225;    0.000;    0.000
383.331;  169.225;    0.000;    0.000
383.391;  214.225;    0.000;    0.000
383.450;  172.225;    0.000;    0.000
383.509;  171.225;    0.000;    0.000
383.568;  215.225;    0.000;    0.000
383.628;  222.225;    0.000;    0.000
383.687;  175.225;    0.000;    0.000
383.746;  186.225;    0.000;    0.000
383.805;  213.225;    0.000;    0.000
383.864;  169.225;    0.000;    0.000
383.924;  225.225;    0.000;    0.000
383.983;  181.225;    0.000;    0.000
384.042;  171.225;    0.000;    0.000
384.101;  190.225;    0.000;    0.000
384.160;  158.225;    0.000;    0.000
384.219;  202.225;    0.000;    0.000
384.279;  196.225;    0.000;    0.000
384.338;  185.225;    0.000;    0.000
384.397;  159.225;    0.000;    0.000
384.456;  177.225;    0.000;    0.000
384.515;  199.225;    0.000;    0.000
384.574;  208.225;    0.000;    0.000
384.633;  202.225;    0.000;    0.000
384.692;  179.225;    0.000;    0.000
384.751;  212.225;    0.000;    0.000
384.810;  217.225;    0.000;    0.000
384.869;  170.225;    0.000;    0.000
384.929;  185.225;    0.000;    0.000
384.988;  183.225;    0.000;    0.000
385.047;  166.225;    0.000;    0.000
385.106;  192.225;    0.000;    0.000
385.165;  157.225;    0.000;    0.000
385.224;  176.225;    0.000;    0.000
385.283;  183.225;    0.000;    0.000
385.342;  157.225;    0.000;    0.000
385.401;  204.225;    0.000;    0.000
385.459;  184.225;    0.000;    0.000
385.518;  142.225;    0.000;    0.000
385.577;  157.225;    0.000;    0.000
385.636;  204.225;    0.000;    0.000
385.695;  142.225;    0.000;    0.000
385.754;  174.225;    0.000;    0.000
385.813;  169.225;    0.000;    0.000
385.872;  164.225;    0.000;    0.000
385.931;  160.225;    0.000;    0.000
385.990;  187.225;    0.000;    0.000
386.049;  187.225;    0.000;    0.000
386.107;  172.225;    0.000;    0.000
386.166;  170.225;    0.000;    0.000
386.225;  174.225;    0.000;    0.000
386.284;  145.225;    0.000;    0.000
386.343;  211.225;    0.000;    0.000
386.402;  198.225;    0.000;    0.000
386.460;  169.225;    0.000;    0.000
386.519;  173.225;    0.000;    0.000
386.578;  184.225;    0.000;    0.000
386.637;  179.225;    0.000;    0.000
386.696;  191.225;    0.000;    0.000
386.754;  148.225;    0.000;    0.000
386.813;  144.225;    0.000;    0.000
386.872;  170.225;    0.000;    0.000
386.931;  179.225;    0.000;    0.000
386.989;  207.225;    0.000;    0.000
387.048;  172.225;    0.000;    0.000
387.107;  210.225;    0.000;    0.000
387.165;  193.225;    0.000;    0.000
387.224;  197.225;    0.000;    0.000
387.283;  141.225;    0.000;    0.000
387.342;  204.225;    0.000;    0.000
387.400;  183.225;    0.000;    0.000
387.459;  154.225;    0.000;    0.000
387.517;  190.225;    0.000;    0.000
387.576;  218.225;    0.000;    0.000
387.635;  198.225;    0.000;    0.000
387.693;  251.225;    0.000;    0.000
387.752;  175.225;    0.000;    0.000
387.811;  177.225;    0.000;    0.000
387.869;  177.225;    0.000;    0.000
387.928;  213.225;    0.000;    0.000
387.986;  185.225;    0.000;    0.000
388.045;  163.225;    0.000;    0.000
388.103;  184.225;    0.000;    0.000
388.162;  150.225;    0.000;    0.000
388.221;  128.225;    0.000;    0.000
388.279;  100.225;    0.000;    0.000
388.338;  213.225;    0.000;    0.000
388.396;  166.225;    0.000;    0.000
388.455;  193.225;    0.000;    0.000
388.513;  158.225;    0.000;    0.000
388.572;  232.225;    0.000;    0.000
388.630;  158.225;    0.000;    0.000
388.689;  173.225;    0.000;    0.000
388.747;  204.225;    0.000;    0.000
388.806;  121.225;    0.000;    0.000
388.864;  178.225;    0.000;    0.000
388.922;  179.225;    0.000;    0.000
388.981;  166.225;    0.000;    0.000
389.039;  174.225;    0.000;    0.000
389.098;  208.225;    0.000;    0.000
389.156;  213.225;    0.000;    0.000
389.214;  197.225;    0.000;    0.000
389.273;  207.225;    0.000;    0.000
389.331;  181.225;    0.000;    0.000
389.390;  166.225;    0.000;    0.000
389.448;  176.225;    0.000;    0.000
389.506;  168.225;    0.000;    0.000
389.565;  167.225;    0.000;    0.000
389.623;  184.225;    0.000;    0.000
389.681;  217.225;    0.000;    0.000
389.740;  202.225;    0.000;    0.000
389.798;  180.225;    0.000;    0.000
389.856;  221.225;    0.000;    0.000
389.914;  208.225;    0.000;    0.000
389.973;  188.225;    0.000;    0.000
390.031;  195.225;    0.000;    0.000
390.089;  224.225;    0.000;    0.000
390.147;  184.225;    0.000;    0.000
390.206;  204.225;    0.000;    0.000
390.264;  188.225;    0.000;    0.000
390.322;  187.225;    0.000;    0.000
390.380;  168.225;    0.000;    0.000
390.439;  192.225;    0.000;    0.000
390.497;  220.225;    0.000;    0.000
390.555;  216.225;    0.000;    0.000
390.613;  219.225;    0.000;    0.000
390.671;  200.225;    0.000;    0.000
390.729;  168.225;    0.000;    0.000
390.788;  198.225;    0.000;    0.000
390.846;  186.225;    0.000;    0.000
390.904;  235.225;    0.000;    0.000
390.962;  198.225;    0.000;    0.000
391.020;  250.225;    0.000;    0.000
391.078;  219.225;    0.000;    0.000
391.136;  231.225;    0.000;    0.000
391.194;  221.225;    0.000;    0.000
391.252;  243.225;    0.000;    0.000
391.311;  173.225;    0.000;    0.000
391.369;  199.225;    0.000;    0.000
391.427;  227.225;    0.000;    0.000
391.485;  228.225;    0.000;    0.000
391.543;  203.225;    0.000;    0.000
391.601;  176.225;    0.000;    0.000
391.659;  179.225;    0.000;    0.000
391.717;  191.225;    0.000;    0.000
391.775;  204.225;    0.000;    0.000
391.833;  191.225;    0.000;    0.000
391.891;  172.225;    0.000;    0.000
391.949;  143.225;    0.000;    0.000
392.007;  211.225;    0.000;    0.000
392.065;  214.225;    0.000;    0.000
392.123;  201.225;    0.000;    0.000
392.180;  216.225;    0.000;    0.000
392.238;  191.225;    0.000;    0.000
392.296;  207.225;    0.000;    0.000
392.354;  203.225;    0.000;    0.000
392.412;  186.225;    0.000;    0.000
392.470;  168.225;    0.000;    0.000
392.528;  203.225;    0.000;    0.000
392.586;  225.225;    0.000;    0.000
392.644;  185.225;    0.000;    0.000
392.701;  163.225;    0.000;    0.000
392.759;  218.225;    0.000;    0.000
392.817;  183.225;    0.000;    0.000
392.875;  204.225;    0.000;    0.000
392.933;  192.225;    0.000;    0.000
392.991;  207.225;    0.000;    0.000
393.048;  219.225;    0.000;    0.000
393.106;  195.225;    0.000;    0.000
393.164;  192.225;    0.000;    0.000
393.222;  176.225;    0.000;    0.000
393.279;  231.225;    0.000;    0.000
393.337;  225.225;    0.000;    0.000
393.395;  165.225;    0.000;    0.000
393.453;  168.225;    0.000;    0.000
393.510;  190.225;    0.000;    0.000
393.568;  209.225;    0.000;    0.000
393.626;  228.225;    0.000;    0.000
393.684;  198.225;    0.000;    0.000
393.741;  192.225;    0.000;    0.000
393.799;  195.225;    0.000;    0.000
393.857;  152.225;    0.000;    0.000
393.914;  218.225;    0.000;    0.000
393.972;  159.225;    0.000;    0.000
394.030;  216.225;    0.000;    0.000
394.087;  213.225;    0.000;    0.000
394.145;  176.225;    0.000;    0.000
394.202;  189.225;    0.000;    0.000
394.260;  199.225;    0.000;    0.000
394.318;  196.225;    0.000;    0.000
394.375;  220.225;    0.000;    0.000
394.433;  196.225;    0.000;    0.000
394.490;  188.225;    0.000;    0.000
394.548;  183.225;    0.000;    0.000
394.605;  202.225;    0.000;    0.000
394.663;  214.225;    0.000;    0.000
394.720;  172.225;    0.000;    0.000
394.778;  192.225;    0.000;    0.000
394.836;  183.225;    0.000;    0.000
394.893;  199.225;    0.000;    0.000
394.951;  195.225;    0.000;    0.000
395.008;  206.225;    0.000;    0.000
395.065;  188.225;    0.000;    0.000
395.123;  193.225;    0.000;    0.000
395.180;  197.225;    0.000;    0.000
395.238;  187.225;    0.000;    0.000
395.295;  191.225;    0.000;    0.000
395.353;  188.225;    0.000;    0.000
395.410;  176.225;    0.000;    0.000
395.468;  198.225;    0.000;    0.000
395.525;  205.225;    0.000;    0.000
395.582;  231.225;    0.000;    0.000
395.640;  206.225;    0.000;    0.000
395.697;  224.225;    0.000;    0.000
395.754;  179.225;    0.000;    0.000
395.812;  152.225;    0.000;    0.000
395.869;  209.225;    0.000;    0.000
395.927;  201.225;    0.000;    0.000
395.984;  204.225;    0.000;    0.000
396.041;  201.225;    0.000;    0.000
396.098;  190.225;    0.000;    0.000
396.156;  180.225;    0.000;    0.000
396.213;  224.225;    0.000;    0.000
396.270;  206.225;    0.000;    0.000
396.328;  184.225;    0.000;    0.000
396.385;  185.225;    0.000;    0.000
396.442;  200.225;    0.000;    0.000
396.499;  200.225;    0.000;    0.000
396.557;  185.225;    0.000;    0.000
396.614;  222.225;    0.000;    0.000
396.671;  180.225;    0.000;    0.000
396.728;  242.225;    0.000;    0.000
396.785;  154.225;    0.000;    0.000
396.843;  168.225;    0.000;    0.000
396.900;  219.225;    0.000;    0.000
396.957;  182.225;    0.000;    0.000
397.014;  171.225;    0.000;    0.000
397.071;  197.225;    0.000;    0.000
397.128;  214.225;    0.000;    0.000
397.186;  229.225;    0.000;    0.000
397.243;  207.225;    0.000;    0.000
397.300;  195.225;    0.000;    0.000
397.357;  208.225;    0.000;    0.000
397.414;  203.225;    0.000;    0.000
397.471;  170.225;    0.000;    0.000
397.528;  167.225;    0.000;    0.000
397.585;  199.225;    0.000;    0.000
397.642;  182.225;    0.000;    0.000
397.699;  197.225;    0.000;    0.000
397.756;  175.225;    0.000;    0.000
397.813;  207.225;    0.000;    0.000
397.871;  217.225;    0.000;    0.000
397.928;  211.225;    0.000;    0.000
397.985;  208.225;    0.000;    0.000
398.042;  191.225;    0.000;    0.000
398.099;  183.225;    0.000;    0.000
398.156;  198.225;    0.000;    0.000
398.212;  199.225;    0.000;    0.000
398.269;  200.225;    0.000;    0.000
398.326;  133.225;    0.000;    0.000
398.383;  211.225;    0.000;    0.000
398.440;  181.225;    0.000;    0.000
398.497;  245.225;    0.000;    0.000
398.554;  198.225;    0.000;    0.000
398.611;  230.225;    0.000;    0.000
398.668;  195.225;    0.000;    0.000
398.725;  190.225;    0.000;    0.000
398.782;  212.225;    0.000;    0.000
398.839;  223.225;    0.000;    0.000
398.895;  179.225;    0.000;    0.000
398.952;  197.225;    0.000;    0.000
399.009;  199.225;    0.000;    0.000
399.066;  198.225;    0.000;    0.000
399.123;  203.225;    0.000;    0.000
399.180;  211.225;    0.000;    0.000
399.236;  196.225;    0.000;    0.000
399.293;  205.225;    0.000;    0.000
399.350;  219.225;    0.000;    0.000
399.407;  229.225;    0.000;    0.000
399.463;  179.225;    0.000;    0.000
399.520;  144.225;    0.000;    0.000
399.577;  200.225;    0.000;    0.000
399.634;  215.225;    0.000;    0.000
399.690;  214.225;    0.000;    0.000
399.747;  195.225;    0.000;    0.000
399.804;  190.225;    0.000;    0.000
399.861;  192.225;    0.000;    0.000
399.917;  221.225;    0.000;    0.000
399.974;  215.225;    0.000;    0.000
400.031;  229.225;    0.000;    0.000
400.087;  167.225;    0.000;    0.000
400.144;  246.225;    0.000;    0.000
400.201;  222.225;    0.000;    0.000
400.257;  215.225;    0.000;    0.000
400.314;  214.225;    0.000;    0.000
400.370;  233.225;    0.000;    0.000
400.427;  199.225;    0.000;    0.000
400.484;  173.225;    0.000;    0.000
400.540;  241.225;    0.000;    0.000
400.597;  183.225;    0.000;    0.000
400.653;  214.225;    0.000;    0.000
400.710;  229.225;    0.000;    0.000
400.766;  240.225;    0.000;    0.000
400.823;  214.225;    0.000;    0.000
400.879;  239.225;    0.000;    0.000
400.936;  193.225;    0.000;    0.000
400.993;  212.225;    0.000;    0.000
401.049;  194.225;    0.000;    0.000
401.106;  217.225;    0.000;    0.000
401.162;  233.225;    0.000;    0.000
401.218;  246.225;    0.000;    0.000
401.275;  194.225;    0.000;    0.000
401.331;  205.225;    0.000;    0.000
401.388;  190.225;    0.000;    0.000
401.444;  216.225;    0.000;    0.000
401.501;  235.225;    0.000;    0.000
401.557;  203.225;    0.000;    0.000
401.614;  196.225;    0.000;    0.000
401.670;  207.225;    0.000;    0.000
401.726;  208.225;    0.000;    0.000
401.783;  207.225;    0.000;    0.000
401.839;  255.225;    0.000;    0.000
401.895;  236.225;    0.000;    0.000
401.952;  163.225;    0.000;    0.000
402.008;  184.225;    0.000;    0.000
402.064;  179.225;    0.000;    0.000
402.121;  197.225;    0.000;    0.000
402.177;  190.225;    0.000;    0.000
402.233;  185.225;    0.000;    0.000
402.290;  194.225;    0.000;    0.000
402.346;  227.225;    0.000;    0.000
402.402;  202.225;    0.000;    0.000
402.459;  187.225;    0.000;    0.000
402.515;  180.225;    0.000;    0.000
402.571;  211.225;    0.000;    0.000
402.627;  147.225;    0.000;    0.000
402.683;  209.225;    0.000;    0.000
402.740;  177.225;    0.000;    0.000
402.796;  162.225;    0.000;    0.000
402.852;  223.225;    0.000;    0.000
402.908;  191.225;    0.000;    0.000
402.964;  192.225;    0.000;    0.000
403.021;  184.225;    0.000;    0.000
403.077;  215.225;    0.000;    0.000
403.133;  179.225;    0.000;    0.000
403.189;  203.225;    0.000;    0.000
403.245;  204.225;    0.000;    0.000
403.301;  212.225;    0.000;    0.000
403.357;  229.225;    0.000;    0.000
403.414;  213.225;    0.000;    0.000
403.470;  237.225;    0.000;    0.000
403.526;  204.225;    0.000;    0.000
403.582;  206.225;    0.000;    0.000
403.638;  240.225;    0.000;    0.000
403.694;  206.225;    0.000;    0.000
403.750;  220.225;    0.000;    0.000
403.806;  198.225;    0.000;    0.000
403.862;  219.225;    0.000;    0.000
403.918;  210.225;    0.000;    0.000
403.974;  217.225;    0.000;    0.000
404.030;  186.225;    0.000;    0.000
404.086;  213.225;    0.000;    0.000
404.142;  201.225;    0.000;    0.000
404.198;  205.225;    0.000;    0.000
404.254;  200.225;    0.000;    0.000
404.310;  147.225;    0.000;    0.000
404.366;  184.225;    0.000;    0.000
404.422;  204.225;    0.000;    0.000
404.478;  200.225;    0.000;    0.000
404.534;  176.225;    0.000;    0.000
404.590;  189.225;    0.000;    0.000
404.646;  178.225;    0.000;    0.000
404.701;  190.225;    0.000;    0.000
404.757;  190.225;    0.000;    0.000
404.813;  180.225;    0.000;    0.000
404.869;  198.225;    0.000;    0.000
404.925;  209.225;    0.000;    0.000
404.981;  217.225;    0.000;    0.000
405.037;  185.225;    0.000;    0.000
405.092;  178.225;    0.000;    0.000
405.148;  173.225;    0.000;    0.000
405.204;  208.225;    0.000;    0.000
405.260;  186.225;    0.000;    0.000
405.316;  176.225;    0.000;    0.000
405.371;  159.225;    0.000;    0.000
405.427;  212.225;    0.000;    0.000
405.483;  190.225;    0.000;    0.000
405.539;  189.225;    0.000;    0.000
405.594;  230.225;    0.000;    0.000
405.650;  159.225;    0.000;    0.000
405.706;  192.225;    0.000;    0.000
405.761;  227.225;    0.000;    0.000
405.817;  190.225;    0.000;    0.000
405.873;  165.225;    0.000;    0.000
405.928;  153.225;    0.000;    0.000
405.984;  208.225;    0.000;    0.000
406.040;  169.225;    0.000;    0.000
406.095;  175.225;    0.000;    0.000
406.151;  204.225;    0.000;    0.000
406.207;  214.225;    0.000;    0.000
406.262;  164.225;    0.000;    0.000
406.318;  184.225;    0.000;    0.000
406.374;  175.225;    0.000;    0.000
406.429;  194.225;    0.000;    0.000
406.485;  247.225;    0.000;    0.000
406.540;  198.225;    0.000;    0.000
406.596;  180.225;    0.000;    0.000
406.651;  205.225;    0.000;    0.000
406.707;  205.225;    0.000;    0.000
406.763;  153.225;    0.000;    0.000
406.818;  169.225;    0.000;    0.000
406.874;  190.225;    0.000;    0.000
406.929;  230.225;    0.000;    0.000
406.985;  214.225;    0.000;    0.000
407.040;  210.225;    0.000;    0.000
407.095;  198.225;    0.000;    0.000
407.151;  189.225;    0.000;    0.000
407.206;  221.225;    0.000;    0.000
407.262;  207.225;    0.000;    0.000
407.317;  189.225;    0.000;    0.000
407.373;  215.225;    0.000;    0.000
407.428;  204.225;    0.000;    0.000
407.484;  172.225;    0.000;    0.000
407.539;  203.225;    0.000;    0.000
407.594;  234.225;    0.000;    0.000
407.650;  209.225;    0.000;    0.000
407.705;  180.225;    0.000;    0.000
407.760;  154.225;    0.000;    0.000
407.816;  225.225;    0.000;    0.000
407.871;  213.225;    0.000;    0.000
407.926;  188.225;    0.000;    0.000
407.982;  194.225;    0.000;    0.000
408.037;  179.225;    0.000;    0.000
408.092;  208.225;    0.000;    0.000
408.148;  188.225;    0.000;    0.000
408.203;  204.225;    0.000;    0.000
408.258;  199.225;    0.000;    0.000
408.314;  171.225;    0.000;    0.000
408.369;  208.225;    0.000;    0.000
408.424;  200.225;    0.000;    0.000
408.479;  198.225;    0.000;    0.000
408.534;  203.225;    0.000;    0.000
408.590;  209.225;    0.000;    0.000
408.645;  188.225;    0.000;    0.000
408.700;  250.225;    0.000;    0.000
408.755;  235.225;    0.000;    0.000
408.810;  173.225;    0.000;    0.000
408.866;  206.225;    0.000;    0.000
408.921;  224.225;    0.000;    0.000
408.976;  179.225;    0.000;    0.000
409.031;  207.225;    0.000;    0.000
409.086;  206.225;    0.000;    0.000
409.141;  217.225;    0.000;    0.000
409.196;  172.225;    0.000;    0.000
409.252;  217.225;    0.000;    0.000
409.307;  175.225;    0.000;    0.000
409.362;  217.225;    0.000;    0.000
409.417;  168.225;    0.000;    0.000
409.472;  200.225;    0.000;    0.000
409.527;  192.225;    0.000;    0.000
409.582;  183.225;    0.000;    0.000
409.637;  232.225;    0.000;    0.000
409.692;  206.225;    0.000;    0.000
409.747;  176.225;    0.000;    0.000
409.802;  186.225;    0.000;    0.000
409.857;  193.225;    0.000;    0.000
409.912;  202.225;    0.000;    0.000
409.967;  189.225;    0.000;    0.000
410.022;  210.225;    0.000;    0.000
410.077;  215.225;    0.000;    0.000
410.132;  248.225;    0.000;    0.000
410.187;  213.225;    0.000;    0.000
410.242;  202.225;    0.000;    0.000
410.297;  221.225;    0.000;    0.000
410.351;  241.225;    0.000;    0.000
410.406;  224.225;    0.000;    0.000
410.461;  184.225;    0.000;    0.000
410.516;  249.225;    0.000;    0.000
410.571;  206.225;    0.000;    0.000
410.626;  214.225;    0.000;    0.000
410.681;  196.225;    0.000;    0.000
410.736;  194.225;    0.000;    0.000
410.790;  208.225;    0.000;    0.000
410.845;  227.225;    0.000;    0.000
410.900;  233.225;    0.000;    0.000
410.955;  212.225;    0.000;    0.000
411.010;  193.225;    0.000;    0.000
411.064;  204.225;    0.000;    0.000
411.119;  225.225;    0.000;    0.000
411.174;  212.225;    0.000;    0.000
411.229;  220.225;    0.000;    0.000
411.283;  214.225;    0.000;    0.000
411.338;  226.225;    0.000;    0.000
411.393;  208.225;    0.000;    0.000
411.447;  230.225;    0.000;    0.000
411.502;  234.225;    0.000;    0.000
411.557;  211.225;    0.000;    0.000
411.612;  217.225;    0.000;    0.000
411.666;  226.225;    0.000;    0.000
411.721;  187.225;    0.000;    0.000
411.776;  193.225;    0.000;    0.000
411.830;  273.225;    0.000;    0.000
411.885;  210.225;    0.000;    0.000
411.939;  251.225;    0.000;    0.000
411.994;  201.225;    0.000;    0.000
412.049;  184.225;    0.000;    0.000
412.103;  208.225;    0.000;    0.000
412.158;  235.225;    0.000;    0.000
412.212;  237.225;    0.000;    0.000
412.267;  282.225;    0.000;    0.000
412.322;  262.225;    0.000;    0.000
412.376;  202.225;    0.000;    0.000
412.431;  231.225;    0.000;    0.000
412.485;  240.225;    0.000;    0.000
412.540;  197.225;    0.000;    0.000
412.594;  207.225;    0.000;    0.000
412.649;  179.225;    0.000;    0.000
412.703;  199.225;    0.000;    0.000
412.758;  244.225;    0.000;    0.000
412.812;  168.225;    0.000;    0.000
412.866;  199.225;    0.000;    0.000
412.921;  211.225;    0.000;    0.000
412.975;  195.225;    0.000;    0.000
413.030;  232.225;    0.000;    0.000
413.084;  214.225;    0.000;    0.000
413.139;  245.225;    0.000;    0.000
413.193;  211.225;    0.000;    0.000
413.247;  237.225;    0.000;    0.000
413.302;  204.225;    0.000;    0.000
413.356;  233.225;    0.000;    0.000
413.410;  210.225;    0.000;    0.000
413.465;  245.225;    0.000;    0.000
413.519;  222.225;    0.000;    0.000
413.573;  200.225;    0.000;    0.000
413.628;  214.225;    0.000;    0.000
413.682;  213.225;    0.000;    0.000
413.736;  196.225;    0.000;    0.000
413.791;  223.225;    0.000;    0.000
413.845;  204.225;    0.000;    0.000
413.899;  229.225;    0.000;    0.000
413.953;  192.225;    0.000;    0.000
414.008;  152.225;    0.000;    0.000
414.062;  235.225;    0.000;    0.000
414.116;  192.225;    0.000;    0.000
414.170;  220.225;    0.000;    0.000
414.225;  204.225;    0.000;    0.000
414.279;  202.225;    0.000;    0.000
414.333;  237.225;    0.000;    0.000
414.387;  232.225;    0.000;    0.000
414.441;  188.225;    0.000;    0.000
414.496;  214.225;    0.000;    0.000
414.550;  193.225;    0.000;    0.000
414.604;  236.225;    0.000;    0.000
414.658;  178.225;    0.000;    0.000
414.712;  172.225;    0.000;    0.000
414.766;  233.225;    0.000;    0.000
414.820;  232.225;    0.000;    0.000
414.874;  248.225;    0.000;    0.000
414.928;  219.225;    0.000;    0.000
414.982;  162.225;    0.000;    0.000
415.037;  218.225;    0.000;    0.000
415.091;  246.225;    0.000;    0.000
415.145;  216.225;    0.000;    0.000
415.199;  203.225;    0.000;    0.000
415.253;  209.225;    0.000;    0.000
415.307;  223.225;    0.000;    0.000
415.361;  243.225;    0.000;    0.000
415.415;  236.225;    0.000;    0.000
415.469;  225.225;    0.000;    0.000
415.523;  250.225;    0.000;    0.000
415.577;  223.225;    0.000;    0.000
415.631;  229.225;    0.000;    0.000
415.684;  248.225;    0.000;    0.000
415.738;  202.225;    0.000;    0.000
415.792;  215.225;    0.000;    0.000
415.846;  239.225;    0.000;    0.000
415.900;  242.225;    0.000;    0.000
415.954;  246.225;    0.000;    0.000
416.008;  229.225;    0.000;    0.000
416.062;  207.225;    0.000;    0.000
416.116;  225.225;    0.000;    0.000
416.169;  233.225;    0.000;    0.000
416.223;  249.225;    0.000;    0.000
416.277;  234.225;    0.000;    0.000
416.331;  265.225;    0.000;    0.000
416.385;  206.225;    0.000;    0.000
416.439;  268.225;    0.000;    0.000
416.492;  252.225;    0.000;    0.000
416.546;  239.225;    0.000;    0.000
416.600;  222.225;    0.000;    0.000
416.654;  277.225;    0.000;    0.000
416.707;  262.225;    0.000;    0.000
416.761;  240.225;    0.000;    0.000
416.815;  207.225;    0.000;    0.000
416.869;  241.225;    0.000;    0.000
416.922;  226.225;    0.000;    0.000
416.976;  217.225;    0.000;    0.000
417.030;  232.225;    0.000;    0.000
417.083;  223.225;    0.000;    0.000
417.137;  250.225;    0.000;    0.000
417.191;  229.225;    0.000;    0.000
417.244;  246.225;    0.000;    0.000
417.298;  212.225;    0.000;    0.000
417.352;  219.225;    0.000;    0.000
417.405;  237.225;    0.000;    0.000
417.459;  228.225;    0.000;    0.000
417.512;  259.225;    0.000;    0.000
417.566;  216.225;    0.000;    0.000
417.620;  265.225;    0.000;    0.000
417.673;  222.225;    0.000;    0.000
417.727;  226.225;    0.000;    0.000
417.780;  229.225;    0.000;    0.000
417.834;  218.225;    0.000;    0.000
417.887;  270.225;    0.000;    0.000
417.941;  253.225;    0.000;    0.000
417.994;  269.225;    0.000;    0.000
418.048;  276.225;    0.000;    0.000
418.101;  237.225;    0.000;    0.000
418.155;  221.225;    0.000;    0.000
418.208;  282.225;    0.000;    0.000
418.262;  282.225;    0.000;    0.000
418.315;  224.225;    0.000;    0.000
418.369;  286.225;    0.000;    0.000
418.422;  258.225;    0.000;    0.000
418.476;  233.225;    0.000;    0.000
418.529;  261.225;    0.000;    0.000
418.582;  248.225;    0.000;    0.000
418.636;  251.225;    0.000;    0.000
418.689;  243.225;    0.000;    0.000
418.743;  230.225;    0.000;    0.000
418.796;  234.225;    0.000;    0.000
418.849;  258.225;    0.000;    0.000
418.903;  269.225;    0.000;    0.000
418.956;  259.225;    0.000;    0.000
419.009;  287.225;    0.000;    0.000
419.063;  263.225;    0.000;    0.000
419.116;  235.225;    0.000;    0.000
419.169;  256.225;    0.000;    0.000
419.222;  245.225;    0.000;    0.000
419.276;  231.225;    0.000;    0.000
419.329;  263.225;    0.000;    0.000
419.382;  229.225;    0.000;    0.000
419.435;  220.225;    0.000;    0.000
419.489;  274.225;    0.000;    0.000
419.542;  259.225;    0.000;    0.000
419.595;  227.225;    0.000;    0.000
419.648;  246.225;    0.000;    0.000
419.701;  232.225;    0.000;    0.000
419.755;  233.225;    0.000;    0.000
419.808;  257.225;    0.000;    0.000
419.861;  229.225;    0.000;    0.000
419.914;  229.225;    0.000;    0.000
419.967;  234.225;    0.000;    0.000
420.020;  226.225;    0.000;    0.000
420.073;  224.225;    0.000;    0.000
420.127;  274.225;    0.000;    0.000
420.180;  234.225;    0.000;    0.000
420.233;  221.225;    0.000;    0.000
420.286;  227.225;    0.000;    0.000
420.339;  228.225;    0.000;    0.000
420.392;  217.225;    0.000;    0.000
420.445;  247.225;    0.000;    0.000
420.498;  232.225;    0.000;    0.000
420.551;  215.225;    0.000;    0.000
420.604;  232.225;    0.000;    0.000
420.657;  262.225;    0.000;    0.000
420.710;  233.225;    0.000;    0.000
420.763;  256.225;    0.000;    0.000
420.816;  223.225;    0.000;    0.000
420.869;  236.225;    0.000;    0.000
420.922;  261.225;    0.000;    0.000
420.975;  220.225;    0.000;    0.000
421.028;  266.225;    0.000;    0.000
421.081;  251.225;    0.000;    0.000
421.134;  248.225;    0.000;    0.000
421.187;  288.225;    0.000;    0.000
421.239;  202.225;    0.000;    0.000
421.292;  227.225;    0.000;    0.000
421.345;  227.225;    0.000;    0.000
421.398;  286.225;    0.000;    0.000
421.451;  290.225;    0.000;    0.000
421.504;  217.225;    0.000;    0.000
421.557;  259.225;    0.000;    0.000
421.609;  219.225;    0.000;    0.000
421.662;  227.225;    0.000;    0.000
421.715;  253.225;    0.000;    0.000
421.768;  224.225;    0.000;    0.000
421.821;  221.225;    0.000;    0.000
421.873;  209.225;    0.000;    0.000
421.926;  227.225;    0.000;    0.000
421.979;  242.225;    0.000;    0.000
422.032;  190.225;    0.000;    0.000
422.084;  238.225;    0.000;    0.000
422.137;  200.225;    0.000;    0.000
422.190;  201.225;    0.000;    0.000
422.243;  217.225;    0.000;    0.000
422.295;  207.225;    0.000;    0.000
422.348;  253.225;    0.000;    0.000
422.401;  250.225;    0.000;    0.000
422.453;  236.225;    0.000;    0.000
422.506;  236.225;    0.000;    0.000
422.558;  235.225;    0.000;    0.000
422.611;  226.225;    0.000;    0.000
422.664;  221.225;    0.000;    0.000
422.716;  282.225;    0.000;    0.000
422.769;  230.225;    0.000;    0.000
422.822;  249.225;    0.000;    0.000
422.874;  229.225;    0.000;    0.000
422.927;  264.225;    0.000;    0.000
422.979;  241.225;    0.000;    0.000
423.032;  271.225;    0.000;    0.000
423.084;  232.225;    0.000;    0.000
423.137;  244.225;    0.000;    0.000
423.189;  268.225;    0.000;    0.000
423.242;  246.225;    0.000;    0.000
423.294;  245.225;    0.000;    0.000
423.347;  212.225;    0.000;    0.000
423.399;  216.225;    0.000;    0.000
423.452;  272.225;    0.000;    0.000
423.504;  235.225;    0.000;    0.000
423.557;  256.225;    0.000;    0.000
423.609;  224.225;    0.000;    0.000
423.662;  270.225;    0.000;    0.000
423.714;  230.225;    0.000;    0.000
423.766;  257.225;    0.000;    0.000
423.819;  218.225;    0.000;    0.000
423.871;  262.225;    0.000;    0.000
423.923;  227.225;    0.000;    0.000
423.976;  239.225;    0.000;    0.000
424.028;  208.225;    0.000;    0.000
424.081;  269.225;    0.000;    0.000
424.133;  235.225;    0.000;    0.000
424.185;  245.225;    0.000;    0.000
424.238;  247.225;    0.000;    0.000
424.290;  238.225;    0.000;    0.000
424.342;  220.225;    0.000;    0.000
424.394;  245.225;    0.000;    0.000
424.447;  262.225;    0.000;    0.000
424.499;  243.225;    0.000;    0.000
424.551;  253.225;    0.000;    0.000
424.603;  222.225;    0.000;    0.000
424.656;  252.225;    0.000;    0.000
424.708;  243.225;    0.000;    0.000
424.760;  251.225;    0.000;    0.000
424.812;  282.225;    0.000;    0.000
424.864;  261.225;    0.000;    0.000
424.917;  230.225;    0.000;    0.000
424.969;  275.225;    0.000;    0.000
425.021;  235.225;    0.000;    0.000
425.073;  249.225;    0.000;    0.000
425.125;  262.225;    0.000;    0.000
425.177;  249.225;    0.000;    0.000
425.229;  269.225;    0.000;    0.000
425.282;  255.225;    0.000;    0.000
425.334;  278.225;    0.000;    0.000
425.386;  285.225;    0.000;    0.000
425.438;  262.225;    0.000;    0.000
425.490;  274.225;    0.000;    0.000
425.542;  265.225;    0.000;    0.000
425.594;  235.225;    0.000;    0.000
425.646;  276.225;    0.000;    0.000
425.698;  231.225;    0.000;    0.000
425.750;  287.225;    0.000;    0.000
425.802;  244.225;    0.000;    0.000
425.854;  253.225;    0.000;    0.000
425.906;  258.225;    0.000;    0.000
425.958;  249.225;    0.000;    0.000
426.010;  257.225;    0.000;    0.000
426.062;  258.225;    0.000;    0.000
426.114;  234.225;    0.000;    0.000
426.166;  261.225;    0.000;    0.000
426.218;  252.225;    0.000;    0.000
426.270;  262.225;    0.000;    0.000
426.321;  209.225;    0.000;    0.000
426.373;  223.225;    0.000;    0.000
426.425;  286.225;    0.000;    0.000
426.477;  248.225;    0.000;    0.000
426.529;  279.225;    0.000;    0.000
426.581;  254.225;    0.000;    0.000
426.633;  283.225;    0.000;    0.000
426.684;  267.225;    0.000;    0.000
426.736;  238.225;    0.000;    0.000
426.788;  261.225;    0.000;    0.000
426.840;  205.225;    0.000;    0.000
426.892;  227.225;    0.000;    0.000
426.943;  251.225;    0.000;    0.000
426.995;  221.225;    0.000;    0.000
427.047;  274.225;    0.000;    0.000
427.099;  246.225;    0.000;    0.000
427.150;  227.225;    0.000;    0.000
427.202;  231.225;    0.000;    0.000
427.254;  208.225;    0.000;    0.000
427.306;  235.225;    0.000;    0.000
427.357;  265.225;    0.000;    0.000
427.409;  243.225;    0.000;    0.000
427.461;  219.225;    0.000;    0.000
427.512;  236.225;    0.000;    0.000
427.564;  231.225;    0.000;    0.000
427.616;  254.225;    0.000;    0.000
427.667;  275.225;    0.000;    0.000
427.719;  231.225;    0.000;    0.000
427.770;  232.225;    0.000;    0.000
427.822;  251.225;    0.000;    0.000
427.874;  207.225;    0.000;    0.000
427.925;  253.225;    0.000;    0.000
427.977;  229.225;    0.000;    0.000
428.028;  238.225;    0.000;    0.000
428.080;  261.225;    0.000;    0.000
428.131;  231.225;    0.000;    0.000
428.183;  246.225;    0.000;    0.000
428.234;  246.225;    0.000;    0.000
428.286;  273.225;    0.000;    0.000
428.337;  246.225;    0.000;    0.000
428.389;  253.225;    0.000;    0.000
428.440;  255.225;    0.000;    0.000
428.492;  249.225;    0.000;    0.000
428.543;  248.225;    0.000;    0.000
428.595;  231.225;    0.000;    0.000
428.646;  250.225;    0.000;    0.000
428.697;  227.225;    0.000;    0.000
428.749;  270.225;    0.000;    0.000
428.800;  228.225;    0.000;    0.000
428.852;  263.225;    0.000;    0.000
428.903;  229.225;    0.000;    0.000
428.954;  271.225;    0.000;    0.000
429.006;  247.225;    0.000;    0.000
429.057;  250.225;    0.000;    0.000
429.108;  221.225;    0.000;    0.000
429.160;  242.225;    0.000;    0.000
429.211;  263.225;    0.000;    0.000
429.262;  253.225;    0.000;    0.000
429.314;  247.225;    0.000;    0.000
429.365;  260.225;    0.000;    0.000
429.416;  273.225;    0.000;    0.000
429.467;  259.225;    0.000;    0.000
429.519;  256.225;    0.000;    0.000
429.570;  257.225;    0.000;    0.000
429.621;  248.225;    0.000;    0.000
429.672;  258.225;    0.000;    0.000
429.724;  215.225;    0.000;    0.000
429.775;  220.225;    0.000;    0.000
429.826;  216.225;    0.000;    0.000
429.877;  242.225;    0.000;    0.000
429.928;  281.225;    0.000;    0.000
429.980;  275.225;    0.000;    0.000
430.031;  276.225;    0.000;    0.000
430.082;  236.225;    0.000;    0.000
430.133;  243.225;    0.000;    0.000
430.184;  252.225;    0.000;    0.000
430.235;  241.225;    0.000;    0.000
430.286;  238.225;    0.000;    0.000
430.337;  222.225;    0.000;    0.000
430.388;  223.225;    0.000;    0.000
430.439;  234.225;    0.000;    0.000
430.490;  236.225;    0.000;    0.000
430.542;  195.225;    0.000;    0.000
430.593;  227.225;    0.000;    0.000
430.644;  223.225;    0.000;    0.000
430.695;  259.225;    0.000;    0.000
430.746;  224.225;    0.000;    0.000
430.797;  273.225;    0.000;    0.000
430.848;  241.225;    0.000;    0.000
430.899;  239.225;    0.000;    0.000
430.949;  249.225;    0.000;    0.000
431.000;  234.225;    0.000;    0.000
431.051;  266.225;    0.000;    0.000
431.102;  204.225;    0.000;    0.000
431.153;  241.225;    0.000;    0.000
431.204;  230.225;    0.000;    0.000
431.255;  215.225;    0.000;    0.000
431.306;  219.225;    0.000;    0.000
431.357;  250.225;    0.000;    0.000
431.408;  222.225;    0.000;    0.000
431.458;  237.225;    0.000;    0.000
431.509;  201.225;    0.000;    0.000
431.560;  247.225;    0.000;    0.000
431.611;  209.225;    0.000;    0.000
431.662;  219.225;    0.000;    0.000
431.713;  246.225;    0.000;    0.000
431.763;  224.225;    0.000;    0.000
431.814;  235.225;    0.000;    0.000
431.865;  248.225;    0.000;    0.000
431.916;  173.225;    0.000;    0.000
431.966;  229.225;    0.000;    0.000
432.017;  232.225;    0.000;    0.000
432.068;  259.225;    0.000;    0.000
432.118;  236.225;    0.000;    0.000
432.169;  238.225;    0.000;    0.000
432.220;  266.225;    0.000;    0.000
432.271;  224.225;    0.000;    0.000
432.321;  223.225;    0.000;    0.000
432.372;  256.225;    0.000;    0.000
432.423;  213.225;    0.000;    0.000
432.473;  251.225;    0.000;    0.000
432.524;  222.225;    0.000;    0.000
432.574;  249.225;    0.000;    0.000
432.625;  248.225;    0.000;    0.000
432.676;  242.225;    0.000;    0.000
432.726;  263.225;    0.000;    0.000
432.777;  229.225;    0.000;    0.000
432.827;  270.225;    0.000;    0.000
432.878;  242.225;    0.000;    0.000
432.928;  247.225;    0.000;    0.000
432.979;  257.225;    0.000;    0.000
433.029;  246.225;    0.000;    0.000
433.080;  229.225;    0.000;    0.000
433.130;  255.225;    0.000;    0.000
433.181;  253.225;    0.000;    0.000
433.231;  250.225;    0.000;    0.000
433.282;  297.225;    0.000;    0.000
433.332;  278.225;    0.000;    0.000
433.383;  307.225;    0.000;    0.000
433.433;  274.225;    0.000;    0.000
433.484;  273.225;    0.000;    0.000
433.534;  242.225;    0.000;    0.000
433.585;  271.225;    0.000;    0.000
433.635;  261.225;    0.000;    0.000
433.685;  271.225;    0.000;    0.000
433.736;  272.225;    0.000;    0.000
433.786;  243.225;    0.000;    0.000
433.836;  305.225;    0.000;    0.000
433.887;  254.225;    0.000;    0.000
433.937;  287.225;    0.000;    0.000
433.987;  210.225;    0.000;    0.000
434.038;  277.225;    0.000;    0.000
434.088;  284.225;    0.000;    0.000
434.138;  259.225;    0.000;    0.000
434.188;  257.225;    0.000;    0.000
434.239;  241.225;    0.000;    0.000
434.289;  292.225;    0.000;    0.000
434.339;  280.225;    0.000;    0.000
434.389;  281.225;    0.000;    0.000
434.440;  252.225;    0.000;    0.000
434.490;  286.225;    0.000;    0.000
434.540;  280.225;    0.000;    0.000
434.590;  236.225;    0.000;    0.000
434.640;  234.225;    0.000;    0.000
434.691;  262.225;    0.000;    0.000
434.741;  271.225;    0.000;    0.000
434.791;  278.225;    0.000;    0.000
434.841;  292.225;    0.000;    0.000
434.891;  273.225;    0.000;    0.000
434.941;  289.225;    0.000;    0.000
434.991;  329.225;    0.000;    0.000
435.042;  295.225;    0.000;    0.000
435.092;  312.225;    0.000;    0.000
435.142;  264.225;    0.000;    0.000
435.192;  224.225;    0.000;    0.000
435.242;  266.225;    0.000;    0.000
435.292;  287.225;    0.000;    0.000
435.342;  270.225;    0.000;    0.000
435.392;  248.225;    0.000;    0.000
435.442;  270.225;    0.000;    0.000
435.492;  279.225;    0.000;    0.000
435.542;  243.225;    0.000;    0.000
435.592;  237.225;    0.000;    0.000
435.642;  270.225;    0.000;    0.000
435.692;  251.225;    0.000;    0.000
435.742;  239.225;    0.000;    0.000
435.792;  285.225;    0.000;    0.000
435.842;  280.225;    0.000;    0.000
435.891;  239.225;    0.000;    0.000
435.941;  241.225;    0.000;    0.000
435.991;  285.225;    0.000;    0.000
436.041;  228.225;    0.000;    0.000
436.091;  250.225;    0.000;    0.000
436.141;  217.225;    0.000;    0.000
436.191;  266.225;    0.000;    0.000
436.241;  246.225;    0.000;    0.000
436.290;  268.225;    0.000;    0.000
436.340;  261.225;    0.000;    0.000
436.390;  288.225;    0.000;    0.000
436.440;  281.225;    0.000;    0.000
436.490;  245.225;    0.000;    0.000
436.539;  238.225;    0.000;    0.000
436.589;  290.225;    0.000;    0.000
436.639;  232.225;    0.000;    0.000
436.689;  236.225;    0.000;    0.000
436.738;  278.225;    0.000;    0.000
436.788;  247.225;    0.000;    0.000
436.838;  293.225;    0.000;    0.000
436.887;  256.225;    0.000;    0.000
436.937;  264.225;    0.000;    0.000
436.987;  223.225;    0.000;    0.000
437.036;  255.225;    0.000;    0.000
437.086;  262.225;    0.000;    0.000
437.136;  272.225;    0.000;    0.000
437.185;  236.225;    0.000;    0.000
437.235;  299.225;    0.000;    0.000
437.285;  253.225;    0.000;    0.000
437.334;  251.225;    0.000;    0.000
437.384;  266.225;    0.000;    0.000
437.433;  272.225;    0.000;    0.000
437.483;  269.225;    0.000;    0.000
437.532;  258.225;    0.000;    0.000
437.582;  251.225;    0.000;    0.000
437.631;  261.225;    0.000;    0.000
437.681;  264.225;    0.000;    0.000
437.731;  242.225;    0.000;    0.000
437.780;  225.225;    0.000;    0.000
437.829;  235.225;    0.000;    0.000
437.879;  212.225;    0.000;    0.000
437.928;  206.225;    0.000;    0.000
437.978;  241.225;    0.000;    0.000
438.027;  272.225;    0.000;    0.000
438.077;  277.225;    0.000;    0.000
438.126;  264.225;    0.000;    0.000
438.176;  233.225;    0.000;    0.000
438.225;  248.225;    0.000;    0.000
438.274;  280.225;    0.000;    0.000
438.324;  274.225;    0.000;    0.000
438.373;  238.225;    0.000;    0.000
438.422;  268.225;    0.000;    0.000
438.472;  242.225;    0.000;    0.000
438.521;  214.225;    0.000;    0.000
438.571;  261.225;    0.000;    0.000
438.620;  279.225;    0.000;    0.000
438.669;  220.225;    0.000;    0.000
438.718;  235.225;    0.000;    0.000
438.768;  193.225;    0.000;    0.000
438.817;  246.225;    0.000;    0.000
438.866;  243.225;    0.000;    0.000
438.915;  268.225;    0.000;    0.000
438.965;  213.225;    0.000;    0.000
439.014;  240.225;    0.000;    0.000
439.063;  281.225;    0.000;    0.000
439.112;  207.225;    0.000;    0.000
439.162;  280.225;    0.000;    0.000
439.211;  258.225;    0.000;    0.000
439.260;  246.225;    0.000;    0.000
439.309;  266.225;    0.000;    0.000
439.358;  247.225;    0.000;    0.000
439.407;  244.225;    0.000;    0.000
439.456;  249.225;    0.000;    0.000
439.506;  247.225;    0.000;    0.000
439.555;  267.225;    0.000;    0.000
439.604;  263.225;    0.000;    0.000
439.653;  254.225;    0.000;    0.000
439.702;  266.225;    0.000;    0.000
439.751;  237.225;    0.000;    0.000
439.800;  229.225;    0.000;    0.000
439.849;  257.225;    0.000;    0.000
439.898;  237.225;    0.000;    0.000
439.947;  231.225;    0.000;    0.000
439.996;  282.225;    0.000;    0.000
440.045;  232.225;    0.000;    0.000
440.094;  236.225;    0.000;    0.000
440.143;  274.225;    0.000;    0.000
440.192;  297.225;    0.000;    0.000
440.241;  271.225;    0.000;    0.000
440.290;  272.225;    0.000;    0.000
440.339;  258.225;    0.000;    0.000
440.388;  229.225;    0.000;    0.000
440.437;  274.225;    0.000;    0.000
440.486;  253.225;    0.000;    0.000
440.535;  260.225;    0.000;    0.000
440.583;  251.225;    0.000;    0.000
440.632;  268.225;    0.000;    0.000
440.681;  241.225;    0.000;    0.000
440.730;  282.225;    0.000;    0.000
440.779;  254.225;    0.000;    0.000
440.828;  213.225;    0.000;    0.000
440.876;  236.225;    0.000;    0.000
440.925;  264.225;    0.000;    0.000
440.974;  235.225;    0.000;    0.000
441.023;  229.225;    0.000;    0.000
441.072;  248.225;    0.000;    0.000
441.120;  302.225;    0.000;    0.000
441.169;  256.225;    0.000;    0.000
441.218;  247.225;    0.000;    0.000
441.267;  306.225;    0.000;    0.000
441.315;  272.225;    0.000;    0.000
441.364;  257.225;    0.000;    0.000
441.413;  228.225;    0.000;    0.000
441.461;  241.225;    0.000;    0.000
441.510;  269.225;    0.000;    0.000
441.559;  248.225;    0.000;    0.000
441.607;  250.225;    0.000;    0.000
441.656;  266.225;    0.000;    0.000
441.705;  290.225;    0.000;    0.000
441.753;  306.225;    0.000;    0.000
441.802;  282.225;    0.000;    0.000
441.850;  237.225;    0.000;    0.000
441.899;  279.225;    0.000;    0.000
441.948;  237.225;    0.000;    0.000
441.996;  237.225;    0.000;    0.000
442.045;  297.225;    0.000;    0.000
442.093;  282.225;    0.000;    0.000
442.142;  247.225;    0.000;    0.000
442.190;  302.225;    0.000;    0.000
442.239;  282.225;    0.000;    0.000
442.287;  248.225;    0.000;    0.000
442.336;  275.225;    0.000;    0.000
442.384;  235.225;    0.000;    0.000
442.433;  257.225;    0.000;    0.000
442.481;  277.225;    0.000;    0.000
442.529;  250.225;    0.000;    0.000
442.578;  283.225;    0.000;    0.000
442.626;  263.225;    0.000;    0.000
442.675;  264.225;    0.000;    0.000
442.723;  240.225;    0.000;    0.000
442.771;  261.225;    0.000;    0.000
442.820;  291.225;    0.000;    0.000
442.868;  223.225;    0.000;    0.000
442.917;  256.225;    0.000;    0.000
442.965;  282.225;    0.000;    0.000
443.013;  280.225;    0.000;    0.000
443.062;  255.225;    0.000;    0.000
443.110;  253.225;    0.000;    0.000
443.158;  260.225;    0.000;    0.000
443.206;  245.225;    0.000;    0.000
443.255;  300.225;    0.000;    0.000
443.303;  275.225;    0.000;    0.000
443.351;  264.225;    0.000;    0.000
443.399;  254.225;    0.000;    0.000
443.448;  250.225;    0.000;    0.000
443.496;  274.225;    0.000;    0.000
443.544;  237.225;    0.000;    0.000
443.592;  302.225;    0.000;    0.000
443.640;  273.225;    0.000;    0.000
443.689;  249.225;    0.000;    0.000
443.737;  249.225;    0.000;    0.000
443.785;  240.225;    0.000;    0.000
443.833;  257.225;    0.000;    0.000
443.881;  244.225;    0.000;    0.000
443.929;  240.225;    0.000;    0.000
443.977;  262.225;    0.000;    0.000
444.025;  226.225;    0.000;    0.000
444.074;  256.225;    0.000;    0.000
444.122;  272.225;    0.000;    0.000
444.170;  228.225;    0.000;    0.000
444.218;  251.225;    0.000;    0.000
444.266;  293.225;    0.000;    0.000
444.314;  262.225;    0.000;    0.000
444.362;  292.225;    0.000;    0.000
444.410;  266.225;    0.000;    0.000
444.458;  261.225;    0.000;    0.000
444.506;  290.225;    0.000;    0.000
444.554;  273.225;    0.000;    0.000
444.602;  232.225;    0.000;    0.000
444.650;  255.225;    0.000;    0.000
444.698;  264.225;    0.000;    0.000
444.746;  287.225;    0.000;    0.000
444.793;  240.225;    0.000;    0.000
444.841;  298.225;    0.000;    0.000
444.889;  267.225;    0.000;    0.000
444.937;  242.225;    0.000;    0.000
444.985;  259.225;    0.000;    0.000
445.033;  244.225;    0.000;    0.000
445.081;  229.225;    0.000;    0.000
445.129;  231.225;    0.000;    0.000
445.176;  253.225;    0.000;    0.000
445.224;  273.225;    0.000;    0.000
445.272;  272.225;    0.000;    0.000
445.320;  270.225;    0.000;    0.000
445.368;  245.225;    0.000;    0.000
445.415;  280.225;    0.000;    0.000
445.463;  216.225;    0.000;    0.000
445.511;  248.225;    0.000;    0.000
445.559;  249.225;    0.000;    0.000
445.606;  264.225;    0.000;    0.000
445.654;  250.225;    0.000;    0.000
445.702;  230.225;    0.000;    0.000
445.749;  286.225;    0.000;    0.000
445.797;  240.225;    0.000;    0.000
445.845;  240.225;    0.000;    0.000
445.892;  209.225;    0.000;    0.000
445.940;  231.225;    0.000;    0.000
445.988;  261.225;    0.000;    0.000
446.035;  250.225;    0.000;    0.000
446.083;  276.225;    0.000;    0.000
446.131;  192.225;    0.000;    0.000
446.178;  235.225;    0.000;    0.000
446.226;  242.225;    0.000;    0.000
446.273;  275.225;    0.000;    0.000
446.321;  228.225;    0.000;    0.000
446.368;  220.225;    0.000;    0.000
446.416;  219.225;    0.000;    0.000
446.463;  243.225;    0.000;    0.000
446.511;  249.225;    0.000;    0.000
446.558;  242.225;    0.000;    0.000
446.606;  286.225;    0.000;    0.000
446.653;  235.225;    0.000;    0.000
446.701;  265.225;    0.000;    0.000
446.748;  232.225;    0.000;    0.000
446.796;  253.225;    0.000;    0.000
446.843;  273.225;    0.000;    0.000
446.891;  253.225;    0.000;    0.000
446.938;  264.225;    0.000;    0.000
446.985;  252.225;    0.000;    0.000
447.033;  274.225;    0.000;    0.000
447.080;  260.225;    0.000;    0.000
447.128;  236.225;    0.000;    0.000
447.175;  258.225;    0.000;    0.000
447.222;  242.225;    0.000;    0.000
447.270;  289.225;    0.000;    0.000
447.317;  248.225;    0.000;    0.000
447.364;  228.225;    0.000;    0.000
447.411;  245.225;    0.000;    0.000
447.459;  271.225;    0.000;    0.000
447.506;  244.225;    0.000;    0.000
447.553;  234.225;    0.000;    0.000
447.601;  274.225;    0.000;    0.000
447.648;  250.225;    0.000;    0.000
447.695;  289.225;    0.000;    0.000
447.742;  260.225;    0.000;    0.000
447.789;  277.225;    0.000;    0.000
447.837;  269.225;    0.000;    0.000
447.884;  275.225;    0.000;    0.000
447.931;  250.225;    0.000;    0.000
447.978;  266.225;    0.000;    0.000
448.025;  258.225;    0.000;    0.000
448.072;  248.225;    0.000;    0.000
448.120;  239.225;    0.000;    0.000
448.167;  287.225;    0.000;    0.000
448.214;  263.225;    0.000;    0.000
448.261;  305.225;    0.000;    0.000
448.308;  258.225;    0.000;    0.000
448.355;  277.225;    0.000;    0.000
448.402;  257.225;    0.000;    0.000
448.449;  251.225;    0.000;    0.000
448.496;  268.225;    0.000;    0.000
448.543;  267.225;    0.000;    0.000
448.590;  272.225;    0.000;    0.000
448.637;  262.225;    0.000;    0.000
448.684;  245.225;    0.000;    0.000
448.731;  248.225;    0.000;    0.000
448.778;  261.225;    0.000;    0.000
448.825;  256.225;    0.000;    0.000
448.872;  235.225;    0.000;    0.000
448.919;  264.225;    0.000;    0.000
448.966;  300.225;    0.000;    0.000
449.013;  256.225;    0.000;    0.000
449.060;  278.225;    0.000;    0.000
449.107;  241.225;    0.000;    0.000
449.154;  202.225;    0.000;    0.000
449.200;  270.225;    0.000;    0.000
449.247;  248.225;    0.000;    0.000
449.294;  245.225;    0.000;    0.000
449.341;  278.225;    0.000;    0.000
449.388;  245.225;    0.000;    0.000
449.435;  251.225;    0.000;    0.000
449.481;  270.225;    0.000;    0.000
449.528;  286.225;    0.000;    0.000
449.575;  225.225;    0.000;    0.000
449.622;  252.225;    0.000;    0.000
449.668;  257.225;    0.000;    0.000
449.715;  273.225;    0.000;    0.000
449.762;  275.225;    0.000;    0.000
449.809;  276.225;    0.000;    0.000
449.855;  310.225;    0.000;    0.000
449.902;  260.225;    0.000;    0.000
449.949;  278.225;    0.000;    0.000
449.995;  271.225;    0.000;    0.000
450.042;  272.225;    0.000;    0.000
450.089;  305.225;    0.000;    0.000
450.135;  310.225;    0.000;    0.000
450.182;  269.225;    0.000;    0.000
450.229;  239.225;    0.000;    0.000
450.275;  290.225;    0.000;    0.000
450.322;  264.225;    0.000;    0.000
450.368;  279.225;    0.000;    0.000
450.415;  270.225;    0.000;    0.000
450.462;  265.225;    0.000;    0.000
450.508;  271.225;    0.000;    0.000
450.555;  276.225;    0.000;    0.000
450.601;  281.225;    0.000;    0.000
450.648;  293.225;    0.000;    0.000
450.694;  276.225;    0.000;    0.000
450.741;  275.225;    0.000;    0.000
450.787;  276.225;    0.000;    0.000
450.834;  270.225;    0.000;    0.000
450.880;  248.225;    0.000;    0.000
450.927;  288.225;    0.000;    0.000
450.973;  281.225;    0.000;    0.000
451.019;  274.225;    0.000;    0.000
451.066;  299.225;    0.000;    0.000
451.112;  280.225;    0.000;    0.000
451.159;  246.225;    0.000;    0.000
451.205;  294.225;    0.000;    0.000
451.251;  281.225;    0.000;    0.000
451.298;  263.225;    0.000;    0.000
451.344;  306.225;    0.000;    0.000
451.390;  263.225;    0.000;    0.000
451.437;  291.225;    0.000;    0.000
451.483;  306.225;    0.000;    0.000
451.529;  271.225;    0.000;    0.000
451.576;  297.225;    0.000;    0.000
451.622;  231.225;    0.000;    0.000
451.668;  273.225;    0.000;    0.000
451.714;  247.225;    0.000;    0.000
451.761;  317.225;    0.000;    0.000
451.807;  294.225;    0.000;    0.000
451.853;  281.225;    0.000;    0.000
451.899;  252.225;    0.000;    0.000
451.945;  283.225;    0.000;    0.000
451.992;  292.225;    0.000;    0.000
452.038;  237.225;    0.000;    0.000
452.084;  272.225;    0.000;    0.000
452.130;  310.225;    0.000;    0.000
452.176;  271.225;    0.000;    0.000
452.222;  246.225;    0.000;    0.000
452.268;  282.225;    0.000;    0.000
452.315;  294.225;    0.000;    0.000
452.361;  267.225;    0.000;    0.000
452.407;  289.225;    0.000;    0.000
452.453;  259.225;    0.000;    0.000
452.499;  267.225;    0.000;    0.000
452.545;  259.225;    0.000;    0.000
452.591;  265.225;    0.000;    0.000
452.637;  242.225;    0.000;    0.000
452.683;  273.225;    0.000;    0.000
452.729;  245.225;    0.000;    0.000
452.775;  273.225;    0.000;    0.000
452.821;  248.225;    0.000;    0.000
452.867;  269.225;    0.000;    0.000
452.913;  270.225;    0.000;    0.000
452.959;  274.225;    0.000;    0.000
453.005;  282.225;    0.000;    0.000
453.051;  294.225;    0.000;    0.000
453.097;  264.225;    0.000;    0.000
453.142;  221.225;    0.000;    0.000
453.188;  285.225;    0.000;    0.000
453.234;  269.225;    0.000;    0.000
453.280;  259.225;    0.000;    0.000
453.326;  270.225;    0.000;    0.000
453.372;  226.225;    0.000;    0.000
453.418;  256.225;    0.000;    0.000
453.463;  242.225;    0.000;    0.000
453.509;  283.225;    0.000;    0.000
453.555;  285.225;    0.000;    0.000
453.601;  237.225;    0.000;    0.000
453.647;  278.225;    0.000;    0.000
453.692;  265.225;    0.000;    0.000
453.738;  287.225;    0.000;    0.000
453.784;  244.225;    0.000;    0.000
453.829;  254.225;    0.000;    0.000
453.875;  263.225;    0.000;    0.000
453.921;  240.225;    0.000;    0.000
453.967;  269.225;    0.000;    0.000
454.012;  252.225;    0.000;    0.000
454.058;  255.225;    0.000;    0.000
454.104;  265.225;    0.000;    0.000
454.149;  296.225;    0.000;    0.000
454.195;  268.225;    0.000;    0.000
454.240;  290.225;    0.000;    0.000
454.286;  273.225;    0.000;    0.000
454.332;  304.225;    0.000;    0.000
454.377;  284.225;    0.000;    0.000
454.423;  256.225;    0.000;    0.000
454.468;  267.225;    0.000;    0.000
454.514;  262.225;    0.000;    0.000
454.559;  274.225;    0.000;    0.000
454.605;  236.225;    0.000;    0.000
454.650;  262.225;    0.000;    0.000
454.696;  263.225;    0.000;    0.000
454.741;  285.225;    0.000;    0.000
454.787;  285.225;    0.000;    0.000
454.832;  244.225;    0.000;    0.000
454.878;  295.225;    0.000;    0.000
454.923;  263.225;    0.000;    0.000
454.969;  288.225;    0.000;    0.000
455.014;  288.225;    0.000;    0.000
455.060;  276.225;    0.000;    0.000
455.105;  271.225;    0.000;    0.000
455.150;  279.225;    0.000;    0.000
455.196;  304.225;    0.000;    0.000
455.241;  284.225;    0.000;    0.000
455.286;  274.225;    0.000;    0.000
455.332;  255.225;    0.000;    0.000
455.377;  269.225;    0.000;    0.000
455.422;  262.225;    0.000;    0.000
455.468;  268.225;    0.000;    0.000
455.513;  245.225;    0.000;    0.000
455.558;  217.225;    0.000;    0.000
455.604;  280.225;    0.000;    0.000
455.649;  263.225;    0.000;    0.000
455.694;  242.225;    0.000;    0.000
455.739;  302.225;    0.000;    0.000
455.785;  276.225;    0.000;    0.000
455.830;  288.225;    0.000;    0.000
455.875;  289.225;    0.000;    0.000
455.920;  233.225;    0.000;    0.000
455.965;  255.225;    0.000;    0.000
456.010;  288.225;    0.000;    0.000
456.056;  304.225;    0.000;    0.000
456.101;  264.225;    0.000;    0.000
456.146;  256.225;    0.000;    0.000
456.191;  271.225;    0.000;    0.000
456.236;  268.225;    0.000;    0.000
456.281;  258.225;    0.000;    0.000
456.326;  284.225;    0.000;    0.000
456.371;  290.225;    0.000;    0.000
456.416;  291.225;    0.000;    0.000
456.461;  280.225;    0.000;    0.000
456.506;  279.225;    0.000;    0.000
456.552;  280.225;    0.000;    0.000
456.597;  243.225;    0.000;    0.000
456.642;  289.225;    0.000;    0.000
456.687;  268.225;    0.000;    0.000
456.732;  297.225;    0.000;    0.000
456.776;  248.225;    0.000;    0.000
456.821;  257.225;    0.000;    0.000
456.866;  252.225;    0.000;    0.000
456.911;  262.225;    0.000;    0.000
456.956;  272.225;    0.000;    0.000
457.001;  226.225;    0.000;    0.000
457.046;  254.225;    0.000;    0.000
457.091;  240.225;    0.000;    0.000
457.136;  239.225;    0.000;    0.000
457.181;  260.225;    0.000;    0.000
457.225;  271.225;    0.000;    0.000
457.270;  265.225;    0.000;    0.000
457.315;  268.225;    0.000;    0.000
457.360;  233.225;    0.000;    0.000
457.405;  278.225;    0.000;    0.000
457.450;  275.225;    0.000;    0.000
457.494;  246.225;    0.000;    0.000
457.539;  208.225;    0.000;    0.000
457.584;  264.225;    0.000;    0.000
457.629;  253.225;    0.000;    0.000
457.673;  239.225;    0.000;    0.000
457.718;  233.225;    0.000;    0.000
457.763;  262.225;    0.000;    0.000
457.807;  262.225;    0.000;    0.000
457.852;  258.225;    0.000;    0.000
457.897;  285.225;    0.000;    0.000
457.941;  270.225;    0.000;    0.000
457.986;  277.225;    0.000;    0.000
458.031;  267.225;    0.000;    0.000
458.075;  267.225;    0.000;    0.000
458.120;  278.225;    0.000;    0.000
458.165;  237.225;    0.000;    0.000
458.209;  268.225;    0.000;    0.000
458.254;  281.225;    0.000;    0.000
458.298;  283.225;    0.000;    0.000
458.343;  269.225;    0.000;    0.000
458.387;  292.225;    0.000;    0.000
458.432;  284.225;    0.000;    0.000
458.476;  296.225;    0.000;    0.000
458.521;  229.225;    0.000;    0.000
458.565;  276.225;    0.000;    0.000
458.610;  244.225;    0.000;    0.000
458.654;  288.225;    0.000;    0.000
458.699;  282.225;    0.000;    0.000
458.743;  240.225;    0.000;    0.000
458.788;  270.225;    0.000;    0.000
458.832;  300.225;    0.000;    0.000
458.877;  268.225;    0.000;    0.000
458.921;  263.225;    0.000;    0.000
458.965;  272.225;    0.000;    0.000
459.010;  309.225;    0.000;    0.000
459.054;  266.225;    0.000;    0.000
459.098;  268.225;    0.000;    0.000
459.143;  281.225;    0.000;    0.000
459.187;  240.225;    0.000;    0.000
459.231;  276.225;    0.000;    0.000
459.276;  237.225;    0.000;    0.000
459.320;  314.225;    0.000;    0.000
459.364;  298.225;    0.000;    0.000
459.409;  276.225;    0.000;    0.000
459.453;  270.225;    0.000;    0.000
459.497;  286.225;    0.000;    0.000
459.541;  287.225;    0.000;    0.000
459.586;  243.225;    0.000;    0.000
459.630;  282.225;    0.000;    0.000
459.674;  261.225;    0.000;    0.000
459.718;  271.225;    0.000;    0.000
459.762;  265.225;    0.000;    0.000
459.807;  285.225;    0.000;    0.000
459.851;  259.225;    0.000;    0.000
459.895;  246.225;    0.000;    0.000
459.939;  291.225;    0.000;    0.000
459.983;  274.225;    0.000;    0.000
460.027;  274.225;    0.000;    0.000
460.071;  275.225;    0.000;    0.000
460.115;  263.225;    0.000;    0.000
460.159;  269.225;    0.000;    0.000
460.204;  295.225;    0.000;    0.000
460.248;  251.225;    0.000;    0.000
460.292;  293.225;    0.000;    0.000
460.336;  285.225;    0.000;    0.000
460.380;  278.225;    0.000;    0.000
460.424;  287.225;    0.000;    0.000
460.468;  291.225;    0.000;    0.000
460.512;  316.225;    0.000;    0.000
460.556;  278.225;    0.000;    0.000
460.600;  307.225;    0.000;    0.000
460.643;  285.225;    0.000;    0.000
460.687;  291.225;    0.000;    0.000
460.731;  272.225;    0.000;    0.000
460.775;  263.225;    0.000;    0.000
460.819;  263.225;    0.000;    0.000
460.863;  284.225;    0.000;    0.000
460.907;  233.225;    0.000;    0.000
460.951;  270.225;    0.000;    0.000
460.995;  251.225;    0.000;    0.000
461.038;  271.225;    0.000;    0.000
461.082;  258.225;    0.000;    0.000
461.126;  296.225;    0.000;    0.000
461.170;  307.225;    0.000;    0.000
461.214;  287.225;    0.000;    0.000
461.257;  319.225;    0.000;    0.000
461.301;  273.225;    0.000;    0.000
461.345;  262.225;    0.000;    0.000
461.389;  261.225;    0.000;    0.000
461.432;  277.225;    0.000;    0.000
461.476;  297.225;    0.000;    0.000
461.520;  282.225;    0.000;    0.000
461.563;  295.225;    0.000;    0.000
461.607;  270.225;    0.000;    0.000
461.651;  282.225;    0.000;    0.000
461.694;  228.225;    0.000;    0.000
461.738;  289.225;    0.000;    0.000
461.782;  287.225;    0.000;    0.000
461.825;  287.225;    0.000;    0.000
461.869;  289.225;    0.000;    0.000
461.913;  274.225;    0.000;    0.000
461.956;  268.225;    0.000;    0.000
462.000;  301.225;    0.000;    0.000
462.043;  287.225;    0.000;    0.000
462.087;  284.225;    0.000;    0.000
462.130;  303.225;    0.000;    0.000
462.174;  318.225;    0.000;    0.000
462.217;  312.225;    0.000;    0.000
462.261;  317.225;    0.000;    0.000
462.304;  290.225;    0.000;    0.000
462.348;  289.225;    0.000;    0.000
462.391;  227.225;    0.000;    0.000
462.435;  320.225;    0.000;    0.000
462.478;  236.225;    0.000;    0.000
462.522;  257.225;    0.000;    0.000
462.565;  312.225;    0.000;    0.000
462.608;  323.225;    0.000;    0.000
462.652;  304.225;    0.000;    0.000
462.695;  352.225;    0.000;    0.000
462.739;  290.225;    0.000;    0.000
462.782;  284.225;    0.000;    0.000
462.825;  295.225;    0.000;    0.000
462.869;  330.225;    0.000;    0.000
462.912;  320.225;    0.000;    0.000
462.955;  295.225;    0.000;    0.000
462.998;  342.225;    0.000;    0.000
463.042;  339.225;    0.000;    0.000
463.085;  325.225;    0.000;    0.000
463.128;  350.225;    0.000;    0.000
463.172;  367.225;    0.000;    0.000
463.215;  329.225;    0.000;    0.000
463.258;  343.225;    0.000;    0.000
463.301;  294.225;    0.000;    0.000
463.344;  333.225;    0.000;    0.000
463.388;  341.225;    0.000;    0.000
463.431;  326.225;    0.000;    0.000
463.474;  333.225;    0.000;    0.000
463.517;  339.225;    0.000;    0.000
463.560;  352.225;    0.000;    0.000
463.603;  326.225;    0.000;    0.000
463.646;  311.225;    0.000;    0.000
463.690;  322.225;    0.000;    0.000
463.733;  339.225;    0.000;    0.000
463.776;  320.225;    0.000;    0.000
463.819;  331.225;    0.000;    0.000
463.862;  303.225;    0.000;    0.000

