
Integration time [ms]:   0.300
Averaging Nr. [scans]: 1
Smoothing Nr. [pixels]: 0
Data measured with spectrometer [name]: VIS
Wave   ;Sample   ;Dark     ;Reference
[nm]   ;[counts] ;[counts] ;[counts] 

450.961;  191.750;  204.125;    0.000
451.100;  227.750;  219.125;    0.000
451.239;  197.750;  196.125;    0.000
451.377;  246.750;  252.125;    0.000
451.516;  216.750;  215.125;    0.000
451.655;  211.750;  214.125;    0.000
451.794;  207.750;  241.125;    0.000
451.932;  222.750;  242.125;    0.000
452.071;  190.750;  204.125;    0.000
452.210;  185.750;  243.125;    0.000
452.348;  231.750;  241.125;    0.000
452.487;  229.750;  246.125;    0.000
452.626;  190.750;  235.125;    0.000
452.764;  250.750;  230.125;    0.000
452.903;  218.750;  199.125;    0.000
453.042;  297.750;  178.125;    0.000
453.180; 3194.750;  291.125;    0.000
453.319; 3228.750;  335.125;    0.000
453.458; 3162.750;  245.125;    0.000
453.596; 3156.750;  325.125;    0.000
453.735; 3260.750;  291.125;    0.000
453.873; 3284.750;  295.125;    0.000
454.012; 3297.750;  291.125;    0.000
454.150; 3372.750;  292.125;    0.000
454.289; 3297.750;  328.125;    0.000
454.427; 3359.750;  295.125;    0.000
454.566; 3361.750;  295.125;    0.000
454.704; 3496.750;  301.125;    0.000
454.843; 3455.750;  278.125;    0.000
454.981; 3452.750;  306.125;    0.000
455.120; 3547.750;  237.125;    0.000
455.258; 3660.750;  325.125;    0.000
455.397; 3575.750;  276.125;    0.000
455.535; 3697.750;  269.125;    0.000
455.674; 3693.750;  259.125;    0.000
455.812; 3795.750;  264.125;    0.000
455.951; 3709.750;  286.125;    0.000
456.089; 3773.750;  302.125;    0.000
456.227; 3802.750;  230.125;    0.000
456.366; 3908.750;  303.125;    0.000
456.504; 3989.750;  316.125;    0.000
456.642; 3996.750;  309.125;    0.000
456.781; 3962.750;  299.125;    0.000
456.919; 3976.750;  281.125;    0.000
457.057; 4075.750;  253.125;    0.000
457.196; 4070.750;  268.125;    0.000
457.334; 4135.750;  292.125;    0.000
457.472; 4248.750;  287.125;    0.000
457.610; 4263.750;  300.125;    0.000
457.749; 4323.750;  342.125;    0.000
457.887; 4366.750;  310.125;    0.000
458.025; 4347.750;  310.125;    0.000
458.163; 4425.750;  323.125;    0.000
458.301; 4537.750;  336.125;    0.000
458.440; 4629.750;  297.125;    0.000
458.578; 4740.750;  295.125;    0.000
458.716; 4759.750;  309.125;    0.000
458.854; 4718.750;  335.125;    0.000
458.992; 4710.750;  244.125;    0.000
459.130; 4870.750;  370.125;    0.000
459.269; 4715.750;  313.125;    0.000
459.407; 4999.750;  370.125;    0.000
459.545; 5034.750;  341.125;    0.000
459.683; 4948.750;  336.125;    0.000
459.821; 4996.750;  311.125;    0.000
459.959; 5143.750;  330.125;    0.000
460.097; 5213.750;  355.125;    0.000
460.235; 5222.750;  348.125;    0.000
460.373; 5273.750;  338.125;    0.000
460.511; 5317.750;  361.125;    0.000
460.649; 5359.750;  295.125;    0.000
460.787; 5334.750;  325.125;    0.000
460.925; 5336.750;  266.125;    0.000
461.063; 5442.750;  365.125;    0.000
461.201; 5464.750;  334.125;    0.000
461.339; 5529.750;  341.125;    0.000
461.477; 5356.750;  304.125;    0.000
461.615; 5675.750;  311.125;    0.000
461.753; 5664.750;  342.125;    0.000
461.891; 5713.750;  333.125;    0.000
462.029; 5784.750;  336.125;    0.000
462.166; 5847.750;  272.125;    0.000
462.304; 5895.750;  313.125;    0.000
462.442; 5903.750;  313.125;    0.000
462.580; 6002.750;  328.125;    0.000
462.718; 6013.750;  358.125;    0.000
462.856; 5949.750;  302.125;    0.000
462.993; 6071.750;  360.125;    0.000
463.131; 6015.750;  280.125;    0.000
463.269; 5832.750;  312.125;    0.000
463.407; 5868.750;  263.125;    0.000
463.545; 5850.750;  253.125;    0.000
463.682; 5887.750;  296.125;    0.000
463.820; 5989.750;  308.125;    0.000
463.958; 6267.750;  300.125;    0.000
464.095; 6231.750;  289.125;    0.000
464.233; 6488.750;  340.125;    0.000
464.371; 6351.750;  300.125;    0.000
464.509; 6364.750;  266.125;    0.000
464.646; 6377.750;  294.125;    0.000
464.784; 6227.750;  284.125;    0.000
464.921; 6271.750;  350.125;    0.000
465.059; 6161.750;  256.125;    0.000
465.197; 6113.750;  289.125;    0.000
465.334; 6060.750;  287.125;    0.000
465.472; 6029.750;  322.125;    0.000
465.609; 6095.750;  311.125;    0.000
465.747; 5940.750;  336.125;    0.000
465.885; 5932.750;  308.125;    0.000
466.022; 5727.750;  299.125;    0.000
466.160; 5984.750;  293.125;    0.000
466.297; 5691.750;  317.125;    0.000
466.435; 5809.750;  336.125;    0.000
466.572; 5759.750;  282.125;    0.000
466.710; 5897.750;  299.125;    0.000
466.847; 5767.750;  288.125;    0.000
466.985; 5875.750;  274.125;    0.000
467.122; 5802.750;  302.125;    0.000
467.260; 5743.750;  271.125;    0.000
467.397; 5742.750;  263.125;    0.000
467.534; 5681.750;  320.125;    0.000
467.672; 5831.750;  309.125;    0.000
467.809; 5730.750;  275.125;    0.000
467.947; 5729.750;  319.125;    0.000
468.084; 5682.750;  309.125;    0.000
468.221; 5736.750;  302.125;    0.000
468.359; 5757.750;  286.125;    0.000
468.496; 5694.750;  293.125;    0.000
468.633; 5700.750;  273.125;    0.000
468.771; 5706.750;  296.125;    0.000
468.908; 5771.750;  277.125;    0.000
469.045; 5742.750;  303.125;    0.000
469.183; 5866.750;  314.125;    0.000
469.320; 5897.750;  278.125;    0.000
469.457; 5964.750;  308.125;    0.000
469.594; 5993.750;  272.125;    0.000
469.732; 6020.750;  321.125;    0.000
469.869; 6152.750;  299.125;    0.000
470.006; 5942.750;  267.125;    0.000
470.143; 6101.750;  298.125;    0.000
470.280; 6106.750;  272.125;    0.000
470.417; 6135.750;  314.125;    0.000
470.555; 6073.750;  305.125;    0.000
470.692; 6014.750;  309.125;    0.000
470.829; 6094.750;  311.125;    0.000
470.966; 6114.750;  260.125;    0.000
471.103; 6123.750;  267.125;    0.000
471.240; 6104.750;  290.125;    0.000
471.377; 6010.750;  290.125;    0.000
471.514; 5970.750;  295.125;    0.000
471.651; 5910.750;  300.125;    0.000
471.789; 5929.750;  281.125;    0.000
471.926; 5935.750;  291.125;    0.000
472.063; 5948.750;  305.125;    0.000
472.200; 6046.750;  285.125;    0.000
472.337; 5892.750;  288.125;    0.000
472.474; 5932.750;  276.125;    0.000
472.611; 6009.750;  309.125;    0.000
472.748; 5943.750;  280.125;    0.000
472.884; 5878.750;  300.125;    0.000
473.021; 5673.750;  280.125;    0.000
473.158; 5851.750;  304.125;    0.000
473.295; 5848.750;  308.125;    0.000
473.432; 5779.750;  294.125;    0.000
473.569; 5950.750;  288.125;    0.000
473.706; 5834.750;  254.125;    0.000
473.843; 5831.750;  282.125;    0.000
473.980; 5721.750;  286.125;    0.000
474.117; 5963.750;  257.125;    0.000
474.253; 5924.750;  298.125;    0.000
474.390; 5878.750;  253.125;    0.000
474.527; 5879.750;  271.125;    0.000
474.664; 5884.750;  257.125;    0.000
474.801; 5929.750;  296.125;    0.000
474.937; 5811.750;  263.125;    0.000
475.074; 5984.750;  262.125;    0.000
475.211; 5945.750;  299.125;    0.000
475.348; 5949.750;  308.125;    0.000
475.484; 6086.750;  278.125;    0.000
475.621; 5989.750;  287.125;    0.000
475.758; 6097.750;  231.125;    0.000
475.894; 6024.750;  295.125;    0.000
476.031; 5886.750;  290.125;    0.000
476.168; 5970.750;  287.125;    0.000
476.304; 6044.750;  331.125;    0.000
476.441; 6048.750;  301.125;    0.000
476.578; 6047.750;  263.125;    0.000
476.714; 6076.750;  261.125;    0.000
476.851; 6130.750;  247.125;    0.000
476.987; 6133.750;  297.125;    0.000
477.124; 6199.750;  296.125;    0.000
477.261; 6005.750;  299.125;    0.000
477.397; 6157.750;  292.125;    0.000
477.534; 6134.750;  289.125;    0.000
477.670; 6206.750;  268.125;    0.000
477.807; 6217.750;  234.125;    0.000
477.943; 6486.750;  279.125;    0.000
478.080; 6338.750;  276.125;    0.000
478.216; 6382.750;  248.125;    0.000
478.353; 6468.750;  296.125;    0.000
478.489; 6380.750;  267.125;    0.000
478.626; 6442.750;  243.125;    0.000
478.762; 6510.750;  252.125;    0.000
478.898; 6484.750;  266.125;    0.000
479.035; 6625.750;  290.125;    0.000
479.171; 6557.750;  247.125;    0.000
479.308; 6542.750;  283.125;    0.000
479.444; 6568.750;  244.125;    0.000
479.580; 6599.750;  259.125;    0.000
479.717; 6542.750;  301.125;    0.000
479.853; 6520.750;  257.125;    0.000
479.989; 6640.750;  249.125;    0.000
480.126; 6609.750;  218.125;    0.000
480.262; 6693.750;  275.125;    0.000
480.398; 6706.750;  246.125;    0.000
480.535; 6535.750;  246.125;    0.000
480.671; 6569.750;  272.125;    0.000
480.807; 6782.750;  281.125;    0.000
480.943; 6642.750;  233.125;    0.000
481.080; 6658.750;  303.125;    0.000
481.216; 6537.750;  229.125;    0.000
481.352; 6540.750;  240.125;    0.000
481.488; 6688.750;  284.125;    0.000
481.624; 6630.750;  236.125;    0.000
481.760; 6464.750;  255.125;    0.000
481.897; 6570.750;  206.125;    0.000
482.033; 6421.750;  254.125;    0.000
482.169; 6473.750;  268.125;    0.000
482.305; 6488.750;  214.125;    0.000
482.441; 6527.750;  225.125;    0.000
482.577; 6556.750;  251.125;    0.000
482.713; 6618.750;  221.125;    0.000
482.849; 6546.750;  218.125;    0.000
482.985; 6513.750;  245.125;    0.000
483.121; 6529.750;  224.125;    0.000
483.258; 6523.750;  249.125;    0.000
483.394; 6576.750;  224.125;    0.000
483.530; 6464.750;  247.125;    0.000
483.665; 6562.750;  256.125;    0.000
483.801; 6606.750;  220.125;    0.000
483.937; 6523.750;  200.125;    0.000
484.073; 6665.750;  272.125;    0.000
484.209; 6557.750;  243.125;    0.000
484.345; 6524.750;  274.125;    0.000
484.481; 6640.750;  264.125;    0.000
484.617; 6721.750;  270.125;    0.000
484.753; 6510.750;  244.125;    0.000
484.889; 6656.750;  293.125;    0.000
485.025; 6609.750;  257.125;    0.000
485.161; 6719.750;  264.125;    0.000
485.296; 6572.750;  247.125;    0.000
485.432; 6536.750;  240.125;    0.000
485.568; 6615.750;  240.125;    0.000
485.704; 6692.750;  232.125;    0.000
485.840; 6755.750;  280.125;    0.000
485.975; 6783.750;  253.125;    0.000
486.111; 6729.750;  250.125;    0.000
486.247; 6759.750;  272.125;    0.000
486.383; 6735.750;  258.125;    0.000
486.518; 6751.750;  256.125;    0.000
486.654; 6643.750;  250.125;    0.000
486.790; 6720.750;  259.125;    0.000
486.926; 6597.750;  256.125;    0.000
487.061; 6617.750;  267.125;    0.000
487.197; 6849.750;  224.125;    0.000
487.333; 6745.750;  265.125;    0.000
487.468; 6691.750;  223.125;    0.000
487.604; 6678.750;  298.125;    0.000
487.740; 6740.750;  261.125;    0.000
487.875; 6718.750;  278.125;    0.000
488.011; 6818.750;  292.125;    0.000
488.146; 6667.750;  239.125;    0.000
488.282; 6838.750;  265.125;    0.000
488.417; 6683.750;  286.125;    0.000
488.553; 6798.750;  271.125;    0.000
488.688; 6654.750;  252.125;    0.000
488.824; 6625.750;  239.125;    0.000
488.960; 6618.750;  266.125;    0.000
489.095; 6835.750;  229.125;    0.000
489.230; 6778.750;  247.125;    0.000
489.366; 6790.750;  260.125;    0.000
489.501; 6856.750;  257.125;    0.000
489.637; 6894.750;  233.125;    0.000
489.772; 6805.750;  254.125;    0.000
489.908; 6888.750;  235.125;    0.000
490.043; 6876.750;  266.125;    0.000
490.178; 6827.750;  228.125;    0.000
490.314; 6882.750;  310.125;    0.000
490.449; 6800.750;  251.125;    0.000
490.585; 6989.750;  221.125;    0.000
490.720; 6795.750;  203.125;    0.000
490.855; 6799.750;  266.125;    0.000
490.991; 6902.750;  249.125;    0.000
491.126; 6889.750;  313.125;    0.000
491.261; 6794.750;  284.125;    0.000
491.396; 6807.750;  225.125;    0.000
491.532; 6843.750;  227.125;    0.000
491.667; 6950.750;  210.125;    0.000
491.802; 6796.750;  214.125;    0.000
491.937; 7046.750;  246.125;    0.000
492.073; 7059.750;  250.125;    0.000
492.208; 6925.750;  267.125;    0.000
492.343; 7026.750;  245.125;    0.000
492.478; 7221.750;  271.125;    0.000
492.613; 6970.750;  253.125;    0.000
492.749; 6965.750;  249.125;    0.000
492.884; 7070.750;  217.125;    0.000
493.019; 7060.750;  244.125;    0.000
493.154; 6980.750;  265.125;    0.000
493.289; 6912.750;  266.125;    0.000
493.424; 6986.750;  226.125;    0.000
493.559; 6992.750;  222.125;    0.000
493.694; 7015.750;  218.125;    0.000
493.829; 6861.750;  246.125;    0.000
493.964; 6961.750;  243.125;    0.000
494.099; 7024.750;  269.125;    0.000
494.234; 7031.750;  249.125;    0.000
494.369; 7095.750;  279.125;    0.000
494.504; 7076.750;  261.125;    0.000
494.639; 6938.750;  289.125;    0.000
494.774; 6997.750;  252.125;    0.000
494.909; 7023.750;  250.125;    0.000
495.044; 6967.750;  207.125;    0.000
495.179; 6847.750;  266.125;    0.000
495.314; 6966.750;  228.125;    0.000
495.449; 7148.750;  262.125;    0.000
495.584; 7081.750;  281.125;    0.000
495.719; 7145.750;  251.125;    0.000
495.854; 7133.750;  237.125;    0.000
495.988; 7048.750;  238.125;    0.000
496.123; 7107.750;  255.125;    0.000
496.258; 7248.750;  264.125;    0.000
496.393; 7188.750;  253.125;    0.000
496.528; 7138.750;  244.125;    0.000
496.663; 7177.750;  267.125;    0.000
496.797; 7321.750;  271.125;    0.000
496.932; 7575.750;  262.125;    0.000
497.067; 7577.750;  260.125;    0.000
497.202; 7436.750;  264.125;    0.000
497.336; 7672.750;  243.125;    0.000
497.471; 7602.750;  251.125;    0.000
497.606; 7995.750;  219.125;    0.000
497.740; 8000.750;  264.125;    0.000
497.875; 8213.750;  252.125;    0.000
498.010; 8315.750;  241.125;    0.000
498.144; 8328.750;  261.125;    0.000
498.279; 8559.750;  221.125;    0.000
498.414; 8649.750;  246.125;    0.000
498.548; 8728.750;  212.125;    0.000
498.683; 8781.750;  260.125;    0.000
498.817; 8863.750;  244.125;    0.000
498.952; 9135.750;  252.125;    0.000
499.087; 9252.750;  251.125;    0.000
499.221; 9259.750;  282.125;    0.000
499.356; 9402.750;  264.125;    0.000
499.490; 9675.750;  280.125;    0.000
499.625; 9899.750;  256.125;    0.000
499.759;10167.750;  253.125;    0.000
499.894;10367.750;  261.125;    0.000
500.028;10642.750;  304.125;    0.000
500.162;10879.750;  272.125;    0.000
500.297;11013.750;  274.125;    0.000
500.431;11237.750;  320.125;    0.000
500.566;10997.750;  268.125;    0.000
500.700;10906.750;  280.125;    0.000
500.835;10769.750;  288.125;    0.000
500.969;10410.750;  253.125;    0.000
501.103;10330.750;  234.125;    0.000
501.238;10004.750;  302.125;    0.000
501.372; 9776.750;  292.125;    0.000
501.506; 9506.750;  222.125;    0.000
501.641; 9252.750;  274.125;    0.000
501.775; 8708.750;  245.125;    0.000
501.909; 8761.750;  283.125;    0.000
502.043; 8623.750;  252.125;    0.000
502.178; 8434.750;  293.125;    0.000
502.312; 8215.750;  223.125;    0.000
502.446; 8145.750;  292.125;    0.000
502.580; 8046.750;  253.125;    0.000
502.715; 7907.750;  282.125;    0.000
502.849; 7842.750;  258.125;    0.000
502.983; 7723.750;  267.125;    0.000
503.117; 7630.750;  226.125;    0.000
503.251; 7680.750;  260.125;    0.000
503.385; 7513.750;  291.125;    0.000
503.520; 7460.750;  279.125;    0.000
503.654; 7129.750;  229.125;    0.000
503.788; 7338.750;  259.125;    0.000
503.922; 7113.750;  246.125;    0.000
504.056; 6978.750;  269.125;    0.000
504.190; 7103.750;  265.125;    0.000
504.324; 7120.750;  298.125;    0.000
504.458; 6998.750;  235.125;    0.000
504.592; 6942.750;  275.125;    0.000
504.726; 6714.750;  226.125;    0.000
504.860; 6829.750;  298.125;    0.000
504.994; 6677.750;  253.125;    0.000
505.128; 6632.750;  283.125;    0.000
505.262; 6476.750;  255.125;    0.000
505.396; 6344.750;  219.125;    0.000
505.530; 6298.750;  279.125;    0.000
505.664; 6154.750;  306.125;    0.000
505.798; 6341.750;  297.125;    0.000
505.932; 6187.750;  273.125;    0.000
506.066; 6175.750;  271.125;    0.000
506.199; 6020.750;  273.125;    0.000
506.333; 5992.750;  227.125;    0.000
506.467; 5876.750;  302.125;    0.000
506.601; 5735.750;  254.125;    0.000
506.735; 5961.750;  299.125;    0.000
506.869; 5847.750;  278.125;    0.000
507.002; 5709.750;  259.125;    0.000
507.136; 5819.750;  285.125;    0.000
507.270; 5727.750;  255.125;    0.000
507.404; 5778.750;  273.125;    0.000
507.537; 5743.750;  245.125;    0.000
507.671; 5720.750;  251.125;    0.000
507.805; 5561.750;  286.125;    0.000
507.939; 5613.750;  261.125;    0.000
508.072; 5668.750;  298.125;    0.000
508.206; 5511.750;  238.125;    0.000
508.340; 5643.750;  289.125;    0.000
508.473; 5600.750;  255.125;    0.000
508.607; 5408.750;  266.125;    0.000
508.740; 5511.750;  253.125;    0.000
508.874; 5479.750;  233.125;    0.000
509.008; 5559.750;  274.125;    0.000
509.141; 5435.750;  235.125;    0.000
509.275; 5441.750;  225.125;    0.000
509.408; 5377.750;  254.125;    0.000
509.542; 5341.750;  244.125;    0.000
509.675; 5479.750;  263.125;    0.000
509.809; 5429.750;  271.125;    0.000
509.942; 5308.750;  246.125;    0.000
510.076; 5304.750;  221.125;    0.000
510.209; 5418.750;  270.125;    0.000
510.343; 5313.750;  265.125;    0.000
510.476; 5290.750;  291.125;    0.000
510.610; 5229.750;  251.125;    0.000
510.743; 5297.750;  304.125;    0.000
510.877; 5296.750;  259.125;    0.000
511.010; 5306.750;  274.125;    0.000
511.143; 5180.750;  255.125;    0.000
511.277; 5228.750;  267.125;    0.000
511.410; 5314.750;  270.125;    0.000
511.543; 5153.750;  231.125;    0.000
511.677; 5114.750;  275.125;    0.000
511.810; 5121.750;  265.125;    0.000
511.943; 5185.750;  231.125;    0.000
512.077; 5114.750;  225.125;    0.000
512.210; 5232.750;  235.125;    0.000
512.343; 5024.750;  251.125;    0.000
512.476; 5096.750;  260.125;    0.000
512.610; 5152.750;  289.125;    0.000
512.743; 5166.750;  270.125;    0.000
512.876; 5119.750;  289.125;    0.000
513.009; 5181.750;  293.125;    0.000
513.142; 5129.750;  282.125;    0.000
513.276; 5155.750;  244.125;    0.000
513.409; 5184.750;  277.125;    0.000
513.542; 5177.750;  254.125;    0.000
513.675; 5086.750;  258.125;    0.000
513.808; 5032.750;  243.125;    0.000
513.941; 5109.750;  274.125;    0.000
514.074; 5075.750;  296.125;    0.000
514.207; 5122.750;  267.125;    0.000
514.340; 5098.750;  283.125;    0.000
514.474; 5151.750;  255.125;    0.000
514.607; 5156.750;  291.125;    0.000
514.740; 5165.750;  296.125;    0.000
514.873; 5390.750;  275.125;    0.000
515.006; 5306.750;  313.125;    0.000
515.139; 5223.750;  253.125;    0.000
515.272; 5419.750;  263.125;    0.000
515.404; 5596.750;  258.125;    0.000
515.537; 5538.750;  285.125;    0.000
515.670; 5432.750;  286.125;    0.000
515.803; 5341.750;  266.125;    0.000
515.936; 5491.750;  251.125;    0.000
516.069; 5521.750;  231.125;    0.000
516.202; 5494.750;  278.125;    0.000
516.335; 5735.750;  295.125;    0.000
516.468; 6046.750;  239.125;    0.000
516.600; 6787.750;  229.125;    0.000
516.733; 8310.750;  301.125;    0.000
516.866; 8386.750;  287.125;    0.000
516.999; 7715.750;  265.125;    0.000
517.132; 9184.750;  291.125;    0.000
517.264;12589.750;  262.125;    0.000
517.397;12318.750;  292.125;    0.000
517.530; 9596.750;  299.125;    0.000
517.663; 8105.750;  268.125;    0.000
517.795; 7659.750;  323.125;    0.000
517.928; 7408.750;  281.125;    0.000
518.061; 7484.750;  242.125;    0.000
518.193; 9271.750;  279.125;    0.000
518.326;14556.750;  288.125;    0.000
518.459;15479.750;  251.125;    0.000
518.591;12197.750;  314.125;    0.000
518.724; 9111.750;  279.125;    0.000
518.857; 7971.750;  245.125;    0.000
518.989; 7383.750;  290.125;    0.000
519.122; 6661.750;  319.125;    0.000
519.254; 6590.750;  295.125;    0.000
519.387; 6297.750;  271.125;    0.000
519.519; 6099.750;  312.125;    0.000
519.652; 5919.750;  289.125;    0.000
519.784; 5774.750;  311.125;    0.000
519.917; 5742.750;  283.125;    0.000
520.049; 5580.750;  281.125;    0.000
520.182; 5493.750;  242.125;    0.000
520.314; 5479.750;  310.125;    0.000
520.447; 5278.750;  215.125;    0.000
520.579; 5318.750;  277.125;    0.000
520.712; 5331.750;  224.125;    0.000
520.844; 5250.750;  293.125;    0.000
520.976; 5131.750;  281.125;    0.000
521.109; 5082.750;  279.125;    0.000
521.241; 5018.750;  318.125;    0.000
521.373; 4929.750;  242.125;    0.000
521.506; 4964.750;  246.125;    0.000
521.638; 4897.750;  312.125;    0.000
521.770; 4862.750;  257.125;    0.000
521.903; 4836.750;  295.125;    0.000
522.035; 4828.750;  283.125;    0.000
522.167; 4755.750;  281.125;    0.000
522.300; 4776.750;  262.125;    0.000
522.432; 4632.750;  272.125;    0.000
522.564; 4583.750;  277.125;    0.000
522.696; 4601.750;  295.125;    0.000
522.828; 4723.750;  284.125;    0.000
522.961; 4561.750;  295.125;    0.000
523.093; 4449.750;  282.125;    0.000
523.225; 4651.750;  270.125;    0.000
523.357; 4508.750;  285.125;    0.000
523.489; 4545.750;  292.125;    0.000
523.621; 4606.750;  285.125;    0.000
523.753; 4566.750;  273.125;    0.000
523.885; 4431.750;  271.125;    0.000
524.018; 4371.750;  276.125;    0.000
524.150; 4402.750;  320.125;    0.000
524.282; 4436.750;  304.125;    0.000
524.414; 4452.750;  302.125;    0.000
524.546; 4297.750;  305.125;    0.000
524.678; 4353.750;  264.125;    0.000
524.810; 4358.750;  258.125;    0.000
524.942; 4363.750;  252.125;    0.000
525.074; 4235.750;  275.125;    0.000
525.206; 4354.750;  286.125;    0.000
525.338; 4222.750;  280.125;    0.000
525.469; 4378.750;  267.125;    0.000
525.601; 4215.750;  266.125;    0.000
525.733; 4197.750;  283.125;    0.000
525.865; 4236.750;  273.125;    0.000
525.997; 4306.750;  286.125;    0.000
526.129; 4250.750;  249.125;    0.000
526.261; 4255.750;  233.125;    0.000
526.393; 4186.750;  257.125;    0.000
526.524; 4171.750;  184.125;    0.000
526.656; 4196.750;  259.125;    0.000
526.788; 4228.750;  268.125;    0.000
526.920; 4183.750;  262.125;    0.000
527.052; 4130.750;  250.125;    0.000
527.183; 4161.750;  264.125;    0.000
527.315; 4193.750;  301.125;    0.000
527.447; 4157.750;  262.125;    0.000
527.578; 4067.750;  267.125;    0.000
527.710; 3984.750;  299.125;    0.000
527.842; 4132.750;  266.125;    0.000
527.973; 4044.750;  240.125;    0.000
528.105; 4218.750;  275.125;    0.000
528.237; 3999.750;  239.125;    0.000
528.368; 3995.750;  275.125;    0.000
528.500; 4151.750;  271.125;    0.000
528.632; 4085.750;  252.125;    0.000
528.763; 4104.750;  253.125;    0.000
528.895; 4095.750;  259.125;    0.000
529.026; 4077.750;  209.125;    0.000
529.158; 3997.750;  291.125;    0.000
529.289; 4098.750;  280.125;    0.000
529.421; 4235.750;  274.125;    0.000
529.552; 4049.750;  253.125;    0.000
529.684; 4144.750;  310.125;    0.000
529.815; 4130.750;  305.125;    0.000
529.947; 4028.750;  234.125;    0.000
530.078; 4095.750;  259.125;    0.000
530.210; 3992.750;  264.125;    0.000
530.341; 3985.750;  267.125;    0.000
530.472; 4068.750;  232.125;    0.000
530.604; 4063.750;  293.125;    0.000
530.735; 4103.750;  275.125;    0.000
530.867; 4153.750;  280.125;    0.000
530.998; 4116.750;  295.125;    0.000
531.129; 4161.750;  274.125;    0.000
531.260; 4169.750;  272.125;    0.000
531.392; 4119.750;  275.125;    0.000
531.523; 4108.750;  244.125;    0.000
531.654; 4245.750;  289.125;    0.000
531.786; 4350.750;  259.125;    0.000
531.917; 4214.750;  286.125;    0.000
532.048; 4227.750;  293.125;    0.000
532.179; 4315.750;  288.125;    0.000
532.311; 4164.750;  296.125;    0.000
532.442; 4126.750;  277.125;    0.000
532.573; 4096.750;  273.125;    0.000
532.704; 4055.750;  308.125;    0.000
532.835; 4027.750;  308.125;    0.000
532.966; 4157.750;  274.125;    0.000
533.097; 4092.750;  310.125;    0.000
533.229; 4079.750;  294.125;    0.000
533.360; 4017.750;  324.125;    0.000
533.491; 4117.750;  278.125;    0.000
533.622; 4088.750;  319.125;    0.000
533.753; 4107.750;  303.125;    0.000
533.884; 4161.750;  269.125;    0.000
534.015; 4048.750;  266.125;    0.000
534.146; 4182.750;  283.125;    0.000
534.277; 4121.750;  299.125;    0.000
534.408; 4159.750;  265.125;    0.000
534.539; 4114.750;  310.125;    0.000
534.670; 4063.750;  319.125;    0.000
534.801; 4080.750;  281.125;    0.000
534.932; 3992.750;  239.125;    0.000
535.063; 4023.750;  276.125;    0.000
535.194; 4140.750;  361.125;    0.000
535.324; 4035.750;  283.125;    0.000
535.455; 4017.750;  282.125;    0.000
535.586; 4153.750;  331.125;    0.000
535.717; 3943.750;  262.125;    0.000
535.848; 4119.750;  308.125;    0.000
535.979; 4005.750;  273.125;    0.000
536.109; 3990.750;  277.125;    0.000
536.240; 3922.750;  293.125;    0.000
536.371; 4007.750;  295.125;    0.000
536.502; 4017.750;  330.125;    0.000
536.632; 4036.750;  280.125;    0.000
536.763; 4022.750;  332.125;    0.000
536.894; 3994.750;  334.125;    0.000
537.025; 3851.750;  295.125;    0.000
537.155; 3990.750;  321.125;    0.000
537.286; 3957.750;  292.125;    0.000
537.417; 3922.750;  314.125;    0.000
537.547; 3900.750;  287.125;    0.000
537.678; 3925.750;  287.125;    0.000
537.808; 3928.750;  278.125;    0.000
537.939; 3950.750;  304.125;    0.000
538.070; 3982.750;  303.125;    0.000
538.200; 3937.750;  279.125;    0.000
538.331; 3972.750;  321.125;    0.000
538.461; 3943.750;  313.125;    0.000
538.592; 3946.750;  290.125;    0.000
538.722; 3996.750;  285.125;    0.000
538.853; 3938.750;  261.125;    0.000
538.983; 3879.750;  280.125;    0.000
539.114; 3851.750;  310.125;    0.000
539.244; 3948.750;  281.125;    0.000
539.375; 3881.750;  292.125;    0.000
539.505; 3976.750;  286.125;    0.000
539.636; 3931.750;  276.125;    0.000
539.766; 3897.750;  287.125;    0.000
539.896; 3925.750;  292.125;    0.000
540.027; 3942.750;  262.125;    0.000
540.157; 3925.750;  269.125;    0.000
540.287; 3935.750;  282.125;    0.000
540.418; 3968.750;  269.125;    0.000
540.548; 3998.750;  328.125;    0.000
540.678; 3904.750;  271.125;    0.000
540.809; 3960.750;  272.125;    0.000
540.939; 4081.750;  299.125;    0.000
541.069; 3951.750;  266.125;    0.000
541.200; 3964.750;  242.125;    0.000
541.330; 3911.750;  257.125;    0.000
541.460; 4057.750;  270.125;    0.000
541.590; 4018.750;  287.125;    0.000
541.720; 3903.750;  255.125;    0.000
541.851; 3975.750;  273.125;    0.000
541.981; 4017.750;  244.125;    0.000
542.111; 4152.750;  263.125;    0.000
542.241; 4104.750;  271.125;    0.000
542.371; 4181.750;  263.125;    0.000
542.501; 4189.750;  274.125;    0.000
542.631; 4302.750;  288.125;    0.000
542.761; 4203.750;  261.125;    0.000
542.891; 4191.750;  253.125;    0.000
543.021; 4254.750;  249.125;    0.000
543.151; 4260.750;  261.125;    0.000
543.281; 4228.750;  256.125;    0.000
543.411; 4093.750;  290.125;    0.000
543.542; 4201.750;  278.125;    0.000
543.671; 4162.750;  238.125;    0.000
543.801; 4085.750;  256.125;    0.000
543.931; 4197.750;  254.125;    0.000
544.061; 4178.750;  237.125;    0.000
544.191; 4084.750;  245.125;    0.000
544.321; 4120.750;  267.125;    0.000
544.451; 4092.750;  262.125;    0.000
544.581; 4146.750;  221.125;    0.000
544.711; 4296.750;  252.125;    0.000
544.841; 4249.750;  264.125;    0.000
544.970; 4305.750;  315.125;    0.000
545.100; 4397.750;  245.125;    0.000
545.230; 4466.750;  276.125;    0.000
545.360; 4375.750;  278.125;    0.000
545.490; 4292.750;  268.125;    0.000
545.619; 4232.750;  237.125;    0.000
545.749; 4252.750;  228.125;    0.000
545.879; 4050.750;  234.125;    0.000
546.009; 4089.750;  287.125;    0.000
546.138; 4101.750;  222.125;    0.000
546.268; 4105.750;  228.125;    0.000
546.398; 4107.750;  244.125;    0.000
546.527; 4140.750;  233.125;    0.000
546.657; 4006.750;  189.125;    0.000
546.786; 4186.750;  247.125;    0.000
546.916; 4146.750;  244.125;    0.000
547.046; 4155.750;  214.125;    0.000
547.175; 4147.750;  242.125;    0.000
547.305; 4120.750;  252.125;    0.000
547.434; 4096.750;  191.125;    0.000
547.564; 4154.750;  208.125;    0.000
547.693; 4099.750;  213.125;    0.000
547.823; 4109.750;  209.125;    0.000
547.953; 4143.750;  250.125;    0.000
548.082; 4093.750;  231.125;    0.000
548.211; 4132.750;  226.125;    0.000
548.341; 4063.750;  254.125;    0.000
548.470; 4016.750;  266.125;    0.000
548.600; 4025.750;  229.125;    0.000
548.729; 4144.750;  225.125;    0.000
548.859; 4023.750;  185.125;    0.000
548.988; 4147.750;  225.125;    0.000
549.117; 4197.750;  241.125;    0.000
549.247; 4036.750;  236.125;    0.000
549.376; 4179.750;  220.125;    0.000
549.505; 4125.750;  254.125;    0.000
549.635; 4311.750;  268.125;    0.000
549.764; 4236.750;  194.125;    0.000
549.893; 4155.750;  232.125;    0.000
550.023; 4123.750;  222.125;    0.000
550.152; 4180.750;  223.125;    0.000
550.281; 4137.750;  210.125;    0.000
550.410; 4195.750;  197.125;    0.000
550.539; 4257.750;  222.125;    0.000
550.669; 4227.750;  245.125;    0.000
550.798; 4227.750;  265.125;    0.000
550.927; 4216.750;  249.125;    0.000
551.056; 4295.750;  184.125;    0.000
551.185; 4290.750;  247.125;    0.000
551.314; 4227.750;  258.125;    0.000
551.443; 4195.750;  224.125;    0.000
551.573; 4169.750;  204.125;    0.000
551.702; 4197.750;  220.125;    0.000
551.831; 4264.750;  287.125;    0.000
551.960; 4167.750;  259.125;    0.000
552.089; 4333.750;  222.125;    0.000
552.218; 4198.750;  254.125;    0.000
552.347; 4410.750;  260.125;    0.000
552.476; 4281.750;  251.125;    0.000
552.605; 4445.750;  229.125;    0.000
552.734; 4436.750;  261.125;    0.000
552.863; 4534.750;  225.125;    0.000
552.992; 4494.750;  202.125;    0.000
553.121; 4516.750;  193.125;    0.000
553.249; 4450.750;  224.125;    0.000
553.378; 4487.750;  274.125;    0.000
553.507; 4372.750;  248.125;    0.000
553.636; 4378.750;  203.125;    0.000
553.765; 4283.750;  224.125;    0.000
553.894; 4390.750;  246.125;    0.000
554.023; 4299.750;  229.125;    0.000
554.151; 4321.750;  216.125;    0.000
554.280; 4234.750;  223.125;    0.000
554.409; 4225.750;  240.125;    0.000
554.538; 4276.750;  277.125;    0.000
554.666; 4201.750;  244.125;    0.000
554.795; 4252.750;  240.125;    0.000
554.924; 4186.750;  257.125;    0.000
555.052; 4180.750;  266.125;    0.000
555.181; 4307.750;  244.125;    0.000
555.310; 4334.750;  262.125;    0.000
555.439; 4301.750;  260.125;    0.000
555.567; 4260.750;  234.125;    0.000
555.696; 4165.750;  237.125;    0.000
555.824; 4217.750;  232.125;    0.000
555.953; 4238.750;  279.125;    0.000
556.082; 4170.750;  234.125;    0.000
556.210; 4063.750;  235.125;    0.000
556.339; 4270.750;  198.125;    0.000
556.467; 4138.750;  216.125;    0.000
556.596; 4162.750;  273.125;    0.000
556.724; 4160.750;  245.125;    0.000
556.853; 4183.750;  241.125;    0.000
556.981; 4152.750;  219.125;    0.000
557.110; 4114.750;  242.125;    0.000
557.238; 4144.750;  202.125;    0.000
557.367; 4119.750;  254.125;    0.000
557.495; 4145.750;  260.125;    0.000
557.623; 4127.750;  207.125;    0.000
557.752; 4232.750;  219.125;    0.000
557.880; 4067.750;  209.125;    0.000
558.008; 4141.750;  243.125;    0.000
558.137; 4114.750;  244.125;    0.000
558.265; 4207.750;  221.125;    0.000
558.393; 4193.750;  297.125;    0.000
558.522; 4073.750;  232.125;    0.000
558.650; 4206.750;  299.125;    0.000
558.778; 4092.750;  210.125;    0.000
558.906; 4037.750;  240.125;    0.000
559.035; 4116.750;  252.125;    0.000
559.163; 4122.750;  246.125;    0.000
559.291; 4050.750;  213.125;    0.000
559.419; 4127.750;  221.125;    0.000
559.548; 4088.750;  208.125;    0.000
559.676; 4135.750;  254.125;    0.000
559.804; 4208.750;  213.125;    0.000
559.932; 4168.750;  208.125;    0.000
560.060; 4233.750;  276.125;    0.000
560.188; 4181.750;  278.125;    0.000
560.316; 4281.750;  217.125;    0.000
560.444; 4229.750;  254.125;    0.000
560.572; 4405.750;  226.125;    0.000
560.700; 4384.750;  282.125;    0.000
560.828; 4424.750;  211.125;    0.000
560.956; 4368.750;  264.125;    0.000
561.085; 4462.750;  295.125;    0.000
561.212; 4390.750;  229.125;    0.000
561.340; 4369.750;  259.125;    0.000
561.468; 4443.750;  253.125;    0.000
561.596; 4383.750;  240.125;    0.000
561.724; 4546.750;  259.125;    0.000
561.852; 4356.750;  224.125;    0.000
561.980; 4360.750;  251.125;    0.000
562.108; 4369.750;  214.125;    0.000
562.236; 4501.750;  258.125;    0.000
562.364; 4532.750;  237.125;    0.000
562.492; 4435.750;  228.125;    0.000
562.619; 4557.750;  223.125;    0.000
562.747; 4586.750;  263.125;    0.000
562.875; 4536.750;  257.125;    0.000
563.003; 4491.750;  216.125;    0.000
563.130; 4479.750;  190.125;    0.000
563.258; 4634.750;  225.125;    0.000
563.386; 4734.750;  259.125;    0.000
563.514; 4867.750;  264.125;    0.000
563.641; 4807.750;  230.125;    0.000
563.769; 4779.750;  257.125;    0.000
563.897; 4920.750;  210.125;    0.000
564.024; 5028.750;  221.125;    0.000
564.152; 5043.750;  256.125;    0.000
564.280; 5095.750;  225.125;    0.000
564.407; 4943.750;  262.125;    0.000
564.535; 4973.750;  235.125;    0.000
564.662; 5121.750;  238.125;    0.000
564.790; 5033.750;  248.125;    0.000
564.917; 5205.750;  214.125;    0.000
565.045; 5283.750;  253.125;    0.000
565.173; 5166.750;  225.125;    0.000
565.300; 5236.750;  261.125;    0.000
565.428; 5338.750;  218.125;    0.000
565.555; 5364.750;  245.125;    0.000
565.682; 5345.750;  242.125;    0.000
565.810; 5556.750;  228.125;    0.000
565.937; 5619.750;  230.125;    0.000
566.065; 5912.750;  251.125;    0.000
566.192; 5859.750;  196.125;    0.000
566.320; 5950.750;  217.125;    0.000
566.447; 6179.750;  224.125;    0.000
566.574; 6107.750;  221.125;    0.000
566.702; 6385.750;  221.125;    0.000
566.829; 6317.750;  252.125;    0.000
566.956; 6402.750;  214.125;    0.000
567.083; 6437.750;  204.125;    0.000
567.211; 6429.750;  216.125;    0.000
567.338; 6480.750;  228.125;    0.000
567.465; 6472.750;  208.125;    0.000
567.593; 6604.750;  205.125;    0.000
567.720; 6454.750;  194.125;    0.000
567.847; 6556.750;  268.125;    0.000
567.974; 6741.750;  198.125;    0.000
568.101; 6927.750;  224.125;    0.000
568.228; 7775.750;  236.125;    0.000
568.356; 8088.750;  207.125;    0.000
568.483; 7843.750;  220.125;    0.000
568.610; 7836.750;  181.125;    0.000
568.737; 8909.750;  216.125;    0.000
568.864; 9923.750;  258.125;    0.000
568.991; 9509.750;  203.125;    0.000
569.118; 8447.750;  232.125;    0.000
569.245; 7557.750;  192.125;    0.000
569.372; 7250.750;  226.125;    0.000
569.499; 6785.750;  211.125;    0.000
569.626; 6484.750;  247.125;    0.000
569.753; 6399.750;  248.125;    0.000
569.880; 6370.750;  226.125;    0.000
570.007; 6098.750;  215.125;    0.000
570.134; 5876.750;  205.125;    0.000
570.261; 5811.750;  187.125;    0.000
570.388; 5731.750;  258.125;    0.000
570.515; 5724.750;  241.125;    0.000
570.642; 5586.750;  211.125;    0.000
570.768; 5539.750;  228.125;    0.000
570.895; 5511.750;  229.125;    0.000
571.022; 5377.750;  203.125;    0.000
571.149; 5479.750;  206.125;    0.000
571.276; 5266.750;  191.125;    0.000
571.402; 5265.750;  218.125;    0.000
571.529; 5107.750;  192.125;    0.000
571.656; 5146.750;  209.125;    0.000
571.783; 5087.750;  181.125;    0.000
571.909; 5192.750;  251.125;    0.000
572.036; 4992.750;  225.125;    0.000
572.163; 5033.750;  214.125;    0.000
572.289; 5004.750;  252.125;    0.000
572.416; 4867.750;  220.125;    0.000
572.543; 4911.750;  225.125;    0.000
572.669; 4785.750;  226.125;    0.000
572.796; 4804.750;  231.125;    0.000
572.922; 4825.750;  258.125;    0.000
573.049; 4739.750;  202.125;    0.000
573.176; 4807.750;  254.125;    0.000
573.302; 4714.750;  215.125;    0.000
573.429; 4791.750;  251.125;    0.000
573.555; 4738.750;  221.125;    0.000
573.682; 4729.750;  227.125;    0.000
573.808; 4653.750;  259.125;    0.000
573.935; 4606.750;  233.125;    0.000
574.061; 4655.750;  241.125;    0.000
574.188; 4602.750;  238.125;    0.000
574.314; 4622.750;  221.125;    0.000
574.440; 4622.750;  221.125;    0.000
574.567; 4648.750;  216.125;    0.000
574.693; 4653.750;  224.125;    0.000
574.820; 4684.750;  199.125;    0.000
574.946; 4708.750;  248.125;    0.000
575.072; 4630.750;  220.125;    0.000
575.198; 4557.750;  262.125;    0.000
575.325; 4508.750;  232.125;    0.000
575.451; 4591.750;  225.125;    0.000
575.577; 4633.750;  216.125;    0.000
575.704; 4576.750;  248.125;    0.000
575.830; 4504.750;  227.125;    0.000
575.956; 4569.750;  206.125;    0.000
576.082; 4605.750;  222.125;    0.000
576.208; 4554.750;  206.125;    0.000
576.335; 4475.750;  256.125;    0.000
576.461; 4489.750;  247.125;    0.000
576.587; 4420.750;  219.125;    0.000
576.713; 4574.750;  215.125;    0.000
576.839; 4516.750;  225.125;    0.000
576.965; 4553.750;  230.125;    0.000
577.091; 4498.750;  235.125;    0.000
577.217; 4559.750;  235.125;    0.000
577.343; 4460.750;  233.125;    0.000
577.469; 4581.750;  242.125;    0.000
577.596; 4588.750;  241.125;    0.000
577.722; 4566.750;  255.125;    0.000
577.848; 4477.750;  235.125;    0.000
577.974; 4427.750;  210.125;    0.000
578.099; 4586.750;  239.125;    0.000
578.225; 4583.750;  258.125;    0.000
578.351; 4570.750;  209.125;    0.000
578.477; 4610.750;  255.125;    0.000
578.603; 4641.750;  213.125;    0.000
578.729; 4602.750;  221.125;    0.000
578.855; 4639.750;  209.125;    0.000
578.981; 4572.750;  206.125;    0.000
579.107; 4684.750;  221.125;    0.000
579.232; 4682.750;  206.125;    0.000
579.358; 4584.750;  226.125;    0.000
579.484; 4667.750;  244.125;    0.000
579.610; 4755.750;  261.125;    0.000
579.735; 4667.750;  270.125;    0.000
579.861; 4642.750;  255.125;    0.000
579.987; 4705.750;  249.125;    0.000
580.113; 4719.750;  260.125;    0.000
580.238; 4709.750;  206.125;    0.000
580.364; 4813.750;  249.125;    0.000
580.490; 4800.750;  225.125;    0.000
580.615; 4754.750;  266.125;    0.000
580.741; 4929.750;  224.125;    0.000
580.867; 4766.750;  251.125;    0.000
580.992; 4904.750;  270.125;    0.000
581.118; 4947.750;  248.125;    0.000
581.243; 4970.750;  251.125;    0.000
581.369; 4864.750;  192.125;    0.000
581.494; 4946.750;  259.125;    0.000
581.620; 4947.750;  245.125;    0.000
581.745; 4879.750;  232.125;    0.000
581.871; 5124.750;  243.125;    0.000
581.996; 5159.750;  216.125;    0.000
582.122; 5098.750;  263.125;    0.000
582.247; 5181.750;  254.125;    0.000
582.373; 5183.750;  232.125;    0.000
582.498; 5233.750;  275.125;    0.000
582.624; 5307.750;  260.125;    0.000
582.749; 5256.750;  251.125;    0.000
582.874; 5490.750;  245.125;    0.000
583.000; 5325.750;  278.125;    0.000
583.125; 5426.750;  211.125;    0.000
583.250; 5485.750;  246.125;    0.000
583.376; 5549.750;  259.125;    0.000
583.501; 5586.750;  254.125;    0.000
583.626; 5560.750;  209.125;    0.000
583.751; 5664.750;  239.125;    0.000
583.877; 5744.750;  255.125;    0.000
584.002; 5822.750;  263.125;    0.000
584.127; 5862.750;  205.125;    0.000
584.252; 5927.750;  196.125;    0.000
584.377; 6151.750;  249.125;    0.000
584.503; 6153.750;  219.125;    0.000
584.628; 6284.750;  243.125;    0.000
584.753; 6286.750;  250.125;    0.000
584.878; 6415.750;  208.125;    0.000
585.003; 6391.750;  234.125;    0.000
585.128; 6694.750;  207.125;    0.000
585.253; 6889.750;  219.125;    0.000
585.378; 6948.750;  205.125;    0.000
585.503; 7173.750;  256.125;    0.000
585.628; 7341.750;  217.125;    0.000
585.753; 7404.750;  213.125;    0.000
585.878; 7476.750;  147.125;    0.000
586.003; 7917.750;  256.125;    0.000
586.128; 8114.750;  214.125;    0.000
586.253; 8186.750;  254.125;    0.000
586.378; 8471.750;  252.125;    0.000
586.503; 8907.750;  219.125;    0.000
586.628; 9188.750;  226.125;    0.000
586.753; 9536.750;  237.125;    0.000
586.878; 9964.750;  185.125;    0.000
587.003;10285.750;  248.125;    0.000
587.127;10803.750;  237.125;    0.000
587.252;11541.750;  221.125;    0.000
587.377;12109.750;  244.125;    0.000
587.502;12871.750;  260.125;    0.000
587.627;13660.750;  232.125;    0.000
587.751;14557.750;  250.125;    0.000
587.876;15954.750;  234.125;    0.000
588.001;17136.750;  248.125;    0.000
588.125;19125.750;  236.125;    0.000
588.250;21033.750;  192.125;    0.000
588.375;24130.750;  265.125;    0.000
588.499;27798.750;  235.125;    0.000
588.624;32911.750;  212.125;    0.000
588.749;39438.750;  214.125;    0.000
588.873;45564.750;  236.125;    0.000
588.998;49872.750;  230.125;    0.000
589.122;52064.750;  231.125;    0.000
589.247;50235.750;  250.125;    0.000
589.372;47148.750;  247.125;    0.000
589.496;47129.750;  230.125;    0.000
589.621;49233.750;  237.125;    0.000
589.745;47855.750;  277.125;    0.000
589.870;41553.750;  283.125;    0.000
589.994;34863.750;  263.125;    0.000
590.118;29898.750;  239.125;    0.000
590.243;25790.750;  218.125;    0.000
590.367;22667.750;  226.125;    0.000
590.492;20822.750;  269.125;    0.000
590.616;18627.750;  205.125;    0.000
590.740;17130.750;  243.125;    0.000
590.865;15942.750;  281.125;    0.000
590.989;15017.750;  233.125;    0.000
591.114;13956.750;  222.125;    0.000
591.238;13333.750;  204.125;    0.000
591.362;12676.750;  283.125;    0.000
591.486;11946.750;  236.125;    0.000
591.611;11292.750;  228.125;    0.000
591.735;10969.750;  249.125;    0.000
591.859;10436.750;  202.125;    0.000
591.983;10337.750;  257.125;    0.000
592.107; 9834.750;  230.125;    0.000
592.232; 9631.750;  266.125;    0.000
592.356; 9392.750;  232.125;    0.000
592.480; 8981.750;  245.125;    0.000
592.604; 8830.750;  254.125;    0.000
592.728; 8492.750;  233.125;    0.000
592.852; 8419.750;  213.125;    0.000
592.976; 8221.750;  234.125;    0.000
593.100; 7866.750;  246.125;    0.000
593.224; 7942.750;  305.125;    0.000
593.349; 7799.750;  240.125;    0.000
593.473; 7499.750;  206.125;    0.000
593.597; 7574.750;  243.125;    0.000
593.721; 7368.750;  247.125;    0.000
593.844; 7220.750;  230.125;    0.000
593.968; 7145.750;  226.125;    0.000
594.092; 6955.750;  193.125;    0.000
594.216; 6952.750;  237.125;    0.000
594.340; 6795.750;  235.125;    0.000
594.464; 6563.750;  225.125;    0.000
594.588; 6544.750;  269.125;    0.000
594.712; 6495.750;  242.125;    0.000
594.836; 6289.750;  240.125;    0.000
594.959; 6201.750;  255.125;    0.000
595.083; 6143.750;  258.125;    0.000
595.207; 6081.750;  264.125;    0.000
595.331; 6035.750;  215.125;    0.000
595.455; 6030.750;  234.125;    0.000
595.578; 5864.750;  215.125;    0.000
595.702; 5797.750;  259.125;    0.000
595.826; 5580.750;  232.125;    0.000
595.949; 5663.750;  251.125;    0.000
596.073; 5576.750;  197.125;    0.000
596.197; 5615.750;  239.125;    0.000
596.320; 5382.750;  229.125;    0.000
596.444; 5413.750;  264.125;    0.000
596.568; 5429.750;  207.125;    0.000
596.691; 5157.750;  234.125;    0.000
596.815; 5197.750;  241.125;    0.000
596.938; 5098.750;  244.125;    0.000
597.062; 5176.750;  210.125;    0.000
597.186; 5006.750;  247.125;    0.000
597.309; 5010.750;  215.125;    0.000
597.433; 5058.750;  266.125;    0.000
597.556; 4888.750;  234.125;    0.000
597.680; 4807.750;  261.125;    0.000
597.803; 4838.750;  239.125;    0.000
597.926; 4890.750;  251.125;    0.000
598.050; 4744.750;  227.125;    0.000
598.173; 4799.750;  247.125;    0.000
598.297; 4655.750;  244.125;    0.000
598.420; 4752.750;  243.125;    0.000
598.543; 4660.750;  237.125;    0.000
598.667; 4685.750;  239.125;    0.000
598.790; 4619.750;  217.125;    0.000
598.913; 4629.750;  244.125;    0.000
599.037; 4603.750;  249.125;    0.000
599.160; 4567.750;  222.125;    0.000
599.283; 4576.750;  235.125;    0.000
599.406; 4521.750;  228.125;    0.000
599.530; 4486.750;  234.125;    0.000
599.653; 4413.750;  228.125;    0.000
599.776; 4419.750;  263.125;    0.000
599.899; 4465.750;  197.125;    0.000
600.022; 4430.750;  224.125;    0.000
600.145; 4360.750;  211.125;    0.000
600.269; 4364.750;  246.125;    0.000
600.392; 4419.750;  233.125;    0.000
600.515; 4254.750;  266.125;    0.000
600.638; 4260.750;  246.125;    0.000
600.761; 4193.750;  213.125;    0.000
600.884; 4127.750;  279.125;    0.000
601.007; 4291.750;  268.125;    0.000
601.130; 4182.750;  203.125;    0.000
601.253; 4221.750;  241.125;    0.000
601.376; 4160.750;  248.125;    0.000
601.499; 4141.750;  241.125;    0.000
601.622; 4127.750;  266.125;    0.000
601.745; 4160.750;  237.125;    0.000
601.868; 4070.750;  256.125;    0.000
601.991; 4179.750;  260.125;    0.000
602.113; 4096.750;  246.125;    0.000
602.236; 3975.750;  243.125;    0.000
602.359; 4075.750;  220.125;    0.000
602.482; 4028.750;  236.125;    0.000
602.605; 4097.750;  216.125;    0.000
602.728; 4045.750;  247.125;    0.000
602.850; 4117.750;  255.125;    0.000
602.973; 3967.750;  224.125;    0.000
603.096; 3963.750;  258.125;    0.000
603.219; 3980.750;  222.125;    0.000
603.341; 3978.750;  235.125;    0.000
603.464; 4000.750;  223.125;    0.000
603.587; 4043.750;  250.125;    0.000
603.709; 3969.750;  229.125;    0.000
603.832; 3929.750;  285.125;    0.000
603.955; 3956.750;  225.125;    0.000
604.077; 3925.750;  235.125;    0.000
604.200; 3853.750;  209.125;    0.000
604.323; 3996.750;  240.125;    0.000
604.445; 3894.750;  198.125;    0.000
604.568; 3861.750;  230.125;    0.000
604.690; 3850.750;  225.125;    0.000
604.813; 3890.750;  248.125;    0.000
604.935; 3851.750;  204.125;    0.000
605.058; 3838.750;  191.125;    0.000
605.180; 3778.750;  237.125;    0.000
605.303; 3888.750;  224.125;    0.000
605.425; 3784.750;  244.125;    0.000
605.547; 3767.750;  268.125;    0.000
605.670; 3788.750;  211.125;    0.000
605.792; 3784.750;  266.125;    0.000
605.915; 3747.750;  202.125;    0.000
606.037; 3819.750;  236.125;    0.000
606.159; 3801.750;  234.125;    0.000
606.282; 3833.750;  223.125;    0.000
606.404; 3785.750;  217.125;    0.000
606.526; 3743.750;  221.125;    0.000
606.648; 3685.750;  204.125;    0.000
606.771; 3774.750;  265.125;    0.000
606.893; 3718.750;  211.125;    0.000
607.015; 3742.750;  206.125;    0.000
607.137; 3749.750;  222.125;    0.000
607.260; 3674.750;  228.125;    0.000
607.382; 3800.750;  202.125;    0.000
607.504; 3666.750;  257.125;    0.000
607.626; 3708.750;  249.125;    0.000
607.748; 3790.750;  233.125;    0.000
607.870; 3726.750;  222.125;    0.000
607.992; 3677.750;  227.125;    0.000
608.114; 3648.750;  228.125;    0.000
608.237; 3627.750;  254.125;    0.000
608.359; 3634.750;  216.125;    0.000
608.481; 3666.750;  197.125;    0.000
608.603; 3682.750;  209.125;    0.000
608.725; 3725.750;  220.125;    0.000
608.847; 3611.750;  259.125;    0.000
608.969; 3648.750;  242.125;    0.000
609.090; 3580.750;  218.125;    0.000
609.212; 3652.750;  200.125;    0.000
609.334; 3598.750;  212.125;    0.000
609.456; 3597.750;  231.125;    0.000
609.578; 3599.750;  249.125;    0.000
609.700; 3585.750;  185.125;    0.000
609.822; 3565.750;  200.125;    0.000
609.944; 3618.750;  236.125;    0.000
610.065; 3628.750;  255.125;    0.000
610.187; 3577.750;  208.125;    0.000
610.309; 3596.750;  202.125;    0.000
610.431; 3604.750;  232.125;    0.000
610.552; 3530.750;  232.125;    0.000
610.674; 3523.750;  217.125;    0.000
610.796; 3580.750;  186.125;    0.000
610.918; 3539.750;  211.125;    0.000
611.039; 3537.750;  244.125;    0.000
611.161; 3556.750;  202.125;    0.000
611.282; 3479.750;  212.125;    0.000
611.404; 3633.750;  235.125;    0.000
611.526; 3479.750;  213.125;    0.000
611.647; 3432.750;  248.125;    0.000
611.769; 3475.750;  205.125;    0.000
611.890; 3589.750;  224.125;    0.000
612.012; 3516.750;  189.125;    0.000
612.133; 3571.750;  186.125;    0.000
612.255; 3461.750;  246.125;    0.000
612.377; 3497.750;  230.125;    0.000
612.498; 3518.750;  196.125;    0.000
612.619; 3599.750;  234.125;    0.000
612.741; 3611.750;  221.125;    0.000
612.862; 3622.750;  227.125;    0.000
612.984; 3428.750;  189.125;    0.000
613.105; 3498.750;  232.125;    0.000
613.226; 3441.750;  199.125;    0.000
613.348; 3521.750;  260.125;    0.000
613.469; 3514.750;  217.125;    0.000
613.590; 3499.750;  236.125;    0.000
613.712; 3424.750;  226.125;    0.000
613.833; 3418.750;  231.125;    0.000
613.954; 3442.750;  236.125;    0.000
614.076; 3454.750;  236.125;    0.000
614.197; 3465.750;  228.125;    0.000
614.318; 3369.750;  207.125;    0.000
614.439; 3496.750;  237.125;    0.000
614.560; 3500.750;  202.125;    0.000
614.682; 3498.750;  230.125;    0.000
614.803; 3566.750;  236.125;    0.000
614.924; 3534.750;  257.125;    0.000
615.045; 3471.750;  228.125;    0.000
615.166; 3663.750;  221.125;    0.000
615.287; 3724.750;  199.125;    0.000
615.408; 4232.750;  228.125;    0.000
615.529; 4350.750;  200.125;    0.000
615.650; 4073.750;  224.125;    0.000
615.771; 3987.750;  202.125;    0.000
615.892; 3873.750;  215.125;    0.000
616.013; 4675.750;  246.125;    0.000
616.134; 5174.750;  210.125;    0.000
616.255; 4744.750;  232.125;    0.000
616.376; 4231.750;  241.125;    0.000
616.497; 4018.750;  213.125;    0.000
616.618; 3795.750;  171.125;    0.000
616.739; 3820.750;  221.125;    0.000
616.860; 3753.750;  244.125;    0.000
616.981; 3769.750;  240.125;    0.000
617.102; 3632.750;  234.125;    0.000
617.222; 3743.750;  265.125;    0.000
617.343; 3637.750;  206.125;    0.000
617.464; 3596.750;  246.125;    0.000
617.585; 3588.750;  256.125;    0.000
617.705; 3595.750;  249.125;    0.000
617.826; 3507.750;  218.125;    0.000
617.947; 3544.750;  225.125;    0.000
618.068; 3433.750;  199.125;    0.000
618.188; 3463.750;  202.125;    0.000
618.309; 3567.750;  220.125;    0.000
618.430; 3441.750;  229.125;    0.000
618.550; 3521.750;  252.125;    0.000
618.671; 3460.750;  233.125;    0.000
618.791; 3467.750;  227.125;    0.000
618.912; 3527.750;  236.125;    0.000
619.033; 3446.750;  220.125;    0.000
619.153; 3438.750;  228.125;    0.000
619.274; 3433.750;  208.125;    0.000
619.394; 3477.750;  255.125;    0.000
619.515; 3349.750;  206.125;    0.000
619.635; 3320.750;  204.125;    0.000
619.756; 3434.750;  252.125;    0.000
619.876; 3360.750;  238.125;    0.000
619.996; 3406.750;  249.125;    0.000
620.117; 3358.750;  223.125;    0.000
620.237; 3329.750;  210.125;    0.000
620.358; 3404.750;  264.125;    0.000
620.478; 3345.750;  263.125;    0.000
620.598; 3466.750;  238.125;    0.000
620.719; 3348.750;  225.125;    0.000
620.839; 3326.750;  259.125;    0.000
620.959; 3309.750;  218.125;    0.000
621.079; 3226.750;  253.125;    0.000
621.200; 3308.750;  245.125;    0.000
621.320; 3293.750;  254.125;    0.000
621.440; 3260.750;  233.125;    0.000
621.560; 3232.750;  235.125;    0.000
621.681; 3352.750;  234.125;    0.000
621.801; 3251.750;  240.125;    0.000
621.921; 3340.750;  239.125;    0.000
622.041; 3321.750;  288.125;    0.000
622.161; 3297.750;  229.125;    0.000
622.281; 3207.750;  223.125;    0.000
622.401; 3225.750;  240.125;    0.000
622.521; 3259.750;  267.125;    0.000
622.641; 3172.750;  226.125;    0.000
622.761; 3346.750;  252.125;    0.000
622.882; 3235.750;  207.125;    0.000
623.002; 3196.750;  226.125;    0.000
623.121; 3109.750;  207.125;    0.000
623.241; 3245.750;  215.125;    0.000
623.361; 3154.750;  222.125;    0.000
623.481; 3173.750;  187.125;    0.000
623.601; 3261.750;  283.125;    0.000
623.721; 3200.750;  283.125;    0.000
623.841; 3260.750;  233.125;    0.000
623.961; 3254.750;  215.125;    0.000
624.081; 3116.750;  219.125;    0.000
624.201; 3210.750;  221.125;    0.000
624.320; 3171.750;  215.125;    0.000
624.440; 3221.750;  222.125;    0.000
624.560; 3158.750;  231.125;    0.000
624.680; 3059.750;  225.125;    0.000
624.799; 3168.750;  230.125;    0.000
624.919; 3153.750;  243.125;    0.000
625.039; 3218.750;  203.125;    0.000
625.159; 3100.750;  257.125;    0.000
625.278; 3109.750;  230.125;    0.000
625.398; 3049.750;  195.125;    0.000
625.518; 3146.750;  211.125;    0.000
625.637; 3102.750;  267.125;    0.000
625.757; 3157.750;  228.125;    0.000
625.876; 3116.750;  231.125;    0.000
625.996; 3092.750;  219.125;    0.000
626.115; 3050.750;  235.125;    0.000
626.235; 3146.750;  199.125;    0.000
626.354; 3064.750;  226.125;    0.000
626.474; 2999.750;  225.125;    0.000
626.594; 3097.750;  223.125;    0.000
626.713; 3054.750;  231.125;    0.000
626.832; 3080.750;  287.125;    0.000
626.952; 3063.750;  251.125;    0.000
627.071; 3027.750;  254.125;    0.000
627.191; 3106.750;  193.125;    0.000
627.310; 3098.750;  213.125;    0.000
627.429; 3035.750;  259.125;    0.000
627.549; 3053.750;  243.125;    0.000
627.668; 3095.750;  181.125;    0.000
627.787; 3026.750;  232.125;    0.000
627.907; 3058.750;  222.125;    0.000
628.026; 3009.750;  219.125;    0.000
628.145; 3008.750;  201.125;    0.000
628.264; 3021.750;  198.125;    0.000
628.384; 3010.750;  208.125;    0.000
628.503; 3028.750;  251.125;    0.000
628.622; 2948.750;  195.125;    0.000
628.741; 3009.750;  180.125;    0.000
628.860; 3088.750;  235.125;    0.000
628.980; 3062.750;  222.125;    0.000
629.099; 3079.750;  237.125;    0.000
629.218; 3045.750;  175.125;    0.000
629.337; 3096.750;  194.125;    0.000
629.456; 3073.750;  225.125;    0.000
629.575; 2996.750;  239.125;    0.000
629.694; 3003.750;  230.125;    0.000
629.813; 2984.750;  197.125;    0.000
629.932; 3047.750;  225.125;    0.000
630.051; 3002.750;  238.125;    0.000
630.170; 3049.750;  233.125;    0.000
630.289; 3055.750;  231.125;    0.000
630.408; 2967.750;  204.125;    0.000
630.527; 2985.750;  262.125;    0.000
630.646; 2972.750;  181.125;    0.000
630.764; 2900.750;  218.125;    0.000
630.883; 2985.750;  215.125;    0.000
631.002; 3025.750;  224.125;    0.000
631.121; 2918.750;  209.125;    0.000
631.240; 2967.750;  230.125;    0.000
631.359; 3001.750;  235.125;    0.000
631.477; 2962.750;  223.125;    0.000
631.596; 3012.750;  218.125;    0.000
631.715; 3044.750;  234.125;    0.000
631.834; 2971.750;  215.125;    0.000
631.952; 3068.750;  243.125;    0.000
632.071; 2988.750;  219.125;    0.000
632.190; 2967.750;  235.125;    0.000
632.308; 2937.750;  239.125;    0.000
632.427; 2955.750;  211.125;    0.000
632.546; 2905.750;  233.125;    0.000
632.664; 2883.750;  219.125;    0.000
632.783; 2983.750;  203.125;    0.000
632.901; 3026.750;  221.125;    0.000
633.020; 2947.750;  197.125;    0.000
633.138; 2914.750;  244.125;    0.000
633.257; 3041.750;  205.125;    0.000
633.375; 2945.750;  245.125;    0.000
633.494; 2890.750;  218.125;    0.000
633.612; 2995.750;  222.125;    0.000
633.731; 2828.750;  212.125;    0.000
633.849; 2852.750;  218.125;    0.000
633.968; 2862.750;  236.125;    0.000
634.086; 2914.750;  233.125;    0.000
634.204; 2989.750;  215.125;    0.000
634.323; 2927.750;  230.125;    0.000
634.441; 2863.750;  235.125;    0.000
634.559; 2934.750;  202.125;    0.000
634.678; 2858.750;  218.125;    0.000
634.796; 2886.750;  203.125;    0.000
634.914; 2859.750;  227.125;    0.000
635.032; 2969.750;  279.125;    0.000
635.151; 2860.750;  221.125;    0.000
635.269; 2888.750;  207.125;    0.000
635.387; 2930.750;  195.125;    0.000
635.505; 2913.750;  243.125;    0.000
635.623; 2910.750;  269.125;    0.000
635.742; 2859.750;  232.125;    0.000
635.860; 2873.750;  243.125;    0.000
635.978; 2876.750;  215.125;    0.000
636.096; 2898.750;  225.125;    0.000
636.214; 2844.750;  244.125;    0.000
636.332; 2799.750;  226.125;    0.000
636.450; 2900.750;  227.125;    0.000
636.568; 2907.750;  225.125;    0.000
636.686; 2784.750;  194.125;    0.000
636.804; 2847.750;  234.125;    0.000
636.922; 2847.750;  177.125;    0.000
637.040; 2803.750;  225.125;    0.000
637.158; 2845.750;  194.125;    0.000
637.276; 2827.750;  219.125;    0.000
637.394; 2815.750;  219.125;    0.000
637.512; 2835.750;  210.125;    0.000
637.629; 2841.750;  242.125;    0.000
637.747; 2732.750;  193.125;    0.000
637.865; 2865.750;  219.125;    0.000
637.983; 2805.750;  251.125;    0.000
638.101; 2859.750;  221.125;    0.000
638.218; 2880.750;  193.125;    0.000
638.336; 2811.750;  224.125;    0.000
638.454; 2894.750;  227.125;    0.000
638.572; 2800.750;  245.125;    0.000
638.689; 2867.750;  222.125;    0.000
638.807; 2827.750;  244.125;    0.000
638.925; 2813.750;  238.125;    0.000
639.042; 2816.750;  213.125;    0.000
639.160; 2653.750;  186.125;    0.000
639.278; 2725.750;  203.125;    0.000
639.395; 2845.750;  270.125;    0.000
639.513; 2830.750;  227.125;    0.000
639.630; 2833.750;  200.125;    0.000
639.748; 2820.750;  199.125;    0.000
639.865; 2818.750;  233.125;    0.000
639.983; 2774.750;  181.125;    0.000
640.100; 2828.750;  219.125;    0.000
640.218; 2792.750;  234.125;    0.000
640.335; 2809.750;  233.125;    0.000
640.453; 2732.750;  202.125;    0.000
640.570; 2858.750;  214.125;    0.000
640.688; 2777.750;  215.125;    0.000
640.805; 2827.750;  229.125;    0.000
640.922; 2848.750;  244.125;    0.000
641.040; 2719.750;  233.125;    0.000
641.157; 2750.750;  199.125;    0.000
641.274; 2754.750;  205.125;    0.000
641.391; 2855.750;  244.125;    0.000
641.509; 2731.750;  184.125;    0.000
641.626; 2785.750;  244.125;    0.000
641.743; 2680.750;  221.125;    0.000
641.860; 2706.750;  206.125;    0.000
641.978; 2799.750;  272.125;    0.000
642.095; 2757.750;  218.125;    0.000
642.212; 2754.750;  208.125;    0.000
642.329; 2695.750;  218.125;    0.000
642.446; 2730.750;  197.125;    0.000
642.563; 2729.750;  214.125;    0.000
642.681; 2750.750;  203.125;    0.000
642.798; 2708.750;  236.125;    0.000
642.915; 2677.750;  191.125;    0.000
643.032; 2770.750;  226.125;    0.000
643.149; 2716.750;  231.125;    0.000
643.266; 2774.750;  213.125;    0.000
643.383; 2693.750;  240.125;    0.000
643.500; 2772.750;  185.125;    0.000
643.617; 2708.750;  229.125;    0.000
643.734; 2743.750;  205.125;    0.000
643.850; 2676.750;  222.125;    0.000
643.967; 2782.750;  202.125;    0.000
644.084; 2803.750;  264.125;    0.000
644.201; 2693.750;  214.125;    0.000
644.318; 2761.750;  206.125;    0.000
644.435; 2675.750;  225.125;    0.000
644.552; 2704.750;  203.125;    0.000
644.668; 2755.750;  252.125;    0.000
644.785; 2770.750;  213.125;    0.000
644.902; 2694.750;  233.125;    0.000
645.019; 2729.750;  220.125;    0.000
645.135; 2769.750;  225.125;    0.000
645.252; 2791.750;  218.125;    0.000
645.369; 2760.750;  214.125;    0.000
645.485; 2734.750;  210.125;    0.000
645.602; 2850.750;  198.125;    0.000
645.719; 2750.750;  228.125;    0.000
645.835; 2737.750;  209.125;    0.000
645.952; 2825.750;  213.125;    0.000
646.068; 2814.750;  241.125;    0.000
646.185; 2824.750;  219.125;    0.000
646.302; 2784.750;  246.125;    0.000
646.418; 2818.750;  228.125;    0.000
646.535; 2832.750;  256.125;    0.000
646.651; 2826.750;  222.125;    0.000
646.768; 2771.750;  203.125;    0.000
646.884; 2777.750;  199.125;    0.000
647.000; 2854.750;  194.125;    0.000
647.117; 2831.750;  214.125;    0.000
647.233; 2700.750;  209.125;    0.000
647.350; 2863.750;  235.125;    0.000
647.466; 2800.750;  237.125;    0.000
647.582; 2912.750;  231.125;    0.000
647.699; 2917.750;  219.125;    0.000
647.815; 2939.750;  200.125;    0.000
647.931; 2927.750;  173.125;    0.000
648.047; 2897.750;  184.125;    0.000
648.164; 2891.750;  199.125;    0.000
648.280; 2860.750;  209.125;    0.000
648.396; 2925.750;  220.125;    0.000
648.512; 2949.750;  212.125;    0.000
648.629; 2962.750;  214.125;    0.000
648.745; 2923.750;  197.125;    0.000
648.861; 2919.750;  228.125;    0.000
648.977; 2902.750;  238.125;    0.000
649.093; 2834.750;  208.125;    0.000
649.209; 2992.750;  179.125;    0.000
649.325; 2947.750;  256.125;    0.000
649.441; 2947.750;  224.125;    0.000
649.557; 2898.750;  247.125;    0.000
649.673; 2886.750;  214.125;    0.000
649.789; 2887.750;  213.125;    0.000
649.905; 2831.750;  170.125;    0.000
650.021; 2857.750;  236.125;    0.000
650.137; 2938.750;  229.125;    0.000
650.253; 2896.750;  207.125;    0.000
650.369; 2877.750;  198.125;    0.000
650.485; 2873.750;  225.125;    0.000
650.601; 2934.750;  260.125;    0.000
650.717; 2974.750;  196.125;    0.000
650.833; 2929.750;  219.125;    0.000
650.948; 3046.750;  203.125;    0.000
651.064; 3012.750;  232.125;    0.000
651.180; 3036.750;  252.125;    0.000
651.296; 2936.750;  190.125;    0.000
651.411; 2972.750;  235.125;    0.000
651.527; 3030.750;  227.125;    0.000
651.643; 3051.750;  238.125;    0.000
651.759; 3045.750;  260.125;    0.000
651.874; 2983.750;  217.125;    0.000
651.990; 3015.750;  239.125;    0.000
652.105; 3132.750;  215.125;    0.000
652.221; 3075.750;  237.125;    0.000
652.337; 3098.750;  238.125;    0.000
652.452; 3039.750;  230.125;    0.000
652.568; 3125.750;  201.125;    0.000
652.683; 3131.750;  243.125;    0.000
652.799; 3173.750;  218.125;    0.000
652.914; 3118.750;  189.125;    0.000
653.030; 3197.750;  191.125;    0.000
653.145; 3124.750;  240.125;    0.000
653.261; 3217.750;  225.125;    0.000
653.376; 3154.750;  241.125;    0.000
653.492; 3246.750;  188.125;    0.000
653.607; 3284.750;  219.125;    0.000
653.722; 3323.750;  268.125;    0.000
653.838; 3360.750;  262.125;    0.000
653.953; 3322.750;  188.125;    0.000
654.068; 3444.750;  244.125;    0.000
654.184; 3553.750;  247.125;    0.000
654.299; 3551.750;  228.125;    0.000
654.414; 3475.750;  181.125;    0.000
654.530; 3622.750;  210.125;    0.000
654.645; 3647.750;  240.125;    0.000
654.760; 3654.750;  219.125;    0.000
654.875; 3775.750;  178.125;    0.000
654.990; 3809.750;  222.125;    0.000
655.106; 3928.750;  227.125;    0.000
655.221; 3911.750;  270.125;    0.000
655.336; 4072.750;  199.125;    0.000
655.451; 4137.750;  235.125;    0.000
655.566; 4212.750;  251.125;    0.000
655.681; 4403.750;  253.125;    0.000
655.796; 4477.750;  207.125;    0.000
655.911; 4661.750;  213.125;    0.000
656.026; 4788.750;  247.125;    0.000
656.141; 4903.750;  209.125;    0.000
656.256; 5083.750;  226.125;    0.000
656.371; 5016.750;  201.125;    0.000
656.486; 5128.750;  196.125;    0.000
656.601; 5029.750;  239.125;    0.000
656.716; 4971.750;  234.125;    0.000
656.831; 4883.750;  223.125;    0.000
656.946; 4741.750;  246.125;    0.000
657.060; 4593.750;  230.125;    0.000
657.175; 4606.750;  207.125;    0.000
657.290; 4375.750;  213.125;    0.000
657.405; 4367.750;  319.125;    0.000
657.520; 4264.750;  241.125;    0.000
657.634; 4176.750;  235.125;    0.000
657.749; 4178.750;  275.125;    0.000
657.864; 3971.750;  210.125;    0.000
657.979; 3971.750;  227.125;    0.000
658.093; 3933.750;  206.125;    0.000
658.208; 3845.750;  217.125;    0.000
658.323; 3790.750;  227.125;    0.000
658.437; 3675.750;  217.125;    0.000
658.552; 3781.750;  237.125;    0.000
658.666; 3720.750;  233.125;    0.000
658.781; 3664.750;  248.125;    0.000
658.895; 3586.750;  233.125;    0.000
659.010; 3549.750;  238.125;    0.000
659.125; 3432.750;  206.125;    0.000
659.239; 3485.750;  220.125;    0.000
659.353; 3369.750;  236.125;    0.000
659.468; 3338.750;  238.125;    0.000
659.582; 3376.750;  275.125;    0.000
659.697; 3407.750;  239.125;    0.000
659.811; 3368.750;  232.125;    0.000
659.926; 3296.750;  230.125;    0.000
660.040; 3272.750;  257.125;    0.000
660.154; 3253.750;  221.125;    0.000
660.269; 3175.750;  219.125;    0.000
660.383; 3189.750;  228.125;    0.000
660.497; 3165.750;  243.125;    0.000
660.612; 3105.750;  238.125;    0.000
660.726; 3228.750;  260.125;    0.000
660.840; 3151.750;  239.125;    0.000
660.954; 3016.750;  236.125;    0.000
661.068; 3098.750;  239.125;    0.000
661.183; 3108.750;  245.125;    0.000
661.297; 2889.750;  198.125;    0.000
661.411; 3041.750;  203.125;    0.000
661.525; 2967.750;  244.125;    0.000
661.639; 3022.750;  229.125;    0.000
661.753; 2977.750;  238.125;    0.000
661.867; 2938.750;  237.125;    0.000
661.981; 2968.750;  219.125;    0.000
662.095; 2827.750;  232.125;    0.000
662.209; 2796.750;  236.125;    0.000
662.323; 2792.750;  209.125;    0.000
662.437; 2754.750;  206.125;    0.000
662.551; 2881.750;  217.125;    0.000
662.665; 2759.750;  262.125;    0.000
662.779; 2813.750;  234.125;    0.000
662.893; 2771.750;  222.125;    0.000
663.007; 2682.750;  189.125;    0.000
663.121; 2744.750;  258.125;    0.000
663.235; 2775.750;  191.125;    0.000
663.349; 2724.750;  259.125;    0.000
663.462; 2651.750;  209.125;    0.000
663.576; 2648.750;  244.125;    0.000
663.690; 2673.750;  237.125;    0.000
663.804; 2591.750;  205.125;    0.000
663.917; 2625.750;  207.125;    0.000
664.031; 2589.750;  234.125;    0.000
664.145; 2545.750;  216.125;    0.000
664.258; 2514.750;  202.125;    0.000
664.372; 2527.750;  198.125;    0.000
664.486; 2532.750;  181.125;    0.000
664.599; 2504.750;  229.125;    0.000
664.713; 2536.750;  266.125;    0.000
664.827; 2466.750;  185.125;    0.000
664.940; 2451.750;  225.125;    0.000
665.054; 2563.750;  198.125;    0.000
665.167; 2501.750;  208.125;    0.000
665.281; 2537.750;  231.125;    0.000
665.394; 2452.750;  228.125;    0.000
665.508; 2447.750;  204.125;    0.000
665.621; 2507.750;  263.125;    0.000
665.735; 2530.750;  222.125;    0.000
665.848; 2488.750;  237.125;    0.000
665.961; 2393.750;  180.125;    0.000
666.075; 2373.750;  212.125;    0.000
666.188; 2419.750;  229.125;    0.000
666.301; 2414.750;  247.125;    0.000
666.415; 2443.750;  212.125;    0.000
666.528; 2502.750;  268.125;    0.000
666.641; 2460.750;  210.125;    0.000
666.755; 2417.750;  178.125;    0.000
666.868; 2428.750;  227.125;    0.000
666.981; 2375.750;  250.125;    0.000
667.094; 2400.750;  228.125;    0.000
667.207; 2389.750;  235.125;    0.000
667.321; 2344.750;  171.125;    0.000
667.434; 2385.750;  191.125;    0.000
667.547; 2417.750;  279.125;    0.000
667.660; 2373.750;  210.125;    0.000
667.773; 2376.750;  217.125;    0.000
667.886; 2361.750;  209.125;    0.000
667.999; 2376.750;  239.125;    0.000
668.112; 2308.750;  227.125;    0.000
668.225; 2396.750;  185.125;    0.000
668.338; 2341.750;  222.125;    0.000
668.451; 2276.750;  200.125;    0.000
668.564; 2333.750;  237.125;    0.000
668.677; 2349.750;  207.125;    0.000
668.790; 2277.750;  208.125;    0.000
668.903; 2332.750;  243.125;    0.000
669.016; 2187.750;  190.125;    0.000
669.129; 2256.750;  234.125;    0.000
669.242; 2220.750;  185.125;    0.000
669.354; 2252.750;  224.125;    0.000
669.467; 2269.750;  219.125;    0.000
669.580; 2299.750;  249.125;    0.000
669.693; 2291.750;  187.125;    0.000
669.806; 2217.750;  206.125;    0.000
669.918; 2235.750;  192.125;    0.000
670.031; 2342.750;  235.125;    0.000
670.144; 2235.750;  238.125;    0.000
670.256; 2235.750;  237.125;    0.000
670.369; 2234.750;  237.125;    0.000
670.482; 2243.750;  250.125;    0.000
670.594; 2282.750;  273.125;    0.000
670.707; 2247.750;  223.125;    0.000
670.820; 2215.750;  238.125;    0.000
670.932; 2254.750;  224.125;    0.000
671.045; 2203.750;  219.125;    0.000
671.157; 2294.750;  242.125;    0.000
671.270; 2191.750;  235.125;    0.000
671.382; 2247.750;  213.125;    0.000
671.495; 2204.750;  254.125;    0.000
671.607; 2239.750;  253.125;    0.000
671.720; 2162.750;  169.125;    0.000
671.832; 2141.750;  201.125;    0.000
671.944; 2187.750;  250.125;    0.000
672.057; 2197.750;  187.125;    0.000
672.169; 2209.750;  224.125;    0.000
672.281; 2226.750;  238.125;    0.000
672.394; 2214.750;  250.125;    0.000
672.506; 2151.750;  227.125;    0.000
672.618; 2236.750;  223.125;    0.000
672.731; 2158.750;  210.125;    0.000
672.843; 2218.750;  245.125;    0.000
672.955; 2182.750;  263.125;    0.000
673.067; 2163.750;  239.125;    0.000
673.180; 2179.750;  253.125;    0.000
673.292; 2218.750;  243.125;    0.000
673.404; 2114.750;  226.125;    0.000
673.516; 2210.750;  223.125;    0.000
673.628; 2219.750;  223.125;    0.000
673.740; 2147.750;  216.125;    0.000
673.852; 2286.750;  277.125;    0.000
673.964; 2176.750;  211.125;    0.000
674.076; 2194.750;  241.125;    0.000
674.188; 2123.750;  251.125;    0.000
674.300; 2231.750;  268.125;    0.000
674.412; 2170.750;  260.125;    0.000
674.524; 2189.750;  257.125;    0.000
674.636; 2158.750;  222.125;    0.000
674.748; 2151.750;  227.125;    0.000
674.860; 2209.750;  250.125;    0.000
674.972; 2132.750;  240.125;    0.000
675.084; 2104.750;  262.125;    0.000
675.196; 2118.750;  287.125;    0.000
675.307; 2095.750;  257.125;    0.000
675.419; 2136.750;  231.125;    0.000
675.531; 2191.750;  274.125;    0.000
675.643; 2095.750;  235.125;    0.000
675.755; 2138.750;  275.125;    0.000
675.866; 2099.750;  238.125;    0.000
675.978; 2107.750;  209.125;    0.000
676.090; 2135.750;  239.125;    0.000
676.201; 2135.750;  249.125;    0.000
676.313; 2062.750;  237.125;    0.000
676.425; 2085.750;  263.125;    0.000
676.536; 2059.750;  178.125;    0.000
676.648; 2083.750;  245.125;    0.000
676.759; 2189.750;  244.125;    0.000
676.871; 2054.750;  242.125;    0.000
676.983; 2096.750;  245.125;    0.000
677.094; 2115.750;  209.125;    0.000
677.206; 2119.750;  248.125;    0.000
677.317; 1998.750;  260.125;    0.000
677.429; 2004.750;  237.125;    0.000
677.540; 2085.750;  226.125;    0.000
677.651; 2085.750;  226.125;    0.000
677.763; 2073.750;  194.125;    0.000
677.874; 1998.750;  230.125;    0.000
677.986; 2019.750;  202.125;    0.000
678.097; 1998.750;  229.125;    0.000
678.208; 2016.750;  263.125;    0.000
678.320; 1978.750;  243.125;    0.000
678.431; 2046.750;  229.125;    0.000
678.542; 2055.750;  231.125;    0.000
678.653; 2026.750;  224.125;    0.000
678.765; 2039.750;  255.125;    0.000
678.876; 2000.750;  175.125;    0.000
678.987; 1942.750;  204.125;    0.000
679.098; 1995.750;  227.125;    0.000
679.209; 1954.750;  228.125;    0.000
679.320; 1979.750;  223.125;    0.000
679.432; 1965.750;  219.125;    0.000
679.543; 1968.750;  210.125;    0.000
679.654; 2019.750;  249.125;    0.000
679.765; 1940.750;  222.125;    0.000
679.876; 2049.750;  219.125;    0.000
679.987; 1920.750;  213.125;    0.000
680.098; 1965.750;  237.125;    0.000
680.209; 1983.750;  188.125;    0.000
680.320; 2001.750;  243.125;    0.000
680.431; 2012.750;  227.125;    0.000
680.542; 1985.750;  212.125;    0.000
680.653; 2004.750;  266.125;    0.000
680.763; 1935.750;  198.125;    0.000
680.874; 1950.750;  211.125;    0.000
680.985; 1941.750;  207.125;    0.000
681.096; 1970.750;  244.125;    0.000
681.207; 1875.750;  209.125;    0.000
681.318; 2009.750;  215.125;    0.000
681.428; 1966.750;  199.125;    0.000
681.539; 1870.750;  175.125;    0.000
681.650; 1956.750;  224.125;    0.000
681.760; 2003.750;  216.125;    0.000
681.871; 1900.750;  187.125;    0.000
681.982; 1924.750;  237.125;    0.000
682.093; 1934.750;  213.125;    0.000
682.203; 2003.750;  190.125;    0.000
682.314; 1983.750;  230.125;    0.000
682.424; 2029.750;  223.125;    0.000
682.535; 1915.750;  172.125;    0.000
682.646; 2008.750;  268.125;    0.000
682.756; 1955.750;  249.125;    0.000
682.867; 2011.750;  225.125;    0.000
682.977; 1916.750;  211.125;    0.000
683.088; 1987.750;  238.125;    0.000
683.198; 1973.750;  202.125;    0.000
683.308; 1913.750;  196.125;    0.000
683.419; 1971.750;  230.125;    0.000
683.529; 1915.750;  213.125;    0.000
683.640; 1939.750;  225.125;    0.000
683.750; 1894.750;  203.125;    0.000
683.860; 1926.750;  200.125;    0.000
683.971; 1987.750;  269.125;    0.000
684.081; 1879.750;  204.125;    0.000
684.191; 1903.750;  228.125;    0.000
684.301; 1932.750;  219.125;    0.000
684.412; 2010.750;  222.125;    0.000
684.522; 1919.750;  242.125;    0.000
684.632; 1845.750;  234.125;    0.000
684.742; 1877.750;  240.125;    0.000
684.852; 1905.750;  229.125;    0.000
684.963; 1934.750;  237.125;    0.000
685.073; 1845.750;  205.125;    0.000
685.183; 1928.750;  241.125;    0.000
685.293; 1882.750;  202.125;    0.000
685.403; 1882.750;  232.125;    0.000
685.513; 2002.750;  244.125;    0.000
685.623; 1916.750;  224.125;    0.000
685.733; 1927.750;  236.125;    0.000
685.843; 1906.750;  235.125;    0.000
685.953; 1896.750;  216.125;    0.000
686.063; 1980.750;  214.125;    0.000
686.173; 1971.750;  198.125;    0.000
686.283; 1863.750;  250.125;    0.000
686.393; 1910.750;  227.125;    0.000
686.503; 1851.750;  244.125;    0.000
686.612; 1887.750;  247.125;    0.000
686.722; 1945.750;  265.125;    0.000
686.832; 1983.750;  213.125;    0.000
686.942; 1934.750;  241.125;    0.000
687.052; 1911.750;  238.125;    0.000
687.161; 1873.750;  233.125;    0.000
687.271; 1908.750;  232.125;    0.000
687.381; 1861.750;  220.125;    0.000
687.491; 1970.750;  206.125;    0.000
687.600; 1887.750;  283.125;    0.000
687.710; 1898.750;  212.125;    0.000
687.820; 1929.750;  226.125;    0.000
687.929; 1904.750;  202.125;    0.000
688.039; 1920.750;  225.125;    0.000
688.148; 1887.750;  235.125;    0.000
688.258; 1898.750;  224.125;    0.000
688.367; 1902.750;  239.125;    0.000
688.477; 1845.750;  193.125;    0.000
688.586; 1895.750;  226.125;    0.000
688.696; 1893.750;  185.125;    0.000
688.805; 1864.750;  190.125;    0.000
688.915; 1810.750;  209.125;    0.000
689.024; 1822.750;  214.125;    0.000
689.134; 1969.750;  205.125;    0.000
689.243; 1858.750;  190.125;    0.000
689.352; 1891.750;  233.125;    0.000
689.462; 1856.750;  196.125;    0.000
689.571; 1856.750;  227.125;    0.000
689.680; 1944.750;  206.125;    0.000
689.790; 1860.750;  193.125;    0.000
689.899; 1921.750;  204.125;    0.000
690.008; 1897.750;  228.125;    0.000
690.117; 1825.750;  207.125;    0.000
690.227; 1845.750;  231.125;    0.000
690.336; 1889.750;  222.125;    0.000
690.445; 1840.750;  198.125;    0.000
690.554; 1844.750;  202.125;    0.000
690.663; 1872.750;  217.125;    0.000
690.772; 1836.750;  213.125;    0.000
690.881; 1872.750;  225.125;    0.000
690.990; 1827.750;  217.125;    0.000
691.099; 1897.750;  205.125;    0.000
691.209; 1863.750;  220.125;    0.000
691.318; 1835.750;  216.125;    0.000
691.427; 1881.750;  188.125;    0.000
691.536; 1859.750;  224.125;    0.000
691.644; 1894.750;  212.125;    0.000
691.753; 1823.750;  216.125;    0.000
691.862; 1843.750;  250.125;    0.000
691.971; 1892.750;  210.125;    0.000
692.080; 1865.750;  232.125;    0.000
692.189; 1846.750;  218.125;    0.000
692.298; 1923.750;  220.125;    0.000
692.406; 1847.750;  261.125;    0.000
692.515; 1831.750;  253.125;    0.000
692.624; 1890.750;  224.125;    0.000
692.733; 1802.750;  209.125;    0.000
692.842; 1811.750;  214.125;    0.000
692.950; 1843.750;  206.125;    0.000
693.059; 1831.750;  180.125;    0.000
693.168; 1890.750;  220.125;    0.000
693.276; 1838.750;  196.125;    0.000
693.385; 1853.750;  203.125;    0.000
693.494; 1879.750;  263.125;    0.000
693.602; 1841.750;  222.125;    0.000
693.711; 1874.750;  178.125;    0.000
693.819; 1898.750;  230.125;    0.000
693.928; 1898.750;  187.125;    0.000
694.036; 1807.750;  219.125;    0.000
694.145; 1844.750;  223.125;    0.000
694.253; 1854.750;  241.125;    0.000
694.362; 1816.750;  229.125;    0.000
694.470; 1924.750;  223.125;    0.000
694.579; 1935.750;  195.125;    0.000
694.687; 1897.750;  257.125;    0.000
694.795; 1864.750;  230.125;    0.000
694.904; 1811.750;  196.125;    0.000
695.012; 1879.750;  247.125;    0.000
695.120; 1863.750;  215.125;    0.000
695.229; 1854.750;  244.125;    0.000
695.337; 1907.750;  197.125;    0.000
695.445; 1895.750;  270.125;    0.000
695.553; 1899.750;  241.125;    0.000
695.662; 1859.750;  249.125;    0.000
695.770; 1836.750;  244.125;    0.000
695.878; 1875.750;  236.125;    0.000
695.986; 1845.750;  253.125;    0.000
696.094; 1825.750;  242.125;    0.000
696.202; 1835.750;  174.125;    0.000
696.310; 1833.750;  230.125;    0.000
696.419; 1819.750;  218.125;    0.000
696.527; 1876.750;  226.125;    0.000
696.635; 1818.750;  217.125;    0.000
696.743; 1841.750;  221.125;    0.000
696.851; 1858.750;  259.125;    0.000
696.959; 1855.750;  245.125;    0.000
697.067; 1831.750;  235.125;    0.000
697.174; 1910.750;  238.125;    0.000
697.282; 1882.750;  208.125;    0.000
697.390; 1856.750;  265.125;    0.000
697.498; 1825.750;  202.125;    0.000
697.606; 1779.750;  219.125;    0.000
697.714; 1802.750;  245.125;    0.000
697.822; 1902.750;  222.125;    0.000
697.929; 1747.750;  194.125;    0.000
698.037; 1850.750;  223.125;    0.000
698.145; 1777.750;  213.125;    0.000
698.253; 1786.750;  234.125;    0.000
698.360; 1816.750;  211.125;    0.000
698.468; 1811.750;  241.125;    0.000
698.576; 1882.750;  249.125;    0.000
698.683; 1910.750;  268.125;    0.000
698.791; 1804.750;  223.125;    0.000
698.899; 1833.750;  251.125;    0.000
699.006; 1853.750;  216.125;    0.000
699.114; 1804.750;  256.125;    0.000
699.221; 1776.750;  226.125;    0.000
699.329; 1903.750;  255.125;    0.000
699.436; 1816.750;  213.125;    0.000
699.544; 1834.750;  258.125;    0.000
699.651; 1783.750;  214.125;    0.000
699.759; 1829.750;  229.125;    0.000
699.866; 1869.750;  239.125;    0.000
699.974; 1767.750;  224.125;    0.000
700.081; 1840.750;  227.125;    0.000
700.188; 1845.750;  267.125;    0.000
700.296; 1786.750;  222.125;    0.000
700.403; 1842.750;  225.125;    0.000
700.510; 1797.750;  248.125;    0.000
700.618; 1795.750;  223.125;    0.000
700.725; 1784.750;  243.125;    0.000
700.832; 1712.750;  239.125;    0.000
700.940; 1854.750;  284.125;    0.000
701.047; 1760.750;  216.125;    0.000
701.154; 1813.750;  249.125;    0.000
701.261; 1749.750;  229.125;    0.000
701.368; 1849.750;  247.125;    0.000
701.475; 1806.750;  208.125;    0.000
701.582; 1795.750;  262.125;    0.000
701.690; 1752.750;  224.125;    0.000
701.797; 1826.750;  294.125;    0.000
701.904; 1896.750;  303.125;    0.000
702.011; 1854.750;  278.125;    0.000
702.118; 1783.750;  279.125;    0.000
702.225; 1797.750;  342.125;    0.000
702.332; 1826.750;  281.125;    0.000
702.439; 1839.750;  313.125;    0.000
702.546; 1930.750;  295.125;    0.000
702.652; 1799.750;  293.125;    0.000
702.759; 1856.750;  333.125;    0.000
702.866; 1830.750;  272.125;    0.000
702.973; 1899.750;  310.125;    0.000
703.080; 1852.750;  313.125;    0.000
703.187; 1871.750;  316.125;    0.000
703.294; 1923.750;  328.125;    0.000
703.400; 1670.750;  312.125;    0.000
703.507;  467.750;  349.125;    0.000
703.614;  333.750;  298.125;    0.000
703.720;  299.750;  300.125;    0.000
703.827;  317.750;  346.125;    0.000
703.934;  312.750;  308.125;    0.000
704.040;  331.750;  300.125;    0.000
704.147;  334.750;  317.125;    0.000
704.254;  345.750;  350.125;    0.000
704.360;  312.750;  285.125;    0.000
704.467;  359.750;  334.125;    0.000
704.573;  347.750;  330.125;    0.000
704.680;  306.750;  312.125;    0.000
704.786;  338.750;  305.125;    0.000
704.893;  329.750;  330.125;    0.000
704.999;  323.750;  315.125;    0.000
705.106;  345.750;  327.125;    0.000

