
Integration time [ms]:   0.300
Averaging Nr. [scans]: 1
Smoothing Nr. [pixels]: 0
Data measured with spectrometer [name]: VIS
Wave   ;Sample   ;Dark     ;Reference
[nm]   ;[counts] ;[counts] ;[counts] 

450.961;  201.150;  204.125;    0.000
451.100;  209.150;  219.125;    0.000
451.239;  197.150;  196.125;    0.000
451.377;  255.150;  252.125;    0.000
451.516;  181.150;  215.125;    0.000
451.655;  243.150;  214.125;    0.000
451.794;  203.150;  241.125;    0.000
451.932;  237.150;  242.125;    0.000
452.071;  232.150;  204.125;    0.000
452.210;  247.150;  243.125;    0.000
452.348;  248.150;  241.125;    0.000
452.487;  228.150;  246.125;    0.000
452.626;  211.150;  235.125;    0.000
452.764;  239.150;  230.125;    0.000
452.903;  202.150;  199.125;    0.000
453.042;  291.150;  178.125;    0.000
453.180; 3721.150;  291.125;    0.000
453.319; 3802.150;  335.125;    0.000
453.458; 3698.150;  245.125;    0.000
453.596; 3784.150;  325.125;    0.000
453.735; 3728.150;  291.125;    0.000
453.873; 3877.150;  295.125;    0.000
454.012; 3872.150;  291.125;    0.000
454.150; 3956.150;  292.125;    0.000
454.289; 4033.150;  328.125;    0.000
454.427; 3999.150;  295.125;    0.000
454.566; 4037.150;  295.125;    0.000
454.704; 4163.150;  301.125;    0.000
454.843; 4081.150;  278.125;    0.000
454.981; 4189.150;  306.125;    0.000
455.120; 4166.150;  237.125;    0.000
455.258; 4345.150;  325.125;    0.000
455.397; 4296.150;  276.125;    0.000
455.535; 4289.150;  269.125;    0.000
455.674; 4361.150;  259.125;    0.000
455.812; 4454.150;  264.125;    0.000
455.951; 4403.150;  286.125;    0.000
456.089; 4485.150;  302.125;    0.000
456.227; 4435.150;  230.125;    0.000
456.366; 4645.150;  303.125;    0.000
456.504; 4692.150;  316.125;    0.000
456.642; 4604.150;  309.125;    0.000
456.781; 4647.150;  299.125;    0.000
456.919; 4722.150;  281.125;    0.000
457.057; 4789.150;  253.125;    0.000
457.196; 4881.150;  268.125;    0.000
457.334; 4957.150;  292.125;    0.000
457.472; 5022.150;  287.125;    0.000
457.610; 4976.150;  300.125;    0.000
457.749; 5075.150;  342.125;    0.000
457.887; 5195.150;  310.125;    0.000
458.025; 5277.150;  310.125;    0.000
458.163; 5396.150;  323.125;    0.000
458.301; 5441.150;  336.125;    0.000
458.440; 5444.150;  297.125;    0.000
458.578; 5622.150;  295.125;    0.000
458.716; 5625.150;  309.125;    0.000
458.854; 5623.150;  335.125;    0.000
458.992; 5655.150;  244.125;    0.000
459.130; 5893.150;  370.125;    0.000
459.269; 5916.150;  313.125;    0.000
459.407; 5915.150;  370.125;    0.000
459.545; 5912.150;  341.125;    0.000
459.683; 6010.150;  336.125;    0.000
459.821; 6119.150;  311.125;    0.000
459.959; 6131.150;  330.125;    0.000
460.097; 6364.150;  355.125;    0.000
460.235; 6275.150;  348.125;    0.000
460.373; 6294.150;  338.125;    0.000
460.511; 6422.150;  361.125;    0.000
460.649; 6480.150;  295.125;    0.000
460.787; 6483.150;  325.125;    0.000
460.925; 6488.150;  266.125;    0.000
461.063; 6516.150;  365.125;    0.000
461.201; 6486.150;  334.125;    0.000
461.339; 6563.150;  341.125;    0.000
461.477; 6556.150;  304.125;    0.000
461.615; 6787.150;  311.125;    0.000
461.753; 6685.150;  342.125;    0.000
461.891; 6850.150;  333.125;    0.000
462.029; 6940.150;  336.125;    0.000
462.166; 7085.150;  272.125;    0.000
462.304; 7014.150;  313.125;    0.000
462.442; 7313.150;  313.125;    0.000
462.580; 7392.150;  328.125;    0.000
462.718; 7335.150;  358.125;    0.000
462.856; 7289.150;  302.125;    0.000
462.993; 7214.150;  360.125;    0.000
463.131; 7155.150;  280.125;    0.000
463.269; 7209.150;  312.125;    0.000
463.407; 7060.150;  263.125;    0.000
463.545; 6883.150;  253.125;    0.000
463.682; 7058.150;  296.125;    0.000
463.820; 7428.150;  308.125;    0.000
463.958; 7647.150;  300.125;    0.000
464.095; 7781.150;  289.125;    0.000
464.233; 7712.150;  340.125;    0.000
464.371; 7766.150;  300.125;    0.000
464.509; 7769.150;  266.125;    0.000
464.646; 7704.150;  294.125;    0.000
464.784; 7751.150;  284.125;    0.000
464.921; 7599.150;  350.125;    0.000
465.059; 7442.150;  256.125;    0.000
465.197; 7413.150;  289.125;    0.000
465.334; 7317.150;  287.125;    0.000
465.472; 7056.150;  322.125;    0.000
465.609; 7108.150;  311.125;    0.000
465.747; 7028.150;  336.125;    0.000
465.885; 7029.150;  308.125;    0.000
466.022; 6979.150;  299.125;    0.000
466.160; 6965.150;  293.125;    0.000
466.297; 7005.150;  317.125;    0.000
466.435; 6959.150;  336.125;    0.000
466.572; 6981.150;  282.125;    0.000
466.710; 6866.150;  299.125;    0.000
466.847; 6913.150;  288.125;    0.000
466.985; 6805.150;  274.125;    0.000
467.122; 6850.150;  302.125;    0.000
467.260; 6817.150;  271.125;    0.000
467.397; 6876.150;  263.125;    0.000
467.534; 6917.150;  320.125;    0.000
467.672; 6917.150;  309.125;    0.000
467.809; 6732.150;  275.125;    0.000
467.947; 6899.150;  319.125;    0.000
468.084; 6875.150;  309.125;    0.000
468.221; 6891.150;  302.125;    0.000
468.359; 6819.150;  286.125;    0.000
468.496; 6663.150;  293.125;    0.000
468.633; 6820.150;  273.125;    0.000
468.771; 6848.150;  296.125;    0.000
468.908; 6832.150;  277.125;    0.000
469.045; 7010.150;  303.125;    0.000
469.183; 6996.150;  314.125;    0.000
469.320; 7129.150;  278.125;    0.000
469.457; 7105.150;  308.125;    0.000
469.594; 7001.150;  272.125;    0.000
469.732; 6982.150;  321.125;    0.000
469.869; 7211.150;  299.125;    0.000
470.006; 7181.150;  267.125;    0.000
470.143; 7261.150;  298.125;    0.000
470.280; 7333.150;  272.125;    0.000
470.417; 7356.150;  314.125;    0.000
470.555; 7378.150;  305.125;    0.000
470.692; 7205.150;  309.125;    0.000
470.829; 7329.150;  311.125;    0.000
470.966; 7251.150;  260.125;    0.000
471.103; 7171.150;  267.125;    0.000
471.240; 7266.150;  290.125;    0.000
471.377; 7337.150;  290.125;    0.000
471.514; 7189.150;  295.125;    0.000
471.651; 7286.150;  300.125;    0.000
471.789; 7242.150;  281.125;    0.000
471.926; 7066.150;  291.125;    0.000
472.063; 7167.150;  305.125;    0.000
472.200; 7149.150;  285.125;    0.000
472.337; 6968.150;  288.125;    0.000
472.474; 7102.150;  276.125;    0.000
472.611; 7084.150;  309.125;    0.000
472.748; 7106.150;  280.125;    0.000
472.884; 7067.150;  300.125;    0.000
473.021; 6933.150;  280.125;    0.000
473.158; 7086.150;  304.125;    0.000
473.295; 6923.150;  308.125;    0.000
473.432; 6832.150;  294.125;    0.000
473.569; 6918.150;  288.125;    0.000
473.706; 6901.150;  254.125;    0.000
473.843; 6752.150;  282.125;    0.000
473.980; 6916.150;  286.125;    0.000
474.117; 7075.150;  257.125;    0.000
474.253; 6954.150;  298.125;    0.000
474.390; 6879.150;  253.125;    0.000
474.527; 7023.150;  271.125;    0.000
474.664; 6913.150;  257.125;    0.000
474.801; 7098.150;  296.125;    0.000
474.937; 7018.150;  263.125;    0.000
475.074; 7048.150;  262.125;    0.000
475.211; 6982.150;  299.125;    0.000
475.348; 7079.150;  308.125;    0.000
475.484; 7152.150;  278.125;    0.000
475.621; 7188.150;  287.125;    0.000
475.758; 7023.150;  231.125;    0.000
475.894; 7084.150;  295.125;    0.000
476.031; 7208.150;  290.125;    0.000
476.168; 7101.150;  287.125;    0.000
476.304; 7197.150;  331.125;    0.000
476.441; 7220.150;  301.125;    0.000
476.578; 7117.150;  263.125;    0.000
476.714; 7147.150;  261.125;    0.000
476.851; 7297.150;  247.125;    0.000
476.987; 7391.150;  297.125;    0.000
477.124; 7307.150;  296.125;    0.000
477.261; 7411.150;  299.125;    0.000
477.397; 7218.150;  292.125;    0.000
477.534; 7417.150;  289.125;    0.000
477.670; 7386.150;  268.125;    0.000
477.807; 7552.150;  234.125;    0.000
477.943; 7608.150;  279.125;    0.000
478.080; 7556.150;  276.125;    0.000
478.216; 7513.150;  248.125;    0.000
478.353; 7668.150;  296.125;    0.000
478.489; 7717.150;  267.125;    0.000
478.626; 7839.150;  243.125;    0.000
478.762; 7753.150;  252.125;    0.000
478.898; 7801.150;  266.125;    0.000
479.035; 7873.150;  290.125;    0.000
479.171; 7875.150;  247.125;    0.000
479.308; 7812.150;  283.125;    0.000
479.444; 7821.150;  244.125;    0.000
479.580; 7757.150;  259.125;    0.000
479.717; 7935.150;  301.125;    0.000
479.853; 7908.150;  257.125;    0.000
479.989; 7923.150;  249.125;    0.000
480.126; 7925.150;  218.125;    0.000
480.262; 8003.150;  275.125;    0.000
480.398; 8092.150;  246.125;    0.000
480.535; 7963.150;  246.125;    0.000
480.671; 8004.150;  272.125;    0.000
480.807; 7923.150;  281.125;    0.000
480.943; 7992.150;  233.125;    0.000
481.080; 7855.150;  303.125;    0.000
481.216; 7856.150;  229.125;    0.000
481.352; 7837.150;  240.125;    0.000
481.488; 7780.150;  284.125;    0.000
481.624; 7923.150;  236.125;    0.000
481.760; 7784.150;  255.125;    0.000
481.897; 7933.150;  206.125;    0.000
482.033; 7811.150;  254.125;    0.000
482.169; 7903.150;  268.125;    0.000
482.305; 7880.150;  214.125;    0.000
482.441; 7713.150;  225.125;    0.000
482.577; 7691.150;  251.125;    0.000
482.713; 7614.150;  221.125;    0.000
482.849; 7712.150;  218.125;    0.000
482.985; 7775.150;  245.125;    0.000
483.121; 7659.150;  224.125;    0.000
483.258; 7818.150;  249.125;    0.000
483.394; 7882.150;  224.125;    0.000
483.530; 7803.150;  247.125;    0.000
483.665; 7806.150;  256.125;    0.000
483.801; 7778.150;  220.125;    0.000
483.937; 7710.150;  200.125;    0.000
484.073; 7718.150;  272.125;    0.000
484.209; 7790.150;  243.125;    0.000
484.345; 7852.150;  274.125;    0.000
484.481; 7898.150;  264.125;    0.000
484.617; 7930.150;  270.125;    0.000
484.753; 7896.150;  244.125;    0.000
484.889; 7876.150;  293.125;    0.000
485.025; 7861.150;  257.125;    0.000
485.161; 7782.150;  264.125;    0.000
485.296; 7960.150;  247.125;    0.000
485.432; 8003.150;  240.125;    0.000
485.568; 8109.150;  240.125;    0.000
485.704; 8143.150;  232.125;    0.000
485.840; 8000.150;  280.125;    0.000
485.975; 7985.150;  253.125;    0.000
486.111; 8084.150;  250.125;    0.000
486.247; 7927.150;  272.125;    0.000
486.383; 8032.150;  258.125;    0.000
486.518; 8081.150;  256.125;    0.000
486.654; 7945.150;  250.125;    0.000
486.790; 8093.150;  259.125;    0.000
486.926; 7980.150;  256.125;    0.000
487.061; 7917.150;  267.125;    0.000
487.197; 7941.150;  224.125;    0.000
487.333; 7911.150;  265.125;    0.000
487.468; 7977.150;  223.125;    0.000
487.604; 8041.150;  298.125;    0.000
487.740; 8029.150;  261.125;    0.000
487.875; 8047.150;  278.125;    0.000
488.011; 8014.150;  292.125;    0.000
488.146; 7995.150;  239.125;    0.000
488.282; 8109.150;  265.125;    0.000
488.417; 7991.150;  286.125;    0.000
488.553; 8030.150;  271.125;    0.000
488.688; 7910.150;  252.125;    0.000
488.824; 8074.150;  239.125;    0.000
488.960; 7965.150;  266.125;    0.000
489.095; 8038.150;  229.125;    0.000
489.230; 7930.150;  247.125;    0.000
489.366; 8040.150;  260.125;    0.000
489.501; 8160.150;  257.125;    0.000
489.637; 8023.150;  233.125;    0.000
489.772; 8044.150;  254.125;    0.000
489.908; 8220.150;  235.125;    0.000
490.043; 8057.150;  266.125;    0.000
490.178; 8189.150;  228.125;    0.000
490.314; 8122.150;  310.125;    0.000
490.449; 8281.150;  251.125;    0.000
490.585; 8037.150;  221.125;    0.000
490.720; 8163.150;  203.125;    0.000
490.855; 8035.150;  266.125;    0.000
490.991; 8106.150;  249.125;    0.000
491.126; 8131.150;  313.125;    0.000
491.261; 8207.150;  284.125;    0.000
491.396; 8120.150;  225.125;    0.000
491.532; 8120.150;  227.125;    0.000
491.667; 8094.150;  210.125;    0.000
491.802; 8124.150;  214.125;    0.000
491.937; 8318.150;  246.125;    0.000
492.073; 8277.150;  250.125;    0.000
492.208; 8373.150;  267.125;    0.000
492.343; 8320.150;  245.125;    0.000
492.478; 8279.150;  271.125;    0.000
492.613; 8480.150;  253.125;    0.000
492.749; 8249.150;  249.125;    0.000
492.884; 8485.150;  217.125;    0.000
493.019; 8467.150;  244.125;    0.000
493.154; 8364.150;  265.125;    0.000
493.289; 8403.150;  266.125;    0.000
493.424; 8457.150;  226.125;    0.000
493.559; 8345.150;  222.125;    0.000
493.694; 8392.150;  218.125;    0.000
493.829; 8415.150;  246.125;    0.000
493.964; 8354.150;  243.125;    0.000
494.099; 8305.150;  269.125;    0.000
494.234; 8497.150;  249.125;    0.000
494.369; 8311.150;  279.125;    0.000
494.504; 8350.150;  261.125;    0.000
494.639; 8196.150;  289.125;    0.000
494.774; 8377.150;  252.125;    0.000
494.909; 8243.150;  250.125;    0.000
495.044; 8210.150;  207.125;    0.000
495.179; 8236.150;  266.125;    0.000
495.314; 8319.150;  228.125;    0.000
495.449; 8407.150;  262.125;    0.000
495.584; 8308.150;  281.125;    0.000
495.719; 8496.150;  251.125;    0.000
495.854; 8455.150;  237.125;    0.000
495.988; 8498.150;  238.125;    0.000
496.123; 8420.150;  255.125;    0.000
496.258; 8735.150;  264.125;    0.000
496.393; 8511.150;  253.125;    0.000
496.528; 8652.150;  244.125;    0.000
496.663; 8826.150;  267.125;    0.000
496.797; 8779.150;  271.125;    0.000
496.932; 8914.150;  262.125;    0.000
497.067; 8904.150;  260.125;    0.000
497.202; 8923.150;  264.125;    0.000
497.336; 9264.150;  243.125;    0.000
497.471; 9186.150;  251.125;    0.000
497.606; 9452.150;  219.125;    0.000
497.740; 9371.150;  264.125;    0.000
497.875; 9876.150;  252.125;    0.000
498.010;10059.150;  241.125;    0.000
498.144;10060.150;  261.125;    0.000
498.279;10453.150;  221.125;    0.000
498.414;10536.150;  246.125;    0.000
498.548;10649.150;  212.125;    0.000
498.683;10626.150;  260.125;    0.000
498.817;10629.150;  244.125;    0.000
498.952;11071.150;  252.125;    0.000
499.087;11157.150;  251.125;    0.000
499.221;11437.150;  282.125;    0.000
499.356;11720.150;  264.125;    0.000
499.490;11893.150;  280.125;    0.000
499.625;12040.150;  256.125;    0.000
499.759;12705.150;  253.125;    0.000
499.894;12859.150;  261.125;    0.000
500.028;13127.150;  304.125;    0.000
500.162;13533.150;  272.125;    0.000
500.297;13715.150;  274.125;    0.000
500.431;13899.150;  320.125;    0.000
500.566;13694.150;  268.125;    0.000
500.700;13638.150;  280.125;    0.000
500.835;13471.150;  288.125;    0.000
500.969;13010.150;  253.125;    0.000
501.103;12662.150;  234.125;    0.000
501.238;12260.150;  302.125;    0.000
501.372;11954.150;  292.125;    0.000
501.506;11560.150;  222.125;    0.000
501.641;11058.150;  274.125;    0.000
501.775;10940.150;  245.125;    0.000
501.909;10543.150;  283.125;    0.000
502.043;10478.150;  252.125;    0.000
502.178;10313.150;  293.125;    0.000
502.312; 9974.150;  223.125;    0.000
502.446; 9789.150;  292.125;    0.000
502.580; 9832.150;  253.125;    0.000
502.715; 9780.150;  282.125;    0.000
502.849; 9343.150;  258.125;    0.000
502.983; 9322.150;  267.125;    0.000
503.117; 9361.150;  226.125;    0.000
503.251; 9265.150;  260.125;    0.000
503.385; 9037.150;  291.125;    0.000
503.520; 8878.150;  279.125;    0.000
503.654; 8636.150;  229.125;    0.000
503.788; 8637.150;  259.125;    0.000
503.922; 8565.150;  246.125;    0.000
504.056; 8469.150;  269.125;    0.000
504.190; 8406.150;  265.125;    0.000
504.324; 8445.150;  298.125;    0.000
504.458; 8319.150;  235.125;    0.000
504.592; 8231.150;  275.125;    0.000
504.726; 8203.150;  226.125;    0.000
504.860; 8006.150;  298.125;    0.000
504.994; 7997.150;  253.125;    0.000
505.128; 7852.150;  283.125;    0.000
505.262; 7656.150;  255.125;    0.000
505.396; 7582.150;  219.125;    0.000
505.530; 7508.150;  279.125;    0.000
505.664; 7447.150;  306.125;    0.000
505.798; 7219.150;  297.125;    0.000
505.932; 7283.150;  273.125;    0.000
506.066; 7316.150;  271.125;    0.000
506.199; 7119.150;  273.125;    0.000
506.333; 7126.150;  227.125;    0.000
506.467; 7086.150;  302.125;    0.000
506.601; 7056.150;  254.125;    0.000
506.735; 7037.150;  299.125;    0.000
506.869; 6946.150;  278.125;    0.000
507.002; 6836.150;  259.125;    0.000
507.136; 6898.150;  285.125;    0.000
507.270; 6717.150;  255.125;    0.000
507.404; 6811.150;  273.125;    0.000
507.537; 6696.150;  245.125;    0.000
507.671; 6731.150;  251.125;    0.000
507.805; 6680.150;  286.125;    0.000
507.939; 6647.150;  261.125;    0.000
508.072; 6718.150;  298.125;    0.000
508.206; 6627.150;  238.125;    0.000
508.340; 6558.150;  289.125;    0.000
508.473; 6509.150;  255.125;    0.000
508.607; 6470.150;  266.125;    0.000
508.740; 6504.150;  253.125;    0.000
508.874; 6486.150;  233.125;    0.000
509.008; 6514.150;  274.125;    0.000
509.141; 6561.150;  235.125;    0.000
509.275; 6560.150;  225.125;    0.000
509.408; 6419.150;  254.125;    0.000
509.542; 6350.150;  244.125;    0.000
509.675; 6594.150;  263.125;    0.000
509.809; 6457.150;  271.125;    0.000
509.942; 6341.150;  246.125;    0.000
510.076; 6346.150;  221.125;    0.000
510.209; 6254.150;  270.125;    0.000
510.343; 6358.150;  265.125;    0.000
510.476; 6343.150;  291.125;    0.000
510.610; 6147.150;  251.125;    0.000
510.743; 6262.150;  304.125;    0.000
510.877; 6126.150;  259.125;    0.000
511.010; 6160.150;  274.125;    0.000
511.143; 6102.150;  255.125;    0.000
511.277; 6176.150;  267.125;    0.000
511.410; 6074.150;  270.125;    0.000
511.543; 6096.150;  231.125;    0.000
511.677; 6083.150;  275.125;    0.000
511.810; 6074.150;  265.125;    0.000
511.943; 6101.150;  231.125;    0.000
512.077; 6140.150;  225.125;    0.000
512.210; 6111.150;  235.125;    0.000
512.343; 6052.150;  251.125;    0.000
512.476; 6182.150;  260.125;    0.000
512.610; 6107.150;  289.125;    0.000
512.743; 6167.150;  270.125;    0.000
512.876; 6078.150;  289.125;    0.000
513.009; 6237.150;  293.125;    0.000
513.142; 6042.150;  282.125;    0.000
513.276; 6154.150;  244.125;    0.000
513.409; 6172.150;  277.125;    0.000
513.542; 6100.150;  254.125;    0.000
513.675; 6181.150;  258.125;    0.000
513.808; 6096.150;  243.125;    0.000
513.941; 6082.150;  274.125;    0.000
514.074; 6077.150;  296.125;    0.000
514.207; 6167.150;  267.125;    0.000
514.340; 5967.150;  283.125;    0.000
514.474; 6087.150;  255.125;    0.000
514.607; 6026.150;  291.125;    0.000
514.740; 6213.150;  296.125;    0.000
514.873; 6264.150;  275.125;    0.000
515.006; 6490.150;  313.125;    0.000
515.139; 6296.150;  253.125;    0.000
515.272; 6484.150;  263.125;    0.000
515.404; 6607.150;  258.125;    0.000
515.537; 6405.150;  285.125;    0.000
515.670; 6598.150;  286.125;    0.000
515.803; 6433.150;  266.125;    0.000
515.936; 6567.150;  251.125;    0.000
516.069; 6448.150;  231.125;    0.000
516.202; 6641.150;  278.125;    0.000
516.335; 6748.150;  295.125;    0.000
516.468; 6995.150;  239.125;    0.000
516.600; 8190.150;  229.125;    0.000
516.733; 9873.150;  301.125;    0.000
516.866; 9819.150;  287.125;    0.000
516.999; 9181.150;  265.125;    0.000
517.132;10806.150;  291.125;    0.000
517.264;14732.150;  262.125;    0.000
517.397;14751.150;  292.125;    0.000
517.530;11508.150;  299.125;    0.000
517.663; 9683.150;  268.125;    0.000
517.795; 9070.150;  323.125;    0.000
517.928; 8645.150;  281.125;    0.000
518.061; 8924.150;  242.125;    0.000
518.193;10973.150;  279.125;    0.000
518.326;17008.150;  288.125;    0.000
518.459;18568.150;  251.125;    0.000
518.591;14275.150;  314.125;    0.000
518.724;10703.150;  279.125;    0.000
518.857; 9495.150;  245.125;    0.000
518.989; 8775.150;  290.125;    0.000
519.122; 8281.150;  319.125;    0.000
519.254; 7890.150;  295.125;    0.000
519.387; 7482.150;  271.125;    0.000
519.519; 7298.150;  312.125;    0.000
519.652; 7036.150;  289.125;    0.000
519.784; 6897.150;  311.125;    0.000
519.917; 6594.150;  283.125;    0.000
520.049; 6502.150;  281.125;    0.000
520.182; 6514.150;  242.125;    0.000
520.314; 6383.150;  310.125;    0.000
520.447; 6387.150;  215.125;    0.000
520.579; 6294.150;  277.125;    0.000
520.712; 6212.150;  224.125;    0.000
520.844; 6200.150;  293.125;    0.000
520.976; 6006.150;  281.125;    0.000
521.109; 6066.150;  279.125;    0.000
521.241; 6000.150;  318.125;    0.000
521.373; 5853.150;  242.125;    0.000
521.506; 5887.150;  246.125;    0.000
521.638; 5906.150;  312.125;    0.000
521.770; 5830.150;  257.125;    0.000
521.903; 5673.150;  295.125;    0.000
522.035; 5695.150;  283.125;    0.000
522.167; 5616.150;  281.125;    0.000
522.300; 5636.150;  262.125;    0.000
522.432; 5558.150;  272.125;    0.000
522.564; 5507.150;  277.125;    0.000
522.696; 5582.150;  295.125;    0.000
522.828; 5533.150;  284.125;    0.000
522.961; 5307.150;  295.125;    0.000
523.093; 5470.150;  282.125;    0.000
523.225; 5476.150;  270.125;    0.000
523.357; 5368.150;  285.125;    0.000
523.489; 5413.150;  292.125;    0.000
523.621; 5354.150;  285.125;    0.000
523.753; 5294.150;  273.125;    0.000
523.885; 5269.150;  271.125;    0.000
524.018; 5279.150;  276.125;    0.000
524.150; 5309.150;  320.125;    0.000
524.282; 5210.150;  304.125;    0.000
524.414; 5260.150;  302.125;    0.000
524.546; 5175.150;  305.125;    0.000
524.678; 5122.150;  264.125;    0.000
524.810; 5199.150;  258.125;    0.000
524.942; 5132.150;  252.125;    0.000
525.074; 5055.150;  275.125;    0.000
525.206; 5036.150;  286.125;    0.000
525.338; 5084.150;  280.125;    0.000
525.469; 5006.150;  267.125;    0.000
525.601; 5183.150;  266.125;    0.000
525.733; 4886.150;  283.125;    0.000
525.865; 5009.150;  273.125;    0.000
525.997; 5025.150;  286.125;    0.000
526.129; 5060.150;  249.125;    0.000
526.261; 4918.150;  233.125;    0.000
526.393; 4966.150;  257.125;    0.000
526.524; 4875.150;  184.125;    0.000
526.656; 4923.150;  259.125;    0.000
526.788; 4981.150;  268.125;    0.000
526.920; 4908.150;  262.125;    0.000
527.052; 4794.150;  250.125;    0.000
527.183; 4970.150;  264.125;    0.000
527.315; 4978.150;  301.125;    0.000
527.447; 4883.150;  262.125;    0.000
527.578; 4905.150;  267.125;    0.000
527.710; 4890.150;  299.125;    0.000
527.842; 4882.150;  266.125;    0.000
527.973; 4964.150;  240.125;    0.000
528.105; 4962.150;  275.125;    0.000
528.237; 4929.150;  239.125;    0.000
528.368; 4860.150;  275.125;    0.000
528.500; 4966.150;  271.125;    0.000
528.632; 4855.150;  252.125;    0.000
528.763; 4726.150;  253.125;    0.000
528.895; 4915.150;  259.125;    0.000
529.026; 4667.150;  209.125;    0.000
529.158; 4870.150;  291.125;    0.000
529.289; 4878.150;  280.125;    0.000
529.421; 4806.150;  274.125;    0.000
529.552; 4884.150;  253.125;    0.000
529.684; 4890.150;  310.125;    0.000
529.815; 4870.150;  305.125;    0.000
529.947; 4820.150;  234.125;    0.000
530.078; 4890.150;  259.125;    0.000
530.210; 4883.150;  264.125;    0.000
530.341; 4808.150;  267.125;    0.000
530.472; 4786.150;  232.125;    0.000
530.604; 4865.150;  293.125;    0.000
530.735; 4788.150;  275.125;    0.000
530.867; 4836.150;  280.125;    0.000
530.998; 4829.150;  295.125;    0.000
531.129; 4982.150;  274.125;    0.000
531.260; 4937.150;  272.125;    0.000
531.392; 4961.150;  275.125;    0.000
531.523; 4871.150;  244.125;    0.000
531.654; 4931.150;  289.125;    0.000
531.786; 5048.150;  259.125;    0.000
531.917; 5145.150;  286.125;    0.000
532.048; 4981.150;  293.125;    0.000
532.179; 5088.150;  288.125;    0.000
532.311; 4936.150;  296.125;    0.000
532.442; 4919.150;  277.125;    0.000
532.573; 5037.150;  273.125;    0.000
532.704; 4841.150;  308.125;    0.000
532.835; 4961.150;  308.125;    0.000
532.966; 4857.150;  274.125;    0.000
533.097; 4776.150;  310.125;    0.000
533.229; 4741.150;  294.125;    0.000
533.360; 4885.150;  324.125;    0.000
533.491; 4763.150;  278.125;    0.000
533.622; 4853.150;  319.125;    0.000
533.753; 4899.150;  303.125;    0.000
533.884; 4849.150;  269.125;    0.000
534.015; 4923.150;  266.125;    0.000
534.146; 4956.150;  283.125;    0.000
534.277; 5017.150;  299.125;    0.000
534.408; 4864.150;  265.125;    0.000
534.539; 4931.150;  310.125;    0.000
534.670; 4840.150;  319.125;    0.000
534.801; 4823.150;  281.125;    0.000
534.932; 4807.150;  239.125;    0.000
535.063; 4801.150;  276.125;    0.000
535.194; 4940.150;  361.125;    0.000
535.324; 4675.150;  283.125;    0.000
535.455; 4720.150;  282.125;    0.000
535.586; 4840.150;  331.125;    0.000
535.717; 4779.150;  262.125;    0.000
535.848; 4861.150;  308.125;    0.000
535.979; 4772.150;  273.125;    0.000
536.109; 4777.150;  277.125;    0.000
536.240; 4709.150;  293.125;    0.000
536.371; 4750.150;  295.125;    0.000
536.502; 4817.150;  330.125;    0.000
536.632; 4663.150;  280.125;    0.000
536.763; 4647.150;  332.125;    0.000
536.894; 4751.150;  334.125;    0.000
537.025; 4670.150;  295.125;    0.000
537.155; 4745.150;  321.125;    0.000
537.286; 4714.150;  292.125;    0.000
537.417; 4762.150;  314.125;    0.000
537.547; 4572.150;  287.125;    0.000
537.678; 4614.150;  287.125;    0.000
537.808; 4641.150;  278.125;    0.000
537.939; 4624.150;  304.125;    0.000
538.070; 4670.150;  303.125;    0.000
538.200; 4609.150;  279.125;    0.000
538.331; 4552.150;  321.125;    0.000
538.461; 4485.150;  313.125;    0.000
538.592; 4685.150;  290.125;    0.000
538.722; 4652.150;  285.125;    0.000
538.853; 4633.150;  261.125;    0.000
538.983; 4707.150;  280.125;    0.000
539.114; 4589.150;  310.125;    0.000
539.244; 4451.150;  281.125;    0.000
539.375; 4721.150;  292.125;    0.000
539.505; 4555.150;  286.125;    0.000
539.636; 4528.150;  276.125;    0.000
539.766; 4631.150;  287.125;    0.000
539.896; 4572.150;  292.125;    0.000
540.027; 4551.150;  262.125;    0.000
540.157; 4712.150;  269.125;    0.000
540.287; 4529.150;  282.125;    0.000
540.418; 4640.150;  269.125;    0.000
540.548; 4693.150;  328.125;    0.000
540.678; 4766.150;  271.125;    0.000
540.809; 4665.150;  272.125;    0.000
540.939; 4605.150;  299.125;    0.000
541.069; 4645.150;  266.125;    0.000
541.200; 4673.150;  242.125;    0.000
541.330; 4694.150;  257.125;    0.000
541.460; 4721.150;  270.125;    0.000
541.590; 4629.150;  287.125;    0.000
541.720; 4609.150;  255.125;    0.000
541.851; 4775.150;  273.125;    0.000
541.981; 4652.150;  244.125;    0.000
542.111; 4747.150;  263.125;    0.000
542.241; 4731.150;  271.125;    0.000
542.371; 4915.150;  263.125;    0.000
542.501; 5010.150;  274.125;    0.000
542.631; 4859.150;  288.125;    0.000
542.761; 4998.150;  261.125;    0.000
542.891; 4994.150;  253.125;    0.000
543.021; 5006.150;  249.125;    0.000
543.151; 5144.150;  261.125;    0.000
543.281; 5062.150;  256.125;    0.000
543.411; 4908.150;  290.125;    0.000
543.542; 4970.150;  278.125;    0.000
543.671; 4888.150;  238.125;    0.000
543.801; 4897.150;  256.125;    0.000
543.931; 4946.150;  254.125;    0.000
544.061; 4941.150;  237.125;    0.000
544.191; 4902.150;  245.125;    0.000
544.321; 4905.150;  267.125;    0.000
544.451; 4805.150;  262.125;    0.000
544.581; 4926.150;  221.125;    0.000
544.711; 4979.150;  252.125;    0.000
544.841; 5092.150;  264.125;    0.000
544.970; 5115.150;  315.125;    0.000
545.100; 5165.150;  245.125;    0.000
545.230; 5162.150;  276.125;    0.000
545.360; 5152.150;  278.125;    0.000
545.490; 5129.150;  268.125;    0.000
545.619; 5072.150;  237.125;    0.000
545.749; 4977.150;  228.125;    0.000
545.879; 4964.150;  234.125;    0.000
546.009; 4875.150;  287.125;    0.000
546.138; 4877.150;  222.125;    0.000
546.268; 4871.150;  228.125;    0.000
546.398; 4923.150;  244.125;    0.000
546.527; 4855.150;  233.125;    0.000
546.657; 4872.150;  189.125;    0.000
546.786; 4905.150;  247.125;    0.000
546.916; 4936.150;  244.125;    0.000
547.046; 4902.150;  214.125;    0.000
547.175; 4910.150;  242.125;    0.000
547.305; 4881.150;  252.125;    0.000
547.434; 4833.150;  191.125;    0.000
547.564; 4807.150;  208.125;    0.000
547.693; 4820.150;  213.125;    0.000
547.823; 4944.150;  209.125;    0.000
547.953; 4991.150;  250.125;    0.000
548.082; 4975.150;  231.125;    0.000
548.211; 4862.150;  226.125;    0.000
548.341; 4825.150;  254.125;    0.000
548.470; 4875.150;  266.125;    0.000
548.600; 4872.150;  229.125;    0.000
548.729; 4740.150;  225.125;    0.000
548.859; 4838.150;  185.125;    0.000
548.988; 4841.150;  225.125;    0.000
549.117; 4886.150;  241.125;    0.000
549.247; 4813.150;  236.125;    0.000
549.376; 4955.150;  220.125;    0.000
549.505; 4930.150;  254.125;    0.000
549.635; 4959.150;  268.125;    0.000
549.764; 4954.150;  194.125;    0.000
549.893; 5027.150;  232.125;    0.000
550.023; 4998.150;  222.125;    0.000
550.152; 5000.150;  223.125;    0.000
550.281; 4986.150;  210.125;    0.000
550.410; 4964.150;  197.125;    0.000
550.539; 5044.150;  222.125;    0.000
550.669; 5108.150;  245.125;    0.000
550.798; 5065.150;  265.125;    0.000
550.927; 5026.150;  249.125;    0.000
551.056; 5027.150;  184.125;    0.000
551.185; 4967.150;  247.125;    0.000
551.314; 5005.150;  258.125;    0.000
551.443; 5051.150;  224.125;    0.000
551.573; 5104.150;  204.125;    0.000
551.702; 4988.150;  220.125;    0.000
551.831; 5000.150;  287.125;    0.000
551.960; 5083.150;  259.125;    0.000
552.089; 4990.150;  222.125;    0.000
552.218; 5183.150;  254.125;    0.000
552.347; 5117.150;  260.125;    0.000
552.476; 5291.150;  251.125;    0.000
552.605; 5196.150;  229.125;    0.000
552.734; 5252.150;  261.125;    0.000
552.863; 5380.150;  225.125;    0.000
552.992; 5431.150;  202.125;    0.000
553.121; 5380.150;  193.125;    0.000
553.249; 5459.150;  224.125;    0.000
553.378; 5349.150;  274.125;    0.000
553.507; 5271.150;  248.125;    0.000
553.636; 5264.150;  203.125;    0.000
553.765; 5259.150;  224.125;    0.000
553.894; 5162.150;  246.125;    0.000
554.023; 5223.150;  229.125;    0.000
554.151; 5126.150;  216.125;    0.000
554.280; 5133.150;  223.125;    0.000
554.409; 5070.150;  240.125;    0.000
554.538; 5120.150;  277.125;    0.000
554.666; 5038.150;  244.125;    0.000
554.795; 4998.150;  240.125;    0.000
554.924; 4963.150;  257.125;    0.000
555.052; 5162.150;  266.125;    0.000
555.181; 5115.150;  244.125;    0.000
555.310; 5148.150;  262.125;    0.000
555.439; 4986.150;  260.125;    0.000
555.567; 4896.150;  234.125;    0.000
555.696; 4934.150;  237.125;    0.000
555.824; 4918.150;  232.125;    0.000
555.953; 5021.150;  279.125;    0.000
556.082; 4870.150;  234.125;    0.000
556.210; 5011.150;  235.125;    0.000
556.339; 4894.150;  198.125;    0.000
556.467; 4878.150;  216.125;    0.000
556.596; 4955.150;  273.125;    0.000
556.724; 4924.150;  245.125;    0.000
556.853; 4830.150;  241.125;    0.000
556.981; 4872.150;  219.125;    0.000
557.110; 4850.150;  242.125;    0.000
557.238; 4900.150;  202.125;    0.000
557.367; 4839.150;  254.125;    0.000
557.495; 4910.150;  260.125;    0.000
557.623; 4689.150;  207.125;    0.000
557.752; 4830.150;  219.125;    0.000
557.880; 4781.150;  209.125;    0.000
558.008; 4788.150;  243.125;    0.000
558.137; 4846.150;  244.125;    0.000
558.265; 4941.150;  221.125;    0.000
558.393; 4958.150;  297.125;    0.000
558.522; 4823.150;  232.125;    0.000
558.650; 4961.150;  299.125;    0.000
558.778; 4908.150;  210.125;    0.000
558.906; 4933.150;  240.125;    0.000
559.035; 4840.150;  252.125;    0.000
559.163; 4958.150;  246.125;    0.000
559.291; 4769.150;  213.125;    0.000
559.419; 4933.150;  221.125;    0.000
559.548; 4883.150;  208.125;    0.000
559.676; 4897.150;  254.125;    0.000
559.804; 5006.150;  213.125;    0.000
559.932; 4943.150;  208.125;    0.000
560.060; 5079.150;  276.125;    0.000
560.188; 5006.150;  278.125;    0.000
560.316; 5029.150;  217.125;    0.000
560.444; 5040.150;  254.125;    0.000
560.572; 5048.150;  226.125;    0.000
560.700; 5210.150;  282.125;    0.000
560.828; 5208.150;  211.125;    0.000
560.956; 5277.150;  264.125;    0.000
561.085; 5213.150;  295.125;    0.000
561.212; 5139.150;  229.125;    0.000
561.340; 5112.150;  259.125;    0.000
561.468; 5277.150;  253.125;    0.000
561.596; 5147.150;  240.125;    0.000
561.724; 5239.150;  259.125;    0.000
561.852; 5196.150;  224.125;    0.000
561.980; 5107.150;  251.125;    0.000
562.108; 5377.150;  214.125;    0.000
562.236; 5328.150;  258.125;    0.000
562.364; 5356.150;  237.125;    0.000
562.492; 5357.150;  228.125;    0.000
562.619; 5382.150;  223.125;    0.000
562.747; 5305.150;  263.125;    0.000
562.875; 5339.150;  257.125;    0.000
563.003; 5373.150;  216.125;    0.000
563.130; 5555.150;  190.125;    0.000
563.258; 5590.150;  225.125;    0.000
563.386; 5623.150;  259.125;    0.000
563.514; 5606.150;  264.125;    0.000
563.641; 5765.150;  230.125;    0.000
563.769; 5784.150;  257.125;    0.000
563.897; 5766.150;  210.125;    0.000
564.024; 5994.150;  221.125;    0.000
564.152; 5968.150;  256.125;    0.000
564.280; 5981.150;  225.125;    0.000
564.407; 6085.150;  262.125;    0.000
564.535; 6010.150;  235.125;    0.000
564.662; 6188.150;  238.125;    0.000
564.790; 6077.150;  248.125;    0.000
564.917; 6227.150;  214.125;    0.000
565.045; 6161.150;  253.125;    0.000
565.173; 6206.150;  225.125;    0.000
565.300; 6301.150;  261.125;    0.000
565.428; 6463.150;  218.125;    0.000
565.555; 6484.150;  245.125;    0.000
565.682; 6551.150;  242.125;    0.000
565.810; 6698.150;  228.125;    0.000
565.937; 6839.150;  230.125;    0.000
566.065; 6940.150;  251.125;    0.000
566.192; 6979.150;  196.125;    0.000
566.320; 7384.150;  217.125;    0.000
566.447; 7314.150;  224.125;    0.000
566.574; 7470.150;  221.125;    0.000
566.702; 7757.150;  221.125;    0.000
566.829; 7598.150;  252.125;    0.000
566.956; 7785.150;  214.125;    0.000
567.083; 7842.150;  204.125;    0.000
567.211; 7698.150;  216.125;    0.000
567.338; 8067.150;  228.125;    0.000
567.465; 8000.150;  208.125;    0.000
567.593; 7909.150;  205.125;    0.000
567.720; 8008.150;  194.125;    0.000
567.847; 8040.150;  268.125;    0.000
567.974; 8126.150;  198.125;    0.000
568.101; 8411.150;  224.125;    0.000
568.228; 9411.150;  236.125;    0.000
568.356; 9999.150;  207.125;    0.000
568.483; 9667.150;  220.125;    0.000
568.610; 9472.150;  181.125;    0.000
568.737;10782.150;  216.125;    0.000
568.864;12050.150;  258.125;    0.000
568.991;11336.150;  203.125;    0.000
569.118;10238.150;  232.125;    0.000
569.245; 9339.150;  192.125;    0.000
569.372; 8888.150;  226.125;    0.000
569.499; 8348.150;  211.125;    0.000
569.626; 7965.150;  247.125;    0.000
569.753; 7878.150;  248.125;    0.000
569.880; 7494.150;  226.125;    0.000
570.007; 7313.150;  215.125;    0.000
570.134; 7023.150;  205.125;    0.000
570.261; 7135.150;  187.125;    0.000
570.388; 6998.150;  258.125;    0.000
570.515; 6846.150;  241.125;    0.000
570.642; 6753.150;  211.125;    0.000
570.768; 6634.150;  228.125;    0.000
570.895; 6706.150;  229.125;    0.000
571.022; 6438.150;  203.125;    0.000
571.149; 6404.150;  206.125;    0.000
571.276; 6273.150;  191.125;    0.000
571.402; 6246.150;  218.125;    0.000
571.529; 6280.150;  192.125;    0.000
571.656; 5916.150;  209.125;    0.000
571.783; 6081.150;  181.125;    0.000
571.909; 5945.150;  251.125;    0.000
572.036; 5964.150;  225.125;    0.000
572.163; 5889.150;  214.125;    0.000
572.289; 5719.150;  252.125;    0.000
572.416; 5799.150;  220.125;    0.000
572.543; 5759.150;  225.125;    0.000
572.669; 5795.150;  226.125;    0.000
572.796; 5769.150;  231.125;    0.000
572.922; 5648.150;  258.125;    0.000
573.049; 5672.150;  202.125;    0.000
573.176; 5418.150;  254.125;    0.000
573.302; 5604.150;  215.125;    0.000
573.429; 5615.150;  251.125;    0.000
573.555; 5565.150;  221.125;    0.000
573.682; 5589.150;  227.125;    0.000
573.808; 5558.150;  259.125;    0.000
573.935; 5423.150;  233.125;    0.000
574.061; 5486.150;  241.125;    0.000
574.188; 5501.150;  238.125;    0.000
574.314; 5569.150;  221.125;    0.000
574.440; 5488.150;  221.125;    0.000
574.567; 5422.150;  216.125;    0.000
574.693; 5584.150;  224.125;    0.000
574.820; 5505.150;  199.125;    0.000
574.946; 5377.150;  248.125;    0.000
575.072; 5487.150;  220.125;    0.000
575.198; 5294.150;  262.125;    0.000
575.325; 5327.150;  232.125;    0.000
575.451; 5449.150;  225.125;    0.000
575.577; 5343.150;  216.125;    0.000
575.704; 5390.150;  248.125;    0.000
575.830; 5390.150;  227.125;    0.000
575.956; 5454.150;  206.125;    0.000
576.082; 5349.150;  222.125;    0.000
576.208; 5290.150;  206.125;    0.000
576.335; 5350.150;  256.125;    0.000
576.461; 5416.150;  247.125;    0.000
576.587; 5416.150;  219.125;    0.000
576.713; 5323.150;  215.125;    0.000
576.839; 5334.150;  225.125;    0.000
576.965; 5446.150;  230.125;    0.000
577.091; 5395.150;  235.125;    0.000
577.217; 5455.150;  235.125;    0.000
577.343; 5286.150;  233.125;    0.000
577.469; 5340.150;  242.125;    0.000
577.596; 5364.150;  241.125;    0.000
577.722; 5298.150;  255.125;    0.000
577.848; 5278.150;  235.125;    0.000
577.974; 5370.150;  210.125;    0.000
578.099; 5299.150;  239.125;    0.000
578.225; 5363.150;  258.125;    0.000
578.351; 5392.150;  209.125;    0.000
578.477; 5316.150;  255.125;    0.000
578.603; 5406.150;  213.125;    0.000
578.729; 5360.150;  221.125;    0.000
578.855; 5378.150;  209.125;    0.000
578.981; 5473.150;  206.125;    0.000
579.107; 5437.150;  221.125;    0.000
579.232; 5392.150;  206.125;    0.000
579.358; 5543.150;  226.125;    0.000
579.484; 5384.150;  244.125;    0.000
579.610; 5607.150;  261.125;    0.000
579.735; 5583.150;  270.125;    0.000
579.861; 5545.150;  255.125;    0.000
579.987; 5548.150;  249.125;    0.000
580.113; 5609.150;  260.125;    0.000
580.238; 5494.150;  206.125;    0.000
580.364; 5582.150;  249.125;    0.000
580.490; 5669.150;  225.125;    0.000
580.615; 5743.150;  266.125;    0.000
580.741; 5691.150;  224.125;    0.000
580.867; 5672.150;  251.125;    0.000
580.992; 5664.150;  270.125;    0.000
581.118; 5703.150;  248.125;    0.000
581.243; 5794.150;  251.125;    0.000
581.369; 5880.150;  192.125;    0.000
581.494; 5725.150;  259.125;    0.000
581.620; 5871.150;  245.125;    0.000
581.745; 5890.150;  232.125;    0.000
581.871; 5876.150;  243.125;    0.000
581.996; 5879.150;  216.125;    0.000
582.122; 5995.150;  263.125;    0.000
582.247; 5960.150;  254.125;    0.000
582.373; 6002.150;  232.125;    0.000
582.498; 6177.150;  275.125;    0.000
582.624; 6156.150;  260.125;    0.000
582.749; 6198.150;  251.125;    0.000
582.874; 6083.150;  245.125;    0.000
583.000; 6310.150;  278.125;    0.000
583.125; 6295.150;  211.125;    0.000
583.250; 6445.150;  246.125;    0.000
583.376; 6460.150;  259.125;    0.000
583.501; 6460.150;  254.125;    0.000
583.626; 6608.150;  209.125;    0.000
583.751; 6578.150;  239.125;    0.000
583.877; 6821.150;  255.125;    0.000
584.002; 6863.150;  263.125;    0.000
584.127; 6949.150;  205.125;    0.000
584.252; 7015.150;  196.125;    0.000
584.377; 7096.150;  249.125;    0.000
584.503; 7135.150;  219.125;    0.000
584.628; 7372.150;  243.125;    0.000
584.753; 7385.150;  250.125;    0.000
584.878; 7448.150;  208.125;    0.000
585.003; 7701.150;  234.125;    0.000
585.128; 7884.150;  207.125;    0.000
585.253; 7955.150;  219.125;    0.000
585.378; 8089.150;  205.125;    0.000
585.503; 8209.150;  256.125;    0.000
585.628; 8567.150;  217.125;    0.000
585.753; 8783.150;  213.125;    0.000
585.878; 8728.150;  147.125;    0.000
586.003; 9159.150;  256.125;    0.000
586.128; 9283.150;  214.125;    0.000
586.253; 9538.150;  254.125;    0.000
586.378;10004.150;  252.125;    0.000
586.503;10383.150;  219.125;    0.000
586.628;10852.150;  226.125;    0.000
586.753;11250.150;  237.125;    0.000
586.878;11538.150;  185.125;    0.000
587.003;12295.150;  248.125;    0.000
587.127;12730.150;  237.125;    0.000
587.252;13407.150;  221.125;    0.000
587.377;14206.150;  244.125;    0.000
587.502;14896.150;  260.125;    0.000
587.627;16122.150;  232.125;    0.000
587.751;17292.150;  250.125;    0.000
587.876;18752.150;  234.125;    0.000
588.001;20270.150;  248.125;    0.000
588.125;22505.150;  236.125;    0.000
588.250;25116.150;  192.125;    0.000
588.375;28633.150;  265.125;    0.000
588.499;32863.148;  235.125;    0.000
588.624;38984.148;  212.125;    0.000
588.749;46497.148;  214.125;    0.000
588.873;52937.148;  236.125;    0.000
588.998;57987.148;  230.125;    0.000
589.122;61098.148;  231.125;    0.000
589.247;58265.148;  250.125;    0.000
589.372;55183.148;  247.125;    0.000
589.496;55355.148;  230.125;    0.000
589.621;57192.148;  237.125;    0.000
589.745;55930.148;  277.125;    0.000
589.870;49097.148;  283.125;    0.000
589.994;40832.148;  263.125;    0.000
590.118;35020.148;  239.125;    0.000
590.243;30195.150;  218.125;    0.000
590.367;26916.150;  226.125;    0.000
590.492;24167.150;  269.125;    0.000
590.616;22157.150;  205.125;    0.000
590.740;20125.150;  243.125;    0.000
590.865;18616.150;  281.125;    0.000
590.989;17553.150;  233.125;    0.000
591.114;16602.150;  222.125;    0.000
591.238;15431.150;  204.125;    0.000
591.362;14849.150;  283.125;    0.000
591.486;14145.150;  236.125;    0.000
591.611;13347.150;  228.125;    0.000
591.735;12994.150;  249.125;    0.000
591.859;12330.150;  202.125;    0.000
591.983;12153.150;  257.125;    0.000
592.107;11569.150;  230.125;    0.000
592.232;11392.150;  266.125;    0.000
592.356;10920.150;  232.125;    0.000
592.480;10628.150;  245.125;    0.000
592.604;10511.150;  254.125;    0.000
592.728;10185.150;  233.125;    0.000
592.852; 9771.150;  213.125;    0.000
592.976; 9515.150;  234.125;    0.000
593.100; 9361.150;  246.125;    0.000
593.224; 9270.150;  305.125;    0.000
593.349; 9135.150;  240.125;    0.000
593.473; 8968.150;  206.125;    0.000
593.597; 8890.150;  243.125;    0.000
593.721; 8593.150;  247.125;    0.000
593.844; 8434.150;  230.125;    0.000
593.968; 8554.150;  226.125;    0.000
594.092; 8165.150;  193.125;    0.000
594.216; 8118.150;  237.125;    0.000
594.340; 7861.150;  235.125;    0.000
594.464; 7902.150;  225.125;    0.000
594.588; 7634.150;  269.125;    0.000
594.712; 7619.150;  242.125;    0.000
594.836; 7478.150;  240.125;    0.000
594.959; 7327.150;  255.125;    0.000
595.083; 7316.150;  258.125;    0.000
595.207; 7284.150;  264.125;    0.000
595.331; 7026.150;  215.125;    0.000
595.455; 6940.150;  234.125;    0.000
595.578; 6686.150;  215.125;    0.000
595.702; 6797.150;  259.125;    0.000
595.826; 6501.150;  232.125;    0.000
595.949; 6536.150;  251.125;    0.000
596.073; 6545.150;  197.125;    0.000
596.197; 6364.150;  239.125;    0.000
596.320; 6341.150;  229.125;    0.000
596.444; 6279.150;  264.125;    0.000
596.568; 6171.150;  207.125;    0.000
596.691; 6109.150;  234.125;    0.000
596.815; 6113.150;  241.125;    0.000
596.938; 6041.150;  244.125;    0.000
597.062; 6018.150;  210.125;    0.000
597.186; 5950.150;  247.125;    0.000
597.309; 5893.150;  215.125;    0.000
597.433; 5795.150;  266.125;    0.000
597.556; 5685.150;  234.125;    0.000
597.680; 5764.150;  261.125;    0.000
597.803; 5542.150;  239.125;    0.000
597.926; 5559.150;  251.125;    0.000
598.050; 5576.150;  227.125;    0.000
598.173; 5537.150;  247.125;    0.000
598.297; 5495.150;  244.125;    0.000
598.420; 5498.150;  243.125;    0.000
598.543; 5420.150;  237.125;    0.000
598.667; 5419.150;  239.125;    0.000
598.790; 5317.150;  217.125;    0.000
598.913; 5356.150;  244.125;    0.000
599.037; 5392.150;  249.125;    0.000
599.160; 5251.150;  222.125;    0.000
599.283; 5234.150;  235.125;    0.000
599.406; 5277.150;  228.125;    0.000
599.530; 5243.150;  234.125;    0.000
599.653; 5207.150;  228.125;    0.000
599.776; 5314.150;  263.125;    0.000
599.899; 5178.150;  197.125;    0.000
600.022; 5117.150;  224.125;    0.000
600.145; 4944.150;  211.125;    0.000
600.269; 5246.150;  246.125;    0.000
600.392; 5048.150;  233.125;    0.000
600.515; 4988.150;  266.125;    0.000
600.638; 4983.150;  246.125;    0.000
600.761; 4997.150;  213.125;    0.000
600.884; 4878.150;  279.125;    0.000
601.007; 4917.150;  268.125;    0.000
601.130; 4787.150;  203.125;    0.000
601.253; 4856.150;  241.125;    0.000
601.376; 4889.150;  248.125;    0.000
601.499; 4910.150;  241.125;    0.000
601.622; 4917.150;  266.125;    0.000
601.745; 4826.150;  237.125;    0.000
601.868; 4979.150;  256.125;    0.000
601.991; 4811.150;  260.125;    0.000
602.113; 4876.150;  246.125;    0.000
602.236; 4869.150;  243.125;    0.000
602.359; 4772.150;  220.125;    0.000
602.482; 4722.150;  236.125;    0.000
602.605; 4816.150;  216.125;    0.000
602.728; 4647.150;  247.125;    0.000
602.850; 4763.150;  255.125;    0.000
602.973; 4689.150;  224.125;    0.000
603.096; 4636.150;  258.125;    0.000
603.219; 4589.150;  222.125;    0.000
603.341; 4600.150;  235.125;    0.000
603.464; 4748.150;  223.125;    0.000
603.587; 4703.150;  250.125;    0.000
603.709; 4591.150;  229.125;    0.000
603.832; 4539.150;  285.125;    0.000
603.955; 4611.150;  225.125;    0.000
604.077; 4617.150;  235.125;    0.000
604.200; 4584.150;  209.125;    0.000
604.323; 4492.150;  240.125;    0.000
604.445; 4646.150;  198.125;    0.000
604.568; 4520.150;  230.125;    0.000
604.690; 4555.150;  225.125;    0.000
604.813; 4479.150;  248.125;    0.000
604.935; 4627.150;  204.125;    0.000
605.058; 4510.150;  191.125;    0.000
605.180; 4483.150;  237.125;    0.000
605.303; 4440.150;  224.125;    0.000
605.425; 4494.150;  244.125;    0.000
605.547; 4488.150;  268.125;    0.000
605.670; 4420.150;  211.125;    0.000
605.792; 4398.150;  266.125;    0.000
605.915; 4451.150;  202.125;    0.000
606.037; 4448.150;  236.125;    0.000
606.159; 4477.150;  234.125;    0.000
606.282; 4451.150;  223.125;    0.000
606.404; 4470.150;  217.125;    0.000
606.526; 4426.150;  221.125;    0.000
606.648; 4413.150;  204.125;    0.000
606.771; 4411.150;  265.125;    0.000
606.893; 4382.150;  211.125;    0.000
607.015; 4450.150;  206.125;    0.000
607.137; 4346.150;  222.125;    0.000
607.260; 4437.150;  228.125;    0.000
607.382; 4406.150;  202.125;    0.000
607.504; 4332.150;  257.125;    0.000
607.626; 4342.150;  249.125;    0.000
607.748; 4372.150;  233.125;    0.000
607.870; 4185.150;  222.125;    0.000
607.992; 4278.150;  227.125;    0.000
608.114; 4357.150;  228.125;    0.000
608.237; 4330.150;  254.125;    0.000
608.359; 4341.150;  216.125;    0.000
608.481; 4297.150;  197.125;    0.000
608.603; 4266.150;  209.125;    0.000
608.725; 4249.150;  220.125;    0.000
608.847; 4330.150;  259.125;    0.000
608.969; 4269.150;  242.125;    0.000
609.090; 4307.150;  218.125;    0.000
609.212; 4262.150;  200.125;    0.000
609.334; 4263.150;  212.125;    0.000
609.456; 4284.150;  231.125;    0.000
609.578; 4333.150;  249.125;    0.000
609.700; 4234.150;  185.125;    0.000
609.822; 4220.150;  200.125;    0.000
609.944; 4338.150;  236.125;    0.000
610.065; 4305.150;  255.125;    0.000
610.187; 4103.150;  208.125;    0.000
610.309; 4254.150;  202.125;    0.000
610.431; 4179.150;  232.125;    0.000
610.552; 4260.150;  232.125;    0.000
610.674; 4141.150;  217.125;    0.000
610.796; 4152.150;  186.125;    0.000
610.918; 4262.150;  211.125;    0.000
611.039; 4166.150;  244.125;    0.000
611.161; 4217.150;  202.125;    0.000
611.282; 4233.150;  212.125;    0.000
611.404; 4205.150;  235.125;    0.000
611.526; 4178.150;  213.125;    0.000
611.647; 4266.150;  248.125;    0.000
611.769; 4003.150;  205.125;    0.000
611.890; 4089.150;  224.125;    0.000
612.012; 4099.150;  189.125;    0.000
612.133; 4198.150;  186.125;    0.000
612.255; 4054.150;  246.125;    0.000
612.377; 4104.150;  230.125;    0.000
612.498; 4177.150;  196.125;    0.000
612.619; 4130.150;  234.125;    0.000
612.741; 4102.150;  221.125;    0.000
612.862; 4214.150;  227.125;    0.000
612.984; 4085.150;  189.125;    0.000
613.105; 4067.150;  232.125;    0.000
613.226; 4102.150;  199.125;    0.000
613.348; 4154.150;  260.125;    0.000
613.469; 4094.150;  217.125;    0.000
613.590; 4047.150;  236.125;    0.000
613.712; 4238.150;  226.125;    0.000
613.833; 4128.150;  231.125;    0.000
613.954; 4074.150;  236.125;    0.000
614.076; 4058.150;  236.125;    0.000
614.197; 4082.150;  228.125;    0.000
614.318; 4130.150;  207.125;    0.000
614.439; 3959.150;  237.125;    0.000
614.560; 4094.150;  202.125;    0.000
614.682; 4136.150;  230.125;    0.000
614.803; 4092.150;  236.125;    0.000
614.924; 4190.150;  257.125;    0.000
615.045; 4162.150;  228.125;    0.000
615.166; 4182.150;  221.125;    0.000
615.287; 4309.150;  199.125;    0.000
615.408; 4991.150;  228.125;    0.000
615.529; 5102.150;  200.125;    0.000
615.650; 4934.150;  224.125;    0.000
615.771; 4604.150;  202.125;    0.000
615.892; 4689.150;  215.125;    0.000
616.013; 5586.150;  246.125;    0.000
616.134; 6356.150;  210.125;    0.000
616.255; 5900.150;  232.125;    0.000
616.376; 5277.150;  241.125;    0.000
616.497; 4819.150;  213.125;    0.000
616.618; 4508.150;  171.125;    0.000
616.739; 4617.150;  221.125;    0.000
616.860; 4463.150;  244.125;    0.000
616.981; 4481.150;  240.125;    0.000
617.102; 4364.150;  234.125;    0.000
617.222; 4269.150;  265.125;    0.000
617.343; 4251.150;  206.125;    0.000
617.464; 4262.150;  246.125;    0.000
617.585; 4161.150;  256.125;    0.000
617.705; 4231.150;  249.125;    0.000
617.826; 4179.150;  218.125;    0.000
617.947; 4130.150;  225.125;    0.000
618.068; 4084.150;  199.125;    0.000
618.188; 4041.150;  202.125;    0.000
618.309; 4146.150;  220.125;    0.000
618.430; 4098.150;  229.125;    0.000
618.550; 3990.150;  252.125;    0.000
618.671; 4105.150;  233.125;    0.000
618.791; 4069.150;  227.125;    0.000
618.912; 4124.150;  236.125;    0.000
619.033; 4066.150;  220.125;    0.000
619.153; 3994.150;  228.125;    0.000
619.274; 4065.150;  208.125;    0.000
619.394; 4029.150;  255.125;    0.000
619.515; 4077.150;  206.125;    0.000
619.635; 3904.150;  204.125;    0.000
619.756; 3968.150;  252.125;    0.000
619.876; 3927.150;  238.125;    0.000
619.996; 3979.150;  249.125;    0.000
620.117; 3967.150;  223.125;    0.000
620.237; 3857.150;  210.125;    0.000
620.358; 3925.150;  264.125;    0.000
620.478; 3952.150;  263.125;    0.000
620.598; 3878.150;  238.125;    0.000
620.719; 3898.150;  225.125;    0.000
620.839; 3831.150;  259.125;    0.000
620.959; 3857.150;  218.125;    0.000
621.079; 3835.150;  253.125;    0.000
621.200; 3874.150;  245.125;    0.000
621.320; 3902.150;  254.125;    0.000
621.440; 3866.150;  233.125;    0.000
621.560; 3871.150;  235.125;    0.000
621.681; 3818.150;  234.125;    0.000
621.801; 3846.150;  240.125;    0.000
621.921; 3848.150;  239.125;    0.000
622.041; 3866.150;  288.125;    0.000
622.161; 3882.150;  229.125;    0.000
622.281; 3868.150;  223.125;    0.000
622.401; 3800.150;  240.125;    0.000
622.521; 3707.150;  267.125;    0.000
622.641; 3818.150;  226.125;    0.000
622.761; 3846.150;  252.125;    0.000
622.882; 3763.150;  207.125;    0.000
623.002; 3883.150;  226.125;    0.000
623.121; 3842.150;  207.125;    0.000
623.241; 3698.150;  215.125;    0.000
623.361; 3750.150;  222.125;    0.000
623.481; 3794.150;  187.125;    0.000
623.601; 3746.150;  283.125;    0.000
623.721; 3752.150;  283.125;    0.000
623.841; 3744.150;  233.125;    0.000
623.961; 3798.150;  215.125;    0.000
624.081; 3804.150;  219.125;    0.000
624.201; 3800.150;  221.125;    0.000
624.320; 3701.150;  215.125;    0.000
624.440; 3689.150;  222.125;    0.000
624.560; 3754.150;  231.125;    0.000
624.680; 3661.150;  225.125;    0.000
624.799; 3669.150;  230.125;    0.000
624.919; 3681.150;  243.125;    0.000
625.039; 3727.150;  203.125;    0.000
625.159; 3656.150;  257.125;    0.000
625.278; 3699.150;  230.125;    0.000
625.398; 3699.150;  195.125;    0.000
625.518; 3705.150;  211.125;    0.000
625.637; 3668.150;  267.125;    0.000
625.757; 3717.150;  228.125;    0.000
625.876; 3532.150;  231.125;    0.000
625.996; 3692.150;  219.125;    0.000
626.115; 3657.150;  235.125;    0.000
626.235; 3689.150;  199.125;    0.000
626.354; 3699.150;  226.125;    0.000
626.474; 3587.150;  225.125;    0.000
626.594; 3641.150;  223.125;    0.000
626.713; 3645.150;  231.125;    0.000
626.832; 3665.150;  287.125;    0.000
626.952; 3562.150;  251.125;    0.000
627.071; 3748.150;  254.125;    0.000
627.191; 3547.150;  193.125;    0.000
627.310; 3597.150;  213.125;    0.000
627.429; 3629.150;  259.125;    0.000
627.549; 3542.150;  243.125;    0.000
627.668; 3551.150;  181.125;    0.000
627.787; 3712.150;  232.125;    0.000
627.907; 3611.150;  222.125;    0.000
628.026; 3673.150;  219.125;    0.000
628.145; 3580.150;  201.125;    0.000
628.264; 3550.150;  198.125;    0.000
628.384; 3563.150;  208.125;    0.000
628.503; 3652.150;  251.125;    0.000
628.622; 3605.150;  195.125;    0.000
628.741; 3541.150;  180.125;    0.000
628.860; 3652.150;  235.125;    0.000
628.980; 3598.150;  222.125;    0.000
629.099; 3711.150;  237.125;    0.000
629.218; 3529.150;  175.125;    0.000
629.337; 3567.150;  194.125;    0.000
629.456; 3575.150;  225.125;    0.000
629.575; 3674.150;  239.125;    0.000
629.694; 3584.150;  230.125;    0.000
629.813; 3503.150;  197.125;    0.000
629.932; 3630.150;  225.125;    0.000
630.051; 3556.150;  238.125;    0.000
630.170; 3592.150;  233.125;    0.000
630.289; 3575.150;  231.125;    0.000
630.408; 3440.150;  204.125;    0.000
630.527; 3668.150;  262.125;    0.000
630.646; 3495.150;  181.125;    0.000
630.764; 3493.150;  218.125;    0.000
630.883; 3564.150;  215.125;    0.000
631.002; 3479.150;  224.125;    0.000
631.121; 3509.150;  209.125;    0.000
631.240; 3542.150;  230.125;    0.000
631.359; 3547.150;  235.125;    0.000
631.477; 3549.150;  223.125;    0.000
631.596; 3618.150;  218.125;    0.000
631.715; 3631.150;  234.125;    0.000
631.834; 3556.150;  215.125;    0.000
631.952; 3540.150;  243.125;    0.000
632.071; 3577.150;  219.125;    0.000
632.190; 3486.150;  235.125;    0.000
632.308; 3434.150;  239.125;    0.000
632.427; 3437.150;  211.125;    0.000
632.546; 3477.150;  233.125;    0.000
632.664; 3445.150;  219.125;    0.000
632.783; 3486.150;  203.125;    0.000
632.901; 3448.150;  221.125;    0.000
633.020; 3353.150;  197.125;    0.000
633.138; 3525.150;  244.125;    0.000
633.257; 3413.150;  205.125;    0.000
633.375; 3540.150;  245.125;    0.000
633.494; 3377.150;  218.125;    0.000
633.612; 3557.150;  222.125;    0.000
633.731; 3473.150;  212.125;    0.000
633.849; 3427.150;  218.125;    0.000
633.968; 3449.150;  236.125;    0.000
634.086; 3417.150;  233.125;    0.000
634.204; 3449.150;  215.125;    0.000
634.323; 3413.150;  230.125;    0.000
634.441; 3416.150;  235.125;    0.000
634.559; 3407.150;  202.125;    0.000
634.678; 3403.150;  218.125;    0.000
634.796; 3399.150;  203.125;    0.000
634.914; 3443.150;  227.125;    0.000
635.032; 3437.150;  279.125;    0.000
635.151; 3510.150;  221.125;    0.000
635.269; 3354.150;  207.125;    0.000
635.387; 3366.150;  195.125;    0.000
635.505; 3332.150;  243.125;    0.000
635.623; 3361.150;  269.125;    0.000
635.742; 3362.150;  232.125;    0.000
635.860; 3412.150;  243.125;    0.000
635.978; 3392.150;  215.125;    0.000
636.096; 3409.150;  225.125;    0.000
636.214; 3473.150;  244.125;    0.000
636.332; 3332.150;  226.125;    0.000
636.450; 3291.150;  227.125;    0.000
636.568; 3429.150;  225.125;    0.000
636.686; 3313.150;  194.125;    0.000
636.804; 3263.150;  234.125;    0.000
636.922; 3273.150;  177.125;    0.000
637.040; 3392.150;  225.125;    0.000
637.158; 3427.150;  194.125;    0.000
637.276; 3351.150;  219.125;    0.000
637.394; 3310.150;  219.125;    0.000
637.512; 3217.150;  210.125;    0.000
637.629; 3383.150;  242.125;    0.000
637.747; 3328.150;  193.125;    0.000
637.865; 3396.150;  219.125;    0.000
637.983; 3310.150;  251.125;    0.000
638.101; 3315.150;  221.125;    0.000
638.218; 3430.150;  193.125;    0.000
638.336; 3273.150;  224.125;    0.000
638.454; 3357.150;  227.125;    0.000
638.572; 3332.150;  245.125;    0.000
638.689; 3314.150;  222.125;    0.000
638.807; 3272.150;  244.125;    0.000
638.925; 3373.150;  238.125;    0.000
639.042; 3235.150;  213.125;    0.000
639.160; 3297.150;  186.125;    0.000
639.278; 3304.150;  203.125;    0.000
639.395; 3301.150;  270.125;    0.000
639.513; 3349.150;  227.125;    0.000
639.630; 3372.150;  200.125;    0.000
639.748; 3217.150;  199.125;    0.000
639.865; 3311.150;  233.125;    0.000
639.983; 3275.150;  181.125;    0.000
640.100; 3359.150;  219.125;    0.000
640.218; 3325.150;  234.125;    0.000
640.335; 3219.150;  233.125;    0.000
640.453; 3368.150;  202.125;    0.000
640.570; 3320.150;  214.125;    0.000
640.688; 3278.150;  215.125;    0.000
640.805; 3263.150;  229.125;    0.000
640.922; 3226.150;  244.125;    0.000
641.040; 3339.150;  233.125;    0.000
641.157; 3251.150;  199.125;    0.000
641.274; 3254.150;  205.125;    0.000
641.391; 3252.150;  244.125;    0.000
641.509; 3300.150;  184.125;    0.000
641.626; 3272.150;  244.125;    0.000
641.743; 3268.150;  221.125;    0.000
641.860; 3280.150;  206.125;    0.000
641.978; 3267.150;  272.125;    0.000
642.095; 3261.150;  218.125;    0.000
642.212; 3241.150;  208.125;    0.000
642.329; 3341.150;  218.125;    0.000
642.446; 3167.150;  197.125;    0.000
642.563; 3238.150;  214.125;    0.000
642.681; 3263.150;  203.125;    0.000
642.798; 3255.150;  236.125;    0.000
642.915; 3221.150;  191.125;    0.000
643.032; 3150.150;  226.125;    0.000
643.149; 3252.150;  231.125;    0.000
643.266; 3152.150;  213.125;    0.000
643.383; 3334.150;  240.125;    0.000
643.500; 3247.150;  185.125;    0.000
643.617; 3188.150;  229.125;    0.000
643.734; 3265.150;  205.125;    0.000
643.850; 3245.150;  222.125;    0.000
643.967; 3286.150;  202.125;    0.000
644.084; 3318.150;  264.125;    0.000
644.201; 3307.150;  214.125;    0.000
644.318; 3329.150;  206.125;    0.000
644.435; 3289.150;  225.125;    0.000
644.552; 3294.150;  203.125;    0.000
644.668; 3252.150;  252.125;    0.000
644.785; 3320.150;  213.125;    0.000
644.902; 3271.150;  233.125;    0.000
645.019; 3307.150;  220.125;    0.000
645.135; 3282.150;  225.125;    0.000
645.252; 3227.150;  218.125;    0.000
645.369; 3381.150;  214.125;    0.000
645.485; 3270.150;  210.125;    0.000
645.602; 3332.150;  198.125;    0.000
645.719; 3254.150;  228.125;    0.000
645.835; 3244.150;  209.125;    0.000
645.952; 3357.150;  213.125;    0.000
646.068; 3334.150;  241.125;    0.000
646.185; 3377.150;  219.125;    0.000
646.302; 3306.150;  246.125;    0.000
646.418; 3315.150;  228.125;    0.000
646.535; 3379.150;  256.125;    0.000
646.651; 3294.150;  222.125;    0.000
646.768; 3419.150;  203.125;    0.000
646.884; 3418.150;  199.125;    0.000
647.000; 3426.150;  194.125;    0.000
647.117; 3376.150;  214.125;    0.000
647.233; 3404.150;  209.125;    0.000
647.350; 3404.150;  235.125;    0.000
647.466; 3320.150;  237.125;    0.000
647.582; 3390.150;  231.125;    0.000
647.699; 3475.150;  219.125;    0.000
647.815; 3581.150;  200.125;    0.000
647.931; 3439.150;  173.125;    0.000
648.047; 3461.150;  184.125;    0.000
648.164; 3514.150;  199.125;    0.000
648.280; 3438.150;  209.125;    0.000
648.396; 3435.150;  220.125;    0.000
648.512; 3520.150;  212.125;    0.000
648.629; 3453.150;  214.125;    0.000
648.745; 3416.150;  197.125;    0.000
648.861; 3410.150;  228.125;    0.000
648.977; 3488.150;  238.125;    0.000
649.093; 3451.150;  208.125;    0.000
649.209; 3529.150;  179.125;    0.000
649.325; 3445.150;  256.125;    0.000
649.441; 3552.150;  224.125;    0.000
649.557; 3529.150;  247.125;    0.000
649.673; 3514.150;  214.125;    0.000
649.789; 3487.150;  213.125;    0.000
649.905; 3499.150;  170.125;    0.000
650.021; 3545.150;  236.125;    0.000
650.137; 3523.150;  229.125;    0.000
650.253; 3498.150;  207.125;    0.000
650.369; 3500.150;  198.125;    0.000
650.485; 3544.150;  225.125;    0.000
650.601; 3443.150;  260.125;    0.000
650.717; 3526.150;  196.125;    0.000
650.833; 3580.150;  219.125;    0.000
650.948; 3615.150;  203.125;    0.000
651.064; 3563.150;  232.125;    0.000
651.180; 3566.150;  252.125;    0.000
651.296; 3626.150;  190.125;    0.000
651.411; 3559.150;  235.125;    0.000
651.527; 3568.150;  227.125;    0.000
651.643; 3658.150;  238.125;    0.000
651.759; 3606.150;  260.125;    0.000
651.874; 3664.150;  217.125;    0.000
651.990; 3686.150;  239.125;    0.000
652.105; 3709.150;  215.125;    0.000
652.221; 3726.150;  237.125;    0.000
652.337; 3750.150;  238.125;    0.000
652.452; 3831.150;  230.125;    0.000
652.568; 3778.150;  201.125;    0.000
652.683; 3725.150;  243.125;    0.000
652.799; 3816.150;  218.125;    0.000
652.914; 3864.150;  189.125;    0.000
653.030; 3762.150;  191.125;    0.000
653.145; 3848.150;  240.125;    0.000
653.261; 3935.150;  225.125;    0.000
653.376; 3893.150;  241.125;    0.000
653.492; 3909.150;  188.125;    0.000
653.607; 3984.150;  219.125;    0.000
653.722; 4115.150;  268.125;    0.000
653.838; 4100.150;  262.125;    0.000
653.953; 4069.150;  188.125;    0.000
654.068; 4215.150;  244.125;    0.000
654.184; 4281.150;  247.125;    0.000
654.299; 4320.150;  228.125;    0.000
654.414; 4373.150;  181.125;    0.000
654.530; 4357.150;  210.125;    0.000
654.645; 4486.150;  240.125;    0.000
654.760; 4427.150;  219.125;    0.000
654.875; 4625.150;  178.125;    0.000
654.990; 4651.150;  222.125;    0.000
655.106; 4885.150;  227.125;    0.000
655.221; 4822.150;  270.125;    0.000
655.336; 4934.150;  199.125;    0.000
655.451; 5063.150;  235.125;    0.000
655.566; 5206.150;  251.125;    0.000
655.681; 5453.150;  253.125;    0.000
655.796; 5602.150;  207.125;    0.000
655.911; 5766.150;  213.125;    0.000
656.026; 5992.150;  247.125;    0.000
656.141; 6250.150;  209.125;    0.000
656.256; 6583.150;  226.125;    0.000
656.371; 6484.150;  201.125;    0.000
656.486; 6400.150;  196.125;    0.000
656.601; 6325.150;  239.125;    0.000
656.716; 6084.150;  234.125;    0.000
656.831; 6012.150;  223.125;    0.000
656.946; 5915.150;  246.125;    0.000
657.060; 5845.150;  230.125;    0.000
657.175; 5579.150;  207.125;    0.000
657.290; 5451.150;  213.125;    0.000
657.405; 5401.150;  319.125;    0.000
657.520; 5376.150;  241.125;    0.000
657.634; 5155.150;  235.125;    0.000
657.749; 5082.150;  275.125;    0.000
657.864; 5012.150;  210.125;    0.000
657.979; 4935.150;  227.125;    0.000
658.093; 4773.150;  206.125;    0.000
658.208; 4786.150;  217.125;    0.000
658.323; 4592.150;  227.125;    0.000
658.437; 4581.150;  217.125;    0.000
658.552; 4628.150;  237.125;    0.000
658.666; 4513.150;  233.125;    0.000
658.781; 4488.150;  248.125;    0.000
658.895; 4413.150;  233.125;    0.000
659.010; 4295.150;  238.125;    0.000
659.125; 4119.150;  206.125;    0.000
659.239; 4145.150;  220.125;    0.000
659.353; 4225.150;  236.125;    0.000
659.468; 4179.150;  238.125;    0.000
659.582; 4124.150;  275.125;    0.000
659.697; 4014.150;  239.125;    0.000
659.811; 4029.150;  232.125;    0.000
659.926; 4049.150;  230.125;    0.000
660.040; 3906.150;  257.125;    0.000
660.154; 3929.150;  221.125;    0.000
660.269; 3902.150;  219.125;    0.000
660.383; 3837.150;  228.125;    0.000
660.497; 3785.150;  243.125;    0.000
660.612; 3782.150;  238.125;    0.000
660.726; 3787.150;  260.125;    0.000
660.840; 3730.150;  239.125;    0.000
660.954; 3737.150;  236.125;    0.000
661.068; 3775.150;  239.125;    0.000
661.183; 3668.150;  245.125;    0.000
661.297; 3612.150;  198.125;    0.000
661.411; 3576.150;  203.125;    0.000
661.525; 3635.150;  244.125;    0.000
661.639; 3646.150;  229.125;    0.000
661.753; 3485.150;  238.125;    0.000
661.867; 3495.150;  237.125;    0.000
661.981; 3341.150;  219.125;    0.000
662.095; 3508.150;  232.125;    0.000
662.209; 3398.150;  236.125;    0.000
662.323; 3311.150;  209.125;    0.000
662.437; 3344.150;  206.125;    0.000
662.551; 3377.150;  217.125;    0.000
662.665; 3373.150;  262.125;    0.000
662.779; 3386.150;  234.125;    0.000
662.893; 3346.150;  222.125;    0.000
663.007; 3297.150;  189.125;    0.000
663.121; 3233.150;  258.125;    0.000
663.235; 3271.150;  191.125;    0.000
663.349; 3302.150;  259.125;    0.000
663.462; 3198.150;  209.125;    0.000
663.576; 3177.150;  244.125;    0.000
663.690; 3227.150;  237.125;    0.000
663.804; 3136.150;  205.125;    0.000
663.917; 3086.150;  207.125;    0.000
664.031; 3110.150;  234.125;    0.000
664.145; 3147.150;  216.125;    0.000
664.258; 3148.150;  202.125;    0.000
664.372; 3029.150;  198.125;    0.000
664.486; 3002.150;  181.125;    0.000
664.599; 3140.150;  229.125;    0.000
664.713; 3216.150;  266.125;    0.000
664.827; 2955.150;  185.125;    0.000
664.940; 3045.150;  225.125;    0.000
665.054; 2958.150;  198.125;    0.000
665.167; 3027.150;  208.125;    0.000
665.281; 2963.150;  231.125;    0.000
665.394; 2934.150;  228.125;    0.000
665.508; 2865.150;  204.125;    0.000
665.621; 2990.150;  263.125;    0.000
665.735; 3016.150;  222.125;    0.000
665.848; 2930.150;  237.125;    0.000
665.961; 2914.150;  180.125;    0.000
666.075; 2947.150;  212.125;    0.000
666.188; 3000.150;  229.125;    0.000
666.301; 2947.150;  247.125;    0.000
666.415; 2866.150;  212.125;    0.000
666.528; 2964.150;  268.125;    0.000
666.641; 2926.150;  210.125;    0.000
666.755; 2799.150;  178.125;    0.000
666.868; 2946.150;  227.125;    0.000
666.981; 2944.150;  250.125;    0.000
667.094; 2829.150;  228.125;    0.000
667.207; 2848.150;  235.125;    0.000
667.321; 2800.150;  171.125;    0.000
667.434; 2736.150;  191.125;    0.000
667.547; 2895.150;  279.125;    0.000
667.660; 2749.150;  210.125;    0.000
667.773; 2723.150;  217.125;    0.000
667.886; 2833.150;  209.125;    0.000
667.999; 2859.150;  239.125;    0.000
668.112; 2780.150;  227.125;    0.000
668.225; 2723.150;  185.125;    0.000
668.338; 2794.150;  222.125;    0.000
668.451; 2777.150;  200.125;    0.000
668.564; 2778.150;  237.125;    0.000
668.677; 2719.150;  207.125;    0.000
668.790; 2736.150;  208.125;    0.000
668.903; 2720.150;  243.125;    0.000
669.016; 2617.150;  190.125;    0.000
669.129; 2660.150;  234.125;    0.000
669.242; 2640.150;  185.125;    0.000
669.354; 2683.150;  224.125;    0.000
669.467; 2727.150;  219.125;    0.000
669.580; 2703.150;  249.125;    0.000
669.693; 2647.150;  187.125;    0.000
669.806; 2673.150;  206.125;    0.000
669.918; 2668.150;  192.125;    0.000
670.031; 2658.150;  235.125;    0.000
670.144; 2632.150;  238.125;    0.000
670.256; 2634.150;  237.125;    0.000
670.369; 2671.150;  237.125;    0.000
670.482; 2631.150;  250.125;    0.000
670.594; 2574.150;  273.125;    0.000
670.707; 2651.150;  223.125;    0.000
670.820; 2676.150;  238.125;    0.000
670.932; 2592.150;  224.125;    0.000
671.045; 2596.150;  219.125;    0.000
671.157; 2656.150;  242.125;    0.000
671.270; 2596.150;  235.125;    0.000
671.382; 2635.150;  213.125;    0.000
671.495; 2711.150;  254.125;    0.000
671.607; 2557.150;  253.125;    0.000
671.720; 2593.150;  169.125;    0.000
671.832; 2539.150;  201.125;    0.000
671.944; 2666.150;  250.125;    0.000
672.057; 2534.150;  187.125;    0.000
672.169; 2533.150;  224.125;    0.000
672.281; 2603.150;  238.125;    0.000
672.394; 2642.150;  250.125;    0.000
672.506; 2576.150;  227.125;    0.000
672.618; 2556.150;  223.125;    0.000
672.731; 2571.150;  210.125;    0.000
672.843; 2544.150;  245.125;    0.000
672.955; 2642.150;  263.125;    0.000
673.067; 2569.150;  239.125;    0.000
673.180; 2601.150;  253.125;    0.000
673.292; 2590.150;  243.125;    0.000
673.404; 2531.150;  226.125;    0.000
673.516; 2474.150;  223.125;    0.000
673.628; 2613.150;  223.125;    0.000
673.740; 2625.150;  216.125;    0.000
673.852; 2586.150;  277.125;    0.000
673.964; 2482.150;  211.125;    0.000
674.076; 2544.150;  241.125;    0.000
674.188; 2467.150;  251.125;    0.000
674.300; 2597.150;  268.125;    0.000
674.412; 2478.150;  260.125;    0.000
674.524; 2474.150;  257.125;    0.000
674.636; 2567.150;  222.125;    0.000
674.748; 2548.150;  227.125;    0.000
674.860; 2505.150;  250.125;    0.000
674.972; 2564.150;  240.125;    0.000
675.084; 2502.150;  262.125;    0.000
675.196; 2496.150;  287.125;    0.000
675.307; 2569.150;  257.125;    0.000
675.419; 2463.150;  231.125;    0.000
675.531; 2671.150;  274.125;    0.000
675.643; 2508.150;  235.125;    0.000
675.755; 2473.150;  275.125;    0.000
675.866; 2495.150;  238.125;    0.000
675.978; 2474.150;  209.125;    0.000
676.090; 2414.150;  239.125;    0.000
676.201; 2411.150;  249.125;    0.000
676.313; 2469.150;  237.125;    0.000
676.425; 2414.150;  263.125;    0.000
676.536; 2404.150;  178.125;    0.000
676.648; 2520.150;  245.125;    0.000
676.759; 2434.150;  244.125;    0.000
676.871; 2391.150;  242.125;    0.000
676.983; 2520.150;  245.125;    0.000
677.094; 2447.150;  209.125;    0.000
677.206; 2383.150;  248.125;    0.000
677.317; 2434.150;  260.125;    0.000
677.429; 2378.150;  237.125;    0.000
677.540; 2423.150;  226.125;    0.000
677.651; 2408.150;  226.125;    0.000
677.763; 2404.150;  194.125;    0.000
677.874; 2360.150;  230.125;    0.000
677.986; 2370.150;  202.125;    0.000
678.097; 2356.150;  229.125;    0.000
678.208; 2447.150;  263.125;    0.000
678.320; 2377.150;  243.125;    0.000
678.431; 2323.150;  229.125;    0.000
678.542; 2358.150;  231.125;    0.000
678.653; 2453.150;  224.125;    0.000
678.765; 2314.150;  255.125;    0.000
678.876; 2345.150;  175.125;    0.000
678.987; 2314.150;  204.125;    0.000
679.098; 2340.150;  227.125;    0.000
679.209; 2345.150;  228.125;    0.000
679.320; 2386.150;  223.125;    0.000
679.432; 2377.150;  219.125;    0.000
679.543; 2332.150;  210.125;    0.000
679.654; 2381.150;  249.125;    0.000
679.765; 2359.150;  222.125;    0.000
679.876; 2356.150;  219.125;    0.000
679.987; 2285.150;  213.125;    0.000
680.098; 2279.150;  237.125;    0.000
680.209; 2355.150;  188.125;    0.000
680.320; 2318.150;  243.125;    0.000
680.431; 2355.150;  227.125;    0.000
680.542; 2281.150;  212.125;    0.000
680.653; 2362.150;  266.125;    0.000
680.763; 2254.150;  198.125;    0.000
680.874; 2326.150;  211.125;    0.000
680.985; 2292.150;  207.125;    0.000
681.096; 2293.150;  244.125;    0.000
681.207; 2328.150;  209.125;    0.000
681.318; 2282.150;  215.125;    0.000
681.428; 2294.150;  199.125;    0.000
681.539; 2243.150;  175.125;    0.000
681.650; 2309.150;  224.125;    0.000
681.760; 2321.150;  216.125;    0.000
681.871; 2332.150;  187.125;    0.000
681.982; 2260.150;  237.125;    0.000
682.093; 2366.150;  213.125;    0.000
682.203; 2295.150;  190.125;    0.000
682.314; 2281.150;  230.125;    0.000
682.424; 2181.150;  223.125;    0.000
682.535; 2305.150;  172.125;    0.000
682.646; 2326.150;  268.125;    0.000
682.756; 2282.150;  249.125;    0.000
682.867; 2233.150;  225.125;    0.000
682.977; 2187.150;  211.125;    0.000
683.088; 2289.150;  238.125;    0.000
683.198; 2312.150;  202.125;    0.000
683.308; 2222.150;  196.125;    0.000
683.419; 2351.150;  230.125;    0.000
683.529; 2310.150;  213.125;    0.000
683.640; 2263.150;  225.125;    0.000
683.750; 2227.150;  203.125;    0.000
683.860; 2242.150;  200.125;    0.000
683.971; 2326.150;  269.125;    0.000
684.081; 2242.150;  204.125;    0.000
684.191; 2318.150;  228.125;    0.000
684.301; 2318.150;  219.125;    0.000
684.412; 2280.150;  222.125;    0.000
684.522; 2242.150;  242.125;    0.000
684.632; 2290.150;  234.125;    0.000
684.742; 2324.150;  240.125;    0.000
684.852; 2234.150;  229.125;    0.000
684.963; 2259.150;  237.125;    0.000
685.073; 2214.150;  205.125;    0.000
685.183; 2258.150;  241.125;    0.000
685.293; 2269.150;  202.125;    0.000
685.403; 2272.150;  232.125;    0.000
685.513; 2262.150;  244.125;    0.000
685.623; 2156.150;  224.125;    0.000
685.733; 2284.150;  236.125;    0.000
685.843; 2323.150;  235.125;    0.000
685.953; 2243.150;  216.125;    0.000
686.063; 2284.150;  214.125;    0.000
686.173; 2305.150;  198.125;    0.000
686.283; 2217.150;  250.125;    0.000
686.393; 2160.150;  227.125;    0.000
686.503; 2272.150;  244.125;    0.000
686.612; 2285.150;  247.125;    0.000
686.722; 2301.150;  265.125;    0.000
686.832; 2287.150;  213.125;    0.000
686.942; 2265.150;  241.125;    0.000
687.052; 2205.150;  238.125;    0.000
687.161; 2237.150;  233.125;    0.000
687.271; 2253.150;  232.125;    0.000
687.381; 2248.150;  220.125;    0.000
687.491; 2139.150;  206.125;    0.000
687.600; 2237.150;  283.125;    0.000
687.710; 2187.150;  212.125;    0.000
687.820; 2211.150;  226.125;    0.000
687.929; 2261.150;  202.125;    0.000
688.039; 2244.150;  225.125;    0.000
688.148; 2205.150;  235.125;    0.000
688.258; 2224.150;  224.125;    0.000
688.367; 2170.150;  239.125;    0.000
688.477; 2157.150;  193.125;    0.000
688.586; 2319.150;  226.125;    0.000
688.696; 2287.150;  185.125;    0.000
688.805; 2241.150;  190.125;    0.000
688.915; 2240.150;  209.125;    0.000
689.024; 2137.150;  214.125;    0.000
689.134; 2252.150;  205.125;    0.000
689.243; 2198.150;  190.125;    0.000
689.352; 2233.150;  233.125;    0.000
689.462; 2173.150;  196.125;    0.000
689.571; 2199.150;  227.125;    0.000
689.680; 2161.150;  206.125;    0.000
689.790; 2156.150;  193.125;    0.000
689.899; 2183.150;  204.125;    0.000
690.008; 2201.150;  228.125;    0.000
690.117; 2166.150;  207.125;    0.000
690.227; 2213.150;  231.125;    0.000
690.336; 2145.150;  222.125;    0.000
690.445; 2174.150;  198.125;    0.000
690.554; 2199.150;  202.125;    0.000
690.663; 2116.150;  217.125;    0.000
690.772; 2203.150;  213.125;    0.000
690.881; 2229.150;  225.125;    0.000
690.990; 2190.150;  217.125;    0.000
691.099; 2180.150;  205.125;    0.000
691.209; 2145.150;  220.125;    0.000
691.318; 2162.150;  216.125;    0.000
691.427; 2175.150;  188.125;    0.000
691.536; 2184.150;  224.125;    0.000
691.644; 2191.150;  212.125;    0.000
691.753; 2193.150;  216.125;    0.000
691.862; 2152.150;  250.125;    0.000
691.971; 2184.150;  210.125;    0.000
692.080; 2193.150;  232.125;    0.000
692.189; 2096.150;  218.125;    0.000
692.298; 2057.150;  220.125;    0.000
692.406; 2197.150;  261.125;    0.000
692.515; 2259.150;  253.125;    0.000
692.624; 2183.150;  224.125;    0.000
692.733; 2109.150;  209.125;    0.000
692.842; 2213.150;  214.125;    0.000
692.950; 2187.150;  206.125;    0.000
693.059; 2160.150;  180.125;    0.000
693.168; 2240.150;  220.125;    0.000
693.276; 2151.150;  196.125;    0.000
693.385; 2127.150;  203.125;    0.000
693.494; 2270.150;  263.125;    0.000
693.602; 2185.150;  222.125;    0.000
693.711; 2153.150;  178.125;    0.000
693.819; 2146.150;  230.125;    0.000
693.928; 2180.150;  187.125;    0.000
694.036; 2148.150;  219.125;    0.000
694.145; 2131.150;  223.125;    0.000
694.253; 2161.150;  241.125;    0.000
694.362; 2178.150;  229.125;    0.000
694.470; 2165.150;  223.125;    0.000
694.579; 2181.150;  195.125;    0.000
694.687; 2216.150;  257.125;    0.000
694.795; 2165.150;  230.125;    0.000
694.904; 2134.150;  196.125;    0.000
695.012; 2195.150;  247.125;    0.000
695.120; 2121.150;  215.125;    0.000
695.229; 2247.150;  244.125;    0.000
695.337; 2149.150;  197.125;    0.000
695.445; 2140.150;  270.125;    0.000
695.553; 2148.150;  241.125;    0.000
695.662; 2125.150;  249.125;    0.000
695.770; 2186.150;  244.125;    0.000
695.878; 2167.150;  236.125;    0.000
695.986; 2219.150;  253.125;    0.000
696.094; 2139.150;  242.125;    0.000
696.202; 2121.150;  174.125;    0.000
696.310; 2120.150;  230.125;    0.000
696.419; 2140.150;  218.125;    0.000
696.527; 2132.150;  226.125;    0.000
696.635; 2164.150;  217.125;    0.000
696.743; 2103.150;  221.125;    0.000
696.851; 2195.150;  259.125;    0.000
696.959; 2225.150;  245.125;    0.000
697.067; 2151.150;  235.125;    0.000
697.174; 2169.150;  238.125;    0.000
697.282; 2114.150;  208.125;    0.000
697.390; 2238.150;  265.125;    0.000
697.498; 2121.150;  202.125;    0.000
697.606; 2152.150;  219.125;    0.000
697.714; 2131.150;  245.125;    0.000
697.822; 2212.150;  222.125;    0.000
697.929; 2086.150;  194.125;    0.000
698.037; 2125.150;  223.125;    0.000
698.145; 2151.150;  213.125;    0.000
698.253; 2058.150;  234.125;    0.000
698.360; 2179.150;  211.125;    0.000
698.468; 2128.150;  241.125;    0.000
698.576; 2211.150;  249.125;    0.000
698.683; 2206.150;  268.125;    0.000
698.791; 2166.150;  223.125;    0.000
698.899; 2236.150;  251.125;    0.000
699.006; 2101.150;  216.125;    0.000
699.114; 2098.150;  256.125;    0.000
699.221; 2130.150;  226.125;    0.000
699.329; 2156.150;  255.125;    0.000
699.436; 2125.150;  213.125;    0.000
699.544; 2127.150;  258.125;    0.000
699.651; 2154.150;  214.125;    0.000
699.759; 2156.150;  229.125;    0.000
699.866; 2049.150;  239.125;    0.000
699.974; 2055.150;  224.125;    0.000
700.081; 2156.150;  227.125;    0.000
700.188; 2116.150;  267.125;    0.000
700.296; 2027.150;  222.125;    0.000
700.403; 2155.150;  225.125;    0.000
700.510; 2130.150;  248.125;    0.000
700.618; 2093.150;  223.125;    0.000
700.725; 1991.150;  243.125;    0.000
700.832; 2138.150;  239.125;    0.000
700.940; 2144.150;  284.125;    0.000
701.047; 2024.150;  216.125;    0.000
701.154; 2019.150;  249.125;    0.000
701.261; 2074.150;  229.125;    0.000
701.368; 2122.150;  247.125;    0.000
701.475; 2165.150;  208.125;    0.000
701.582; 2071.150;  262.125;    0.000
701.690; 2060.150;  224.125;    0.000
701.797; 2138.150;  294.125;    0.000
701.904; 2112.150;  303.125;    0.000
702.011; 2147.150;  278.125;    0.000
702.118; 2172.150;  279.125;    0.000
702.225; 2139.150;  342.125;    0.000
702.332; 2096.150;  281.125;    0.000
702.439; 2085.150;  313.125;    0.000
702.546; 2208.150;  295.125;    0.000
702.652; 2141.150;  293.125;    0.000
702.759; 2154.150;  333.125;    0.000
702.866; 2171.150;  272.125;    0.000
702.973; 2151.150;  310.125;    0.000
703.080; 2197.150;  313.125;    0.000
703.187; 2061.150;  316.125;    0.000
703.294; 2152.150;  328.125;    0.000
703.400; 2090.150;  312.125;    0.000
703.507;  508.150;  349.125;    0.000
703.614;  311.150;  298.125;    0.000
703.720;  323.150;  300.125;    0.000
703.827;  339.150;  346.125;    0.000
703.934;  344.150;  308.125;    0.000
704.040;  303.150;  300.125;    0.000
704.147;  314.150;  317.125;    0.000
704.254;  346.150;  350.125;    0.000
704.360;  330.150;  285.125;    0.000
704.467;  311.150;  334.125;    0.000
704.573;  346.150;  330.125;    0.000
704.680;  318.150;  312.125;    0.000
704.786;  308.150;  305.125;    0.000
704.893;  330.150;  330.125;    0.000
704.999;  328.150;  315.125;    0.000
705.106;  338.150;  327.125;    0.000

