
Integration time [ms]:   0.300
Averaging Nr. [scans]: 1
Smoothing Nr. [pixels]: 0
Data measured with spectrometer [name]: NIR
Wave   ;Sample   ;Dark     ;Reference
[nm]   ;[counts] ;[counts] ;[counts] 

691.496;   10.625;  155.525;    0.000
691.696;   11.625;  186.525;    0.000
691.896;   -8.375;  113.525;    0.000
692.096;   28.625;  169.525;    0.000
692.296;  -26.375;  119.525;    0.000
692.496;   39.625;  182.525;    0.000
692.695;  -22.375;  119.525;    0.000
692.895;   51.625;  183.525;    0.000
693.095;   -7.375;  119.525;    0.000
693.295;   32.625;  156.525;    0.000
693.495;   27.625;  145.525;    0.000
693.695;   10.625;  144.525;    0.000
693.894;   33.625;  174.525;    0.000
694.094;  -27.375;  148.525;    0.000
694.294;    6.625;  114.525;    0.000
694.494;  371.625;  137.525;    0.000
694.693; 3825.625;  112.525;    0.000
694.893; 4154.625;   85.525;    0.000
695.093; 4208.625;  152.525;    0.000
695.293; 4287.625;  159.525;    0.000
695.492; 4363.625;  131.525;    0.000
695.692; 4422.625;  134.525;    0.000
695.891; 4415.625;  161.525;    0.000
696.091; 4496.625;  180.525;    0.000
696.291; 4311.625;  120.525;    0.000
696.490; 4453.625;  146.525;    0.000
696.690; 4425.625;  145.525;    0.000
696.889; 4383.625;  171.525;    0.000
697.089; 4338.625;   98.525;    0.000
697.288; 4485.625;  172.525;    0.000
697.488; 4440.625;  137.525;    0.000
697.687; 4490.625;  171.525;    0.000
697.887; 4411.625;  142.525;    0.000
698.086; 4533.625;  159.525;    0.000
698.286; 4406.625;  122.525;    0.000
698.485; 4528.625;  121.525;    0.000
698.684; 4539.625;   94.525;    0.000
698.884; 4489.625;  131.525;    0.000
699.083; 4530.625;  112.525;    0.000
699.282; 4539.625;  119.525;    0.000
699.482; 4472.625;  117.525;    0.000
699.681; 4537.625;  115.525;    0.000
699.880; 4598.625;  166.525;    0.000
700.080; 4589.625;  194.525;    0.000
700.279; 4455.625;   98.525;    0.000
700.478; 4600.625;  159.525;    0.000
700.677; 4458.625;  134.525;    0.000
700.877; 4585.625;  171.525;    0.000
701.076; 4526.625;  141.525;    0.000
701.275; 4611.625;  119.525;    0.000
701.474; 4536.625;  132.525;    0.000
701.673; 4639.625;  141.525;    0.000
701.872; 4468.625;  158.525;    0.000
702.071; 4635.625;  129.525;    0.000
702.271; 4497.625;  122.525;    0.000
702.470; 4622.625;  158.525;    0.000
702.669; 4559.625;  145.525;    0.000
702.868; 4676.625;  135.525;    0.000
703.067; 4649.625;  169.525;    0.000
703.266; 4664.625;  125.525;    0.000
703.465; 4629.625;  153.525;    0.000
703.664; 4655.625;  113.525;    0.000
703.863; 4662.625;  170.525;    0.000
704.062; 4664.625;  115.525;    0.000
704.260; 4746.625;  133.525;    0.000
704.459; 4834.625;  123.525;    0.000
704.658; 4713.625;  105.525;    0.000
704.857; 4689.625;  125.525;    0.000
705.056; 4764.625;  108.525;    0.000
705.255; 4733.625;  117.525;    0.000
705.454; 4669.625;  126.525;    0.000
705.652; 4694.625;  137.525;    0.000
705.851; 4650.625;   95.525;    0.000
706.050; 4614.625;  120.525;    0.000
706.249; 4748.625;   81.525;    0.000
706.447; 4712.625;  105.525;    0.000
706.646; 4849.625;  107.525;    0.000
706.845; 4865.625;  104.525;    0.000
707.043; 4791.625;  136.525;    0.000
707.242; 4814.625;   89.525;    0.000
707.441; 4864.625;  147.525;    0.000
707.639; 4768.625;  156.525;    0.000
707.838; 4758.625;  114.525;    0.000
708.037; 4801.625;  100.525;    0.000
708.235; 4921.625;  103.525;    0.000
708.434; 4886.625;  102.525;    0.000
708.632; 4830.625;  100.525;    0.000
708.831; 4899.625;  121.525;    0.000
709.029; 4822.625;  102.525;    0.000
709.228; 4892.625;   88.525;    0.000
709.426; 4885.625;  135.525;    0.000
709.625; 4815.625;  128.525;    0.000
709.823; 4839.625;  123.525;    0.000
710.022; 4821.625;  137.525;    0.000
710.220; 4928.625;  134.525;    0.000
710.418; 5016.625;  122.525;    0.000
710.617; 4997.625;   64.525;    0.000
710.815; 4985.625;   94.525;    0.000
711.013; 4952.625;  127.525;    0.000
711.212; 4990.625;  105.525;    0.000
711.410; 4948.625;  117.525;    0.000
711.608; 5016.625;  114.525;    0.000
711.807; 5118.625;  119.525;    0.000
712.005; 4996.625;   92.525;    0.000
712.203; 4999.625;   95.525;    0.000
712.401; 5090.625;  107.525;    0.000
712.599; 5022.625;  127.525;    0.000
712.798; 5131.625;  120.525;    0.000
712.996; 5076.625;   76.525;    0.000
713.194; 5253.625;  118.525;    0.000
713.392; 5191.625;   60.525;    0.000
713.590; 5173.625;   92.525;    0.000
713.788; 5273.625;  110.525;    0.000
713.986; 5310.625;  130.525;    0.000
714.184; 5320.625;   71.525;    0.000
714.382; 5215.625;   86.525;    0.000
714.580; 5328.625;   74.525;    0.000
714.778; 5228.625;  133.525;    0.000
714.976; 5499.625;   81.525;    0.000
715.174; 5650.625;  100.525;    0.000
715.372; 5839.625;  141.525;    0.000
715.570; 6120.625;   73.525;    0.000
715.768; 6538.625;  119.525;    0.000
715.966; 6663.625;   81.525;    0.000
716.164; 6411.625;  130.525;    0.000
716.362; 6191.625;  125.525;    0.000
716.560; 6232.625;  109.525;    0.000
716.758; 6015.625;   96.525;    0.000
716.955; 5857.625;   83.525;    0.000
717.153; 5851.625;   87.525;    0.000
717.351; 5749.625;  123.525;    0.000
717.549; 5772.625;  121.525;    0.000
717.746; 5667.625;  128.525;    0.000
717.944; 5658.625;  132.525;    0.000
718.142; 5603.625;  120.525;    0.000
718.340; 5594.625;   94.525;    0.000
718.537; 5662.625;   95.525;    0.000
718.735; 5829.625;  152.525;    0.000
718.933; 5681.625;  124.525;    0.000
719.130; 5667.625;  114.525;    0.000
719.328; 5639.625;   63.525;    0.000
719.525; 5601.625;  146.525;    0.000
719.723; 5612.625;   96.525;    0.000
719.920; 5640.625;  120.525;    0.000
720.118; 5643.625;   59.525;    0.000
720.316; 5659.625;  116.525;    0.000
720.513; 5572.625;  127.525;    0.000
720.711; 5610.625;  110.525;    0.000
720.908; 5568.625;   92.525;    0.000
721.105; 5531.625;  138.525;    0.000
721.303; 5525.625;   90.525;    0.000
721.500; 5600.625;  126.525;    0.000
721.698; 5625.625;  103.525;    0.000
721.895; 5722.625;  206.525;    0.000
722.092; 5563.625;   63.525;    0.000
722.290; 5756.625;  123.525;    0.000
722.487; 5576.625;  137.525;    0.000
722.684; 5570.625;  126.525;    0.000
722.882; 5683.625;  119.525;    0.000
723.079; 5709.625;  132.525;    0.000
723.276; 5700.625;   98.525;    0.000
723.473; 5522.625;   97.525;    0.000
723.671; 5565.625;   43.525;    0.000
723.868; 5643.625;  142.525;    0.000
724.065; 5652.625;  102.525;    0.000
724.262; 5756.625;  119.525;    0.000
724.459; 5673.625;   73.525;    0.000
724.656; 5768.625;  128.525;    0.000
724.854; 5743.625;  135.525;    0.000
725.051; 5714.625;   81.525;    0.000
725.248; 5820.625;   88.525;    0.000
725.445; 5836.625;  129.525;    0.000
725.642; 5756.625;   76.525;    0.000
725.839; 5907.625;  134.525;    0.000
726.036; 5885.625;  101.525;    0.000
726.233; 5748.625;   68.525;    0.000
726.430; 5932.625;  121.525;    0.000
726.627; 5786.625;  136.525;    0.000
726.824; 5817.625;   87.525;    0.000
727.021; 5930.625;  141.525;    0.000
727.218; 5768.625;   92.525;    0.000
727.414; 5742.625;  121.525;    0.000
727.611; 5833.625;  100.525;    0.000
727.808; 5818.625;  130.525;    0.000
728.005; 5791.625;   83.525;    0.000
728.202; 5800.625;  120.525;    0.000
728.399; 5757.625;   75.525;    0.000
728.595; 5706.625;  148.525;    0.000
728.792; 5945.625;   79.525;    0.000
728.989; 5891.625;   86.525;    0.000
729.186; 5904.625;   80.525;    0.000
729.382; 5776.625;   72.525;    0.000
729.579; 5919.625;  112.525;    0.000
729.776; 5768.625;  106.525;    0.000
729.972; 5861.625;   77.525;    0.000
730.169; 6020.625;  118.525;    0.000
730.366; 5750.625;   92.525;    0.000
730.562; 5967.625;  104.525;    0.000
730.759; 5976.625;   95.525;    0.000
730.955; 5900.625;   85.525;    0.000
731.152; 5918.625;   79.525;    0.000
731.348; 5985.625;   72.525;    0.000
731.545; 5933.625;   56.525;    0.000
731.741; 5896.625;  106.525;    0.000
731.938; 5908.625;  113.525;    0.000
732.134; 5885.625;  106.525;    0.000
732.331; 5850.625;   82.525;    0.000
732.527; 5870.625;   80.525;    0.000
732.724; 6036.625;   97.525;    0.000
732.920; 5946.625;  127.525;    0.000
733.116; 5978.625;  115.525;    0.000
733.313; 5925.625;  153.525;    0.000
733.509; 5957.625;   76.525;    0.000
733.705; 6026.625;  159.525;    0.000
733.902; 5927.625;   82.525;    0.000
734.098; 5935.625;   70.525;    0.000
734.294; 5970.625;  105.525;    0.000
734.490; 6004.625;  110.525;    0.000
734.687; 5985.625;  102.525;    0.000
734.883; 5985.625;   77.525;    0.000
735.079; 6035.625;   93.525;    0.000
735.275; 6041.625;  109.525;    0.000
735.471; 5926.625;   99.525;    0.000
735.667; 6030.625;  107.525;    0.000
735.863; 6062.625;   89.525;    0.000
736.060; 5981.625;  105.525;    0.000
736.256; 6110.625;  113.525;    0.000
736.452; 6143.625;   90.525;    0.000
736.648; 6177.625;   88.525;    0.000
736.844; 6137.625;  129.525;    0.000
737.040; 6214.625;  139.525;    0.000
737.236; 6295.625;  129.525;    0.000
737.432; 6227.625;   67.525;    0.000
737.628; 6270.625;  104.525;    0.000
737.824; 6216.625;  111.525;    0.000
738.019; 6263.625;  116.525;    0.000
738.215; 6325.625;  135.525;    0.000
738.411; 6225.625;  118.525;    0.000
738.607; 6279.625;   58.525;    0.000
738.803; 6320.625;   32.525;    0.000
738.999; 6425.625;  120.525;    0.000
739.195; 6300.625;   76.525;    0.000
739.390; 6416.625;  119.525;    0.000
739.586; 6387.625;   83.525;    0.000
739.782; 6376.625;  134.525;    0.000
739.978; 6574.625;  122.525;    0.000
740.173; 6376.625;   96.525;    0.000
740.369; 6456.625;   86.525;    0.000
740.565; 6555.625;  122.525;    0.000
740.760; 6650.625;   99.525;    0.000
740.956; 6671.625;  137.525;    0.000
741.152; 6704.625;  108.525;    0.000
741.347; 6710.625;   65.525;    0.000
741.543; 6737.625;   73.525;    0.000
741.738; 6877.625;  142.525;    0.000
741.934; 7143.625;  131.525;    0.000
742.129; 7564.625;   66.525;    0.000
742.325; 8759.625;  143.525;    0.000
742.520; 9756.625;  119.525;    0.000
742.716; 8882.625;  109.525;    0.000
742.911; 8315.625;   62.525;    0.000
743.107; 8414.625;  119.525;    0.000
743.302; 8127.625;   78.525;    0.000
743.498; 8000.625;  130.525;    0.000
743.693; 8347.625;   75.525;    0.000
743.888; 8741.625;  135.525;    0.000
744.084;10163.625;  106.525;    0.000
744.279;12773.625;  101.525;    0.000
744.474;12900.625;   91.525;    0.000
744.670;11111.625;  144.525;    0.000
744.865;10274.625;  128.525;    0.000
745.060; 9453.625;   63.525;    0.000
745.255; 9132.625;  155.525;    0.000
745.451; 9044.625;  110.525;    0.000
745.646; 8815.625;  150.525;    0.000
745.841; 8713.625;  128.525;    0.000
746.036; 8686.625;  110.525;    0.000
746.231; 8858.625;  126.525;    0.000
746.426; 9726.625;   83.525;    0.000
746.622;11181.625;  157.525;    0.000
746.817;15276.625;  112.525;    0.000
747.012;17321.625;  115.525;    0.000
747.207;14943.625;  161.525;    0.000
747.402;13077.625;   88.525;    0.000
747.597;11898.625;  103.525;    0.000
747.792;11232.625;  152.525;    0.000
747.987;10734.625;   80.525;    0.000
748.182;10265.625;   89.525;    0.000
748.377;10036.625;  104.525;    0.000
748.572; 9477.625;  138.525;    0.000
748.767; 9098.625;  100.525;    0.000
748.961; 8703.625;  106.525;    0.000
749.156; 8532.625;  113.525;    0.000
749.351; 8494.625;  116.525;    0.000
749.546; 8124.625;  107.525;    0.000
749.741; 8157.625;  102.525;    0.000
749.936; 7973.625;  105.525;    0.000
750.130; 7902.625;  111.525;    0.000
750.325; 7665.625;   72.525;    0.000
750.520; 7634.625;   96.525;    0.000
750.715; 7604.625;  135.525;    0.000
750.909; 7508.625;  107.525;    0.000
751.104; 7417.625;  106.525;    0.000
751.299; 7488.625;  144.525;    0.000
751.493; 7401.625;  116.525;    0.000
751.688; 7330.625;   96.525;    0.000
751.882; 7240.625;   92.525;    0.000
752.077; 7236.625;  109.525;    0.000
752.272; 7100.625;   96.525;    0.000
752.466; 7004.625;  110.525;    0.000
752.661; 7075.625;  120.525;    0.000
752.855; 6960.625;   70.525;    0.000
753.050; 6964.625;  129.525;    0.000
753.244; 6988.625;  126.525;    0.000
753.439; 7042.625;  115.525;    0.000
753.633; 6843.625;  120.525;    0.000
753.828; 7008.625;  129.525;    0.000
754.022; 6782.625;  139.525;    0.000
754.216; 6752.625;  121.525;    0.000
754.411; 6849.625;  108.525;    0.000
754.605; 6787.625;   94.525;    0.000
754.799; 6844.625;  125.525;    0.000
754.994; 6809.625;  160.525;    0.000
755.188; 6734.625;  151.525;    0.000
755.382; 6884.625;  102.525;    0.000
755.576; 6903.625;  103.525;    0.000
755.771; 6818.625;   99.525;    0.000
755.965; 6848.625;  158.525;    0.000
756.159; 6783.625;   96.525;    0.000
756.353; 6786.625;  157.525;    0.000
756.547; 6689.625;  132.525;    0.000
756.742; 6743.625;  106.525;    0.000
756.936; 6748.625;  113.525;    0.000
757.130; 6639.625;  114.525;    0.000
757.324; 6739.625;  111.525;    0.000
757.518; 6732.625;  142.525;    0.000
757.712; 6849.625;  137.525;    0.000
757.906; 6848.625;   93.525;    0.000
758.100; 6803.625;  119.525;    0.000
758.294; 6751.625;  132.525;    0.000
758.488; 6800.625;  153.525;    0.000
758.682; 6670.625;  101.525;    0.000
758.876; 6666.625;  129.525;    0.000
759.070; 6679.625;  168.525;    0.000
759.264; 6743.625;   96.525;    0.000
759.458; 6742.625;  117.525;    0.000
759.651; 6575.625;  135.525;    0.000
759.845; 6597.625;  127.525;    0.000
760.039; 6643.625;  120.525;    0.000
760.233; 6687.625;  124.525;    0.000
760.427; 6607.625;  115.525;    0.000
760.620; 6615.625;  130.525;    0.000
760.814; 6622.625;  102.525;    0.000
761.008; 6627.625;  174.525;    0.000
761.202; 6761.625;  132.525;    0.000
761.395; 6573.625;  126.525;    0.000
761.589; 6671.625;  133.525;    0.000
761.783; 6663.625;  147.525;    0.000
761.976; 6825.625;  147.525;    0.000
762.170; 6772.625;  174.525;    0.000
762.363; 6604.625;   97.525;    0.000
762.557; 6649.625;  141.525;    0.000
762.750; 6719.625;  112.525;    0.000
762.944; 6826.625;  110.525;    0.000
763.138; 6838.625;  125.525;    0.000
763.331; 6788.625;  101.525;    0.000
763.524; 6942.625;  101.525;    0.000
763.718; 6947.625;  156.525;    0.000
763.911; 6863.625;  143.525;    0.000
764.105; 6889.625;  139.525;    0.000
764.298; 6822.625;   89.525;    0.000
764.492; 6875.625;  111.525;    0.000
764.685; 6785.625;  136.525;    0.000
764.878; 6875.625;  146.525;    0.000
765.072; 6838.625;  110.525;    0.000
765.265; 6879.625;  141.525;    0.000
765.458; 6769.625;   82.525;    0.000
765.651; 6788.625;  144.525;    0.000
765.845; 6915.625;   79.525;    0.000
766.038; 6897.625;  123.525;    0.000
766.231; 7523.625;  125.525;    0.000
766.424;10072.625;  131.525;    0.000
766.617;10128.625;   62.525;    0.000
766.811; 7207.625;  142.525;    0.000
767.004; 6932.625;  134.525;    0.000
767.197; 7033.625;  147.525;    0.000
767.390; 6876.625;  100.525;    0.000
767.583; 6932.625;  121.525;    0.000
767.776; 6927.625;   91.525;    0.000
767.969; 6998.625;  113.525;    0.000
768.162; 7144.625;  170.525;    0.000
768.355; 6912.625;  134.525;    0.000
768.548; 6958.625;  177.525;    0.000
768.741; 7075.625;   96.525;    0.000
768.934; 7187.625;  143.525;    0.000
769.127; 7194.625;  147.525;    0.000
769.320; 7058.625;   93.525;    0.000
769.513; 7261.625;  137.525;    0.000
769.706; 7945.625;   96.525;    0.000
769.898; 9885.625;  118.525;    0.000
770.091; 8379.625;  138.525;    0.000
770.284; 7463.625;  133.525;    0.000
770.477; 7528.625;  137.525;    0.000
770.670; 7452.625;  124.525;    0.000
770.862; 7454.625;  125.525;    0.000
771.055; 7615.625;  135.525;    0.000
771.248; 7411.625;  109.525;    0.000
771.441; 7558.625;  141.525;    0.000
771.633; 7548.625;  142.525;    0.000
771.826; 7507.625;  123.525;    0.000
772.018; 7721.625;  136.525;    0.000
772.211; 7793.625;  145.525;    0.000
772.404; 7939.625;  127.525;    0.000
772.596; 8052.625;  193.525;    0.000
772.789; 8091.625;   64.525;    0.000
772.981; 8104.625;  142.525;    0.000
773.174; 8396.625;  105.525;    0.000
773.366; 8227.625;  166.525;    0.000
773.559; 8278.625;  125.525;    0.000
773.751; 8381.625;  126.525;    0.000
773.944; 8676.625;  147.525;    0.000
774.136; 8724.625;  155.525;    0.000
774.329; 9053.625;  127.525;    0.000
774.521; 9209.625;  133.525;    0.000
774.713; 9414.625;  139.525;    0.000
774.906; 9680.625;  170.525;    0.000
775.098;10062.625;  144.525;    0.000
775.290;10568.625;  162.525;    0.000
775.483;11188.625;  137.525;    0.000
775.675;11935.625;  148.525;    0.000
775.867;12588.625;   81.525;    0.000
776.059;13995.625;  134.525;    0.000
776.251;15056.625;  137.525;    0.000
776.444;17294.625;  155.525;    0.000
776.636;20487.625;  148.525;    0.000
776.828;26362.625;  129.525;    0.000
777.020;38805.625;  133.525;    0.000
777.212;59348.625;  137.525;    0.000
777.404;65171.625;  124.525;    0.000
777.596;60191.625;  142.525;    0.000
777.788;43609.625;  155.525;    0.000
777.980;32406.625;  119.525;    0.000
778.172;25676.625;  129.525;    0.000
778.364;21825.625;  122.525;    0.000
778.556;19011.625;  129.525;    0.000
778.748;16898.625;  178.525;    0.000
778.940;15353.625;  128.525;    0.000
779.132;14066.625;  145.525;    0.000
779.324;12908.625;   89.525;    0.000
779.516;12085.625;  161.525;    0.000
779.708;11579.625;  183.525;    0.000
779.900;11034.625;  124.525;    0.000
780.091;10319.625;  143.525;    0.000
780.283;10176.625;  135.525;    0.000
780.475; 9764.625;  129.525;    0.000
780.667; 9421.625;  178.525;    0.000
780.859; 9155.625;  146.525;    0.000
781.050; 8917.625;  156.525;    0.000
781.242; 8728.625;  138.525;    0.000
781.434; 8648.625;  117.525;    0.000
781.625; 8394.625;  161.525;    0.000
781.817; 8389.625;  127.525;    0.000
782.008; 8106.625;  138.525;    0.000
782.200; 8098.625;  139.525;    0.000
782.392; 7756.625;  179.525;    0.000
782.583; 7827.625;  137.525;    0.000
782.775; 7690.625;  162.525;    0.000
782.966; 7745.625;  159.525;    0.000
783.158; 7407.625;  118.525;    0.000
783.349; 7386.625;  160.525;    0.000
783.541; 7425.625;  139.525;    0.000
783.732; 7227.625;  145.525;    0.000
783.924; 7246.625;  146.525;    0.000
784.115; 7245.625;  125.525;    0.000
784.306; 7169.625;  118.525;    0.000
784.498; 7120.625;  144.525;    0.000
784.689; 7121.625;  145.525;    0.000
784.880; 7065.625;  137.525;    0.000
785.072; 7024.625;  157.525;    0.000
785.263; 6858.625;  149.525;    0.000
785.454; 6898.625;  128.525;    0.000
785.645; 6888.625;  131.525;    0.000
785.837; 6868.625;  137.525;    0.000
786.028; 6882.625;  161.525;    0.000
786.219; 6901.625;  155.525;    0.000
786.410; 6919.625;  146.525;    0.000
786.601; 6826.625;  120.525;    0.000
786.792; 6702.625;  179.525;    0.000
786.984; 6819.625;  113.525;    0.000
787.175; 6886.625;  156.525;    0.000
787.366; 6883.625;  131.525;    0.000
787.557; 6811.625;  138.525;    0.000
787.748; 6807.625;  112.525;    0.000
787.939; 6807.625;  115.525;    0.000
788.130; 6799.625;  150.525;    0.000
788.321; 6851.625;  122.525;    0.000
788.512; 7037.625;  147.525;    0.000
788.703; 6985.625;  126.525;    0.000
788.894; 7007.625;   80.525;    0.000
789.084; 6887.625;  127.525;    0.000
789.275; 6971.625;  141.525;    0.000
789.466; 7064.625;  108.525;    0.000
789.657; 7188.625;  137.525;    0.000
789.848; 6991.625;  126.525;    0.000
790.039; 7245.625;  144.525;    0.000
790.229; 7007.625;  105.525;    0.000
790.420; 6950.625;   96.525;    0.000
790.611; 7124.625;  171.525;    0.000
790.801; 7011.625;   89.525;    0.000
790.992; 7108.625;  140.525;    0.000
791.183; 6987.625;  143.525;    0.000
791.373; 7023.625;  128.525;    0.000
791.564; 6990.625;   96.525;    0.000
791.755; 7003.625;  111.525;    0.000
791.945; 6970.625;  112.525;    0.000
792.136; 6819.625;  124.525;    0.000
792.326; 7007.625;   88.525;    0.000
792.517; 7083.625;  130.525;    0.000
792.707; 7065.625;  144.525;    0.000
792.898; 7013.625;  120.525;    0.000
793.088; 7183.625;  106.525;    0.000
793.279; 7185.625;  104.525;    0.000
793.469; 7181.625;  103.525;    0.000
793.660; 7400.625;  120.525;    0.000
793.850; 7580.625;  106.525;    0.000
794.040; 7867.625;  135.525;    0.000
794.231; 8270.625;   80.525;    0.000
794.421; 9064.625;  120.525;    0.000
794.611;10154.625;  154.525;    0.000
794.802;12118.625;  103.525;    0.000
794.992;12847.625;  120.525;    0.000
795.182;13093.625;  156.525;    0.000
795.372;12184.625;  104.525;    0.000
795.563;10771.625;  153.525;    0.000
795.753; 9561.625;  112.525;    0.000
795.943; 8935.625;  128.525;    0.000
796.133; 8510.625;  128.525;    0.000
796.323; 8086.625;  152.525;    0.000
796.513; 7735.625;  123.525;    0.000
796.703; 7686.625;  134.525;    0.000
796.893; 7469.625;  120.525;    0.000
797.083; 7213.625;  136.525;    0.000
797.273; 7163.625;  128.525;    0.000
797.463; 7011.625;  140.525;    0.000
797.653; 6751.625;   75.525;    0.000
797.843; 6712.625;  114.525;    0.000
798.033; 6594.625;   90.525;    0.000
798.223; 6581.625;  136.525;    0.000
798.413; 6477.625;  164.525;    0.000
798.603; 6427.625;  150.525;    0.000
798.793; 6230.625;  137.525;    0.000
798.983; 6311.625;  119.525;    0.000
799.172; 6212.625;  136.525;    0.000
799.362; 6136.625;  138.525;    0.000
799.552; 6213.625;  123.525;    0.000
799.742; 6167.625;  117.525;    0.000
799.932; 6123.625;  108.525;    0.000
800.121; 6060.625;  152.525;    0.000
800.311; 5982.625;  117.525;    0.000
800.501; 5936.625;  100.525;    0.000
800.690; 6047.625;  139.525;    0.000
800.880; 5979.625;  138.525;    0.000
801.070; 5968.625;  120.525;    0.000
801.259; 5861.625;  143.525;    0.000
801.449; 5874.625;  110.525;    0.000
801.638; 5909.625;  140.525;    0.000
801.828; 5905.625;  103.525;    0.000
802.017; 5824.625;   78.525;    0.000
802.207; 5786.625;  126.525;    0.000
802.396; 5853.625;  151.525;    0.000
802.586; 5702.625;  106.525;    0.000
802.775; 5834.625;  152.525;    0.000
802.965; 5764.625;  117.525;    0.000
803.154; 5717.625;  171.525;    0.000
803.343; 5824.625;  126.525;    0.000
803.533; 5649.625;  135.525;    0.000
803.722; 5649.625;  144.525;    0.000
803.911; 5704.625;  109.525;    0.000
804.101; 5708.625;  146.525;    0.000
804.290; 5778.625;  115.525;    0.000
804.479; 5670.625;  128.525;    0.000
804.668; 5708.625;  156.525;    0.000
804.857; 5616.625;  151.525;    0.000
805.047; 5706.625;  131.525;    0.000
805.236; 5631.625;  144.525;    0.000
805.425; 5645.625;  160.525;    0.000
805.614; 5486.625;  112.525;    0.000
805.803; 5650.625;  120.525;    0.000
805.992; 5523.625;  148.525;    0.000
806.181; 5593.625;  108.525;    0.000
806.370; 5532.625;  142.525;    0.000
806.559; 5551.625;  116.525;    0.000
806.748; 5573.625;  108.525;    0.000
806.937; 5703.625;  110.525;    0.000
807.126; 5650.625;  126.525;    0.000
807.315; 5704.625;  121.525;    0.000
807.504; 5621.625;  102.525;    0.000
807.693; 5662.625;  134.525;    0.000
807.882; 5611.625;  135.525;    0.000
808.071; 5683.625;  135.525;    0.000
808.260; 5518.625;   93.525;    0.000
808.448; 5708.625;  151.525;    0.000
808.637; 5725.625;  105.525;    0.000
808.826; 5527.625;  178.525;    0.000
809.015; 5697.625;  152.525;    0.000
809.203; 5671.625;  147.525;    0.000
809.392; 5688.625;  144.525;    0.000
809.581; 5718.625;  167.525;    0.000
809.770; 5751.625;  151.525;    0.000
809.958; 5674.625;  128.525;    0.000
810.147; 5761.625;  152.525;    0.000
810.335; 5828.625;  160.525;    0.000
810.524; 5905.625;  130.525;    0.000
810.713; 5851.625;  128.525;    0.000
810.901; 5959.625;  140.525;    0.000
811.090; 5992.625;  152.525;    0.000
811.278; 6038.625;  126.525;    0.000
811.467; 6178.625;  161.525;    0.000
811.655; 6309.625;  184.525;    0.000
811.844; 6179.625;  148.525;    0.000
812.032; 6156.625;  138.525;    0.000
812.220; 6121.625;  157.525;    0.000
812.409; 6259.625;  143.525;    0.000
812.597; 6168.625;  124.525;    0.000
812.785; 6261.625;  170.525;    0.000
812.974; 6206.625;  135.525;    0.000
813.162; 6346.625;  135.525;    0.000
813.350; 6301.625;  182.525;    0.000
813.539; 6448.625;  126.525;    0.000
813.727; 6424.625;  127.525;    0.000
813.915; 6467.625;  140.525;    0.000
814.103; 6417.625;  176.525;    0.000
814.291; 6392.625;  115.525;    0.000
814.479; 6512.625;  119.525;    0.000
814.668; 6624.625;  134.525;    0.000
814.856; 6829.625;  120.525;    0.000
815.044; 6852.625;  164.525;    0.000
815.232; 6918.625;  146.525;    0.000
815.420; 7082.625;  154.525;    0.000
815.608; 7142.625;  137.525;    0.000
815.796; 7150.625;  108.525;    0.000
815.984; 7406.625;  134.525;    0.000
816.172; 7425.625;  123.525;    0.000
816.360; 7835.625;  181.525;    0.000
816.548; 7935.625;  139.525;    0.000
816.736; 8183.625;  138.525;    0.000
816.924; 8619.625;  151.525;    0.000
817.111; 9018.625;  156.525;    0.000
817.299; 9505.625;  147.525;    0.000
817.487;10143.625;  188.525;    0.000
817.675;11133.625;  129.525;    0.000
817.863;12889.625;  128.525;    0.000
818.050;17253.625;  110.525;    0.000
818.238;32094.625;  166.525;    0.000
818.426;45979.625;  136.525;    0.000
818.613;33564.625;  143.525;    0.000
818.801;28042.625;  150.525;    0.000
818.989;26706.625;  179.525;    0.000
819.176;27455.625;  123.525;    0.000
819.364;40885.625;  148.525;    0.000
819.552;59440.625;   86.525;    0.000
819.739;41785.625;  169.525;    0.000
819.927;30055.625;  130.525;    0.000
820.114;25163.625;  144.525;    0.000
820.302;22204.625;  166.525;    0.000
820.489;19874.625;  145.525;    0.000
820.677;18250.625;  101.525;    0.000
820.864;17693.625;  149.525;    0.000
821.052;18019.625;  130.525;    0.000
821.239;18770.625;  147.525;    0.000
821.426;19829.625;  121.525;    0.000
821.614;24235.625;  187.525;    0.000
821.801;26332.625;  105.525;    0.000
821.988;22395.625;  167.525;    0.000
822.176;20985.625;  130.525;    0.000
822.363;21864.625;  143.525;    0.000
822.550;19713.625;  108.525;    0.000
822.737;17254.625;  109.525;    0.000
822.924;15767.625;  156.525;    0.000
823.112;14958.625;  123.525;    0.000
823.299;13808.625;  128.525;    0.000
823.486;13108.625;  138.525;    0.000
823.673;12373.625;  125.525;    0.000
823.860;11877.625;  138.525;    0.000
824.047;12357.625;  122.525;    0.000
824.234;13944.625;  134.525;    0.000
824.421;14290.625;   95.525;    0.000
824.608;12366.625;  151.525;    0.000
824.795;11018.625;  117.525;    0.000
824.982;10286.625;  143.525;    0.000
825.169; 9594.625;   83.525;    0.000
825.356; 8875.625;  126.525;    0.000
825.543; 8479.625;   92.525;    0.000
825.730; 8403.625;  113.525;    0.000
825.917; 8081.625;  142.525;    0.000
826.104; 7805.625;  182.525;    0.000
826.290; 7377.625;  137.525;    0.000
826.477; 7283.625;  126.525;    0.000
826.664; 7025.625;  135.525;    0.000
826.851; 6856.625;  139.525;    0.000
827.038; 6884.625;  135.525;    0.000
827.224; 6676.625;  143.525;    0.000
827.411; 6525.625;  153.525;    0.000
827.598; 6336.625;  122.525;    0.000
827.784; 6348.625;  138.525;    0.000
827.971; 6090.625;  134.525;    0.000
828.157; 6062.625;  152.525;    0.000
828.344; 5910.625;  135.525;    0.000
828.531; 5992.625;  137.525;    0.000
828.717; 5864.625;  117.525;    0.000
828.904; 5673.625;  127.525;    0.000
829.090; 5719.625;  172.525;    0.000
829.277; 5547.625;  144.525;    0.000
829.463; 5610.625;  159.525;    0.000
829.650; 5550.625;  187.525;    0.000
829.836; 5390.625;  138.525;    0.000
830.022; 5449.625;  196.525;    0.000
830.209; 5477.625;  118.525;    0.000
830.395; 5193.625;  148.525;    0.000
830.581; 5261.625;  108.525;    0.000
830.768; 5183.625;  137.525;    0.000
830.954; 5274.625;  162.525;    0.000
831.140; 5092.625;  117.525;    0.000
831.327; 5138.625;  176.525;    0.000
831.513; 5098.625;  162.525;    0.000
831.699; 4915.625;  157.525;    0.000
831.885; 4907.625;  153.525;    0.000
832.071; 4820.625;  123.525;    0.000
832.257; 4989.625;  142.525;    0.000
832.444; 4877.625;  165.525;    0.000
832.630; 4817.625;  159.525;    0.000
832.816; 4825.625;  145.525;    0.000
833.002; 4716.625;  120.525;    0.000
833.188; 4692.625;  145.525;    0.000
833.374; 4728.625;  137.525;    0.000
833.560; 4628.625;  152.525;    0.000
833.746; 4774.625;  139.525;    0.000
833.932; 4662.625;  170.525;    0.000
834.118; 4532.625;  111.525;    0.000
834.303; 4608.625;  141.525;    0.000
834.489; 4480.625;  146.525;    0.000
834.675; 4503.625;  156.525;    0.000
834.861; 4445.625;   87.525;    0.000
835.047; 4492.625;  134.525;    0.000
835.233; 4438.625;   89.525;    0.000
835.418; 4670.625;  145.525;    0.000
835.604; 4511.625;  136.525;    0.000
835.790; 4508.625;  132.525;    0.000
835.976; 4438.625;  161.525;    0.000
836.161; 4457.625;  157.525;    0.000
836.347; 4425.625;  147.525;    0.000
836.533; 4357.625;  116.525;    0.000
836.718; 4362.625;  168.525;    0.000
836.904; 4439.625;  199.525;    0.000
837.089; 4442.625;  165.525;    0.000
837.275; 4282.625;  166.525;    0.000
837.460; 4318.625;  144.525;    0.000
837.646; 4415.625;  164.525;    0.000
837.831; 4465.625;  122.525;    0.000
838.017; 4361.625;  163.525;    0.000
838.202; 4339.625;  139.525;    0.000
838.388; 4357.625;  174.525;    0.000
838.573; 4377.625;  140.525;    0.000
838.759; 4444.625;  167.525;    0.000
838.944; 4302.625;  142.525;    0.000
839.129; 4355.625;  164.525;    0.000
839.315; 4234.625;  129.525;    0.000
839.500; 4544.625;  150.525;    0.000
839.685; 4348.625;  118.525;    0.000
839.870; 4313.625;  177.525;    0.000
840.056; 4363.625;  144.525;    0.000
840.241; 4369.625;  121.525;    0.000
840.426; 4462.625;  131.525;    0.000
840.611; 4484.625;  177.525;    0.000
840.796; 4484.625;  173.525;    0.000
840.981; 4573.625;  156.525;    0.000
841.166; 4584.625;  145.525;    0.000
841.352; 4563.625;  150.525;    0.000
841.537; 4586.625;  143.525;    0.000
841.722; 4614.625;  165.525;    0.000
841.907; 4712.625;  184.525;    0.000
842.092; 4680.625;  171.525;    0.000
842.277; 4711.625;  155.525;    0.000
842.461; 4931.625;  152.525;    0.000
842.646; 4979.625;  107.525;    0.000
842.831; 5128.625;  160.525;    0.000
843.016; 5300.625;  160.525;    0.000
843.201; 5441.625;  164.525;    0.000
843.386; 5641.625;  134.525;    0.000
843.571; 6013.625;  132.525;    0.000
843.755; 6380.625;  158.525;    0.000
843.940; 6896.625;  152.525;    0.000
844.125; 7912.625;  154.525;    0.000
844.310; 9514.625;  147.525;    0.000
844.494;13344.625;  158.525;    0.000
844.679;19104.625;  173.525;    0.000
844.864;18514.625;  152.525;    0.000
845.048;14208.625;  139.525;    0.000
845.233;11523.625;  200.525;    0.000
845.418; 9776.625;  139.525;    0.000
845.602; 8584.625;  147.525;    0.000
845.787; 7785.625;  148.525;    0.000
845.971; 7092.625;  170.525;    0.000
846.156; 6525.625;  136.525;    0.000
846.340; 6294.625;  146.525;    0.000
846.525; 5916.625;  188.525;    0.000
846.709; 5476.625;  128.525;    0.000
846.893; 5420.625;  151.525;    0.000
847.078; 5160.625;  164.525;    0.000
847.262; 5089.625;  155.525;    0.000
847.447; 4890.625;  114.525;    0.000
847.631; 4682.625;  148.525;    0.000
847.815; 4618.625;  114.525;    0.000
848.000; 4510.625;  134.525;    0.000
848.184; 4502.625;  154.525;    0.000
848.368; 4389.625;  145.525;    0.000
848.552; 4423.625;  122.525;    0.000
848.736; 4235.625;  139.525;    0.000
848.921; 4271.625;  143.525;    0.000
849.105; 4183.625;  145.525;    0.000
849.289; 4176.625;  173.525;    0.000
849.473; 4061.625;  147.525;    0.000
849.657; 4103.625;  144.525;    0.000
849.841; 4041.625;  168.525;    0.000
850.025; 4047.625;  205.525;    0.000
850.209; 4050.625;  171.525;    0.000
850.393; 3936.625;  130.525;    0.000
850.577; 3971.625;  146.525;    0.000
850.761; 3894.625;  188.525;    0.000
850.945; 3909.625;  137.525;    0.000
851.129; 3839.625;  192.525;    0.000
851.313; 3906.625;  199.525;    0.000
851.497; 3701.625;  165.525;    0.000
851.680; 3837.625;  196.525;    0.000
851.864; 3776.625;  169.525;    0.000
852.048; 3835.625;  156.525;    0.000
852.232; 3907.625;  150.525;    0.000
852.416; 4040.625;  219.525;    0.000
852.599; 3782.625;  168.525;    0.000
852.783; 3854.625;  165.525;    0.000
852.967; 3785.625;  166.525;    0.000
853.150; 3739.625;  191.525;    0.000
853.334; 3724.625;  158.525;    0.000
853.518; 3897.625;  168.525;    0.000
853.701; 3723.625;  125.525;    0.000
853.885; 3778.625;  165.525;    0.000
854.068; 3705.625;  142.525;    0.000
854.252; 3766.625;  167.525;    0.000
854.435; 3746.625;  146.525;    0.000
854.619; 3687.625;  163.525;    0.000
854.802; 3763.625;  167.525;    0.000
854.986; 3674.625;  163.525;    0.000
855.169; 3663.625;  146.525;    0.000
855.353; 3739.625;  183.525;    0.000
855.536; 3711.625;  140.525;    0.000
855.719; 3681.625;  168.525;    0.000
855.903; 3765.625;  170.525;    0.000
856.086; 3769.625;  145.525;    0.000
856.269; 3789.625;  126.525;    0.000
856.452; 3855.625;  142.525;    0.000
856.636; 4110.625;  140.525;    0.000
856.819; 4510.625;  127.525;    0.000
857.002; 4618.625;  165.525;    0.000
857.185; 4386.625;  111.525;    0.000
857.368; 4245.625;  143.525;    0.000
857.552; 4123.625;  174.525;    0.000
857.735; 4095.625;  194.525;    0.000
857.918; 4189.625;  171.525;    0.000
858.101; 3983.625;  142.525;    0.000
858.284; 4110.625;  118.525;    0.000
858.467; 4255.625;  163.525;    0.000
858.650; 4289.625;  149.525;    0.000
858.833; 4358.625;  120.525;    0.000
859.016; 4395.625;  169.525;    0.000
859.199; 4627.625;  121.525;    0.000
859.382; 5199.625;  184.525;    0.000
859.564; 5606.625;  139.525;    0.000
859.747; 5485.625;  126.525;    0.000
859.930; 5065.625;  109.525;    0.000
860.113; 4869.625;  137.525;    0.000
860.296; 4791.625;  182.525;    0.000
860.478; 4537.625;  136.525;    0.000
860.661; 4568.625;  157.525;    0.000
860.844; 4432.625;  129.525;    0.000
861.027; 4402.625;  163.525;    0.000
861.209; 4351.625;  151.525;    0.000
861.392; 4368.625;  124.525;    0.000
861.575; 4482.625;  163.525;    0.000
861.757; 4526.625;  205.525;    0.000
861.940; 4591.625;  180.525;    0.000
862.122; 4671.625;  148.525;    0.000
862.305; 4646.625;  128.525;    0.000
862.487; 4985.625;  172.525;    0.000
862.670; 5573.625;  123.525;    0.000
862.852; 6855.625;  126.525;    0.000
863.035; 8259.625;  174.525;    0.000
863.217; 8197.625;  160.525;    0.000
863.400; 7190.625;  164.525;    0.000
863.582; 6538.625;  118.525;    0.000
863.764; 6033.625;  143.525;    0.000
863.947; 5837.625;  137.525;    0.000
864.129; 5536.625;  166.525;    0.000
864.311; 5409.625;  128.525;    0.000
864.493; 5443.625;  153.525;    0.000
864.676; 5310.625;  156.525;    0.000
864.858; 5212.625;  159.525;    0.000
865.040; 5200.625;  163.525;    0.000
865.222; 5116.625;  138.525;    0.000
865.404; 5243.625;  157.525;    0.000
865.587; 5651.625;  184.525;    0.000
865.769; 5954.625;  178.525;    0.000
865.951; 5784.625;  104.525;    0.000
866.133; 5794.625;  147.525;    0.000
866.315; 5807.625;  141.525;    0.000
866.497; 5837.625;  132.525;    0.000
866.679; 5913.625;  139.525;    0.000
866.861; 6222.625;  118.525;    0.000
867.043; 6629.625;  154.525;    0.000
867.225; 7091.625;  147.525;    0.000
867.407; 7562.625;  158.525;    0.000
867.589; 8630.625;  172.525;    0.000
867.770;10871.625;  159.525;    0.000
867.952;15924.625;  149.525;    0.000
868.134;21281.625;  156.525;    0.000
868.316;20875.625;  171.525;    0.000
868.498;19821.625;  200.525;    0.000
868.679;16777.625;  174.525;    0.000
868.861;13878.625;  175.525;    0.000
869.043;11316.625;  174.525;    0.000
869.224; 9837.625;  122.525;    0.000
869.406; 8896.625;  166.525;    0.000
869.588; 8200.625;  143.525;    0.000
869.769; 7741.625;  152.525;    0.000
869.951; 7592.625;  165.525;    0.000
870.132; 7734.625;  115.525;    0.000
870.314; 8838.625;  139.525;    0.000
870.495; 9058.625;  168.525;    0.000
870.677; 8092.625;  188.525;    0.000
870.858; 7682.625;  123.525;    0.000
871.040; 8319.625;  170.525;    0.000
871.221; 9509.625;  148.525;    0.000
871.403; 8971.625;  140.525;    0.000
871.584; 8084.625;  174.525;    0.000
871.765; 8039.625;  168.525;    0.000
871.947; 9005.625;  191.525;    0.000
872.128; 7860.625;  132.525;    0.000
872.309; 6663.625;  140.525;    0.000
872.491; 6110.625;  157.525;    0.000
872.672; 5683.625;  130.525;    0.000
872.853; 5498.625;  148.525;    0.000
873.034; 5478.625;  138.525;    0.000
873.215; 5087.625;  152.525;    0.000
873.396; 4809.625;  149.525;    0.000
873.578; 4467.625;  173.525;    0.000
873.759; 4411.625;  158.525;    0.000
873.940; 4227.625;  147.525;    0.000
874.121; 4125.625;  136.525;    0.000
874.302; 4148.625;  151.525;    0.000
874.483; 4041.625;  137.525;    0.000
874.664; 4137.625;  163.525;    0.000
874.845; 4063.625;  124.525;    0.000
875.026; 3982.625;  134.525;    0.000
875.207; 3874.625;  164.525;    0.000
875.388; 3830.625;  163.525;    0.000
875.568; 3724.625;  176.525;    0.000
875.749; 3609.625;  108.525;    0.000
875.930; 3533.625;  191.525;    0.000
876.111; 3551.625;  170.525;    0.000
876.292; 3543.625;  180.525;    0.000
876.472; 3488.625;  150.525;    0.000
876.653; 3392.625;  162.525;    0.000
876.834; 3334.625;  176.525;    0.000
877.015; 3379.625;  203.525;    0.000
877.195; 3335.625;  178.525;    0.000
877.376; 3268.625;  141.525;    0.000
877.556; 3334.625;  135.525;    0.000
877.737; 3239.625;  174.525;    0.000
877.918; 3197.625;  150.525;    0.000
878.098; 3233.625;  133.525;    0.000
878.279; 3200.625;  129.525;    0.000
878.459; 3277.625;  162.525;    0.000
878.640; 3199.625;  187.525;    0.000
878.820; 3080.625;  151.525;    0.000
879.000; 3128.625;  159.525;    0.000
879.181; 3244.625;  171.525;    0.000
879.361; 3186.625;  167.525;    0.000
879.542; 3045.625;  126.525;    0.000
879.722; 3080.625;  152.525;    0.000
879.902; 3200.625;  144.525;    0.000
880.083; 3220.625;  154.525;    0.000
880.263; 3217.625;  148.525;    0.000
880.443; 3358.625;  185.525;    0.000
880.623; 3764.625;  172.525;    0.000
880.803; 4242.625;  152.525;    0.000
880.984; 3760.625;  165.525;    0.000
881.164; 3468.625;  164.525;    0.000
881.344; 3437.625;  141.525;    0.000
881.524; 3374.625;  160.525;    0.000
881.704; 3355.625;  164.525;    0.000
881.884; 3546.625;  159.525;    0.000
882.064; 3852.625;  158.525;    0.000
882.244; 3892.625;  147.525;    0.000
882.424; 3651.625;  160.525;    0.000
882.604; 3437.625;  150.525;    0.000
882.784; 3291.625;  138.525;    0.000
882.964; 3266.625;  157.525;    0.000
883.144; 3100.625;  128.525;    0.000
883.324; 3077.625;  220.525;    0.000
883.504; 3034.625;  177.525;    0.000
883.683; 3027.625;  159.525;    0.000
883.863; 2937.625;  143.525;    0.000
884.043; 3014.625;  156.525;    0.000
884.223; 3002.625;  152.525;    0.000
884.402; 2949.625;  169.525;    0.000
884.582; 2859.625;  162.525;    0.000
884.762; 2980.625;  172.525;    0.000
884.941; 2949.625;  220.525;    0.000
885.121; 2851.625;  128.525;    0.000
885.301; 2920.625;  141.525;    0.000
885.480; 2885.625;  141.525;    0.000
885.660; 2876.625;  132.525;    0.000
885.839; 2808.625;  146.525;    0.000
886.019; 2797.625;  170.525;    0.000
886.198; 2808.625;  143.525;    0.000
886.378; 2778.625;  159.525;    0.000
886.557; 2754.625;  148.525;    0.000
886.737; 2756.625;  125.525;    0.000
886.916; 2782.625;  177.525;    0.000
887.095; 2734.625;  186.525;    0.000
887.275; 2709.625;  134.525;    0.000
887.454; 2715.625;  148.525;    0.000
887.633; 2788.625;  171.525;    0.000
887.813; 2807.625;  187.525;    0.000
887.992; 2699.625;  157.525;    0.000
888.171; 2734.625;  143.525;    0.000
888.350; 2743.625;  182.525;    0.000
888.530; 2806.625;  142.525;    0.000
888.709; 2669.625;  160.525;    0.000
888.888; 2675.625;  197.525;    0.000
889.067; 2727.625;  126.525;    0.000
889.246; 2751.625;  197.525;    0.000
889.425; 2731.625;  161.525;    0.000
889.604; 2736.625;  180.525;    0.000
889.783; 2755.625;  135.525;    0.000
889.962; 2691.625;  107.525;    0.000
890.141; 2699.625;  167.525;    0.000
890.320; 2689.625;  149.525;    0.000
890.499; 2732.625;  194.525;    0.000
890.678; 2719.625;  138.525;    0.000
890.857; 2655.625;  146.525;    0.000
891.036; 2611.625;  178.525;    0.000
891.214; 2642.625;  151.525;    0.000
891.393; 2786.625;  137.525;    0.000
891.572; 2629.625;  177.525;    0.000
891.751; 2541.625;  149.525;    0.000
891.930; 2679.625;  189.525;    0.000
892.108; 2665.625;  136.525;    0.000
892.287; 2559.625;  129.525;    0.000
892.466; 2614.625;  163.525;    0.000
892.644; 2592.625;  147.525;    0.000
892.823; 2607.625;  127.525;    0.000
893.001; 2642.625;  192.525;    0.000
893.180; 2617.625;  157.525;    0.000
893.359; 2735.625;  176.525;    0.000
893.537; 2648.625;  146.525;    0.000
893.716; 2659.625;  154.525;    0.000
893.894; 2619.625;  166.525;    0.000
894.073; 2676.625;  163.525;    0.000
894.251; 2613.625;  166.525;    0.000
894.429; 2684.625;  149.525;    0.000
894.608; 2615.625;  141.525;    0.000
894.786; 2649.625;  139.525;    0.000
894.964; 2696.625;  180.525;    0.000
895.143; 2678.625;  193.525;    0.000
895.321; 2646.625;  163.525;    0.000
895.499; 2657.625;  163.525;    0.000
895.677; 2748.625;  194.525;    0.000
895.856; 2674.625;  176.525;    0.000
896.034; 2655.625;  173.525;    0.000
896.212; 2661.625;  180.525;    0.000
896.390; 2722.625;  146.525;    0.000
896.568; 2698.625;  167.525;    0.000
896.746; 2763.625;  158.525;    0.000
896.924; 2583.625;  163.525;    0.000
897.102; 2670.625;  170.525;    0.000
897.280; 2683.625;  159.525;    0.000
897.458; 2697.625;  182.525;    0.000
897.636; 2705.625;  151.525;    0.000
897.814; 2787.625;  130.525;    0.000
897.992; 2815.625;  213.525;    0.000
898.170; 2725.625;  164.525;    0.000
898.348; 2744.625;  159.525;    0.000
898.526; 2792.625;  182.525;    0.000
898.704; 2751.625;  209.525;    0.000
898.882; 2759.625;  145.525;    0.000
899.059; 2766.625;  172.525;    0.000
899.237; 2736.625;  172.525;    0.000
899.415; 2742.625;  211.525;    0.000
899.593; 2709.625;  151.525;    0.000
899.770; 2739.625;  147.525;    0.000
899.948; 2861.625;  218.525;    0.000
900.125; 2846.625;  166.525;    0.000
900.303; 2831.625;  146.525;    0.000
900.481; 2834.625;  174.525;    0.000
900.658; 2881.625;  198.525;    0.000
900.836; 2858.625;  125.525;    0.000
901.013; 2903.625;  197.525;    0.000
901.191; 2959.625;  181.525;    0.000
901.368; 2957.625;  185.525;    0.000
901.546; 3060.625;  197.525;    0.000
901.723; 3155.625;  205.525;    0.000
901.901; 3165.625;  187.525;    0.000
902.078; 3235.625;  163.525;    0.000
902.255; 3240.625;  141.525;    0.000
902.433; 3268.625;  183.525;    0.000
902.610; 3361.625;  181.525;    0.000
902.787; 3372.625;  174.525;    0.000
902.964; 3501.625;  174.525;    0.000
903.142; 3584.625;  141.525;    0.000
903.319; 3606.625;  214.525;    0.000
903.496; 3616.625;  187.525;    0.000
903.673; 3552.625;  183.525;    0.000
903.850; 3716.625;  125.525;    0.000
904.027; 3836.625;  197.525;    0.000
904.204; 4075.625;  197.525;    0.000
904.381; 4488.625;  196.525;    0.000
904.558; 5248.625;  176.525;    0.000
904.735; 6066.625;  179.525;    0.000
904.912; 5938.625;  203.525;    0.000
905.089; 6145.625;  159.525;    0.000
905.266; 5568.625;  176.525;    0.000
905.443; 5044.625;  184.525;    0.000
905.620; 4679.625;  168.525;    0.000
905.797; 4399.625;  214.525;    0.000
905.974; 4256.625;  154.525;    0.000
906.151; 4388.625;  132.525;    0.000
906.327; 4278.625;  192.525;    0.000
906.504; 4213.625;  186.525;    0.000
906.681; 3927.625;  171.525;    0.000
906.858; 3870.625;  181.525;    0.000
907.034; 3754.625;  164.525;    0.000
907.211; 3621.625;  184.525;    0.000
907.388; 3638.625;  177.525;    0.000
907.564; 3415.625;  150.525;    0.000
907.741; 3481.625;  195.525;    0.000
907.917; 3351.625;  190.525;    0.000
908.094; 3336.625;  214.525;    0.000
908.271; 3279.625;  173.525;    0.000
908.447; 3227.625;  229.525;    0.000
908.623; 3266.625;  162.525;    0.000
908.800; 3141.625;  195.525;    0.000
908.976; 3186.625;  171.525;    0.000
909.153; 3105.625;  167.525;    0.000
909.329; 3073.625;  227.525;    0.000
909.505; 3185.625;  167.525;    0.000
909.682; 3148.625;  174.525;    0.000
909.858; 3039.625;  158.525;    0.000
910.034; 3048.625;  188.525;    0.000
910.211; 3050.625;  158.525;    0.000
910.387; 3022.625;  208.525;    0.000
910.563; 2972.625;  203.525;    0.000
910.739; 2995.625;  201.525;    0.000
910.915; 2972.625;  170.525;    0.000
911.091; 2965.625;  171.525;    0.000
911.268; 2899.625;  220.525;    0.000
911.444; 2842.625;  202.525;    0.000
911.620; 2911.625;  175.525;    0.000
911.796; 2842.625;  175.525;    0.000
911.972; 2848.625;  164.525;    0.000
912.148; 2853.625;  174.525;    0.000
912.324; 2803.625;  155.525;    0.000
912.500; 2925.625;  156.525;    0.000
912.676; 2745.625;  138.525;    0.000
912.851; 2826.625;  158.525;    0.000
913.027; 2864.625;  161.525;    0.000
913.203; 2855.625;  168.525;    0.000
913.379; 2856.625;  172.525;    0.000
913.555; 2874.625;  193.525;    0.000
913.730; 2741.625;  149.525;    0.000
913.906; 2818.625;  159.525;    0.000
914.082; 2833.625;  184.525;    0.000
914.258; 2786.625;  194.525;    0.000
914.433; 2835.625;  175.525;    0.000
914.609; 2790.625;  175.525;    0.000
914.784; 2841.625;  170.525;    0.000
914.960; 2778.625;  212.525;    0.000
915.136; 2787.625;  157.525;    0.000
915.311; 2921.625;  204.525;    0.000
915.487; 2857.625;  180.525;    0.000
915.662; 2866.625;  203.525;    0.000
915.838; 2929.625;  194.525;    0.000
916.013; 2853.625;  217.525;    0.000
916.189; 2882.625;  196.525;    0.000
916.364; 2898.625;  236.525;    0.000
916.539; 2863.625;  192.525;    0.000
916.715; 2786.625;  181.525;    0.000
916.890; 2946.625;  185.525;    0.000
917.065; 2917.625;  166.525;    0.000
917.240; 2757.625;  182.525;    0.000
917.416; 2881.625;  188.525;    0.000
917.591; 2901.625;  185.525;    0.000
917.766; 2893.625;  187.525;    0.000
917.941; 2820.625;  181.525;    0.000
918.116; 2832.625;  207.525;    0.000
918.292; 2842.625;  140.525;    0.000
918.467; 2832.625;  187.525;    0.000
918.642; 2800.625;  208.525;    0.000
918.817; 2830.625;  203.525;    0.000
918.992; 2826.625;  162.525;    0.000
919.167; 2959.625;  206.525;    0.000
919.342; 2916.625;  188.525;    0.000
919.517; 2930.625;  190.525;    0.000
919.692; 2907.625;  174.525;    0.000
919.867; 2903.625;  181.525;    0.000
920.041; 2947.625;  179.525;    0.000
920.216; 3004.625;  186.525;    0.000
920.391; 3061.625;  209.525;    0.000
920.566; 2995.625;  205.525;    0.000
920.741; 3199.625;  205.525;    0.000
920.915; 3305.625;  206.525;    0.000
921.090; 3516.625;  219.525;    0.000
921.265; 4160.625;  185.525;    0.000
921.439; 4799.625;  171.525;    0.000
921.614; 4211.625;  197.525;    0.000
921.789; 3854.625;  189.525;    0.000
921.963; 3642.625;  210.525;    0.000
922.138; 3448.625;  171.525;    0.000
922.312; 3339.625;  194.525;    0.000
922.487; 3463.625;  231.525;    0.000
922.661; 3559.625;  179.525;    0.000
922.836; 4029.625;  213.525;    0.000
923.010; 4096.625;  182.525;    0.000
923.185; 3653.625;  239.525;    0.000
923.359; 3611.625;  200.525;    0.000
923.534; 3583.625;  232.525;    0.000
923.708; 3756.625;  221.525;    0.000
923.882; 3942.625;  193.525;    0.000
924.057; 3752.625;  204.525;    0.000
924.231; 3621.625;  172.525;    0.000
924.405; 3559.625;  202.525;    0.000
924.579; 3524.625;  207.525;    0.000
924.753; 3491.625;  167.525;    0.000
924.928; 3436.625;  202.525;    0.000
925.102; 3448.625;  200.525;    0.000
925.276; 3513.625;  185.525;    0.000
925.450; 3584.625;  170.525;    0.000
925.624; 3649.625;  176.525;    0.000
925.798; 3810.625;  221.525;    0.000
925.972; 3996.625;  162.525;    0.000
926.146; 4378.625;  207.525;    0.000
926.320; 4842.625;  185.525;    0.000
926.494; 5280.625;  192.525;    0.000
926.668; 5593.625;  179.525;    0.000
926.842; 5676.625;  181.525;    0.000
927.016; 5745.625;  224.525;    0.000
927.190; 5629.625;  193.525;    0.000
927.363; 5400.625;  194.525;    0.000
927.537; 5142.625;  210.525;    0.000
927.711; 4938.625;  153.525;    0.000
927.885; 4712.625;  184.525;    0.000
928.058; 4670.625;  197.525;    0.000
928.232; 4458.625;  219.525;    0.000
928.406; 4343.625;  175.525;    0.000
928.579; 4145.625;  179.525;    0.000
928.753; 4076.625;  208.525;    0.000
928.927; 4087.625;  163.525;    0.000
929.100; 4021.625;  138.525;    0.000
929.274; 3891.625;  160.525;    0.000
929.447; 3770.625;  152.525;    0.000
929.621; 3720.625;  168.525;    0.000
929.794; 3647.625;  152.525;    0.000
929.968; 3568.625;  163.525;    0.000
930.141; 3471.625;  164.525;    0.000
930.315; 3511.625;  170.525;    0.000
930.488; 3460.625;  216.525;    0.000
930.661; 3329.625;  184.525;    0.000
930.835; 3246.625;  156.525;    0.000
931.008; 3303.625;  206.525;    0.000
931.181; 3259.625;  163.525;    0.000
931.354; 3264.625;  198.525;    0.000
931.528; 3208.625;  156.525;    0.000
931.701; 3171.625;  170.525;    0.000
931.874; 3119.625;  167.525;    0.000
932.047; 3043.625;  146.525;    0.000
932.220; 3068.625;  159.525;    0.000
932.393; 3056.625;  186.525;    0.000
932.566; 2933.625;  147.525;    0.000
932.739; 3031.625;  192.525;    0.000
932.912; 3043.625;  197.525;    0.000
933.085; 2948.625;  176.525;    0.000
933.258; 2946.625;  171.525;    0.000
933.431; 2894.625;  150.525;    0.000
933.604; 2779.625;  176.525;    0.000
933.777; 2925.625;  215.525;    0.000
933.950; 2768.625;  164.525;    0.000
934.123; 2819.625;  174.525;    0.000
934.296; 2871.625;  203.525;    0.000
934.468; 2845.625;  208.525;    0.000
934.641; 2794.625;  182.525;    0.000
934.814; 2812.625;  170.525;    0.000
934.987; 2753.625;  183.525;    0.000
935.159; 2721.625;  154.525;    0.000
935.332; 2804.625;  178.525;    0.000
935.505; 2791.625;  213.525;    0.000
935.677; 2772.625;  173.525;    0.000
935.850; 2688.625;  190.525;    0.000
936.022; 2768.625;  205.525;    0.000
936.195; 2764.625;  201.525;    0.000
936.367; 2745.625;  189.525;    0.000
936.540; 2888.625;  179.525;    0.000
936.712; 2892.625;  195.525;    0.000
936.885; 2814.625;  207.525;    0.000
937.057; 2882.625;  163.525;    0.000
937.229; 2846.625;  175.525;    0.000
937.402; 2896.625;  168.525;    0.000
937.574; 3004.625;  136.525;    0.000
937.746; 3165.625;  166.525;    0.000
937.919; 3227.625;  178.525;    0.000
938.091; 3325.625;  192.525;    0.000
938.263; 3562.625;  164.525;    0.000
938.435; 4014.625;  204.525;    0.000
938.608; 4624.625;  153.525;    0.000
938.780; 5495.625;  159.525;    0.000
938.952; 5592.625;  160.525;    0.000
939.124; 5715.625;  156.525;    0.000
939.296; 6857.625;  110.525;    0.000
939.468; 7110.625;  135.525;    0.000
939.640; 6107.625;  144.525;    0.000
939.812; 5320.625;  232.525;    0.000
939.984; 4687.625;  128.525;    0.000
940.156; 4302.625;  195.525;    0.000
940.328; 4015.625;  226.525;    0.000
940.500; 3751.625;  146.525;    0.000
940.672; 3724.625;  190.525;    0.000
940.843; 3585.625;  156.525;    0.000
941.015; 3469.625;  200.525;    0.000
941.187; 3273.625;  159.525;    0.000
941.359; 3289.625;  183.525;    0.000
941.531; 3284.625;  137.525;    0.000
941.702; 3140.625;  186.525;    0.000
941.874; 3030.625;  164.525;    0.000
942.046; 3028.625;  202.525;    0.000
942.217; 2910.625;  146.525;    0.000
942.389; 2918.625;  165.525;    0.000
942.560; 2754.625;  191.525;    0.000
942.732; 2697.625;  240.525;    0.000
942.904; 2720.625;  173.525;    0.000
943.075; 2649.625;  157.525;    0.000
943.247; 2637.625;  155.525;    0.000
943.418; 2503.625;  164.525;    0.000
943.589; 2570.625;  150.525;    0.000
943.761; 2610.625;  143.525;    0.000
943.932; 2642.625;  151.525;    0.000
944.104; 2576.625;  194.525;    0.000
944.275; 2539.625;  154.525;    0.000
944.446; 2505.625;  169.525;    0.000
944.617; 2481.625;  138.525;    0.000
944.789; 2513.625;  158.525;    0.000
944.960; 2450.625;  197.525;    0.000
945.131; 2487.625;  139.525;    0.000
945.302; 2494.625;  169.525;    0.000
945.473; 2466.625;  149.525;    0.000
945.645; 2424.625;  171.525;    0.000
945.816; 2551.625;  167.525;    0.000
945.987; 2677.625;  156.525;    0.000
946.158; 2683.625;  185.525;    0.000
946.329; 2681.625;  201.525;    0.000
946.500; 2552.625;  182.525;    0.000
946.671; 2401.625;  156.525;    0.000
946.842; 2492.625;  190.525;    0.000
947.013; 2395.625;  159.525;    0.000
947.183; 2464.625;  209.525;    0.000
947.354; 2356.625;  171.525;    0.000
947.525; 2316.625;  180.525;    0.000
947.696; 2274.625;  163.525;    0.000
947.867; 2393.625;  168.525;    0.000
948.037; 2338.625;  153.525;    0.000
948.208; 2364.625;  178.525;    0.000
948.379; 2462.625;  192.525;    0.000
948.550; 2365.625;  180.525;    0.000
948.720; 2364.625;  196.525;    0.000
948.891; 2337.625;  173.525;    0.000
949.061; 2288.625;  207.525;    0.000
949.232; 2319.625;  176.525;    0.000
949.403; 2344.625;  152.525;    0.000
949.573; 2302.625;  186.525;    0.000
949.744; 2316.625;  181.525;    0.000
949.914; 2216.625;  174.525;    0.000
950.085; 2373.625;  146.525;    0.000
950.255; 2386.625;  162.525;    0.000
950.425; 2305.625;  189.525;    0.000
950.596; 2246.625;  175.525;    0.000
950.766; 2344.625;  209.525;    0.000
950.936; 2222.625;  201.525;    0.000
951.107; 2271.625;  141.525;    0.000
951.277; 2272.625;  211.525;    0.000
951.447; 2301.625;  218.525;    0.000
951.617; 2242.625;  191.525;    0.000
951.788; 2149.625;  193.525;    0.000
951.958; 2261.625;  217.525;    0.000
952.128; 2108.625;  192.525;    0.000
952.298; 2196.625;  237.525;    0.000
952.468; 2171.625;  194.525;    0.000
952.638; 2168.625;  201.525;    0.000
952.808; 2134.625;  203.525;    0.000
952.978; 2176.625;  216.525;    0.000
953.148; 2158.625;  209.525;    0.000
953.318; 2193.625;  213.525;    0.000
953.488; 2220.625;  161.525;    0.000
953.658; 2155.625;  222.525;    0.000
953.828; 2164.625;  196.525;    0.000
953.998; 2181.625;  227.525;    0.000
954.167; 2126.625;  163.525;    0.000
954.337; 2024.625;  201.525;    0.000
954.507; 2077.625;  227.525;    0.000
954.677; 2080.625;  204.525;    0.000
954.846; 2142.625;  210.525;    0.000
955.016; 2031.625;  198.525;    0.000
955.186; 2080.625;  203.525;    0.000
955.355; 2086.625;  198.525;    0.000
955.525; 1970.625;  198.525;    0.000
955.695; 2079.625;  187.525;    0.000
955.864; 2073.625;  243.525;    0.000
956.034; 2026.625;  192.525;    0.000
956.203; 2025.625;  259.525;    0.000
956.373; 1911.625;  185.525;    0.000
956.542; 1945.625;  230.525;    0.000
956.711; 1984.625;  218.525;    0.000
956.881; 2005.625;  232.525;    0.000
957.050; 2032.625;  246.525;    0.000
957.220; 2031.625;  229.525;    0.000
957.389; 1970.625;  211.525;    0.000
957.558; 1986.625;  173.525;    0.000
957.727; 1926.625;  226.525;    0.000
957.897; 1974.625;  209.525;    0.000
958.066; 1863.625;  217.525;    0.000
958.235; 1919.625;  160.525;    0.000
958.404; 1877.625;  199.525;    0.000
958.573; 1913.625;  223.525;    0.000
958.743; 1869.625;  189.525;    0.000
958.912; 1903.625;  199.525;    0.000
959.081; 1991.625;  216.525;    0.000
959.250; 1918.625;  192.525;    0.000
959.419; 1940.625;  216.525;    0.000
959.588; 1912.625;  209.525;    0.000
959.757; 1863.625;  194.525;    0.000
959.926; 1841.625;  200.525;    0.000
960.094; 1841.625;  174.525;    0.000
960.263; 1864.625;  218.525;    0.000
960.432; 1870.625;  173.525;    0.000
960.601; 1913.625;  177.525;    0.000
960.770; 1902.625;  188.525;    0.000
960.939; 1916.625;  167.525;    0.000
961.107; 1904.625;  195.525;    0.000
961.276; 1821.625;  183.525;    0.000
961.445; 1838.625;  195.525;    0.000
961.613; 1815.625;  198.525;    0.000
961.782; 1782.625;  224.525;    0.000
961.951; 1830.625;  178.525;    0.000
962.119; 1896.625;  214.525;    0.000
962.288; 1845.625;  174.525;    0.000
962.456; 1825.625;  197.525;    0.000
962.625; 1873.625;  212.525;    0.000
962.793; 1769.625;  183.525;    0.000
962.962; 1816.625;  189.525;    0.000
963.130; 1824.625;  151.525;    0.000
963.298; 1856.625;  197.525;    0.000
963.467; 1802.625;  202.525;    0.000
963.635; 1778.625;  172.525;    0.000
963.803; 1830.625;  203.525;    0.000
963.972; 1800.625;  204.525;    0.000
964.140; 1860.625;  193.525;    0.000
964.308; 1735.625;  159.525;    0.000
964.477; 1781.625;  142.525;    0.000
964.645; 1781.625;  202.525;    0.000
964.813; 1838.625;  158.525;    0.000
964.981; 1864.625;  179.525;    0.000
965.149; 1893.625;  176.525;    0.000
965.317; 1928.625;  229.525;    0.000
965.485; 1872.625;  179.525;    0.000
965.653; 1907.625;  205.525;    0.000
965.821; 1872.625;  196.525;    0.000
965.989; 1848.625;  202.525;    0.000
966.157; 1816.625;  199.525;    0.000
966.325; 1874.625;  178.525;    0.000
966.493; 1795.625;  177.525;    0.000
966.661; 1762.625;  172.525;    0.000
966.829; 1686.625;  167.525;    0.000
966.996; 1806.625;  202.525;    0.000
967.164; 1805.625;  175.525;    0.000
967.332; 1905.625;  207.525;    0.000
967.500; 1817.625;  170.525;    0.000
967.667; 1813.625;  222.525;    0.000
967.835; 1881.625;  245.525;    0.000
968.003; 1886.625;  180.525;    0.000
968.170; 1878.625;  222.525;    0.000
968.338; 1782.625;  183.525;    0.000
968.505; 1806.625;  197.525;    0.000
968.673; 1826.625;  209.525;    0.000
968.841; 1771.625;  162.525;    0.000
969.008; 1773.625;  187.525;    0.000
969.175; 1763.625;  204.525;    0.000
969.343; 1769.625;  157.525;    0.000
969.510; 1867.625;  189.525;    0.000
969.678; 1715.625;  153.525;    0.000
969.845; 1828.625;  190.525;    0.000
970.012; 1809.625;  162.525;    0.000
970.180; 1756.625;  223.525;    0.000
970.347; 1817.625;  195.525;    0.000
970.514; 1771.625;  185.525;    0.000
970.681; 1706.625;  187.525;    0.000
970.849; 1764.625;  183.525;    0.000
971.016; 1732.625;  168.525;    0.000
971.183; 1828.625;  160.525;    0.000
971.350; 1775.625;  193.525;    0.000
971.517; 1799.625;  202.525;    0.000
971.684; 1772.625;  242.525;    0.000
971.851; 1752.625;  192.525;    0.000
972.018; 1736.625;  194.525;    0.000
972.185; 1747.625;  193.525;    0.000
972.352; 1767.625;  187.525;    0.000
972.519; 1810.625;  233.525;    0.000
972.686; 1740.625;  186.525;    0.000
972.853; 1738.625;  165.525;    0.000
973.020; 1705.625;  183.525;    0.000
973.186; 1693.625;  186.525;    0.000
973.353; 1739.625;  177.525;    0.000
973.520; 1778.625;  203.525;    0.000
973.687; 1669.625;  211.525;    0.000
973.853; 1724.625;  194.525;    0.000
974.020; 1786.625;  201.525;    0.000
974.187; 1701.625;  187.525;    0.000
974.353; 1793.625;  188.525;    0.000
974.520; 1718.625;  136.525;    0.000
974.687; 1796.625;  169.525;    0.000
974.853; 1737.625;  207.525;    0.000
975.020; 1748.625;  190.525;    0.000
975.186; 1692.625;  182.525;    0.000
975.353; 1683.625;  202.525;    0.000
975.519; 1712.625;  189.525;    0.000
975.685; 1728.625;  176.525;    0.000
975.852; 1760.625;  175.525;    0.000
976.018; 1768.625;  155.525;    0.000
976.184; 1681.625;  179.525;    0.000
976.351; 1700.625;  191.525;    0.000
976.517; 1746.625;  246.525;    0.000
976.683; 1732.625;  222.525;    0.000
976.849; 1738.625;  216.525;    0.000
977.016; 1750.625;  212.525;    0.000
977.182; 1724.625;  192.525;    0.000
977.348; 1771.625;  145.525;    0.000
977.514; 1708.625;  195.525;    0.000
977.680; 1695.625;  210.525;    0.000
977.846; 1679.625;  172.525;    0.000
978.012; 1698.625;  190.525;    0.000
978.178; 1683.625;  201.525;    0.000
978.344; 1702.625;  190.525;    0.000
978.510; 1715.625;  199.525;    0.000
978.676; 1685.625;  174.525;    0.000
978.842; 1707.625;  195.525;    0.000
979.008; 1653.625;  205.525;    0.000
979.174; 1703.625;  187.525;    0.000
979.340; 1703.625;  194.525;    0.000
979.505; 1740.625;  221.525;    0.000
979.671; 1655.625;  178.525;    0.000
979.837; 1674.625;  215.525;    0.000
980.003; 1707.625;  176.525;    0.000
980.168; 1721.625;  185.525;    0.000
980.334; 1714.625;  165.525;    0.000
980.499; 1753.625;  231.525;    0.000
980.665; 1727.625;  238.525;    0.000
980.831; 1711.625;  194.525;    0.000
980.996; 1670.625;  169.525;    0.000
981.162; 1733.625;  199.525;    0.000
981.327; 1740.625;  158.525;    0.000
981.493; 1699.625;  193.525;    0.000
981.658; 1661.625;  181.525;    0.000
981.823; 1683.625;  199.525;    0.000
981.989; 1718.625;  186.525;    0.000
982.154; 1726.625;  225.525;    0.000
982.319; 1749.625;  191.525;    0.000
982.485; 1758.625;  205.525;    0.000
982.650; 1805.625;  234.525;    0.000
982.815; 1805.625;  193.525;    0.000
982.980; 1775.625;  177.525;    0.000
983.146; 1814.625;  212.525;    0.000
983.311; 1755.625;  177.525;    0.000
983.476; 1686.625;  185.525;    0.000
983.641; 1672.625;  149.525;    0.000
983.806; 1721.625;  175.525;    0.000
983.971; 1691.625;  234.525;    0.000
984.136; 1669.625;  191.525;    0.000
984.301; 1753.625;  215.525;    0.000
984.466; 1714.625;  207.525;    0.000
984.631; 1780.625;  206.525;    0.000
984.796; 1761.625;  229.525;    0.000
984.961; 1752.625;  220.525;    0.000
985.126; 1750.625;  204.525;    0.000
985.291; 1651.625;  210.525;    0.000
985.455; 1668.625;  193.525;    0.000
985.620; 1634.625;  207.525;    0.000
985.785; 1740.625;  188.525;    0.000
985.950; 1705.625;  168.525;    0.000
986.114; 1791.625;  239.525;    0.000
986.279; 1780.625;  223.525;    0.000
986.444; 1811.625;  154.525;    0.000
986.608; 1770.625;  232.525;    0.000
986.773; 1824.625;  214.525;    0.000
986.937; 1837.625;  220.525;    0.000
987.102; 1802.625;  224.525;    0.000
987.266; 1777.625;  157.525;    0.000
987.431; 1753.625;  246.525;    0.000
987.595; 1750.625;  203.525;    0.000
987.760; 1718.625;  202.525;    0.000
987.924; 1735.625;  208.525;    0.000
988.088; 1726.625;  169.525;    0.000
988.253; 1766.625;  237.525;    0.000
988.417; 1743.625;  202.525;    0.000
988.581; 1717.625;  215.525;    0.000
988.746; 1701.625;  210.525;    0.000
988.910; 1677.625;  191.525;    0.000
989.074; 1659.625;  197.525;    0.000
989.238; 1695.625;  191.525;    0.000
989.402; 1688.625;  222.525;    0.000
989.566; 1714.625;  221.525;    0.000
989.731; 1638.625;  216.525;    0.000
989.895; 1683.625;  183.525;    0.000
990.059; 1641.625;  150.525;    0.000
990.223; 1630.625;  183.525;    0.000
990.387; 1643.625;  241.525;    0.000
990.551; 1665.625;  198.525;    0.000
990.714; 1667.625;  176.525;    0.000
990.878; 1622.625;  203.525;    0.000
991.042; 1611.625;  146.525;    0.000
991.206; 1631.625;  199.525;    0.000
991.370; 1660.625;  223.525;    0.000
991.534; 1577.625;  158.525;    0.000
991.697; 1559.625;  182.525;    0.000
991.861; 1575.625;  195.525;    0.000
992.025; 1687.625;  206.525;    0.000
992.188; 1616.625;  174.525;    0.000
992.352; 1624.625;  183.525;    0.000
992.516; 1709.625;  181.525;    0.000
992.679; 1593.625;  162.525;    0.000
992.843; 1609.625;  173.525;    0.000
993.006; 1582.625;  189.525;    0.000
993.170; 1670.625;  200.525;    0.000
993.333; 1618.625;  167.525;    0.000
993.497; 1612.625;  217.525;    0.000
993.660; 1588.625;  179.525;    0.000
993.824; 1647.625;  195.525;    0.000
993.987; 1615.625;  186.525;    0.000
994.150; 1527.625;  164.525;    0.000
994.314; 1626.625;  215.525;    0.000
994.477; 1598.625;  186.525;    0.000
994.640; 1645.625;  192.525;    0.000
994.803; 1647.625;  215.525;    0.000
994.967; 1633.625;  208.525;    0.000
995.130; 1573.625;  196.525;    0.000
995.293; 1623.625;  221.525;    0.000
995.456; 1608.625;  164.525;    0.000
995.619; 1561.625;  224.525;    0.000
995.782; 1576.625;  184.525;    0.000
995.945; 1608.625;  220.525;    0.000
996.108; 1629.625;  187.525;    0.000
996.271; 1642.625;  192.525;    0.000
996.434; 1590.625;  162.525;    0.000
996.597; 1512.625;  148.525;    0.000
996.760; 1660.625;  186.525;    0.000
996.923; 1592.625;  154.525;    0.000
997.086; 1537.625;  156.525;    0.000
997.248; 1609.625;  215.525;    0.000
997.411; 1574.625;  160.525;    0.000
997.574; 1576.625;  159.525;    0.000
997.737; 1580.625;  179.525;    0.000
997.899; 1642.625;  184.525;    0.000
998.062; 1530.625;  180.525;    0.000
998.225; 1505.625;  168.525;    0.000
998.387; 1530.625;  192.525;    0.000
998.550; 1580.625;  178.525;    0.000
998.712; 1583.625;  192.525;    0.000
998.875; 1555.625;  230.525;    0.000
999.037; 1538.625;  200.525;    0.000
999.200; 1607.625;  196.525;    0.000
999.362; 1612.625;  173.525;    0.000
999.525; 1555.625;  196.525;    0.000
999.687; 1543.625;  159.525;    0.000
999.849; 1557.625;  180.525;    0.000
1000.012; 1589.625;  210.525;    0.000
1000.174; 1518.625;  175.525;    0.000
1000.336; 1593.625;  174.525;    0.000
1000.499; 1573.625;  180.525;    0.000
1000.661; 1590.625;  204.525;    0.000
1000.823; 1506.625;  181.525;    0.000
1000.985; 1533.625;  178.525;    0.000
1001.147; 1574.625;  215.525;    0.000
1001.309; 1614.625;  212.525;    0.000
1001.471; 1663.625;  192.525;    0.000
1001.633; 1609.625;  207.525;    0.000
1001.796; 1606.625;  211.525;    0.000
1001.958; 1659.625;  200.525;    0.000
1002.119; 1725.625;  210.525;    0.000
1002.281; 1713.625;  204.525;    0.000
1002.443; 1738.625;  230.525;    0.000
1002.605; 1793.625;  178.525;    0.000
1002.767; 1875.625;  228.525;    0.000
1002.929; 1868.625;  199.525;    0.000
1003.091; 1994.625;  220.525;    0.000
1003.252; 2011.625;  219.525;    0.000
1003.414; 2062.625;  213.525;    0.000
1003.576; 2137.625;  202.525;    0.000
1003.738; 2218.625;  184.525;    0.000
1003.899; 2303.625;  218.525;    0.000
1004.061; 2375.625;  210.525;    0.000
1004.222; 2427.625;  179.525;    0.000
1004.384; 2536.625;  183.525;    0.000
1004.546; 2639.625;  206.525;    0.000
1004.707; 2595.625;  191.525;    0.000
1004.869; 2611.625;  197.525;    0.000
1005.030; 2585.625;  186.525;    0.000
1005.191; 2560.625;  188.525;    0.000
1005.353; 2527.625;  215.525;    0.000
1005.514; 2399.625;  184.525;    0.000
1005.675; 2291.625;  209.525;    0.000
1005.837; 2288.625;  239.525;    0.000
1005.998; 2282.625;  218.525;    0.000
1006.159; 2191.625;  212.525;    0.000
1006.321; 2237.625;  220.525;    0.000
1006.482; 2325.625;  201.525;    0.000
1006.643; 2364.625;  222.525;    0.000
1006.804; 2439.625;  191.525;    0.000
1006.965; 2565.625;  214.525;    0.000
1007.126; 2648.625;  214.525;    0.000
1007.287; 2578.625;  243.525;    0.000
1007.448; 2606.625;  251.525;    0.000
1007.609; 2477.625;  244.525;    0.000
1007.770; 2430.625;  211.525;    0.000
1007.931; 2444.625;  225.525;    0.000
1008.092; 2503.625;  188.525;    0.000
1008.253; 2567.625;  224.525;    0.000
1008.414; 2548.625;  198.525;    0.000
1008.575; 2645.625;  244.525;    0.000
1008.736; 2612.625;  219.525;    0.000
1008.896; 2571.625;  206.525;    0.000
1009.057; 2573.625;  258.525;    0.000
1009.218; 2532.625;  209.525;    0.000
1009.379; 2572.625;  204.525;    0.000
1009.539; 2622.625;  242.525;    0.000
1009.700; 2667.625;  205.525;    0.000
1009.860; 2674.625;  211.525;    0.000
1010.021; 2668.625;  219.525;    0.000
1010.182; 2696.625;  206.525;    0.000
1010.342; 2729.625;  219.525;    0.000
1010.503; 2895.625;  231.525;    0.000
1010.663; 3071.625;  260.525;    0.000
1010.823; 3034.625;  200.525;    0.000
1010.984; 3140.625;  189.525;    0.000
1011.144; 3246.625;  234.525;    0.000
1011.305; 3291.625;  212.525;    0.000
1011.465; 3513.625;  202.525;    0.000
1011.625; 3557.625;  236.525;    0.000
1011.785; 3690.625;  203.525;    0.000
1011.946; 3575.625;  195.525;    0.000
1012.106; 3513.625;  176.525;    0.000
1012.266; 3544.625;  211.525;    0.000
1012.426; 3484.625;  244.525;    0.000
1012.586; 3475.625;  202.525;    0.000
1012.746; 3467.625;  234.525;    0.000
1012.906; 3356.625;  246.525;    0.000
1013.066; 3308.625;  232.525;    0.000
1013.226; 3260.625;  248.525;    0.000
1013.386; 3241.625;  231.525;    0.000
1013.546; 3153.625;  233.525;    0.000
1013.706; 3152.625;  211.525;    0.000
1013.866; 3104.625;  240.525;    0.000
1014.026; 3128.625;  188.525;    0.000
1014.186; 3104.625;  186.525;    0.000
1014.346; 3056.625;  203.525;    0.000
1014.505; 3332.625;  238.525;    0.000
1014.665; 3170.625;  206.525;    0.000
1014.825; 3162.625;  200.525;    0.000
1014.985; 3130.625;  215.525;    0.000
1015.144; 3344.625;  250.525;    0.000
1015.304; 3310.625;  195.525;    0.000
1015.464; 3201.625;  237.525;    0.000
1015.623; 3215.625;  232.525;    0.000
1015.783; 3493.625;  220.525;    0.000
1015.942; 3676.625;  219.525;    0.000
1016.102; 3589.625;  202.525;    0.000
1016.261; 3552.625;  225.525;    0.000
1016.420; 3795.625;  246.525;    0.000
1016.580; 4044.625;  226.525;    0.000
1016.739; 3944.625;  214.525;    0.000
1016.899; 3866.625;  205.525;    0.000
1017.058; 4138.625;  217.525;    0.000
1017.217; 4283.625;  199.525;    0.000
1017.376; 4010.625;  219.525;    0.000
1017.536; 3778.625;  209.525;    0.000
1017.695; 3767.625;  213.525;    0.000
1017.854; 3727.625;  187.525;    0.000
1018.013; 3663.625;  222.525;    0.000
1018.172; 3625.625;  204.525;    0.000
1018.331; 3541.625;  195.525;    0.000
1018.490; 3781.625;  213.525;    0.000
1018.649; 3969.625;  216.525;    0.000
1018.808; 4123.625;  227.525;    0.000
1018.967; 4000.625;  206.525;    0.000
1019.126; 4004.625;  206.525;    0.000
1019.285; 4048.625;  219.525;    0.000
1019.444; 3954.625;  218.525;    0.000
1019.603; 3901.625;  206.525;    0.000
1019.762; 3798.625;  189.525;    0.000
1019.921; 3880.625;  217.525;    0.000
1020.079; 3954.625;  200.525;    0.000
1020.238; 4315.625;  219.525;    0.000
1020.397; 4102.625;  227.525;    0.000
1020.555; 3877.625;  207.525;    0.000
1020.714; 3876.625;  253.525;    0.000
1020.873; 4187.625;  230.525;    0.000
1021.031; 4123.625;  232.525;    0.000
1021.190; 3843.625;  226.525;    0.000
1021.348; 3726.625;  224.525;    0.000
1021.507; 4090.625;  215.525;    0.000
1021.665; 4521.625;  233.525;    0.000
1021.824; 4189.625;  196.525;    0.000
1021.982; 3829.625;  215.525;    0.000
1022.141; 3899.625;  200.525;    0.000
1022.299; 4261.625;  200.525;    0.000
1022.457; 4522.625;  179.525;    0.000
1022.616; 4202.625;  226.525;    0.000
1022.774; 3828.625;  216.525;    0.000
1022.932; 4041.625;  212.525;    0.000
1023.090; 4626.625;  220.525;    0.000
1023.249; 4697.625;  194.525;    0.000
1023.407; 4149.625;  227.525;    0.000
1023.565; 3956.625;  190.525;    0.000
1023.723; 4110.625;  190.525;    0.000
1023.881; 4597.625;  214.525;    0.000
1024.039; 4628.625;  179.525;    0.000
1024.197; 4264.625;  274.525;    0.000
1024.355; 4042.625;  269.525;    0.000
1024.513; 4201.625;  259.525;    0.000
1024.671; 4664.625;  211.525;    0.000
1024.829; 4706.625;  230.525;    0.000
1024.987; 4422.625;  239.525;    0.000
1025.145; 4125.625;  231.525;    0.000
1025.302; 4232.625;  212.525;    0.000
1025.460; 4548.625;  224.525;    0.000
1025.618; 4889.625;  217.525;    0.000
1025.776; 4479.625;  232.525;    0.000
1025.933; 4052.625;  212.525;    0.000
1026.091; 4334.625;  214.525;    0.000
1026.249; 4622.625;  224.525;    0.000
1026.406; 4940.625;  219.525;    0.000
1026.564; 4607.625;  262.525;    0.000
1026.721; 4290.625;  206.525;    0.000
1026.879; 4223.625;  227.525;    0.000
1027.036; 4809.625;  234.525;    0.000
1027.194; 4860.625;  256.525;    0.000
1027.351; 4915.625;  229.525;    0.000
1027.509; 4471.625;  253.525;    0.000
1027.666; 4337.625;  248.525;    0.000
1027.823; 4764.625;  215.525;    0.000
1027.981; 5034.625;  248.525;    0.000
1028.138; 5023.625;  257.525;    0.000
1028.295; 4663.625;  215.525;    0.000
1028.452; 4396.625;  236.525;    0.000
1028.609; 4458.625;  240.525;    0.000
1028.767; 4933.625;  258.525;    0.000
1028.924; 5173.625;  211.525;    0.000
1029.081; 4819.625;  226.525;    0.000
1029.238; 4852.625;  228.525;    0.000
1029.395; 4435.625;  264.525;    0.000
1029.552; 4768.625;  227.525;    0.000
1029.709; 5206.625;  232.525;    0.000
1029.866; 5447.625;  223.525;    0.000
1030.023; 4982.625;  220.525;    0.000
1030.180; 4543.625;  222.525;    0.000
1030.337; 4608.625;  224.525;    0.000
1030.494; 4825.625;  228.525;    0.000
1030.650; 5161.625;  242.525;    0.000
1030.807; 5527.625;  214.525;    0.000
1030.964; 4997.625;  207.525;    0.000
1031.121; 4850.625;  236.525;    0.000
1031.277; 4600.625;  206.525;    0.000
1031.434; 4946.625;  249.525;    0.000
1031.591; 5449.625;  253.525;    0.000
1031.747; 5400.625;  240.525;    0.000
1031.904; 5445.625;  212.525;    0.000
1032.060; 4918.625;  185.525;    0.000
1032.217; 4705.625;  201.525;    0.000
1032.373; 5302.625;  207.525;    0.000
1032.530; 5498.625;  226.525;    0.000
1032.686; 6194.625;  226.525;    0.000
1032.843; 6073.625;  203.525;    0.000
1032.999; 5684.625;  233.525;    0.000
1033.155; 5837.625;  232.525;    0.000
1033.312; 5775.625;  239.525;    0.000
1033.468; 6777.625;  207.525;    0.000
1033.624; 7270.625;  238.525;    0.000
1033.780; 7732.625;  255.525;    0.000
1033.937; 7244.625;  188.525;    0.000
1034.093; 6973.625;  244.525;    0.000
1034.249; 6936.625;  182.525;    0.000
1034.405; 7067.625;  251.525;    0.000
1034.561; 7592.625;  250.525;    0.000
1034.717; 8088.625;  208.525;    0.000
1034.873; 7952.625;  210.525;    0.000
1035.029; 8128.625;  245.525;    0.000
1035.185; 7447.625;  230.525;    0.000
1035.341; 7212.625;  209.525;    0.000
1035.497; 7684.625;  244.525;    0.000
1035.653; 7946.625;  229.525;    0.000
1035.809; 8580.625;  275.525;    0.000
1035.964; 9331.625;  203.525;    0.000
1036.120; 8688.625;  215.525;    0.000
1036.276; 9208.625;  228.525;    0.000
1036.432; 8789.625;  183.525;    0.000
1036.587; 8360.625;  214.525;    0.000
1036.743; 8905.625;  240.525;    0.000
1036.899; 9658.625;  202.525;    0.000
1037.054; 9776.625;  182.525;    0.000
1037.210;10596.625;  228.525;    0.000
1037.365;10614.625;  239.525;    0.000
1037.521; 9832.625;  230.525;    0.000
1037.676; 9627.625;  217.525;    0.000
1037.832; 8916.625;  235.525;    0.000
1037.987; 9258.625;  210.525;    0.000
1038.143; 9195.625;  206.525;    0.000
1038.298;10992.625;  177.525;    0.000
1038.453;10723.625;  215.525;    0.000
1038.609;11888.625;  210.525;    0.000
1038.764;12159.625;  227.525;    0.000
1038.919;10763.625;  197.525;    0.000
1039.074;10694.625;  183.525;    0.000
1039.229; 9875.625;  218.525;    0.000
1039.385; 9788.625;  251.525;    0.000
1039.540;10309.625;  222.525;    0.000
1039.695;10887.625;  215.525;    0.000
1039.850;12341.625;  204.525;    0.000
1040.005;12731.625;  241.525;    0.000
1040.160;13482.625;  180.525;    0.000
1040.315;13160.625;  197.525;    0.000
1040.470;12247.625;  180.525;    0.000
1040.625;11890.625;  196.525;    0.000
1040.780;11591.625;  245.525;    0.000
1040.935;11447.625;  204.525;    0.000
1041.089;11740.625;  213.525;    0.000
1041.244;13653.625;  200.525;    0.000
1041.399;14841.625;  212.525;    0.000
1041.554;15523.625;  239.525;    0.000
1041.708;17015.625;  238.525;    0.000
1041.863;16350.625;  213.525;    0.000
1042.018;15664.625;  236.525;    0.000
1042.172;15424.625;  238.525;    0.000
1042.327;14555.625;  254.525;    0.000
1042.481;14501.625;  197.525;    0.000
1042.636;14719.625;  205.525;    0.000
1042.791;14556.625;  218.525;    0.000
1042.945;17488.625;  261.525;    0.000
1043.099;19431.625;  201.525;    0.000
1043.254;18738.625;  191.525;    0.000
1043.408;19525.625;  279.525;    0.000
1043.563;20962.625;  203.525;    0.000
1043.717;20450.625;  229.525;    0.000
1043.871;18351.625;  213.525;    0.000
1044.025;18387.625;  240.525;    0.000
1044.180;18376.625;  220.525;    0.000
1044.334;18335.625;  268.525;    0.000
1044.488;18821.625;  261.525;    0.000
1044.642;19589.625;  205.525;    0.000
1044.796;21553.625;  240.525;    0.000
1044.950;24492.625;  258.525;    0.000
1045.104;26253.625;  218.525;    0.000
1045.258;25916.625;  213.525;    0.000
1045.412;24828.625;  223.525;    0.000
1045.566;24808.625;  240.525;    0.000
1045.720;24182.625;  235.525;    0.000
1045.874;21982.625;  221.525;    0.000
1046.028;20476.625;  247.525;    0.000
1046.182;20336.625;  200.525;    0.000
1046.336;20882.625;  220.525;    0.000
1046.489;22107.625;  228.525;    0.000
1046.643;22993.625;  249.525;    0.000
1046.797;25358.625;  230.525;    0.000
1046.951;26230.625;  234.525;    0.000
1047.104;26219.625;  262.525;    0.000
1047.258;27613.625;  210.525;    0.000
1047.411;28986.625;  235.525;    0.000
1047.565;28557.625;  237.525;    0.000
1047.719;27531.625;  237.525;    0.000
1047.872;26797.625;  225.525;    0.000
1048.026;25638.625;  237.525;    0.000
1048.179;24597.625;  220.525;    0.000
1048.332;25206.625;  219.525;    0.000
1048.486;24515.625;  195.525;    0.000
1048.639;25118.625;  213.525;    0.000
1048.792;26375.625;  245.525;    0.000
1048.946;28922.625;  234.525;    0.000
1049.099;30585.625;  226.525;    0.000
1049.252;30869.625;  282.525;    0.000
1049.406;28219.625;  255.525;    0.000
1049.559;30065.625;  223.525;    0.000
1049.712;35135.625;  253.525;    0.000
1049.865;37652.625;  271.525;    0.000
1050.018;35514.625;  241.525;    0.000
1050.171;30803.625;  202.525;    0.000
1050.324;29666.625;  250.525;    0.000
1050.477;32877.625;  251.525;    0.000
1050.630;34460.625;  216.525;    0.000
1050.783;35983.625;  205.525;    0.000
1050.936;33365.625;  219.525;    0.000
1051.089;31037.625;  247.525;    0.000
1051.242;32252.625;  238.525;    0.000
1051.394;36412.625;  252.525;    0.000
1051.547;37485.625;  245.525;    0.000
1051.700;35488.625;  206.525;    0.000
1051.853;34722.625;  270.525;    0.000
1052.005;36856.625;  245.525;    0.000
1052.158;40638.625;  290.525;    0.000
1052.311;44186.625;  237.525;    0.000
1052.463;42576.625;  271.525;    0.000
1052.616;37281.625;  255.525;    0.000
1052.768;33418.625;  257.525;    0.000
1052.921;33571.625;  289.525;    0.000
1053.073;36845.625;  287.525;    0.000
1053.226;41116.625;  268.525;    0.000
1053.378;47052.625;  294.525;    0.000
1053.531;47479.625;  255.525;    0.000
1053.683;45613.625;  293.525;    0.000
1053.835;38748.625;  274.525;    0.000
1053.988;29812.625;  282.525;    0.000
1054.140; 5430.625;  291.525;    0.000
1054.292; 1335.625;  292.525;    0.000
1054.444; 1054.625;  299.525;    0.000
1054.596; 1000.625;  319.525;    0.000
1054.749;  922.625;  295.525;    0.000
1054.901;  819.625;  266.525;    0.000
1055.053;  803.625;  300.525;    0.000
1055.205;  749.625;  290.525;    0.000
1055.357;  774.625;  304.525;    0.000
1055.509;  689.625;  292.525;    0.000
1055.661;  735.625;  339.525;    0.000
1055.813;  691.625;  306.525;    0.000
1055.965;  672.625;  293.525;    0.000
1056.116;  619.625;  300.525;    0.000
1056.268;  688.625;  306.525;    0.000
1056.420;  731.625;  288.525;    0.000

