
Integration time [ms]:   1.000
Averaging Nr. [scans]: 1
Smoothing Nr. [pixels]: 0
Data measured with spectrometer [name]: UV2
Wave   ;Sample   ;Dark     ;Reference
[nm]   ;[counts] ;[counts] ;[counts] 

353.533;  252.800;  216.475;    0.000
353.597;  221.800;  244.475;    0.000
353.660;  196.800;  181.475;    0.000
353.723;  200.800;  203.475;    0.000
353.786;  196.800;  180.475;    0.000
353.850;  221.800;  213.475;    0.000
353.913;  173.800;  191.475;    0.000
353.976;  227.800;  195.475;    0.000
354.039;  177.800;  158.475;    0.000
354.102;  199.800;  199.475;    0.000
354.166;  191.800;  185.475;    0.000
354.229;  207.800;  188.475;    0.000
354.292;  158.800;  188.475;    0.000
354.355;  209.800;  226.475;    0.000
354.418;  164.800;  158.475;    0.000
354.481;  220.800;  185.475;    0.000
354.545;  620.800;  191.475;    0.000
354.608;  660.800;  247.475;    0.000
354.671;  617.800;  176.475;    0.000
354.734;  677.800;  198.475;    0.000
354.797;  689.800;  195.475;    0.000
354.860;  687.800;  212.475;    0.000
354.923;  675.800;  184.475;    0.000
354.986;  675.800;  169.475;    0.000
355.050;  719.800;  206.475;    0.000
355.113;  689.800;  210.475;    0.000
355.176;  772.800;  217.475;    0.000
355.239;  728.800;  201.475;    0.000
355.302;  744.800;  193.475;    0.000
355.365;  774.800;  234.475;    0.000
355.428;  717.800;  182.475;    0.000
355.491;  763.800;  233.475;    0.000
355.554;  741.800;  167.475;    0.000
355.617;  779.800;  195.475;    0.000
355.680;  760.800;  198.475;    0.000
355.743;  763.800;  186.475;    0.000
355.806;  802.800;  171.475;    0.000
355.869;  827.800;  244.475;    0.000
355.932;  788.800;  164.475;    0.000
355.995;  841.800;  220.475;    0.000
356.058;  792.800;  172.475;    0.000
356.121;  816.800;  228.475;    0.000
356.184;  860.800;  225.475;    0.000
356.247;  879.800;  161.475;    0.000
356.310;  879.800;  195.475;    0.000
356.373;  835.800;  191.475;    0.000
356.436;  833.800;  147.475;    0.000
356.498;  823.800;  183.475;    0.000
356.561;  870.800;  137.475;    0.000
356.624;  854.800;  186.475;    0.000
356.687;  884.800;  158.475;    0.000
356.750;  855.800;  194.475;    0.000
356.813;  952.800;  186.475;    0.000
356.876;  902.800;  161.475;    0.000
356.939;  854.800;  188.475;    0.000
357.001;  903.800;  200.475;    0.000
357.064;  862.800;  182.475;    0.000
357.127;  859.800;  168.475;    0.000
357.190;  884.800;  157.475;    0.000
357.253;  890.800;  199.475;    0.000
357.316;  962.800;  187.475;    0.000
357.378;  918.800;  174.475;    0.000
357.441;  902.800;  165.475;    0.000
357.504;  877.800;  189.475;    0.000
357.567;  852.800;  116.475;    0.000
357.629;  942.800;  176.475;    0.000
357.692;  886.800;  134.475;    0.000
357.755;  918.800;  175.475;    0.000
357.818;  935.800;  159.475;    0.000
357.880;  909.800;  185.475;    0.000
357.943;  936.800;  159.475;    0.000
358.006;  942.800;  176.475;    0.000
358.069;  954.800;  156.475;    0.000
358.131; 1020.800;  170.475;    0.000
358.194;  935.800;  125.475;    0.000
358.257;  959.800;  186.475;    0.000
358.319;  928.800;  139.475;    0.000
358.382;  898.800;  175.475;    0.000
358.445;  929.800;  170.475;    0.000
358.507;  928.800;  129.475;    0.000
358.570;  938.800;  168.475;    0.000
358.633;  985.800;  152.475;    0.000
358.695; 1012.800;  194.475;    0.000
358.758;  927.800;  154.475;    0.000
358.821;  893.800;  147.475;    0.000
358.883;  926.800;  163.475;    0.000
358.946;  979.800;  155.475;    0.000
359.008;  985.800;  208.475;    0.000
359.071;  966.800;  182.475;    0.000
359.134;  971.800;  126.475;    0.000
359.196;  980.800;  142.475;    0.000
359.259;  990.800;  138.475;    0.000
359.321;  955.800;  153.475;    0.000
359.384; 1032.800;  186.475;    0.000
359.446;  974.800;  152.475;    0.000
359.509;  957.800;  144.475;    0.000
359.571;  984.800;  164.475;    0.000
359.634;  980.800;  171.475;    0.000
359.696; 1009.800;  144.475;    0.000
359.759;  996.800;  171.475;    0.000
359.821;  995.800;  161.475;    0.000
359.884;  965.800;  159.475;    0.000
359.946; 1085.800;  186.475;    0.000
360.009; 1009.800;  171.475;    0.000
360.071;  949.800;  166.475;    0.000
360.134; 1008.800;  215.475;    0.000
360.196; 1025.800;  138.475;    0.000
360.259;  979.800;  196.475;    0.000
360.321;  977.800;  148.475;    0.000
360.384;  989.800;  150.475;    0.000
360.446; 1045.800;  148.475;    0.000
360.508; 1065.800;  172.475;    0.000
360.571; 1056.800;  155.475;    0.000
360.633;  997.800;  153.475;    0.000
360.696; 1045.800;  142.475;    0.000
360.758; 1017.800;  165.475;    0.000
360.820; 1073.800;  155.475;    0.000
360.883;  979.800;  156.475;    0.000
360.945; 1049.800;  171.475;    0.000
361.007; 1031.800;  138.475;    0.000
361.070; 1061.800;  129.475;    0.000
361.132; 1009.800;  166.475;    0.000
361.194;  990.800;  143.475;    0.000
361.257; 1053.800;  154.475;    0.000
361.319; 1104.800;  176.475;    0.000
361.381; 1055.800;  143.475;    0.000
361.443; 1009.800;  136.475;    0.000
361.506; 1028.800;  160.475;    0.000
361.568;  993.800;  140.475;    0.000
361.630;  999.800;  159.475;    0.000
361.693; 1024.800;  162.475;    0.000
361.755; 1053.800;  185.475;    0.000
361.817; 1111.800;  209.475;    0.000
361.879; 1085.800;  161.475;    0.000
361.941; 1088.800;  152.475;    0.000
362.004; 1077.800;  132.475;    0.000
362.066; 1057.800;  159.475;    0.000
362.128; 1024.800;  143.475;    0.000
362.190; 1109.800;  131.475;    0.000
362.252; 1079.800;  131.475;    0.000
362.315; 1109.800;  175.475;    0.000
362.377; 1043.800;  140.475;    0.000
362.439; 1067.800;  140.475;    0.000
362.501; 1093.800;  140.475;    0.000
362.563; 1028.800;  152.475;    0.000
362.625; 1113.800;  174.475;    0.000
362.688; 1100.800;  195.475;    0.000
362.750; 1128.800;  221.475;    0.000
362.812; 1125.800;  171.475;    0.000
362.874; 1057.800;  117.475;    0.000
362.936; 1115.800;  162.475;    0.000
362.998; 1103.800;  142.475;    0.000
363.060; 1073.800;  143.475;    0.000
363.122; 1065.800;  148.475;    0.000
363.184; 1109.800;  179.475;    0.000
363.246; 1080.800;  186.475;    0.000
363.308; 1080.800;  180.475;    0.000
363.370; 1179.800;  200.475;    0.000
363.432; 1109.800;  139.475;    0.000
363.494; 1053.800;  138.475;    0.000
363.556; 1097.800;  114.475;    0.000
363.618; 1055.800;  153.475;    0.000
363.680; 1080.800;  153.475;    0.000
363.742; 1119.800;  178.475;    0.000
363.804; 1097.800;  214.475;    0.000
363.866; 1161.800;  170.475;    0.000
363.928; 1038.800;  145.475;    0.000
363.990; 1071.800;  215.475;    0.000
364.052; 1080.800;  166.475;    0.000
364.114; 1133.800;  168.475;    0.000
364.176; 1201.800;  176.475;    0.000
364.238; 1092.800;  203.475;    0.000
364.300; 1130.800;  158.475;    0.000
364.362; 1047.800;  152.475;    0.000
364.424; 1069.800;  119.475;    0.000
364.486; 1171.800;  187.475;    0.000
364.548; 1131.800;  180.475;    0.000
364.609; 1112.800;  212.475;    0.000
364.671; 1108.800;  165.475;    0.000
364.733; 1151.800;  190.475;    0.000
364.795; 1140.800;  148.475;    0.000
364.857; 1136.800;  159.475;    0.000
364.919; 1063.800;  159.475;    0.000
364.981; 1155.800;  191.475;    0.000
365.042; 1164.800;  170.475;    0.000
365.104; 1147.800;  145.475;    0.000
365.166; 1151.800;  134.475;    0.000
365.228; 1128.800;  150.475;    0.000
365.290; 1056.800;  158.475;    0.000
365.351; 1163.800;  168.475;    0.000
365.413; 1152.800;  173.475;    0.000
365.475; 1162.800;  172.475;    0.000
365.537; 1123.800;  126.475;    0.000
365.598; 1137.800;  160.475;    0.000
365.660; 1210.800;  127.475;    0.000
365.722; 1091.800;  189.475;    0.000
365.784; 1140.800;  161.475;    0.000
365.845; 1172.800;  152.475;    0.000
365.907; 1133.800;  117.475;    0.000
365.969; 1152.800;  146.475;    0.000
366.030; 1094.800;  171.475;    0.000
366.092; 1125.800;  155.475;    0.000
366.154; 1165.800;  137.475;    0.000
366.215; 1137.800;  147.475;    0.000
366.277; 1113.800;  148.475;    0.000
366.339; 1174.800;  158.475;    0.000
366.400; 1145.800;  140.475;    0.000
366.462; 1133.800;  159.475;    0.000
366.524; 1185.800;  160.475;    0.000
366.585; 1149.800;  157.475;    0.000
366.647; 1174.800;  170.475;    0.000
366.708; 1121.800;  123.475;    0.000
366.770; 1173.800;  194.475;    0.000
366.832; 1183.800;  191.475;    0.000
366.893; 1197.800;  155.475;    0.000
366.955; 1168.800;  132.475;    0.000
367.016; 1217.800;  126.475;    0.000
367.078; 1121.800;  202.475;    0.000
367.139; 1172.800;  116.475;    0.000
367.201; 1211.800;  134.475;    0.000
367.262; 1131.800;  157.475;    0.000
367.324; 1173.800;  202.475;    0.000
367.385; 1139.800;  118.475;    0.000
367.447; 1177.800;  155.475;    0.000
367.508; 1116.800;  134.475;    0.000
367.570; 1158.800;  165.475;    0.000
367.631; 1145.800;  118.475;    0.000
367.693; 1162.800;  170.475;    0.000
367.754; 1221.800;  154.475;    0.000
367.816; 1173.800;  146.475;    0.000
367.877; 1206.800;  175.475;    0.000
367.939; 1189.800;  200.475;    0.000
368.000; 1174.800;  168.475;    0.000
368.062; 1201.800;  138.475;    0.000
368.123; 1213.800;  170.475;    0.000
368.184; 1156.800;  188.475;    0.000
368.246; 1177.800;  145.475;    0.000
368.307; 1208.800;  163.475;    0.000
368.369; 1223.800;  144.475;    0.000
368.430; 1185.800;  140.475;    0.000
368.491; 1233.800;  133.475;    0.000
368.553; 1171.800;  145.475;    0.000
368.614; 1263.800;  158.475;    0.000
368.675; 1180.800;  147.475;    0.000
368.737; 1201.800;  157.475;    0.000
368.798; 1211.800;  163.475;    0.000
368.859; 1220.800;  173.475;    0.000
368.921; 1232.800;  122.475;    0.000
368.982; 1217.800;  184.475;    0.000
369.043; 1231.800;  169.475;    0.000
369.104; 1230.800;  142.475;    0.000
369.166; 1229.800;  169.475;    0.000
369.227; 1289.800;  156.475;    0.000
369.288; 1141.800;  151.475;    0.000
369.349; 1190.800;  191.475;    0.000
369.411; 1210.800;  168.475;    0.000
369.472; 1281.800;  155.475;    0.000
369.533; 1183.800;  149.475;    0.000
369.594; 1209.800;  174.475;    0.000
369.656; 1208.800;  188.475;    0.000
369.717; 1174.800;  113.475;    0.000
369.778; 1229.800;  184.475;    0.000
369.839; 1192.800;  151.475;    0.000
369.900; 1277.800;  180.475;    0.000
369.961; 1259.800;  171.475;    0.000
370.023; 1272.800;  143.475;    0.000
370.084; 1243.800;  137.475;    0.000
370.145; 1181.800;  152.475;    0.000
370.206; 1249.800;  151.475;    0.000
370.267; 1212.800;  134.475;    0.000
370.328; 1263.800;  178.475;    0.000
370.389; 1234.800;  181.475;    0.000
370.451; 1179.800;  169.475;    0.000
370.512; 1261.800;  172.475;    0.000
370.573; 1287.800;  148.475;    0.000
370.634; 1338.800;  156.475;    0.000
370.695; 1222.800;  151.475;    0.000
370.756; 1294.800;  185.475;    0.000
370.817; 1301.800;  185.475;    0.000
370.878; 1236.800;  191.475;    0.000
370.939; 1250.800;  147.475;    0.000
371.000; 1300.800;  162.475;    0.000
371.061; 1304.800;  145.475;    0.000
371.122; 1253.800;  179.475;    0.000
371.183; 1257.800;  114.475;    0.000
371.244; 1198.800;  180.475;    0.000
371.305; 1303.800;  138.475;    0.000
371.366; 1217.800;  157.475;    0.000
371.427; 1243.800;  148.475;    0.000
371.488; 1307.800;  138.475;    0.000
371.549; 1204.800;  193.475;    0.000
371.610; 1306.800;  158.475;    0.000
371.671; 1195.800;  119.475;    0.000
371.732; 1278.800;  159.475;    0.000
371.793; 1254.800;  178.475;    0.000
371.853; 1259.800;  155.475;    0.000
371.914; 1348.800;  148.475;    0.000
371.975; 1256.800;  124.475;    0.000
372.036; 1310.800;  158.475;    0.000
372.097; 1304.800;  136.475;    0.000
372.158; 1226.800;  116.475;    0.000
372.219; 1307.800;  157.475;    0.000
372.280; 1337.800;  151.475;    0.000
372.340; 1284.800;  190.475;    0.000
372.401; 1233.800;  151.475;    0.000
372.462; 1326.800;  129.475;    0.000
372.523; 1260.800;  121.475;    0.000
372.584; 1267.800;  152.475;    0.000
372.645; 1255.800;  132.475;    0.000
372.705; 1305.800;  190.475;    0.000
372.766; 1336.800;  153.475;    0.000
372.827; 1249.800;  133.475;    0.000
372.888; 1272.800;  161.475;    0.000
372.948; 1260.800;  159.475;    0.000
373.009; 1297.800;  164.475;    0.000
373.070; 1299.800;  139.475;    0.000
373.131; 1293.800;  137.475;    0.000
373.191; 1285.800;  181.475;    0.000
373.252; 1291.800;  154.475;    0.000
373.313; 1275.800;  179.475;    0.000
373.373; 1276.800;  136.475;    0.000
373.434; 1341.800;  169.475;    0.000
373.495; 1311.800;   97.475;    0.000
373.555; 1308.800;  142.475;    0.000
373.616; 1312.800;  178.475;    0.000
373.677; 1343.800;  167.475;    0.000
373.737; 1359.800;  139.475;    0.000
373.798; 1346.800;  155.475;    0.000
373.859; 1345.800;  162.475;    0.000
373.919; 1311.800;  174.475;    0.000
373.980; 1328.800;  172.475;    0.000
374.041; 1272.800;  166.475;    0.000
374.101; 1322.800;  172.475;    0.000
374.162; 1399.800;  188.475;    0.000
374.222; 1304.800;  186.475;    0.000
374.283; 1385.800;  195.475;    0.000
374.343; 1329.800;  204.475;    0.000
374.404; 1366.800;  187.475;    0.000
374.465; 1368.800;  183.475;    0.000
374.525; 1393.800;  136.475;    0.000
374.586; 1365.800;  140.475;    0.000
374.646; 1367.800;  191.475;    0.000
374.707; 1368.800;  208.475;    0.000
374.767; 1451.800;  178.475;    0.000
374.828; 1329.800;  159.475;    0.000
374.888; 1425.800;  143.475;    0.000
374.949; 1444.800;  202.475;    0.000
375.009; 1381.800;  151.475;    0.000
375.070; 1382.800;  160.475;    0.000
375.130; 1415.800;  160.475;    0.000
375.190; 1315.800;  164.475;    0.000
375.251; 1421.800;  196.475;    0.000
375.311; 1379.800;  154.475;    0.000
375.372; 1444.800;  197.475;    0.000
375.432; 1408.800;  159.475;    0.000
375.493; 1378.800;  197.475;    0.000
375.553; 1417.800;  165.475;    0.000
375.613; 1354.800;  174.475;    0.000
375.674; 1395.800;  165.475;    0.000
375.734; 1391.800;  128.475;    0.000
375.794; 1360.800;  169.475;    0.000
375.855; 1341.800;  193.475;    0.000
375.915; 1342.800;  162.475;    0.000
375.975; 1374.800;  181.475;    0.000
376.036; 1304.800;  161.475;    0.000
376.096; 1359.800;  131.475;    0.000
376.156; 1335.800;  165.475;    0.000
376.217; 1372.800;  182.475;    0.000
376.277; 1386.800;  185.475;    0.000
376.337; 1357.800;  177.475;    0.000
376.398; 1430.800;  162.475;    0.000
376.458; 1354.800;  179.475;    0.000
376.518; 1391.800;  150.475;    0.000
376.578; 1346.800;  165.475;    0.000
376.639; 1389.800;  159.475;    0.000
376.699; 1358.800;  180.475;    0.000
376.759; 1404.800;  206.475;    0.000
376.819; 1400.800;  146.475;    0.000
376.880; 1360.800;  177.475;    0.000
376.940; 1351.800;  160.475;    0.000
377.000; 1376.800;  149.475;    0.000
377.060; 1363.800;  180.475;    0.000
377.120; 1395.800;  146.475;    0.000
377.180; 1355.800;  137.475;    0.000
377.241; 1364.800;  163.475;    0.000
377.301; 1423.800;  169.475;    0.000
377.361; 1412.800;  137.475;    0.000
377.421; 1384.800;  184.475;    0.000
377.481; 1380.800;  185.475;    0.000
377.541; 1357.800;  146.475;    0.000
377.601; 1424.800;  179.475;    0.000
377.661; 1447.800;  181.475;    0.000
377.722; 1447.800;  185.475;    0.000
377.782; 1381.800;  147.475;    0.000
377.842; 1371.800;  190.475;    0.000
377.902; 1409.800;  166.475;    0.000
377.962; 1418.800;  153.475;    0.000
378.022; 1408.800;  163.475;    0.000
378.082; 1407.800;  146.475;    0.000
378.142; 1392.800;  152.475;    0.000
378.202; 1371.800;  164.475;    0.000
378.262; 1446.800;  195.475;    0.000
378.322; 1437.800;  190.475;    0.000
378.382; 1422.800;  152.475;    0.000
378.442; 1441.800;  175.475;    0.000
378.502; 1378.800;  153.475;    0.000
378.562; 1442.800;  142.475;    0.000
378.622; 1457.800;  166.475;    0.000
378.682; 1370.800;  173.475;    0.000
378.742; 1473.800;  182.475;    0.000
378.802; 1394.800;  145.475;    0.000
378.862; 1464.800;  210.475;    0.000
378.921; 1521.800;  182.475;    0.000
378.981; 1474.800;  185.475;    0.000
379.041; 1343.800;  130.475;    0.000
379.101; 1452.800;  177.475;    0.000
379.161; 1377.800;  166.475;    0.000
379.221; 1543.800;  162.475;    0.000
379.281; 1494.800;  167.475;    0.000
379.341; 1434.800;  136.475;    0.000
379.401; 1455.800;  145.475;    0.000
379.460; 1503.800;  176.475;    0.000
379.520; 1506.800;  162.475;    0.000
379.580; 1428.800;  144.475;    0.000
379.640; 1520.800;  163.475;    0.000
379.700; 1488.800;  157.475;    0.000
379.759; 1586.800;  165.475;    0.000
379.819; 1470.800;  190.475;    0.000
379.879; 1521.800;  143.475;    0.000
379.939; 1605.800;  188.475;    0.000
379.999; 1529.800;  141.475;    0.000
380.058; 1534.800;  169.475;    0.000
380.118; 1506.800;  158.475;    0.000
380.178; 1535.800;  114.475;    0.000
380.237; 1557.800;  157.475;    0.000
380.297; 1533.800;  177.475;    0.000
380.357; 1574.800;  189.475;    0.000
380.417; 1524.800;  182.475;    0.000
380.476; 1442.800;  178.475;    0.000
380.536; 1585.800;  189.475;    0.000
380.596; 1499.800;  183.475;    0.000
380.655; 1602.800;  195.475;    0.000
380.715; 1581.800;  170.475;    0.000
380.775; 1600.800;  170.475;    0.000
380.834; 1573.800;  179.475;    0.000
380.894; 1574.800;  188.475;    0.000
380.954; 1482.800;  142.475;    0.000
381.013; 1591.800;  178.475;    0.000
381.073; 1547.800;  164.475;    0.000
381.132; 1587.800;  192.475;    0.000
381.192; 1608.800;  187.475;    0.000
381.252; 1618.800;  176.475;    0.000
381.311; 1582.800;  206.475;    0.000
381.371; 1634.800;  167.475;    0.000
381.430; 1618.800;  131.475;    0.000
381.490; 1571.800;  150.475;    0.000
381.549; 1554.800;  129.475;    0.000
381.609; 1746.800;  178.475;    0.000
381.668; 1640.800;  194.475;    0.000
381.728; 1624.800;  210.475;    0.000
381.787; 1626.800;  190.475;    0.000
381.847; 1706.800;  181.475;    0.000
381.906; 1614.800;  156.475;    0.000
381.966; 1697.800;  176.475;    0.000
382.025; 1749.800;  186.475;    0.000
382.085; 1766.800;  192.475;    0.000
382.144; 1782.800;  173.475;    0.000
382.204; 1798.800;  207.475;    0.000
382.263; 1787.800;  193.475;    0.000
382.323; 1827.800;  164.475;    0.000
382.382; 1744.800;  161.475;    0.000
382.441; 1760.800;  199.475;    0.000
382.501; 1902.800;  208.475;    0.000
382.560; 1840.800;  173.475;    0.000
382.619; 1960.800;  179.475;    0.000
382.679; 2007.800;  177.475;    0.000
382.738; 1985.800;  190.475;    0.000
382.798; 2112.800;  213.475;    0.000
382.857; 2245.800;  195.475;    0.000
382.916; 2401.800;  184.475;    0.000
382.976; 2490.800;  169.475;    0.000
383.035; 2359.800;  194.475;    0.000
383.094; 2401.800;  185.475;    0.000
383.154; 2631.800;  198.475;    0.000
383.213; 3087.800;  147.475;    0.000
383.272; 3030.800;  175.475;    0.000
383.331; 2542.800;  122.475;    0.000
383.391; 2269.800;  185.475;    0.000
383.450; 2230.800;  160.475;    0.000
383.509; 2278.800;  168.475;    0.000
383.568; 2304.800;  196.475;    0.000
383.628; 2392.800;  156.475;    0.000
383.687; 2647.800;  171.475;    0.000
383.746; 2978.800;  155.475;    0.000
383.805; 3432.800;  201.475;    0.000
383.864; 3505.800;  125.475;    0.000
383.924; 2737.800;  213.475;    0.000
383.983; 2220.800;  188.475;    0.000
384.042; 2120.800;  162.475;    0.000
384.101; 2097.800;  183.475;    0.000
384.160; 1987.800;  155.475;    0.000
384.219; 1921.800;  155.475;    0.000
384.279; 1855.800;  189.475;    0.000
384.338; 1991.800;  156.475;    0.000
384.397; 1805.800;  148.475;    0.000
384.456; 1828.800;  154.475;    0.000
384.515; 1813.800;  160.475;    0.000
384.574; 1894.800;  223.475;    0.000
384.633; 1780.800;  133.475;    0.000
384.692; 1791.800;  163.475;    0.000
384.751; 1777.800;  186.475;    0.000
384.810; 1805.800;  187.475;    0.000
384.869; 1804.800;  172.475;    0.000
384.929; 1819.800;  153.475;    0.000
384.988; 1808.800;  174.475;    0.000
385.047; 1771.800;  154.475;    0.000
385.106; 1817.800;  164.475;    0.000
385.165; 1755.800;  151.475;    0.000
385.224; 1734.800;  147.475;    0.000
385.283; 1725.800;  176.475;    0.000
385.342; 1760.800;  142.475;    0.000
385.401; 1773.800;  175.475;    0.000
385.459; 1818.800;  150.475;    0.000
385.518; 1708.800;  124.475;    0.000
385.577; 1795.800;  115.475;    0.000
385.636; 1789.800;  174.475;    0.000
385.695; 1837.800;  158.475;    0.000
385.754; 1826.800;  150.475;    0.000
385.813; 1803.800;  129.475;    0.000
385.872; 1738.800;  146.475;    0.000
385.931; 1765.800;  194.475;    0.000
385.990; 1791.800;  174.475;    0.000
386.049; 1870.800;  176.475;    0.000
386.107; 1760.800;  151.475;    0.000
386.166; 1782.800;  178.475;    0.000
386.225; 1735.800;  162.475;    0.000
386.284; 1848.800;  180.475;    0.000
386.343; 1798.800;  171.475;    0.000
386.402; 1751.800;  176.475;    0.000
386.460; 1810.800;  144.475;    0.000
386.519; 1780.800;  140.475;    0.000
386.578; 1737.800;  145.475;    0.000
386.637; 1798.800;  164.475;    0.000
386.696; 1810.800;  189.475;    0.000
386.754; 1750.800;  135.475;    0.000
386.813; 1741.800;  139.475;    0.000
386.872; 1799.800;  121.475;    0.000
386.931; 1810.800;  153.475;    0.000
386.989; 1852.800;  211.475;    0.000
387.048; 1800.800;  156.475;    0.000
387.107; 1795.800;  210.475;    0.000
387.165; 1810.800;  129.475;    0.000
387.224; 1814.800;  205.475;    0.000
387.283; 1809.800;  130.475;    0.000
387.342; 1765.800;  171.475;    0.000
387.400; 1848.800;  156.475;    0.000
387.459; 1832.800;  141.475;    0.000
387.517; 1804.800;  219.475;    0.000
387.576; 1797.800;  166.475;    0.000
387.635; 1829.800;  136.475;    0.000
387.693; 1845.800;  191.475;    0.000
387.752; 1803.800;  165.475;    0.000
387.811; 1823.800;  158.475;    0.000
387.869; 1831.800;  204.475;    0.000
387.928; 1801.800;  149.475;    0.000
387.986; 1775.800;  156.475;    0.000
388.045; 1810.800;  123.475;    0.000
388.103; 1782.800;  150.475;    0.000
388.162; 1816.800;  173.475;    0.000
388.221; 1825.800;  143.475;    0.000
388.279; 1820.800;  129.475;    0.000
388.338; 1894.800;  212.475;    0.000
388.396; 1728.800;  150.475;    0.000
388.455; 1863.800;  167.475;    0.000
388.513; 1747.800;  116.475;    0.000
388.572; 1895.800;  181.475;    0.000
388.630; 1774.800;  187.475;    0.000
388.689; 1831.800;  180.475;    0.000
388.747; 1764.800;  154.475;    0.000
388.806; 1816.800;  161.475;    0.000
388.864; 1756.800;  167.475;    0.000
388.922; 1856.800;  184.475;    0.000
388.981; 1836.800;  169.475;    0.000
389.039; 1831.800;  102.475;    0.000
389.098; 1823.800;  183.475;    0.000
389.156; 1871.800;  182.475;    0.000
389.214; 1839.800;  173.475;    0.000
389.273; 1865.800;  167.475;    0.000
389.331; 1836.800;  170.475;    0.000
389.390; 1854.800;  150.475;    0.000
389.448; 1826.800;  156.475;    0.000
389.506; 1878.800;  149.475;    0.000
389.565; 1859.800;  162.475;    0.000
389.623; 1847.800;  188.475;    0.000
389.681; 1860.800;  204.475;    0.000
389.740; 1818.800;  187.475;    0.000
389.798; 1852.800;  153.475;    0.000
389.856; 1894.800;  214.475;    0.000
389.914; 1912.800;  177.475;    0.000
389.973; 1833.800;  189.475;    0.000
390.031; 1894.800;  178.475;    0.000
390.089; 1815.800;  163.475;    0.000
390.147; 1794.800;  170.475;    0.000
390.206; 1917.800;  183.475;    0.000
390.264; 1797.800;  161.475;    0.000
390.322; 1898.800;  148.475;    0.000
390.380; 1778.800;  138.475;    0.000
390.439; 1914.800;  194.475;    0.000
390.497; 1865.800;  170.475;    0.000
390.555; 1855.800;  165.475;    0.000
390.613; 1874.800;  177.475;    0.000
390.671; 1888.800;  170.475;    0.000
390.729; 1826.800;  158.475;    0.000
390.788; 1923.800;  162.475;    0.000
390.846; 1920.800;  161.475;    0.000
390.904; 1900.800;  197.475;    0.000
390.962; 1863.800;  212.475;    0.000
391.020; 1872.800;  224.475;    0.000
391.078; 1882.800;  184.475;    0.000
391.136; 1895.800;  191.475;    0.000
391.194; 1887.800;  187.475;    0.000
391.253; 1936.800;  197.475;    0.000
391.311; 1909.800;  185.475;    0.000
391.369; 1878.800;  207.475;    0.000
391.427; 1910.800;  222.475;    0.000
391.485; 1998.800;  184.475;    0.000
391.543; 2015.800;  203.475;    0.000
391.601; 1973.800;  151.475;    0.000
391.659; 1962.800;  176.475;    0.000
391.717; 2034.800;  190.475;    0.000
391.775; 1926.800;  159.475;    0.000
391.833; 2060.800;  186.475;    0.000
391.891; 2025.800;  154.475;    0.000
391.949; 2044.800;  181.475;    0.000
392.007; 1940.800;  190.475;    0.000
392.065; 2096.800;  182.475;    0.000
392.123; 2021.800;  158.475;    0.000
392.180; 1987.800;  198.475;    0.000
392.238; 2009.800;  191.475;    0.000
392.296; 2037.800;  164.475;    0.000
392.354; 2023.800;  172.475;    0.000
392.412; 1993.800;  194.475;    0.000
392.470; 2006.800;  154.475;    0.000
392.528; 2051.800;  172.475;    0.000
392.586; 2011.800;  179.475;    0.000
392.644; 2024.800;  173.475;    0.000
392.701; 2071.800;  202.475;    0.000
392.759; 2094.800;  180.475;    0.000
392.817; 2136.800;  181.475;    0.000
392.875; 2002.800;  168.475;    0.000
392.933; 2053.800;  161.475;    0.000
392.991; 2104.800;  216.475;    0.000
393.048; 2110.800;  197.475;    0.000
393.106; 2147.800;  199.475;    0.000
393.164; 2222.800;  173.475;    0.000
393.222; 2419.800;  179.475;    0.000
393.279; 2841.800;  209.475;    0.000
393.337; 3536.800;  185.475;    0.000
393.395; 3780.800;  174.475;    0.000
393.453; 2782.800;  181.475;    0.000
393.510; 2364.800;  188.475;    0.000
393.568; 2193.800;  191.475;    0.000
393.626; 2065.800;  151.475;    0.000
393.684; 2129.800;  208.475;    0.000
393.741; 2150.800;  179.475;    0.000
393.799; 2081.800;  149.475;    0.000
393.857; 2055.800;  136.475;    0.000
393.914; 2035.800;  190.475;    0.000
393.972; 2089.800;  155.475;    0.000
394.030; 2116.800;  170.475;    0.000
394.087; 2121.800;  213.475;    0.000
394.145; 2112.800;  191.475;    0.000
394.202; 2066.800;  188.475;    0.000
394.260; 2117.800;  168.475;    0.000
394.318; 2121.800;  176.475;    0.000
394.375; 2159.800;  159.475;    0.000
394.433; 2147.800;  168.475;    0.000
394.490; 2108.800;  163.475;    0.000
394.548; 2135.800;  163.475;    0.000
394.605; 2111.800;  181.475;    0.000
394.663; 2102.800;  180.475;    0.000
394.720; 2082.800;  193.475;    0.000
394.778; 2145.800;  168.475;    0.000
394.836; 2184.800;  128.475;    0.000
394.893; 2094.800;  151.475;    0.000
394.951; 2184.800;  173.475;    0.000
395.008; 2126.800;  201.475;    0.000
395.065; 2089.800;  139.475;    0.000
395.123; 2179.800;  173.475;    0.000
395.180; 2212.800;  144.475;    0.000
395.238; 2145.800;  135.475;    0.000
395.295; 2178.800;  167.475;    0.000
395.353; 2191.800;  150.475;    0.000
395.410; 2184.800;  165.475;    0.000
395.468; 2191.800;  223.475;    0.000
395.525; 2169.800;  156.475;    0.000
395.582; 2276.800;  178.475;    0.000
395.640; 2200.800;  178.475;    0.000
395.697; 2251.800;  173.475;    0.000
395.754; 2188.800;  154.475;    0.000
395.812; 2165.800;  169.475;    0.000
395.869; 2257.800;  196.475;    0.000
395.927; 2275.800;  190.475;    0.000
395.984; 2272.800;  195.475;    0.000
396.041; 2227.800;  160.475;    0.000
396.098; 2191.800;  161.475;    0.000
396.156; 2309.800;  187.475;    0.000
396.213; 2236.800;  200.475;    0.000
396.270; 2227.800;  160.475;    0.000
396.328; 2278.800;  113.475;    0.000
396.385; 2326.800;  165.475;    0.000
396.442; 2271.800;  168.475;    0.000
396.499; 2201.800;  117.475;    0.000
396.557; 2232.800;  203.475;    0.000
396.614; 2314.800;  155.475;    0.000
396.671; 2312.800;  187.475;    0.000
396.728; 2580.800;  169.475;    0.000
396.785; 2879.800;  167.475;    0.000
396.843; 3329.800;  154.475;    0.000
396.900; 3150.800;  172.475;    0.000
396.957; 2535.800;  176.475;    0.000
397.014; 2345.800;  193.475;    0.000
397.071; 2388.800;  170.475;    0.000
397.128; 2271.800;  172.475;    0.000
397.186; 2406.800;  205.475;    0.000
397.243; 2336.800;  163.475;    0.000
397.300; 2283.800;  193.475;    0.000
397.357; 2345.800;  166.475;    0.000
397.414; 2320.800;  149.475;    0.000
397.471; 2262.800;  157.475;    0.000
397.528; 2317.800;  180.475;    0.000
397.585; 2306.800;  203.475;    0.000
397.642; 2335.800;  156.475;    0.000
397.699; 2337.800;  229.475;    0.000
397.756; 2382.800;  185.475;    0.000
397.814; 2403.800;  191.475;    0.000
397.871; 2308.800;  170.475;    0.000
397.928; 2336.800;  191.475;    0.000
397.985; 2401.800;  183.475;    0.000
398.042; 2368.800;  161.475;    0.000
398.099; 2304.800;  192.475;    0.000
398.156; 2359.800;  176.475;    0.000
398.212; 2417.800;  170.475;    0.000
398.269; 2401.800;  158.475;    0.000
398.326; 2347.800;  175.475;    0.000
398.383; 2425.800;  177.475;    0.000
398.440; 2438.800;  169.475;    0.000
398.497; 2457.800;  184.475;    0.000
398.554; 2497.800;  196.475;    0.000
398.611; 2398.800;  198.475;    0.000
398.668; 2445.800;  135.475;    0.000
398.725; 2472.800;  181.475;    0.000
398.782; 2493.800;  195.475;    0.000
398.839; 2535.800;  179.475;    0.000
398.895; 2496.800;  188.475;    0.000
398.952; 2605.800;  176.475;    0.000
399.009; 2529.800;  183.475;    0.000
399.066; 2553.800;  190.475;    0.000
399.123; 2656.800;  174.475;    0.000
399.180; 2715.800;  191.475;    0.000
399.236; 2639.800;  217.475;    0.000
399.293; 2741.800;  154.475;    0.000
399.350; 2745.800;  210.475;    0.000
399.407; 2875.800;  202.475;    0.000
399.463; 2820.800;  162.475;    0.000
399.520; 2832.800;  207.475;    0.000
399.577; 2845.800;  174.475;    0.000
399.634; 2849.800;  170.475;    0.000
399.690; 2962.800;  186.475;    0.000
399.747; 2975.800;  218.475;    0.000
399.804; 2905.800;  200.475;    0.000
399.861; 2881.800;  190.475;    0.000
399.917; 2941.800;  218.475;    0.000
399.974; 2756.800;  200.475;    0.000
400.031; 2938.800;  200.475;    0.000
400.087; 2803.800;  153.475;    0.000
400.144; 2797.800;  188.475;    0.000
400.201; 2677.800;  198.475;    0.000
400.257; 2679.800;  205.475;    0.000
400.314; 2656.800;  183.475;    0.000
400.370; 2700.800;  227.475;    0.000
400.427; 2731.800;  177.475;    0.000
400.484; 2727.800;  202.475;    0.000
400.540; 2672.800;  173.475;    0.000
400.597; 2627.800;  212.475;    0.000
400.653; 2689.800;  182.475;    0.000
400.710; 2612.800;  201.475;    0.000
400.766; 2664.800;  188.475;    0.000
400.823; 2679.800;  205.475;    0.000
400.879; 2572.800;  165.475;    0.000
400.936; 2599.800;  180.475;    0.000
400.993; 2607.800;  181.475;    0.000
401.049; 2589.800;  147.475;    0.000
401.105; 2654.800;  205.475;    0.000
401.162; 2667.800;  197.475;    0.000
401.218; 2576.800;  177.475;    0.000
401.275; 2614.800;  183.475;    0.000
401.331; 2631.800;  198.475;    0.000
401.388; 2568.800;  209.475;    0.000
401.444; 2586.800;  211.475;    0.000
401.501; 2673.800;  185.475;    0.000
401.557; 2564.800;  190.475;    0.000
401.614; 2536.800;  172.475;    0.000
401.670; 2541.800;  185.475;    0.000
401.726; 2610.800;  196.475;    0.000
401.783; 2601.800;  187.475;    0.000
401.839; 2581.800;  192.475;    0.000
401.895; 2627.800;  173.475;    0.000
401.952; 2657.800;  145.475;    0.000
402.008; 2650.800;  197.475;    0.000
402.064; 2659.800;  146.475;    0.000
402.121; 2569.800;  197.475;    0.000
402.177; 2646.800;  173.475;    0.000
402.233; 2609.800;  185.475;    0.000
402.290; 2588.800;  175.475;    0.000
402.346; 2640.800;  164.475;    0.000
402.402; 2721.800;  173.475;    0.000
402.458; 2672.800;  183.475;    0.000
402.515; 2709.800;  147.475;    0.000
402.571; 2673.800;  210.475;    0.000
402.627; 2661.800;  181.475;    0.000
402.683; 2661.800;  177.475;    0.000
402.740; 2683.800;  162.475;    0.000
402.796; 2585.800;  178.475;    0.000
402.852; 2711.800;  138.475;    0.000
402.908; 2681.800;  181.475;    0.000
402.964; 2683.800;  151.475;    0.000
403.021; 2712.800;  170.475;    0.000
403.077; 2645.800;  204.475;    0.000
403.133; 2648.800;  144.475;    0.000
403.189; 2653.800;  207.475;    0.000
403.245; 2754.800;  184.475;    0.000
403.301; 2829.800;  170.475;    0.000
403.357; 2741.800;  201.475;    0.000
403.414; 2657.800;  205.475;    0.000
403.470; 2715.800;  170.475;    0.000
403.526; 2756.800;  135.475;    0.000
403.582; 2783.800;  180.475;    0.000
403.638; 2845.800;  185.475;    0.000
403.694; 2789.800;  169.475;    0.000
403.750; 2752.800;  210.475;    0.000
403.806; 2773.800;  210.475;    0.000
403.862; 2768.800;  219.475;    0.000
403.918; 2757.800;  191.475;    0.000
403.974; 2779.800;  193.475;    0.000
404.030; 2913.800;  154.475;    0.000
404.086; 2775.800;  170.475;    0.000
404.142; 2887.800;  194.475;    0.000
404.198; 2851.800;  224.475;    0.000
404.254; 2814.800;  177.475;    0.000
404.310; 2765.800;  204.475;    0.000
404.366; 2774.800;  170.475;    0.000
404.422; 2736.800;  172.475;    0.000
404.478; 2834.800;  153.475;    0.000
404.534; 2800.800;  159.475;    0.000
404.590; 2809.800;  203.475;    0.000
404.646; 2894.800;  164.475;    0.000
404.701; 2763.800;  141.475;    0.000
404.757; 2908.800;  195.475;    0.000
404.813; 2855.800;  152.475;    0.000
404.869; 2859.800;  174.475;    0.000
404.925; 2744.800;  167.475;    0.000
404.981; 2838.800;  175.475;    0.000
405.037; 2753.800;  170.475;    0.000
405.092; 2840.800;  155.475;    0.000
405.148; 2832.800;  160.475;    0.000
405.204; 2783.800;  158.475;    0.000
405.260; 2824.800;  128.475;    0.000
405.316; 2767.800;  168.475;    0.000
405.371; 2781.800;  162.475;    0.000
405.427; 2851.800;  187.475;    0.000
405.483; 2912.800;  214.475;    0.000
405.539; 2827.800;  163.475;    0.000
405.594; 2876.800;  191.475;    0.000
405.650; 2867.800;  124.475;    0.000
405.706; 2862.800;  188.475;    0.000
405.761; 2871.800;  204.475;    0.000
405.817; 2764.800;  150.475;    0.000
405.873; 2885.800;  152.475;    0.000
405.928; 2854.800;  135.475;    0.000
405.984; 2900.800;  209.475;    0.000
406.040; 2876.800;  165.475;    0.000
406.095; 2789.800;  146.475;    0.000
406.151; 2961.800;  169.475;    0.000
406.207; 2852.800;  174.475;    0.000
406.262; 2855.800;  189.475;    0.000
406.318; 2933.800;  141.475;    0.000
406.374; 2887.800;  178.475;    0.000
406.429; 2915.800;  197.475;    0.000
406.485; 3029.800;  194.475;    0.000
406.540; 2966.800;  149.475;    0.000
406.596; 2995.800;  173.475;    0.000
406.651; 2914.800;  154.475;    0.000
406.707; 2986.800;  183.475;    0.000
406.763; 2951.800;  156.475;    0.000
406.818; 3050.800;  181.475;    0.000
406.874; 3066.800;  135.475;    0.000
406.929; 3092.800;  194.475;    0.000
406.985; 3078.800;  166.475;    0.000
407.040; 3162.800;  207.475;    0.000
407.095; 3170.800;  213.475;    0.000
407.151; 3200.800;  198.475;    0.000
407.206; 3173.800;  186.475;    0.000
407.262; 3264.800;  148.475;    0.000
407.317; 3246.800;  212.475;    0.000
407.373; 3336.800;  209.475;    0.000
407.428; 3281.800;  218.475;    0.000
407.484; 3319.800;  158.475;    0.000
407.539; 3349.800;  165.475;    0.000
407.594; 3282.800;  197.475;    0.000
407.650; 3237.800;  177.475;    0.000
407.705; 3253.800;  154.475;    0.000
407.760; 3264.800;  198.475;    0.000
407.816; 3261.800;  181.475;    0.000
407.871; 3298.800;  185.475;    0.000
407.926; 3325.800;  167.475;    0.000
407.982; 3169.800;  172.475;    0.000
408.037; 3213.800;  202.475;    0.000
408.092; 3133.800;  201.475;    0.000
408.148; 3146.800;  199.475;    0.000
408.203; 3145.800;  174.475;    0.000
408.258; 3141.800;  157.475;    0.000
408.314; 3171.800;  194.475;    0.000
408.369; 3127.800;  189.475;    0.000
408.424; 3042.800;  204.475;    0.000
408.479; 3127.800;  192.475;    0.000
408.534; 3091.800;  215.475;    0.000
408.590; 3088.800;  190.475;    0.000
408.645; 3100.800;  159.475;    0.000
408.700; 3116.800;  191.475;    0.000
408.755; 3084.800;  217.475;    0.000
408.810; 3102.800;  158.475;    0.000
408.866; 3139.800;  166.475;    0.000
408.921; 3029.800;  214.475;    0.000
408.976; 3051.800;  158.475;    0.000
409.031; 3077.800;  185.475;    0.000
409.086; 3010.800;  158.475;    0.000
409.141; 3112.800;  180.475;    0.000
409.196; 3089.800;  188.475;    0.000
409.252; 3126.800;  186.475;    0.000
409.307; 3077.800;  135.475;    0.000
409.362; 3042.800;  162.475;    0.000
409.417; 3137.800;  149.475;    0.000
409.472; 3065.800;  205.475;    0.000
409.527; 3208.800;  184.475;    0.000
409.582; 3107.800;  174.475;    0.000
409.637; 3066.800;  188.475;    0.000
409.692; 3149.800;  211.475;    0.000
409.747; 2953.800;  159.475;    0.000
409.802; 3071.800;  199.475;    0.000
409.857; 3058.800;  118.475;    0.000
409.912; 3034.800;  177.475;    0.000
409.967; 3001.800;  182.475;    0.000
410.022; 3143.800;  188.475;    0.000
410.077; 3034.800;  204.475;    0.000
410.132; 3072.800;  174.475;    0.000
410.187; 3060.800;  169.475;    0.000
410.242; 3051.800;  178.475;    0.000
410.297; 3070.800;  185.475;    0.000
410.351; 3150.800;  203.475;    0.000
410.406; 3141.800;  180.475;    0.000
410.461; 3121.800;  213.475;    0.000
410.516; 3104.800;  198.475;    0.000
410.571; 3026.800;  171.475;    0.000
410.626; 2978.800;  186.475;    0.000
410.681; 3169.800;  187.475;    0.000
410.736; 3131.800;  147.475;    0.000
410.790; 3087.800;  186.475;    0.000
410.845; 3014.800;  152.475;    0.000
410.900; 3016.800;  202.475;    0.000
410.955; 3083.800;  196.475;    0.000
411.010; 3052.800;  150.475;    0.000
411.064; 3074.800;  200.475;    0.000
411.119; 3022.800;  203.475;    0.000
411.174; 3111.800;  176.475;    0.000
411.229; 3040.800;  203.475;    0.000
411.283; 2985.800;  176.475;    0.000
411.338; 3064.800;  153.475;    0.000
411.393; 3074.800;  168.475;    0.000
411.447; 3124.800;  223.475;    0.000
411.502; 3091.800;  238.475;    0.000
411.557; 2971.800;  179.475;    0.000
411.612; 3011.800;  159.475;    0.000
411.666; 3134.800;  189.475;    0.000
411.721; 2991.800;  212.475;    0.000
411.776; 3106.800;  242.475;    0.000
411.830; 3018.800;  194.475;    0.000
411.885; 3140.800;  188.475;    0.000
411.939; 3148.800;  245.475;    0.000
411.994; 3120.800;  177.475;    0.000
412.049; 3098.800;  170.475;    0.000
412.103; 3230.800;  196.475;    0.000
412.158; 3125.800;  215.475;    0.000
412.212; 3111.800;  199.475;    0.000
412.267; 3107.800;  191.475;    0.000
412.322; 3168.800;  238.475;    0.000
412.376; 3158.800;  243.475;    0.000
412.431; 3151.800;  214.475;    0.000
412.485; 3130.800;  210.475;    0.000
412.540; 3034.800;  200.475;    0.000
412.594; 3155.800;  174.475;    0.000
412.649; 3120.800;  246.475;    0.000
412.703; 3070.800;  182.475;    0.000
412.758; 3108.800;  222.475;    0.000
412.812; 3054.800;  201.475;    0.000
412.866; 2996.800;  162.475;    0.000
412.921; 3097.800;  202.475;    0.000
412.975; 3064.800;  212.475;    0.000
413.030; 3013.800;  238.475;    0.000
413.084; 3046.800;  201.475;    0.000
413.139; 3031.800;  210.475;    0.000
413.193; 2931.800;  218.475;    0.000
413.247; 3067.800;  203.475;    0.000
413.302; 3143.800;  176.475;    0.000
413.356; 3028.800;  215.475;    0.000
413.410; 3012.800;  204.475;    0.000
413.465; 3072.800;  186.475;    0.000
413.519; 3012.800;  196.475;    0.000
413.573; 2996.800;  181.475;    0.000
413.628; 3105.800;  200.475;    0.000
413.682; 3035.800;  157.475;    0.000
413.736; 3001.800;  194.475;    0.000
413.791; 3025.800;  193.475;    0.000
413.845; 3047.800;  225.475;    0.000
413.899; 2969.800;  195.475;    0.000
413.953; 2950.800;  173.475;    0.000
414.008; 2907.800;  186.475;    0.000
414.062; 3071.800;  217.475;    0.000
414.116; 3064.800;  169.475;    0.000
414.170; 2975.800;  228.475;    0.000
414.225; 2992.800;  177.475;    0.000
414.279; 3078.800;  210.475;    0.000
414.333; 3026.800;  207.475;    0.000
414.387; 3111.800;  217.475;    0.000
414.441; 3008.800;  187.475;    0.000
414.496; 2953.800;  215.475;    0.000
414.550; 3126.800;  204.475;    0.000
414.604; 3106.800;  206.475;    0.000
414.658; 2950.800;  139.475;    0.000
414.712; 3057.800;  198.475;    0.000
414.766; 3173.800;  208.475;    0.000
414.820; 3008.800;  199.475;    0.000
414.874; 2986.800;  216.475;    0.000
414.928; 3104.800;  186.475;    0.000
414.982; 3017.800;  176.475;    0.000
415.037; 3089.800;  181.475;    0.000
415.091; 3057.800;  208.475;    0.000
415.145; 3090.800;  209.475;    0.000
415.199; 2921.800;  186.475;    0.000
415.253; 3059.800;  203.475;    0.000
415.307; 3011.800;  197.475;    0.000
415.361; 3053.800;  223.475;    0.000
415.415; 2994.800;  213.475;    0.000
415.469; 3147.800;  226.475;    0.000
415.523; 3076.800;  222.475;    0.000
415.577; 3058.800;  205.475;    0.000
415.631; 3035.800;  224.475;    0.000
415.684; 3058.800;  193.475;    0.000
415.738; 3044.800;  224.475;    0.000
415.792; 3043.800;  204.475;    0.000
415.846; 3046.800;  189.475;    0.000
415.900; 3002.800;  223.475;    0.000
415.954; 3054.800;  187.475;    0.000
416.008; 3075.800;  237.475;    0.000
416.062; 2970.800;  195.475;    0.000
416.116; 2936.800;  223.475;    0.000
416.169; 2984.800;  210.475;    0.000
416.223; 3010.800;  232.475;    0.000
416.277; 3092.800;  227.475;    0.000
416.331; 3002.800;  216.475;    0.000
416.385; 2989.800;  186.475;    0.000
416.439; 3027.800;  226.475;    0.000
416.492; 2984.800;  229.475;    0.000
416.546; 3009.800;  216.475;    0.000
416.600; 2952.800;  211.475;    0.000
416.654; 3041.800;  226.475;    0.000
416.707; 2964.800;  248.475;    0.000
416.761; 3077.800;  217.475;    0.000
416.815; 2917.800;  207.475;    0.000
416.869; 2983.800;  226.475;    0.000
416.922; 2983.800;  192.475;    0.000
416.976; 3045.800;  205.475;    0.000
417.030; 3037.800;  233.475;    0.000
417.083; 2907.800;  226.475;    0.000
417.137; 3024.800;  222.475;    0.000
417.191; 2948.800;  217.475;    0.000
417.244; 3029.800;  221.475;    0.000
417.298; 2907.800;  201.475;    0.000
417.352; 3010.800;  170.475;    0.000
417.405; 3089.800;  234.475;    0.000
417.459; 2997.800;  241.475;    0.000
417.512; 2959.800;  247.475;    0.000
417.566; 2966.800;  219.475;    0.000
417.620; 3010.800;  228.475;    0.000
417.673; 2991.800;  192.475;    0.000
417.727; 2933.800;  203.475;    0.000
417.780; 2986.800;  204.475;    0.000
417.834; 3104.800;  234.475;    0.000
417.887; 3008.800;  245.475;    0.000
417.941; 3076.800;  211.475;    0.000
417.994; 3033.800;  244.475;    0.000
418.048; 2974.800;  203.475;    0.000
418.101; 2983.800;  212.475;    0.000
418.155; 3041.800;  251.475;    0.000
418.208; 3071.800;  286.475;    0.000
418.262; 3061.800;  243.475;    0.000
418.315; 3008.800;  214.475;    0.000
418.369; 2964.800;  269.475;    0.000
418.422; 3035.800;  222.475;    0.000
418.476; 3010.800;  226.475;    0.000
418.529; 3027.800;  238.475;    0.000
418.582; 2989.800;  210.475;    0.000
418.636; 3075.800;  221.475;    0.000
418.689; 3008.800;  224.475;    0.000
418.743; 3010.800;  228.475;    0.000
418.796; 3054.800;  192.475;    0.000
418.849; 3077.800;  230.475;    0.000
418.903; 2978.800;  257.475;    0.000
418.956; 3037.800;  241.475;    0.000
419.009; 3118.800;  247.475;    0.000
419.063; 3052.800;  235.475;    0.000
419.116; 3011.800;  218.475;    0.000
419.169; 3008.800;  219.475;    0.000
419.222; 3039.800;  215.475;    0.000
419.276; 3114.800;  202.475;    0.000
419.329; 2961.800;  210.475;    0.000
419.382; 2972.800;  188.475;    0.000
419.435; 2979.800;  222.475;    0.000
419.489; 3028.800;  232.475;    0.000
419.542; 2946.800;  250.475;    0.000
419.595; 3075.800;  240.475;    0.000
419.648; 3043.800;  261.475;    0.000
419.701; 2942.800;  222.475;    0.000
419.755; 2987.800;  233.475;    0.000
419.808; 2976.800;  178.475;    0.000
419.861; 2930.800;  207.475;    0.000
419.914; 2966.800;  223.475;    0.000
419.967; 2944.800;  216.475;    0.000
420.020; 2936.800;  211.475;    0.000
420.073; 2949.800;  200.475;    0.000
420.127; 3050.800;  248.475;    0.000
420.180; 2886.800;  220.475;    0.000
420.233; 3007.800;  215.475;    0.000
420.286; 2895.800;  222.475;    0.000
420.339; 2991.800;  229.475;    0.000
420.392; 2894.800;  245.475;    0.000
420.445; 2960.800;  221.475;    0.000
420.498; 2988.800;  224.475;    0.000
420.551; 2886.800;  170.475;    0.000
420.604; 2908.800;  237.475;    0.000
420.657; 2860.800;  235.475;    0.000
420.710; 2971.800;  223.475;    0.000
420.763; 2977.800;  219.475;    0.000
420.816; 2910.800;  200.475;    0.000
420.869; 2905.800;  197.475;    0.000
420.922; 2889.800;  212.475;    0.000
420.975; 2878.800;  274.475;    0.000
421.028; 2973.800;  228.475;    0.000
421.081; 2888.800;  243.475;    0.000
421.134; 2965.800;  227.475;    0.000
421.187; 2835.800;  245.475;    0.000
421.239; 2882.800;  210.475;    0.000
421.292; 2923.800;  193.475;    0.000
421.345; 2835.800;  226.475;    0.000
421.398; 2835.800;  226.475;    0.000
421.451; 2848.800;  259.475;    0.000
421.504; 2812.800;  204.475;    0.000
421.557; 2820.800;  215.475;    0.000
421.609; 2818.800;  194.475;    0.000
421.662; 2778.800;  216.475;    0.000
421.715; 2901.800;  226.475;    0.000
421.768; 2837.800;  177.475;    0.000
421.821; 2865.800;  210.475;    0.000
421.873; 2836.800;  208.475;    0.000
421.926; 2848.800;  223.475;    0.000
421.979; 2763.800;  230.475;    0.000
422.032; 2803.800;  227.475;    0.000
422.084; 2885.800;  234.475;    0.000
422.137; 2853.800;  207.475;    0.000
422.190; 2873.800;  228.475;    0.000
422.243; 2868.800;  206.475;    0.000
422.295; 2806.800;  236.475;    0.000
422.348; 2851.800;  232.475;    0.000
422.401; 2851.800;  228.475;    0.000
422.453; 2859.800;  239.475;    0.000
422.506; 2853.800;  226.475;    0.000
422.559; 2776.800;  205.475;    0.000
422.611; 2882.800;  235.475;    0.000
422.664; 3070.800;  231.475;    0.000
422.716; 3042.800;  228.475;    0.000
422.769; 2903.800;  204.475;    0.000
422.822; 2815.800;  205.475;    0.000
422.874; 2748.800;  228.475;    0.000
422.927; 2942.800;  266.475;    0.000
422.979; 2766.800;  223.475;    0.000
423.032; 2836.800;  207.475;    0.000
423.084; 2804.800;  211.475;    0.000
423.137; 2787.800;  205.475;    0.000
423.189; 2834.800;  254.475;    0.000
423.242; 2804.800;  208.475;    0.000
423.294; 2807.800;  240.475;    0.000
423.347; 2767.800;  218.475;    0.000
423.399; 2848.800;  237.475;    0.000
423.452; 2810.800;  242.475;    0.000
423.504; 2815.800;  225.475;    0.000
423.557; 2782.800;  195.475;    0.000
423.609; 2840.800;  206.475;    0.000
423.662; 2847.800;  211.475;    0.000
423.714; 2882.800;  252.475;    0.000
423.766; 2700.800;  181.475;    0.000
423.819; 2802.800;  216.475;    0.000
423.871; 2819.800;  216.475;    0.000
423.923; 2800.800;  222.475;    0.000
423.976; 2864.800;  223.475;    0.000
424.028; 2747.800;  229.475;    0.000
424.081; 2720.800;  267.475;    0.000
424.133; 2760.800;  251.475;    0.000
424.185; 2745.800;  238.475;    0.000
424.238; 2735.800;  220.475;    0.000
424.290; 2796.800;  259.475;    0.000
424.342; 2779.800;  248.475;    0.000
424.394; 2785.800;  234.475;    0.000
424.447; 2777.800;  248.475;    0.000
424.499; 2732.800;  233.475;    0.000
424.551; 2849.800;  236.475;    0.000
424.603; 2752.800;  207.475;    0.000
424.656; 2773.800;  210.475;    0.000
424.708; 2715.800;  251.475;    0.000
424.760; 2763.800;  221.475;    0.000
424.812; 2797.800;  275.475;    0.000
424.864; 2761.800;  206.475;    0.000
424.917; 2705.800;  198.475;    0.000
424.969; 2784.800;  246.475;    0.000
425.021; 2652.800;  209.475;    0.000
425.073; 2725.800;  242.475;    0.000
425.125; 2683.800;  254.475;    0.000
425.177; 2717.800;  224.475;    0.000
425.229; 2681.800;  256.475;    0.000
425.282; 2697.800;  265.475;    0.000
425.334; 2691.800;  266.475;    0.000
425.386; 2810.800;  242.475;    0.000
425.438; 2833.800;  205.475;    0.000
425.490; 2679.800;  227.475;    0.000
425.542; 2651.800;  235.475;    0.000
425.594; 2672.800;  210.475;    0.000
425.646; 2650.800;  232.475;    0.000
425.698; 2645.800;  243.475;    0.000
425.750; 2744.800;  230.475;    0.000
425.802; 2652.800;  218.475;    0.000
425.854; 2679.800;  222.475;    0.000
425.906; 2678.800;  235.475;    0.000
425.958; 2669.800;  220.475;    0.000
426.010; 2647.800;  236.475;    0.000
426.062; 2707.800;  230.475;    0.000
426.114; 2712.800;  216.475;    0.000
426.166; 2692.800;  230.475;    0.000
426.218; 2545.800;  237.475;    0.000
426.270; 2590.800;  217.475;    0.000
426.321; 2672.800;  224.475;    0.000
426.373; 2697.800;  207.475;    0.000
426.425; 2671.800;  278.475;    0.000
426.477; 2603.800;  243.475;    0.000
426.529; 2662.800;  247.475;    0.000
426.581; 2533.800;  229.475;    0.000
426.633; 2597.800;  212.475;    0.000
426.684; 2500.800;  244.475;    0.000
426.736; 2652.800;  250.475;    0.000
426.788; 2676.800;  210.475;    0.000
426.840; 2575.800;  201.475;    0.000
426.892; 2601.800;  225.475;    0.000
426.943; 2591.800;  215.475;    0.000
426.995; 2535.800;  216.475;    0.000
427.047; 2559.800;  216.475;    0.000
427.099; 2608.800;  203.475;    0.000
427.150; 2529.800;  195.475;    0.000
427.202; 2572.800;  212.475;    0.000
427.254; 2556.800;  233.475;    0.000
427.306; 2550.800;  211.475;    0.000
427.357; 2595.800;  210.475;    0.000
427.409; 2631.800;  244.475;    0.000
427.461; 2541.800;  187.475;    0.000
427.512; 2653.800;  227.475;    0.000
427.564; 2536.800;  210.475;    0.000
427.616; 2594.800;  202.475;    0.000
427.667; 2526.800;  185.475;    0.000
427.719; 2495.800;  222.475;    0.000
427.770; 2591.800;  230.475;    0.000
427.822; 2527.800;  254.475;    0.000
427.874; 2488.800;  222.475;    0.000
427.925; 2504.800;  199.475;    0.000
427.977; 2450.800;  228.475;    0.000
428.028; 2536.800;  226.475;    0.000
428.080; 2458.800;  236.475;    0.000
428.131; 2493.800;  220.475;    0.000
428.183; 2491.800;  256.475;    0.000
428.234; 2522.800;  217.475;    0.000
428.286; 2535.800;  234.475;    0.000
428.337; 2418.800;  209.475;    0.000
428.389; 2425.800;  219.475;    0.000
428.440; 2542.800;  249.475;    0.000
428.492; 2470.800;  255.475;    0.000
428.543; 2410.800;  224.475;    0.000
428.595; 2474.800;  225.475;    0.000
428.646; 2527.800;  240.475;    0.000
428.697; 2438.800;  211.475;    0.000
428.749; 2478.800;  200.475;    0.000
428.800; 2450.800;  235.475;    0.000
428.852; 2494.800;  265.475;    0.000
428.903; 2524.800;  201.475;    0.000
428.954; 2572.800;  242.475;    0.000
429.006; 2510.800;  245.475;    0.000
429.057; 2450.800;  252.475;    0.000
429.108; 2392.800;  211.475;    0.000
429.160; 2485.800;  217.475;    0.000
429.211; 2451.800;  234.475;    0.000
429.262; 2430.800;  205.475;    0.000
429.314; 2430.800;  211.475;    0.000
429.365; 2393.800;  240.475;    0.000
429.416; 2439.800;  263.475;    0.000
429.467; 2424.800;  244.475;    0.000
429.519; 2450.800;  223.475;    0.000
429.570; 2480.800;  214.475;    0.000
429.621; 2485.800;  235.475;    0.000
429.672; 2486.800;  202.475;    0.000
429.724; 2473.800;  189.475;    0.000
429.775; 2472.800;  214.475;    0.000
429.826; 2365.800;  178.475;    0.000
429.877; 2341.800;  224.475;    0.000
429.928; 2424.800;  230.475;    0.000
429.980; 2321.800;  199.475;    0.000
430.031; 2455.800;  208.475;    0.000
430.082; 2407.800;  224.475;    0.000
430.133; 2441.800;  193.475;    0.000
430.184; 2443.800;  220.475;    0.000
430.235; 2373.800;  184.475;    0.000
430.286; 2446.800;  197.475;    0.000
430.337; 2344.800;  199.475;    0.000
430.388; 2455.800;  207.475;    0.000
430.439; 2458.800;  227.475;    0.000
430.490; 2399.800;  215.475;    0.000
430.542; 2436.800;  211.475;    0.000
430.593; 2403.800;  230.475;    0.000
430.644; 2358.800;  186.475;    0.000
430.695; 2410.800;  232.475;    0.000
430.746; 2372.800;  214.475;    0.000
430.797; 2385.800;  260.475;    0.000
430.848; 2420.800;  214.475;    0.000
430.898; 2428.800;  204.475;    0.000
430.949; 2434.800;  189.475;    0.000
431.000; 2397.800;  240.475;    0.000
431.051; 2413.800;  201.475;    0.000
431.102; 2337.800;  188.475;    0.000
431.153; 2411.800;  209.475;    0.000
431.204; 2474.800;  187.475;    0.000
431.255; 2321.800;  171.475;    0.000
431.306; 2441.800;  181.475;    0.000
431.357; 2375.800;  221.475;    0.000
431.408; 2362.800;  217.475;    0.000
431.458; 2446.800;  206.475;    0.000
431.509; 2331.800;  194.475;    0.000
431.560; 2409.800;  235.475;    0.000
431.611; 2358.800;  213.475;    0.000
431.662; 2378.800;  237.475;    0.000
431.713; 2344.800;  220.475;    0.000
431.763; 2408.800;  212.475;    0.000
431.814; 2475.800;  238.475;    0.000
431.865; 2406.800;  213.475;    0.000
431.916; 2314.800;  191.475;    0.000
431.966; 2379.800;  171.475;    0.000
432.017; 2401.800;  263.475;    0.000
432.068; 2354.800;  240.475;    0.000
432.118; 2484.800;  235.475;    0.000
432.169; 2372.800;  212.475;    0.000
432.220; 2414.800;  188.475;    0.000
432.271; 2327.800;  216.475;    0.000
432.321; 2394.800;  223.475;    0.000
432.372; 2393.800;  254.475;    0.000
432.423; 2343.800;  193.475;    0.000
432.473; 2396.800;  219.475;    0.000
432.524; 2470.800;  215.475;    0.000
432.574; 2446.800;  234.475;    0.000
432.625; 2421.800;  226.475;    0.000
432.676; 2374.800;  219.475;    0.000
432.726; 2437.800;  254.475;    0.000
432.777; 2336.800;  210.475;    0.000
432.827; 2304.800;  234.475;    0.000
432.878; 2407.800;  212.475;    0.000
432.928; 2320.800;  238.475;    0.000
432.979; 2299.800;  252.475;    0.000
433.029; 2291.800;  222.475;    0.000
433.080; 2381.800;  188.475;    0.000
433.130; 2362.800;  223.475;    0.000
433.181; 2401.800;  254.475;    0.000
433.231; 2434.800;  237.475;    0.000
433.282; 2388.800;  242.475;    0.000
433.332; 2357.800;  261.475;    0.000
433.383; 2474.800;  266.475;    0.000
433.433; 2471.800;  286.475;    0.000
433.484; 2382.800;  231.475;    0.000
433.534; 2409.800;  256.475;    0.000
433.585; 2291.800;  253.475;    0.000
433.635; 2346.800;  228.475;    0.000
433.685; 2452.800;  226.475;    0.000
433.736; 2324.800;  276.475;    0.000
433.786; 2393.800;  253.475;    0.000
433.836; 2354.800;  289.475;    0.000
433.887; 2412.800;  241.475;    0.000
433.937; 2435.800;  252.475;    0.000
433.987; 2399.800;  223.475;    0.000
434.038; 2317.800;  241.475;    0.000
434.088; 2378.800;  231.475;    0.000
434.138; 2461.800;  259.475;    0.000
434.189; 2368.800;  263.475;    0.000
434.239; 2404.800;  194.475;    0.000
434.289; 2463.800;  273.475;    0.000
434.339; 2454.800;  212.475;    0.000
434.389; 2387.800;  248.475;    0.000
434.440; 2457.800;  250.475;    0.000
434.490; 2457.800;  278.475;    0.000
434.540; 2426.800;  241.475;    0.000
434.590; 2438.800;  251.475;    0.000
434.640; 2362.800;  207.475;    0.000
434.691; 2493.800;  242.475;    0.000
434.741; 2473.800;  218.475;    0.000
434.791; 2388.800;  267.475;    0.000
434.841; 2482.800;  272.475;    0.000
434.891; 2502.800;  260.475;    0.000
434.941; 2571.800;  258.475;    0.000
434.991; 2525.800;  264.475;    0.000
435.042; 2467.800;  264.475;    0.000
435.092; 2440.800;  271.475;    0.000
435.142; 2424.800;  229.475;    0.000
435.192; 2472.800;  226.475;    0.000
435.242; 2435.800;  253.475;    0.000
435.292; 2468.800;  215.475;    0.000
435.342; 2415.800;  240.475;    0.000
435.392; 2391.800;  235.475;    0.000
435.442; 2347.800;  230.475;    0.000
435.492; 2342.800;  235.475;    0.000
435.542; 2335.800;  230.475;    0.000
435.592; 2282.800;  239.475;    0.000
435.642; 2324.800;  244.475;    0.000
435.692; 2230.800;  236.475;    0.000
435.742; 2274.800;  236.475;    0.000
435.792; 2362.800;  230.475;    0.000
435.842; 2338.800;  248.475;    0.000
435.891; 2231.800;  233.475;    0.000
435.941; 2294.800;  243.475;    0.000
435.991; 2302.800;  279.475;    0.000
436.041; 2274.800;  204.475;    0.000
436.091; 2322.800;  217.475;    0.000
436.141; 2300.800;  205.475;    0.000
436.191; 2306.800;  220.475;    0.000
436.241; 2120.800;  248.475;    0.000
436.290; 2350.800;  255.475;    0.000
436.340; 2250.800;  235.475;    0.000
436.390; 2305.800;  207.475;    0.000
436.440; 2318.800;  207.475;    0.000
436.490; 2205.800;  251.475;    0.000
436.539; 2318.800;  240.475;    0.000
436.589; 2196.800;  198.475;    0.000
436.639; 2221.800;  240.475;    0.000
436.689; 2268.800;  216.475;    0.000
436.738; 2283.800;  246.475;    0.000
436.788; 2200.800;  203.475;    0.000
436.838; 2233.800;  230.475;    0.000
436.887; 2287.800;  235.475;    0.000
436.937; 2297.800;  249.475;    0.000
436.987; 2124.800;  208.475;    0.000
437.036; 2325.800;  232.475;    0.000
437.086; 2313.800;  238.475;    0.000
437.136; 2300.800;  228.475;    0.000
437.185; 2257.800;  219.475;    0.000
437.235; 2203.800;  227.475;    0.000
437.285; 2209.800;  241.475;    0.000
437.334; 2231.800;  216.475;    0.000
437.384; 2183.800;  243.475;    0.000
437.433; 2173.800;  214.475;    0.000
437.483; 2268.800;  246.475;    0.000
437.532; 2213.800;  261.475;    0.000
437.582; 2242.800;  205.475;    0.000
437.631; 2178.800;  218.475;    0.000
437.681; 2179.800;  240.475;    0.000
437.730; 2137.800;  258.475;    0.000
437.780; 2175.800;  237.475;    0.000
437.829; 2162.800;  209.475;    0.000
437.879; 2188.800;  214.475;    0.000
437.928; 2092.800;  223.475;    0.000
437.978; 2129.800;  220.475;    0.000
438.027; 2140.800;  239.475;    0.000
438.077; 2204.800;  231.475;    0.000
438.126; 2159.800;  266.475;    0.000
438.176; 2101.800;  234.475;    0.000
438.225; 2141.800;  237.475;    0.000
438.274; 2273.800;  234.475;    0.000
438.324; 2219.800;  244.475;    0.000
438.373; 2092.800;  232.475;    0.000
438.422; 2123.800;  218.475;    0.000
438.472; 2101.800;  221.475;    0.000
438.521; 2017.800;  190.475;    0.000
438.570; 2106.800;  243.475;    0.000
438.620; 2211.800;  255.475;    0.000
438.669; 2178.800;  210.475;    0.000
438.718; 2163.800;  237.475;    0.000
438.768; 2115.800;  220.475;    0.000
438.817; 2122.800;  218.475;    0.000
438.866; 2108.800;  198.475;    0.000
438.915; 2144.800;  256.475;    0.000
438.965; 2152.800;  221.475;    0.000
439.014; 2086.800;  255.475;    0.000
439.063; 2218.800;  276.475;    0.000
439.112; 2157.800;  220.475;    0.000
439.162; 2193.800;  253.475;    0.000
439.211; 2211.800;  247.475;    0.000
439.260; 2192.800;  220.475;    0.000
439.309; 2096.800;  235.475;    0.000
439.358; 2183.800;  205.475;    0.000
439.407; 2119.800;  207.475;    0.000
439.456; 2144.800;  216.475;    0.000
439.506; 2183.800;  245.475;    0.000
439.555; 2179.800;  264.475;    0.000
439.604; 2224.800;  227.475;    0.000
439.653; 2160.800;  220.475;    0.000
439.702; 2207.800;  223.475;    0.000
439.751; 2190.800;  197.475;    0.000
439.800; 2116.800;  207.475;    0.000
439.849; 2209.800;  238.475;    0.000
439.898; 2117.800;  209.475;    0.000
439.947; 2138.800;  170.475;    0.000
439.996; 2202.800;  233.475;    0.000
440.045; 2207.800;  222.475;    0.000
440.094; 2207.800;  240.475;    0.000
440.143; 2199.800;  249.475;    0.000
440.192; 2244.800;  252.475;    0.000
440.241; 2194.800;  239.475;    0.000
440.290; 2168.800;  234.475;    0.000
440.339; 2160.800;  241.475;    0.000
440.388; 2196.800;  239.475;    0.000
440.437; 2161.800;  231.475;    0.000
440.486; 2218.800;  254.475;    0.000
440.535; 2233.800;  266.475;    0.000
440.583; 2201.800;  205.475;    0.000
440.632; 2141.800;  234.475;    0.000
440.681; 2173.800;  218.475;    0.000
440.730; 2262.800;  248.475;    0.000
440.779; 2197.800;  246.475;    0.000
440.828; 2159.800;  235.475;    0.000
440.876; 2173.800;  218.475;    0.000
440.925; 2167.800;  228.475;    0.000
440.974; 2198.800;  249.475;    0.000
441.023; 2271.800;  192.475;    0.000
441.072; 2146.800;  226.475;    0.000
441.120; 2299.800;  238.475;    0.000
441.169; 2252.800;  255.475;    0.000
441.218; 2236.800;  233.475;    0.000
441.267; 2286.800;  231.475;    0.000
441.315; 2268.800;  214.475;    0.000
441.364; 2250.800;  250.475;    0.000
441.413; 2301.800;  228.475;    0.000
441.461; 2235.800;  209.475;    0.000
441.510; 2392.800;  260.475;    0.000
441.559; 2291.800;  230.475;    0.000
441.607; 2416.800;  220.475;    0.000
441.656; 2309.800;  251.475;    0.000
441.705; 2326.800;  237.475;    0.000
441.753; 2373.800;  257.475;    0.000
441.802; 2330.800;  256.475;    0.000
441.850; 2341.800;  253.475;    0.000
441.899; 2295.800;  212.475;    0.000
441.948; 2278.800;  251.475;    0.000
441.996; 2271.800;  239.475;    0.000
442.045; 2312.800;  223.475;    0.000
442.093; 2347.800;  211.475;    0.000
442.142; 2292.800;  235.475;    0.000
442.190; 2312.800;  254.475;    0.000
442.239; 2318.800;  226.475;    0.000
442.287; 2287.800;  242.475;    0.000
442.336; 2312.800;  256.475;    0.000
442.384; 2249.800;  252.475;    0.000
442.433; 2307.800;  262.475;    0.000
442.481; 2298.800;  246.475;    0.000
442.529; 2258.800;  290.475;    0.000
442.578; 2235.800;  247.475;    0.000
442.626; 2251.800;  247.475;    0.000
442.675; 2286.800;  272.475;    0.000
442.723; 2276.800;  230.475;    0.000
442.771; 2296.800;  234.475;    0.000
442.820; 2244.800;  224.475;    0.000
442.868; 2210.800;  246.475;    0.000
442.917; 2202.800;  249.475;    0.000
442.965; 2271.800;  260.475;    0.000
443.013; 2281.800;  258.475;    0.000
443.062; 2279.800;  259.475;    0.000
443.110; 2338.800;  226.475;    0.000
443.158; 2372.800;  213.475;    0.000
443.206; 2270.800;  201.475;    0.000
443.255; 2277.800;  280.475;    0.000
443.303; 2308.800;  292.475;    0.000
443.351; 2262.800;  256.475;    0.000
443.399; 2233.800;  215.475;    0.000
443.448; 2294.800;  243.475;    0.000
443.496; 2217.800;  249.475;    0.000
443.544; 2303.800;  231.475;    0.000
443.592; 2270.800;  243.475;    0.000
443.640; 2373.800;  252.475;    0.000
443.689; 2268.800;  220.475;    0.000
443.737; 2309.800;  231.475;    0.000
443.785; 2338.800;  256.475;    0.000
443.833; 2314.800;  268.475;    0.000
443.881; 2303.800;  181.475;    0.000
443.929; 2403.800;  245.475;    0.000
443.977; 2331.800;  278.475;    0.000
444.025; 2322.800;  245.475;    0.000
444.074; 2414.800;  233.475;    0.000
444.122; 2396.800;  267.475;    0.000
444.170; 2356.800;  247.475;    0.000
444.218; 2440.800;  246.475;    0.000
444.266; 2416.800;  275.475;    0.000
444.314; 2394.800;  263.475;    0.000
444.362; 2429.800;  240.475;    0.000
444.410; 2449.800;  220.475;    0.000
444.458; 2465.800;  258.475;    0.000
444.506; 2435.800;  258.475;    0.000
444.554; 2494.800;  224.475;    0.000
444.602; 2411.800;  245.475;    0.000
444.650; 2565.800;  261.475;    0.000
444.698; 2501.800;  232.475;    0.000
444.746; 2486.800;  206.475;    0.000
444.793; 2446.800;  249.475;    0.000
444.841; 2522.800;  261.475;    0.000
444.889; 2419.800;  221.475;    0.000
444.937; 2371.800;  215.475;    0.000
444.985; 2404.800;  244.475;    0.000
445.033; 2436.800;  211.475;    0.000
445.081; 2436.800;  225.475;    0.000
445.129; 2528.800;  217.475;    0.000
445.176; 2370.800;  196.475;    0.000
445.224; 2415.800;  211.475;    0.000
445.272; 2403.800;  242.475;    0.000
445.320; 2441.800;  225.475;    0.000
445.368; 2311.800;  249.475;    0.000
445.415; 2448.800;  243.475;    0.000
445.463; 2396.800;  242.475;    0.000
445.511; 2430.800;  248.475;    0.000
445.559; 2411.800;  219.475;    0.000
445.606; 2354.800;  221.475;    0.000
445.654; 2307.800;  202.475;    0.000
445.702; 2383.800;  210.475;    0.000
445.749; 2378.800;  249.475;    0.000
445.797; 2324.800;  206.475;    0.000
445.845; 2462.800;  213.475;    0.000
445.892; 2410.800;  224.475;    0.000
445.940; 2288.800;  214.475;    0.000
445.988; 2368.800;  247.475;    0.000
446.035; 2375.800;  204.475;    0.000
446.083; 2422.800;  235.475;    0.000
446.130; 2350.800;  195.475;    0.000
446.178; 2373.800;  236.475;    0.000
446.226; 2371.800;  218.475;    0.000
446.273; 2502.800;  215.475;    0.000
446.321; 2466.800;  222.475;    0.000
446.368; 2338.800;  228.475;    0.000
446.416; 2365.800;  223.475;    0.000
446.463; 2362.800;  220.475;    0.000
446.511; 2352.800;  198.475;    0.000
446.558; 2428.800;  208.475;    0.000
446.606; 2358.800;  253.475;    0.000
446.653; 2423.800;  198.475;    0.000
446.701; 2472.800;  231.475;    0.000
446.748; 2445.800;  224.475;    0.000
446.796; 2457.800;  201.475;    0.000
446.843; 2506.800;  257.475;    0.000
446.891; 2416.800;  218.475;    0.000
446.938; 2541.800;  232.475;    0.000
446.985; 2537.800;  229.475;    0.000
447.033; 2515.800;  251.475;    0.000
447.080; 2496.800;  257.475;    0.000
447.128; 2491.800;  232.475;    0.000
447.175; 2563.800;  269.475;    0.000
447.222; 2479.800;  185.475;    0.000
447.270; 2616.800;  264.475;    0.000
447.317; 2581.800;  225.475;    0.000
447.364; 2574.800;  243.475;    0.000
447.411; 2692.800;  263.475;    0.000
447.459; 2638.800;  257.475;    0.000
447.506; 2613.800;  175.475;    0.000
447.553; 2587.800;  203.475;    0.000
447.601; 2700.800;  238.475;    0.000
447.648; 2669.800;  244.475;    0.000
447.695; 2830.800;  249.475;    0.000
447.742; 2697.800;  234.475;    0.000
447.789; 2846.800;  228.475;    0.000
447.837; 2931.800;  258.475;    0.000
447.884; 2883.800;  243.475;    0.000
447.931; 2840.800;  235.475;    0.000
447.978; 3053.800;  224.475;    0.000
448.025; 2966.800;  245.475;    0.000
448.072; 2978.800;  212.475;    0.000
448.120; 2940.800;  256.475;    0.000
448.167; 2995.800;  240.475;    0.000
448.214; 2897.800;  247.475;    0.000
448.261; 2974.800;  245.475;    0.000
448.308; 2870.800;  273.475;    0.000
448.355; 2807.800;  257.475;    0.000
448.402; 2764.800;  259.475;    0.000
448.449; 2541.800;  238.475;    0.000
448.496; 2698.800;  245.475;    0.000
448.543; 2710.800;  217.475;    0.000
448.590; 2638.800;  269.475;    0.000
448.637; 2575.800;  250.475;    0.000
448.684; 2545.800;  250.475;    0.000
448.731; 2532.800;  235.475;    0.000
448.778; 2664.800;  265.475;    0.000
448.825; 2582.800;  257.475;    0.000
448.872; 2448.800;  234.475;    0.000
448.919; 2547.800;  216.475;    0.000
448.966; 2527.800;  274.475;    0.000
449.013; 2503.800;  263.475;    0.000
449.060; 2520.800;  247.475;    0.000
449.107; 2355.800;  218.475;    0.000
449.154; 2364.800;  225.475;    0.000
449.200; 2320.800;  212.475;    0.000
449.247; 2354.800;  242.475;    0.000
449.294; 2339.800;  228.475;    0.000
449.341; 2416.800;  232.475;    0.000
449.388; 2335.800;  247.475;    0.000
449.435; 2327.800;  227.475;    0.000
449.481; 2278.800;  270.475;    0.000
449.528; 2352.800;  265.475;    0.000
449.575; 2271.800;  255.475;    0.000
449.622; 2282.800;  210.475;    0.000
449.668; 2224.800;  234.475;    0.000
449.715; 2238.800;  262.475;    0.000
449.762; 2259.800;  247.475;    0.000
449.809; 2250.800;  286.475;    0.000
449.855; 2254.800;  246.475;    0.000
449.902; 2221.800;  224.475;    0.000
449.949; 2202.800;  244.475;    0.000
449.995; 2232.800;  274.475;    0.000
450.042; 2198.800;  272.475;    0.000
450.089; 2266.800;  274.475;    0.000
450.135; 2217.800;  285.475;    0.000
450.182; 2246.800;  251.475;    0.000
450.229; 2225.800;  242.475;    0.000
450.275; 2172.800;  277.475;    0.000
450.322; 2162.800;  260.475;    0.000
450.368; 2169.800;  257.475;    0.000
450.415; 2232.800;  276.475;    0.000
450.462; 2201.800;  298.475;    0.000
450.508; 2171.800;  255.475;    0.000
450.555; 2178.800;  271.475;    0.000
450.601; 2201.800;  281.475;    0.000
450.648; 2141.800;  249.475;    0.000
450.694; 2205.800;  270.475;    0.000
450.741; 2192.800;  256.475;    0.000
450.787; 2228.800;  292.475;    0.000
450.834; 2151.800;  221.475;    0.000
450.880; 2225.800;  265.475;    0.000
450.927; 2179.800;  242.475;    0.000
450.973; 2165.800;  259.475;    0.000
451.019; 2151.800;  221.475;    0.000
451.066; 2182.800;  257.475;    0.000
451.112; 2181.800;  251.475;    0.000
451.159; 2160.800;  278.475;    0.000
451.205; 2145.800;  274.475;    0.000
451.251; 2214.800;  281.475;    0.000
451.298; 2100.800;  273.475;    0.000
451.344; 2149.800;  246.475;    0.000
451.390; 2105.800;  286.475;    0.000
451.437; 2213.800;  268.475;    0.000
451.483; 2190.800;  315.475;    0.000
451.529; 2163.800;  251.475;    0.000
451.576; 2143.800;  306.475;    0.000
451.622; 2037.800;  234.475;    0.000
451.668; 2187.800;  243.475;    0.000
451.714; 2178.800;  256.475;    0.000
451.761; 2052.800;  264.475;    0.000
451.807; 2064.800;  284.475;    0.000
451.853; 2123.800;  282.475;    0.000
451.899; 2124.800;  240.475;    0.000
451.945; 2154.800;  263.475;    0.000
451.992; 2187.800;  255.475;    0.000
452.038; 2143.800;  273.475;    0.000
452.084; 2120.800;  274.475;    0.000
452.130; 2065.800;  261.475;    0.000
452.176; 2082.800;  246.475;    0.000
452.222; 2006.800;  238.475;    0.000
452.268; 2062.800;  267.475;    0.000
452.315; 2021.800;  274.475;    0.000
452.361; 2041.800;  241.475;    0.000
452.407; 2042.800;  274.475;    0.000
452.453; 2060.800;  260.475;    0.000
452.499; 2054.800;  232.475;    0.000
452.545; 2103.800;  252.475;    0.000
452.591; 1999.800;  263.475;    0.000
452.637; 2090.800;  208.475;    0.000
452.683; 2017.800;  237.475;    0.000
452.729; 2080.800;  263.475;    0.000
452.775; 2056.800;  291.475;    0.000
452.821; 2018.800;  238.475;    0.000
452.867; 2088.800;  223.475;    0.000
452.913; 2053.800;  257.475;    0.000
452.959; 2043.800;  238.475;    0.000
453.005; 1957.800;  252.475;    0.000
453.051; 2110.800;  260.475;    0.000
453.097; 2051.800;  268.475;    0.000
453.142; 1971.800;  231.475;    0.000
453.188; 2100.800;  266.475;    0.000
453.234; 1995.800;  233.475;    0.000
453.280; 2054.800;  219.475;    0.000
453.326; 2054.800;  265.475;    0.000
453.372; 1938.800;  238.475;    0.000
453.418; 1977.800;  240.475;    0.000
453.463; 2044.800;  219.475;    0.000
453.509; 2094.800;  264.475;    0.000
453.555; 1996.800;  247.475;    0.000
453.601; 2050.800;  230.475;    0.000
453.647; 2029.800;  285.475;    0.000
453.692; 2087.800;  240.475;    0.000
453.738; 2026.800;  233.475;    0.000
453.784; 2051.800;  230.475;    0.000
453.829; 2066.800;  246.475;    0.000
453.875; 2025.800;  261.475;    0.000
453.921; 2008.800;  203.475;    0.000
453.967; 1980.800;  241.475;    0.000
454.012; 2044.800;  250.475;    0.000
454.058; 2018.800;  252.475;    0.000
454.104; 2049.800;  239.475;    0.000
454.149; 2011.800;  250.475;    0.000
454.195; 2007.800;  243.475;    0.000
454.240; 2025.800;  252.475;    0.000
454.286; 2088.800;  245.475;    0.000
454.332; 1991.800;  286.475;    0.000
454.377; 1972.800;  254.475;    0.000
454.423; 1974.800;  246.475;    0.000
454.468; 1991.800;  235.475;    0.000
454.514; 1969.800;  231.475;    0.000
454.559; 2060.800;  246.475;    0.000
454.605; 2023.800;  204.475;    0.000
454.650; 1982.800;  272.475;    0.000
454.696; 2030.800;  222.475;    0.000
454.741; 1977.800;  290.475;    0.000
454.787; 1995.800;  262.475;    0.000
454.832; 1964.800;  227.475;    0.000
454.878; 1982.800;  241.475;    0.000
454.923; 2054.800;  272.475;    0.000
454.969; 2051.800;  290.475;    0.000
455.014; 1996.800;  278.475;    0.000
455.060; 2059.800;  246.475;    0.000
455.105; 2048.800;  231.475;    0.000
455.150; 2002.800;  265.475;    0.000
455.196; 1968.800;  266.475;    0.000
455.241; 1993.800;  258.475;    0.000
455.286; 2010.800;  266.475;    0.000
455.332; 1985.800;  252.475;    0.000
455.377; 2016.800;  219.475;    0.000
455.422; 1951.800;  262.475;    0.000
455.468; 1969.800;  260.475;    0.000
455.513; 2092.800;  212.475;    0.000
455.558; 1931.800;  197.475;    0.000
455.604; 2037.800;  262.475;    0.000
455.649; 1990.800;  238.475;    0.000
455.694; 2019.800;  221.475;    0.000
455.739; 2067.800;  251.475;    0.000
455.785; 1988.800;  287.475;    0.000
455.830; 2015.800;  284.475;    0.000
455.875; 1978.800;  234.475;    0.000
455.920; 1992.800;  215.475;    0.000
455.965; 2098.800;  256.475;    0.000
456.010; 2051.800;  266.475;    0.000
456.056; 1928.800;  263.475;    0.000
456.101; 1942.800;  240.475;    0.000
456.146; 2031.800;  258.475;    0.000
456.191; 2010.800;  241.475;    0.000
456.236; 2036.800;  252.475;    0.000
456.281; 1997.800;  218.475;    0.000
456.326; 2004.800;  251.475;    0.000
456.371; 1956.800;  256.475;    0.000
456.416; 2020.800;  301.475;    0.000
456.461; 1997.800;  233.475;    0.000
456.507; 1977.800;  218.475;    0.000
456.552; 2001.800;  278.475;    0.000
456.597; 1961.800;  223.475;    0.000
456.642; 2035.800;  203.475;    0.000
456.687; 2017.800;  245.475;    0.000
456.732; 2023.800;  256.475;    0.000
456.776; 2011.800;  244.475;    0.000
456.821; 2089.800;  276.475;    0.000
456.866; 2004.800;  232.475;    0.000
456.911; 2001.800;  225.475;    0.000
456.956; 2040.800;  237.475;    0.000
457.001; 1988.800;  261.475;    0.000
457.046; 2025.800;  205.475;    0.000
457.091; 2081.800;  241.475;    0.000
457.136; 1989.800;  217.475;    0.000
457.181; 2015.800;  251.475;    0.000
457.225; 1955.800;  241.475;    0.000
457.270; 1983.800;  237.475;    0.000
457.315; 2003.800;  279.475;    0.000
457.360; 2045.800;  245.475;    0.000
457.405; 2024.800;  202.475;    0.000
457.450; 2104.800;  247.475;    0.000
457.494; 2000.800;  243.475;    0.000
457.539; 2076.800;  222.475;    0.000
457.584; 2069.800;  239.475;    0.000
457.629; 2031.800;  236.475;    0.000
457.673; 2045.800;  234.475;    0.000
457.718; 2003.800;  202.475;    0.000
457.763; 2145.800;  274.475;    0.000
457.807; 2017.800;  236.475;    0.000
457.852; 1982.800;  265.475;    0.000
457.897; 2079.800;  252.475;    0.000
457.941; 2012.800;  264.475;    0.000
457.986; 2121.800;  280.475;    0.000
458.031; 2049.800;  217.475;    0.000
458.075; 2016.800;  249.475;    0.000
458.120; 2164.800;  257.475;    0.000
458.165; 2075.800;  183.475;    0.000
458.209; 2075.800;  245.475;    0.000
458.254; 2115.800;  245.475;    0.000
458.298; 2061.800;  265.475;    0.000
458.343; 2139.800;  241.475;    0.000
458.387; 2130.800;  262.475;    0.000
458.432; 2154.800;  245.475;    0.000
458.476; 2168.800;  255.475;    0.000
458.521; 2133.800;  269.475;    0.000
458.565; 2208.800;  265.475;    0.000
458.610; 2162.800;  222.475;    0.000
458.654; 2132.800;  257.475;    0.000
458.699; 2171.800;  296.475;    0.000
458.743; 2119.800;  203.475;    0.000
458.788; 2197.800;  267.475;    0.000
458.832; 2256.800;  274.475;    0.000
458.877; 2119.800;  251.475;    0.000
458.921; 2168.800;  237.475;    0.000
458.965; 2166.800;  264.475;    0.000
459.010; 2235.800;  256.475;    0.000
459.054; 2205.800;  280.475;    0.000
459.099; 2148.800;  240.475;    0.000
459.143; 2283.800;  287.475;    0.000
459.187; 2146.800;  257.475;    0.000
459.231; 2202.800;  273.475;    0.000
459.276; 2211.800;  231.475;    0.000
459.320; 2293.800;  261.475;    0.000
459.364; 2284.800;  278.475;    0.000
459.409; 2262.800;  249.475;    0.000
459.453; 2230.800;  235.475;    0.000
459.497; 2294.800;  262.475;    0.000
459.541; 2323.800;  269.475;    0.000
459.586; 2203.800;  240.475;    0.000
459.630; 2316.800;  261.475;    0.000
459.674; 2218.800;  276.475;    0.000
459.718; 2288.800;  236.475;    0.000
459.762; 2348.800;  263.475;    0.000
459.807; 2342.800;  263.475;    0.000
459.851; 2313.800;  225.475;    0.000
459.895; 2260.800;  247.475;    0.000
459.939; 2283.800;  231.475;    0.000
459.983; 2313.800;  242.475;    0.000
460.027; 2268.800;  248.475;    0.000
460.071; 2263.800;  273.475;    0.000
460.115; 2345.800;  282.475;    0.000
460.159; 2366.800;  264.475;    0.000
460.204; 2371.800;  288.475;    0.000
460.248; 2325.800;  293.475;    0.000
460.292; 2406.800;  277.475;    0.000
460.336; 2359.800;  250.475;    0.000
460.380; 2256.800;  275.475;    0.000
460.424; 2358.800;  243.475;    0.000
460.468; 2303.800;  277.475;    0.000
460.512; 2344.800;  261.475;    0.000
460.556; 2396.800;  266.475;    0.000
460.599; 2419.800;  246.475;    0.000
460.643; 2412.800;  256.475;    0.000
460.687; 2390.800;  257.475;    0.000
460.731; 2325.800;  235.475;    0.000
460.775; 2353.800;  278.475;    0.000
460.819; 2412.800;  268.475;    0.000
460.863; 2389.800;  257.475;    0.000
460.907; 2320.800;  213.475;    0.000
460.951; 2333.800;  274.475;    0.000
460.995; 2381.800;  258.475;    0.000
461.038; 2373.800;  219.475;    0.000
461.082; 2401.800;  253.475;    0.000
461.126; 2367.800;  281.475;    0.000
461.170; 2385.800;  244.475;    0.000
461.214; 2401.800;  262.475;    0.000
461.257; 2429.800;  284.475;    0.000
461.301; 2369.800;  275.475;    0.000
461.345; 2412.800;  267.475;    0.000
461.389; 2437.800;  255.475;    0.000
461.432; 2365.800;  282.475;    0.000
461.476; 2461.800;  263.475;    0.000
461.520; 2383.800;  260.475;    0.000
461.563; 2421.800;  278.475;    0.000
461.607; 2377.800;  236.475;    0.000
461.651; 2395.800;  262.475;    0.000
461.694; 2415.800;  236.475;    0.000
461.738; 2468.800;  295.475;    0.000
461.782; 2395.800;  252.475;    0.000
461.825; 2437.800;  271.475;    0.000
461.869; 2412.800;  278.475;    0.000
461.913; 2400.800;  255.475;    0.000
461.956; 2385.800;  254.475;    0.000
462.000; 2412.800;  299.475;    0.000
462.043; 2565.800;  282.475;    0.000
462.087; 2487.800;  274.475;    0.000
462.130; 2537.800;  270.475;    0.000
462.174; 2521.800;  274.475;    0.000
462.217; 2511.800;  272.475;    0.000
462.261; 2465.800;  286.475;    0.000
462.304; 2520.800;  236.475;    0.000
462.348; 2501.800;  262.475;    0.000
462.391; 2565.800;  244.475;    0.000
462.435; 2552.800;  321.475;    0.000
462.478; 2555.800;  230.475;    0.000
462.522; 2533.800;  245.475;    0.000
462.565; 2621.800;  278.475;    0.000
462.608; 2561.800;  303.475;    0.000
462.652; 2623.800;  275.475;    0.000
462.695; 2628.800;  314.475;    0.000
462.739; 2649.800;  307.475;    0.000
462.782; 2639.800;  286.475;    0.000
462.825; 2737.800;  312.475;    0.000
462.869; 2738.800;  338.475;    0.000
462.912; 2781.800;  304.475;    0.000
462.955; 2797.800;  288.475;    0.000
462.998; 2744.800;  292.475;    0.000
463.042; 2747.800;  309.475;    0.000
463.085; 2796.800;  292.475;    0.000
463.128; 2697.800;  317.475;    0.000
463.172; 2633.800;  287.475;    0.000
463.215;  373.800;  313.475;    0.000
463.258;  336.800;  295.475;    0.000
463.301;  279.800;  275.475;    0.000
463.344;  313.800;  311.475;    0.000
463.388;  337.800;  296.475;    0.000
463.431;  287.800;  277.475;    0.000
463.474;  353.800;  364.475;    0.000
463.517;  292.800;  306.475;    0.000
463.560;  311.800;  308.475;    0.000
463.603;  311.800;  343.475;    0.000
463.646;  304.800;  309.475;    0.000
463.690;  309.800;  309.475;    0.000
463.733;  333.800;  320.475;    0.000
463.776;  256.800;  299.475;    0.000
463.819;  298.800;  320.475;    0.000
463.862;  299.800;  283.475;    0.000

