
Integration time [ms]:   1.000
Averaging Nr. [scans]: 1
Smoothing Nr. [pixels]: 0
Data measured with spectrometer [name]: UV2
Wave   ;Sample   ;Dark     ;Reference
[nm]   ;[counts] ;[counts] ;[counts] 

353.533;  218.600;  216.475;    0.000
353.597;  227.600;  244.475;    0.000
353.660;  174.600;  181.475;    0.000
353.723;  185.600;  203.475;    0.000
353.786;  165.600;  180.475;    0.000
353.850;  245.600;  213.475;    0.000
353.913;  186.600;  191.475;    0.000
353.976;  191.600;  195.475;    0.000
354.039;  197.600;  158.475;    0.000
354.102;  219.600;  199.475;    0.000
354.166;  233.600;  185.475;    0.000
354.229;  209.600;  188.475;    0.000
354.292;  176.600;  188.475;    0.000
354.355;  207.600;  226.475;    0.000
354.418;  196.600;  158.475;    0.000
354.481;  203.600;  185.475;    0.000
354.545;  461.600;  191.475;    0.000
354.608;  446.600;  247.475;    0.000
354.671;  450.600;  176.475;    0.000
354.734;  454.600;  198.475;    0.000
354.797;  434.600;  195.475;    0.000
354.860;  419.600;  212.475;    0.000
354.923;  441.600;  184.475;    0.000
354.986;  453.600;  169.475;    0.000
355.050;  443.600;  206.475;    0.000
355.113;  435.600;  210.475;    0.000
355.176;  434.600;  217.475;    0.000
355.239;  499.600;  201.475;    0.000
355.302;  451.600;  193.475;    0.000
355.365;  530.600;  234.475;    0.000
355.428;  532.600;  182.475;    0.000
355.491;  569.600;  233.475;    0.000
355.554;  466.600;  167.475;    0.000
355.617;  500.600;  195.475;    0.000
355.680;  483.600;  198.475;    0.000
355.743;  474.600;  186.475;    0.000
355.806;  481.600;  171.475;    0.000
355.869;  539.600;  244.475;    0.000
355.932;  558.600;  164.475;    0.000
355.995;  542.600;  220.475;    0.000
356.058;  517.600;  172.475;    0.000
356.121;  539.600;  228.475;    0.000
356.184;  580.600;  225.475;    0.000
356.247;  509.600;  161.475;    0.000
356.310;  519.600;  195.475;    0.000
356.373;  539.600;  191.475;    0.000
356.436;  556.600;  147.475;    0.000
356.498;  530.600;  183.475;    0.000
356.561;  495.600;  137.475;    0.000
356.624;  516.600;  186.475;    0.000
356.687;  568.600;  158.475;    0.000
356.750;  536.600;  194.475;    0.000
356.813;  531.600;  186.475;    0.000
356.876;  546.600;  161.475;    0.000
356.939;  512.600;  188.475;    0.000
357.001;  512.600;  200.475;    0.000
357.064;  498.600;  182.475;    0.000
357.127;  512.600;  168.475;    0.000
357.190;  529.600;  157.475;    0.000
357.253;  540.600;  199.475;    0.000
357.316;  580.600;  187.475;    0.000
357.378;  563.600;  174.475;    0.000
357.441;  554.600;  165.475;    0.000
357.504;  537.600;  189.475;    0.000
357.567;  502.600;  116.475;    0.000
357.629;  596.600;  176.475;    0.000
357.692;  532.600;  134.475;    0.000
357.755;  567.600;  175.475;    0.000
357.818;  497.600;  159.475;    0.000
357.880;  565.600;  185.475;    0.000
357.943;  544.600;  159.475;    0.000
358.006;  528.600;  176.475;    0.000
358.069;  570.600;  156.475;    0.000
358.131;  511.600;  170.475;    0.000
358.194;  547.600;  125.475;    0.000
358.257;  530.600;  186.475;    0.000
358.319;  576.600;  139.475;    0.000
358.382;  555.600;  175.475;    0.000
358.445;  588.600;  170.475;    0.000
358.507;  588.600;  129.475;    0.000
358.570;  569.600;  168.475;    0.000
358.633;  506.600;  152.475;    0.000
358.695;  552.600;  194.475;    0.000
358.758;  578.600;  154.475;    0.000
358.821;  522.600;  147.475;    0.000
358.883;  589.600;  163.475;    0.000
358.946;  561.600;  155.475;    0.000
359.008;  582.600;  208.475;    0.000
359.071;  553.600;  182.475;    0.000
359.134;  541.600;  126.475;    0.000
359.196;  545.600;  142.475;    0.000
359.259;  597.600;  138.475;    0.000
359.321;  595.600;  153.475;    0.000
359.384;  617.600;  186.475;    0.000
359.446;  587.600;  152.475;    0.000
359.509;  555.600;  144.475;    0.000
359.571;  571.600;  164.475;    0.000
359.634;  604.600;  171.475;    0.000
359.696;  519.600;  144.475;    0.000
359.759;  616.600;  171.475;    0.000
359.821;  554.600;  161.475;    0.000
359.884;  600.600;  159.475;    0.000
359.946;  610.600;  186.475;    0.000
360.009;  598.600;  171.475;    0.000
360.071;  556.600;  166.475;    0.000
360.134;  607.600;  215.475;    0.000
360.196;  568.600;  138.475;    0.000
360.259;  569.600;  196.475;    0.000
360.321;  623.600;  148.475;    0.000
360.384;  592.600;  150.475;    0.000
360.446;  584.600;  148.475;    0.000
360.508;  576.600;  172.475;    0.000
360.571;  587.600;  155.475;    0.000
360.633;  552.600;  153.475;    0.000
360.696;  578.600;  142.475;    0.000
360.758;  612.600;  165.475;    0.000
360.820;  562.600;  155.475;    0.000
360.883;  576.600;  156.475;    0.000
360.945;  602.600;  171.475;    0.000
361.007;  555.600;  138.475;    0.000
361.070;  580.600;  129.475;    0.000
361.132;  603.600;  166.475;    0.000
361.194;  618.600;  143.475;    0.000
361.257;  559.600;  154.475;    0.000
361.319;  578.600;  176.475;    0.000
361.381;  604.600;  143.475;    0.000
361.443;  620.600;  136.475;    0.000
361.506;  565.600;  160.475;    0.000
361.568;  570.600;  140.475;    0.000
361.630;  625.600;  159.475;    0.000
361.693;  560.600;  162.475;    0.000
361.755;  580.600;  185.475;    0.000
361.817;  621.600;  209.475;    0.000
361.879;  571.600;  161.475;    0.000
361.941;  579.600;  152.475;    0.000
362.004;  580.600;  132.475;    0.000
362.066;  602.600;  159.475;    0.000
362.128;  587.600;  143.475;    0.000
362.190;  642.600;  131.475;    0.000
362.252;  602.600;  131.475;    0.000
362.315;  638.600;  175.475;    0.000
362.377;  617.600;  140.475;    0.000
362.439;  588.600;  140.475;    0.000
362.501;  629.600;  140.475;    0.000
362.563;  629.600;  152.475;    0.000
362.625;  619.600;  174.475;    0.000
362.688;  605.600;  195.475;    0.000
362.750;  662.600;  221.475;    0.000
362.812;  615.600;  171.475;    0.000
362.874;  603.600;  117.475;    0.000
362.936;  658.600;  162.475;    0.000
362.998;  585.600;  142.475;    0.000
363.060;  657.600;  143.475;    0.000
363.122;  602.600;  148.475;    0.000
363.184;  628.600;  179.475;    0.000
363.246;  651.600;  186.475;    0.000
363.308;  615.600;  180.475;    0.000
363.370;  669.600;  200.475;    0.000
363.432;  629.600;  139.475;    0.000
363.494;  680.600;  138.475;    0.000
363.556;  626.600;  114.475;    0.000
363.618;  616.600;  153.475;    0.000
363.680;  601.600;  153.475;    0.000
363.742;  667.600;  178.475;    0.000
363.804;  658.600;  214.475;    0.000
363.866;  615.600;  170.475;    0.000
363.928;  608.600;  145.475;    0.000
363.990;  615.600;  215.475;    0.000
364.052;  652.600;  166.475;    0.000
364.114;  647.600;  168.475;    0.000
364.176;  652.600;  176.475;    0.000
364.238;  682.600;  203.475;    0.000
364.300;  660.600;  158.475;    0.000
364.362;  638.600;  152.475;    0.000
364.424;  618.600;  119.475;    0.000
364.486;  688.600;  187.475;    0.000
364.548;  621.600;  180.475;    0.000
364.609;  710.600;  212.475;    0.000
364.671;  585.600;  165.475;    0.000
364.733;  621.600;  190.475;    0.000
364.795;  706.600;  148.475;    0.000
364.857;  647.600;  159.475;    0.000
364.919;  687.600;  159.475;    0.000
364.981;  657.600;  191.475;    0.000
365.042;  649.600;  170.475;    0.000
365.104;  629.600;  145.475;    0.000
365.166;  590.600;  134.475;    0.000
365.228;  682.600;  150.475;    0.000
365.290;  623.600;  158.475;    0.000
365.351;  649.600;  168.475;    0.000
365.413;  679.600;  173.475;    0.000
365.475;  631.600;  172.475;    0.000
365.537;  675.600;  126.475;    0.000
365.598;  686.600;  160.475;    0.000
365.660;  595.600;  127.475;    0.000
365.722;  622.600;  189.475;    0.000
365.784;  640.600;  161.475;    0.000
365.845;  616.600;  152.475;    0.000
365.907;  627.600;  117.475;    0.000
365.969;  660.600;  146.475;    0.000
366.030;  645.600;  171.475;    0.000
366.092;  688.600;  155.475;    0.000
366.154;  708.600;  137.475;    0.000
366.215;  678.600;  147.475;    0.000
366.277;  674.600;  148.475;    0.000
366.339;  679.600;  158.475;    0.000
366.400;  690.600;  140.475;    0.000
366.462;  610.600;  159.475;    0.000
366.524;  647.600;  160.475;    0.000
366.585;  655.600;  157.475;    0.000
366.647;  638.600;  170.475;    0.000
366.708;  627.600;  123.475;    0.000
366.770;  677.600;  194.475;    0.000
366.832;  664.600;  191.475;    0.000
366.893;  698.600;  155.475;    0.000
366.955;  665.600;  132.475;    0.000
367.016;  684.600;  126.475;    0.000
367.078;  653.600;  202.475;    0.000
367.139;  674.600;  116.475;    0.000
367.201;  691.600;  134.475;    0.000
367.262;  641.600;  157.475;    0.000
367.324;  672.600;  202.475;    0.000
367.385;  657.600;  118.475;    0.000
367.447;  687.600;  155.475;    0.000
367.508;  664.600;  134.475;    0.000
367.570;  643.600;  165.475;    0.000
367.631;  662.600;  118.475;    0.000
367.693;  667.600;  170.475;    0.000
367.754;  676.600;  154.475;    0.000
367.816;  704.600;  146.475;    0.000
367.877;  668.600;  175.475;    0.000
367.939;  713.600;  200.475;    0.000
368.000;  628.600;  168.475;    0.000
368.062;  648.600;  138.475;    0.000
368.123;  734.600;  170.475;    0.000
368.184;  646.600;  188.475;    0.000
368.246;  673.600;  145.475;    0.000
368.307;  668.600;  163.475;    0.000
368.369;  656.600;  144.475;    0.000
368.430;  675.600;  140.475;    0.000
368.491;  691.600;  133.475;    0.000
368.553;  683.600;  145.475;    0.000
368.614;  664.600;  158.475;    0.000
368.675;  746.600;  147.475;    0.000
368.737;  658.600;  157.475;    0.000
368.798;  674.600;  163.475;    0.000
368.859;  744.600;  173.475;    0.000
368.921;  686.600;  122.475;    0.000
368.982;  717.600;  184.475;    0.000
369.043;  667.600;  169.475;    0.000
369.104;  711.600;  142.475;    0.000
369.166;  714.600;  169.475;    0.000
369.227;  663.600;  156.475;    0.000
369.288;  685.600;  151.475;    0.000
369.349;  680.600;  191.475;    0.000
369.411;  776.600;  168.475;    0.000
369.472;  703.600;  155.475;    0.000
369.533;  714.600;  149.475;    0.000
369.594;  705.600;  174.475;    0.000
369.656;  750.600;  188.475;    0.000
369.717;  678.600;  113.475;    0.000
369.778;  710.600;  184.475;    0.000
369.839;  675.600;  151.475;    0.000
369.900;  755.600;  180.475;    0.000
369.961;  683.600;  171.475;    0.000
370.023;  797.600;  143.475;    0.000
370.084;  733.600;  137.475;    0.000
370.145;  654.600;  152.475;    0.000
370.206;  702.600;  151.475;    0.000
370.267;  740.600;  134.475;    0.000
370.328;  715.600;  178.475;    0.000
370.389;  775.600;  181.475;    0.000
370.451;  733.600;  169.475;    0.000
370.512;  699.600;  172.475;    0.000
370.573;  700.600;  148.475;    0.000
370.634;  710.600;  156.475;    0.000
370.695;  654.600;  151.475;    0.000
370.756;  691.600;  185.475;    0.000
370.817;  702.600;  185.475;    0.000
370.878;  774.600;  191.475;    0.000
370.939;  677.600;  147.475;    0.000
371.000;  709.600;  162.475;    0.000
371.061;  736.600;  145.475;    0.000
371.122;  755.600;  179.475;    0.000
371.183;  685.600;  114.475;    0.000
371.244;  685.600;  180.475;    0.000
371.305;  729.600;  138.475;    0.000
371.366;  698.600;  157.475;    0.000
371.427;  698.600;  148.475;    0.000
371.488;  725.600;  138.475;    0.000
371.549;  687.600;  193.475;    0.000
371.610;  769.600;  158.475;    0.000
371.671;  713.600;  119.475;    0.000
371.732;  749.600;  159.475;    0.000
371.793;  757.600;  178.475;    0.000
371.853;  708.600;  155.475;    0.000
371.914;  751.600;  148.475;    0.000
371.975;  715.600;  124.475;    0.000
372.036;  681.600;  158.475;    0.000
372.097;  723.600;  136.475;    0.000
372.158;  712.600;  116.475;    0.000
372.219;  740.600;  157.475;    0.000
372.280;  742.600;  151.475;    0.000
372.340;  743.600;  190.475;    0.000
372.401;  766.600;  151.475;    0.000
372.462;  710.600;  129.475;    0.000
372.523;  724.600;  121.475;    0.000
372.584;  721.600;  152.475;    0.000
372.645;  730.600;  132.475;    0.000
372.705;  755.600;  190.475;    0.000
372.766;  743.600;  153.475;    0.000
372.827;  744.600;  133.475;    0.000
372.888;  737.600;  161.475;    0.000
372.948;  703.600;  159.475;    0.000
373.009;  752.600;  164.475;    0.000
373.070;  754.600;  139.475;    0.000
373.131;  696.600;  137.475;    0.000
373.191;  777.600;  181.475;    0.000
373.252;  738.600;  154.475;    0.000
373.313;  774.600;  179.475;    0.000
373.373;  705.600;  136.475;    0.000
373.434;  776.600;  169.475;    0.000
373.495;  763.600;   97.475;    0.000
373.555;  725.600;  142.475;    0.000
373.616;  725.600;  178.475;    0.000
373.677;  751.600;  167.475;    0.000
373.737;  762.600;  139.475;    0.000
373.798;  720.600;  155.475;    0.000
373.859;  803.600;  162.475;    0.000
373.919;  791.600;  174.475;    0.000
373.980;  760.600;  172.475;    0.000
374.041;  791.600;  166.475;    0.000
374.101;  730.600;  172.475;    0.000
374.162;  742.600;  188.475;    0.000
374.222;  742.600;  186.475;    0.000
374.283;  740.600;  195.475;    0.000
374.343;  796.600;  204.475;    0.000
374.404;  687.600;  187.475;    0.000
374.465;  743.600;  183.475;    0.000
374.525;  769.600;  136.475;    0.000
374.586;  756.600;  140.475;    0.000
374.646;  818.600;  191.475;    0.000
374.707;  792.600;  208.475;    0.000
374.767;  818.600;  178.475;    0.000
374.828;  725.600;  159.475;    0.000
374.888;  832.600;  143.475;    0.000
374.949;  821.600;  202.475;    0.000
375.009;  760.600;  151.475;    0.000
375.070;  827.600;  160.475;    0.000
375.130;  741.600;  160.475;    0.000
375.190;  792.600;  164.475;    0.000
375.251;  845.600;  196.475;    0.000
375.311;  804.600;  154.475;    0.000
375.372;  780.600;  197.475;    0.000
375.432;  773.600;  159.475;    0.000
375.493;  806.600;  197.475;    0.000
375.553;  781.600;  165.475;    0.000
375.613;  786.600;  174.475;    0.000
375.674;  782.600;  165.475;    0.000
375.734;  797.600;  128.475;    0.000
375.794;  835.600;  169.475;    0.000
375.855;  749.600;  193.475;    0.000
375.915;  783.600;  162.475;    0.000
375.975;  825.600;  181.475;    0.000
376.036;  757.600;  161.475;    0.000
376.096;  750.600;  131.475;    0.000
376.156;  779.600;  165.475;    0.000
376.217;  800.600;  182.475;    0.000
376.277;  787.600;  185.475;    0.000
376.337;  785.600;  177.475;    0.000
376.398;  759.600;  162.475;    0.000
376.458;  796.600;  179.475;    0.000
376.518;  800.600;  150.475;    0.000
376.578;  806.600;  165.475;    0.000
376.639;  765.600;  159.475;    0.000
376.699;  812.600;  180.475;    0.000
376.759;  796.600;  206.475;    0.000
376.819;  798.600;  146.475;    0.000
376.880;  833.600;  177.475;    0.000
376.940;  771.600;  160.475;    0.000
377.000;  764.600;  149.475;    0.000
377.060;  824.600;  180.475;    0.000
377.120;  805.600;  146.475;    0.000
377.180;  831.600;  137.475;    0.000
377.241;  762.600;  163.475;    0.000
377.301;  806.600;  169.475;    0.000
377.361;  772.600;  137.475;    0.000
377.421;  825.600;  184.475;    0.000
377.481;  818.600;  185.475;    0.000
377.541;  805.600;  146.475;    0.000
377.601;  785.600;  179.475;    0.000
377.661;  834.600;  181.475;    0.000
377.722;  803.600;  185.475;    0.000
377.782;  783.600;  147.475;    0.000
377.842;  809.600;  190.475;    0.000
377.902;  857.600;  166.475;    0.000
377.962;  793.600;  153.475;    0.000
378.022;  888.600;  163.475;    0.000
378.082;  814.600;  146.475;    0.000
378.142;  835.600;  152.475;    0.000
378.202;  849.600;  164.475;    0.000
378.262;  863.600;  195.475;    0.000
378.322;  878.600;  190.475;    0.000
378.382;  829.600;  152.475;    0.000
378.442;  858.600;  175.475;    0.000
378.502;  767.600;  153.475;    0.000
378.562;  818.600;  142.475;    0.000
378.622;  887.600;  166.475;    0.000
378.682;  883.600;  173.475;    0.000
378.742;  783.600;  182.475;    0.000
378.802;  836.600;  145.475;    0.000
378.862;  865.600;  210.475;    0.000
378.921;  876.600;  182.475;    0.000
378.981;  836.600;  185.475;    0.000
379.041;  814.600;  130.475;    0.000
379.101;  842.600;  177.475;    0.000
379.161;  863.600;  166.475;    0.000
379.221;  862.600;  162.475;    0.000
379.281;  906.600;  167.475;    0.000
379.341;  869.600;  136.475;    0.000
379.401;  843.600;  145.475;    0.000
379.460;  894.600;  176.475;    0.000
379.520;  873.600;  162.475;    0.000
379.580;  841.600;  144.475;    0.000
379.640;  885.600;  163.475;    0.000
379.700;  892.600;  157.475;    0.000
379.759;  869.600;  165.475;    0.000
379.819;  857.600;  190.475;    0.000
379.879;  891.600;  143.475;    0.000
379.939;  857.600;  188.475;    0.000
379.999;  876.600;  141.475;    0.000
380.058;  933.600;  169.475;    0.000
380.118;  915.600;  158.475;    0.000
380.178;  914.600;  114.475;    0.000
380.237;  891.600;  157.475;    0.000
380.297;  940.600;  177.475;    0.000
380.357;  943.600;  189.475;    0.000
380.417;  926.600;  182.475;    0.000
380.476;  959.600;  178.475;    0.000
380.536;  948.600;  189.475;    0.000
380.596;  988.600;  183.475;    0.000
380.655;  910.600;  195.475;    0.000
380.715;  865.600;  170.475;    0.000
380.775;  976.600;  170.475;    0.000
380.834;  904.600;  179.475;    0.000
380.894;  978.600;  188.475;    0.000
380.954;  891.600;  142.475;    0.000
381.013; 1009.600;  178.475;    0.000
381.073;  988.600;  164.475;    0.000
381.132;  964.600;  192.475;    0.000
381.192;  967.600;  187.475;    0.000
381.252;  916.600;  176.475;    0.000
381.311;  969.600;  206.475;    0.000
381.371;  950.600;  167.475;    0.000
381.430;  950.600;  131.475;    0.000
381.490;  982.600;  150.475;    0.000
381.549;  974.600;  129.475;    0.000
381.609;  987.600;  178.475;    0.000
381.668;  973.600;  194.475;    0.000
381.728;  985.600;  210.475;    0.000
381.787; 1011.600;  190.475;    0.000
381.847; 1043.600;  181.475;    0.000
381.906; 1010.600;  156.475;    0.000
381.966; 1021.600;  176.475;    0.000
382.025; 1009.600;  186.475;    0.000
382.085; 1020.600;  192.475;    0.000
382.144; 1050.600;  173.475;    0.000
382.204; 1059.600;  207.475;    0.000
382.263; 1099.600;  193.475;    0.000
382.323; 1045.600;  164.475;    0.000
382.382; 1110.600;  161.475;    0.000
382.441; 1055.600;  199.475;    0.000
382.501; 1138.600;  208.475;    0.000
382.560; 1164.600;  173.475;    0.000
382.619; 1141.600;  179.475;    0.000
382.679; 1241.600;  177.475;    0.000
382.738; 1378.600;  190.475;    0.000
382.798; 1375.600;  213.475;    0.000
382.857; 1392.600;  195.475;    0.000
382.916; 1721.600;  184.475;    0.000
382.976; 1703.600;  169.475;    0.000
383.035; 1587.600;  194.475;    0.000
383.094; 1568.600;  185.475;    0.000
383.154; 1806.600;  198.475;    0.000
383.213; 2111.600;  147.475;    0.000
383.272; 2078.600;  175.475;    0.000
383.331; 1654.600;  122.475;    0.000
383.391; 1562.600;  185.475;    0.000
383.450; 1447.600;  160.475;    0.000
383.509; 1482.600;  168.475;    0.000
383.568; 1519.600;  196.475;    0.000
383.628; 1559.600;  156.475;    0.000
383.687; 1705.600;  171.475;    0.000
383.746; 1916.600;  155.475;    0.000
383.805; 2335.600;  201.475;    0.000
383.864; 2318.600;  125.475;    0.000
383.924; 1802.600;  213.475;    0.000
383.983; 1451.600;  188.475;    0.000
384.042; 1390.600;  162.475;    0.000
384.101; 1346.600;  183.475;    0.000
384.160; 1181.600;  155.475;    0.000
384.219; 1215.600;  155.475;    0.000
384.279; 1156.600;  189.475;    0.000
384.338; 1151.600;  156.475;    0.000
384.397; 1113.600;  148.475;    0.000
384.456; 1077.600;  154.475;    0.000
384.515; 1100.600;  160.475;    0.000
384.574; 1134.600;  223.475;    0.000
384.633; 1100.600;  133.475;    0.000
384.692; 1129.600;  163.475;    0.000
384.751; 1113.600;  186.475;    0.000
384.810; 1080.600;  187.475;    0.000
384.869; 1065.600;  172.475;    0.000
384.929; 1084.600;  153.475;    0.000
384.988; 1079.600;  174.475;    0.000
385.047; 1067.600;  154.475;    0.000
385.106; 1000.600;  164.475;    0.000
385.165; 1047.600;  151.475;    0.000
385.224; 1094.600;  147.475;    0.000
385.283; 1028.600;  176.475;    0.000
385.342; 1012.600;  142.475;    0.000
385.401; 1004.600;  175.475;    0.000
385.459; 1038.600;  150.475;    0.000
385.518; 1097.600;  124.475;    0.000
385.577; 1006.600;  115.475;    0.000
385.636; 1026.600;  174.475;    0.000
385.695; 1030.600;  158.475;    0.000
385.754;  993.600;  150.475;    0.000
385.813; 1067.600;  129.475;    0.000
385.872;  995.600;  146.475;    0.000
385.931; 1057.600;  194.475;    0.000
385.990; 1057.600;  174.475;    0.000
386.049; 1087.600;  176.475;    0.000
386.107; 1000.600;  151.475;    0.000
386.166; 1044.600;  178.475;    0.000
386.225; 1077.600;  162.475;    0.000
386.284; 1031.600;  180.475;    0.000
386.343; 1098.600;  171.475;    0.000
386.402;  992.600;  176.475;    0.000
386.460; 1008.600;  144.475;    0.000
386.519; 1045.600;  140.475;    0.000
386.578; 1004.600;  145.475;    0.000
386.637; 1091.600;  164.475;    0.000
386.696;  986.600;  189.475;    0.000
386.754;  994.600;  135.475;    0.000
386.813; 1033.600;  139.475;    0.000
386.872; 1038.600;  121.475;    0.000
386.931; 1024.600;  153.475;    0.000
386.989; 1019.600;  211.475;    0.000
387.048;  995.600;  156.475;    0.000
387.107; 1061.600;  210.475;    0.000
387.165;  981.600;  129.475;    0.000
387.224; 1024.600;  205.475;    0.000
387.283; 1006.600;  130.475;    0.000
387.342; 1040.600;  171.475;    0.000
387.400; 1049.600;  156.475;    0.000
387.459; 1061.600;  141.475;    0.000
387.517; 1006.600;  219.475;    0.000
387.576; 1043.600;  166.475;    0.000
387.635; 1074.600;  136.475;    0.000
387.693; 1057.600;  191.475;    0.000
387.752; 1039.600;  165.475;    0.000
387.811;  999.600;  158.475;    0.000
387.869;  988.600;  204.475;    0.000
387.928; 1039.600;  149.475;    0.000
387.986;  999.600;  156.475;    0.000
388.045;  934.600;  123.475;    0.000
388.103;  974.600;  150.475;    0.000
388.162; 1048.600;  173.475;    0.000
388.221; 1018.600;  143.475;    0.000
388.279;  966.600;  129.475;    0.000
388.338; 1049.600;  212.475;    0.000
388.396; 1025.600;  150.475;    0.000
388.455; 1046.600;  167.475;    0.000
388.513;  971.600;  116.475;    0.000
388.572; 1059.600;  181.475;    0.000
388.630; 1049.600;  187.475;    0.000
388.689;  989.600;  180.475;    0.000
388.747;  971.600;  154.475;    0.000
388.806;  966.600;  161.475;    0.000
388.864; 1022.600;  167.475;    0.000
388.922; 1099.600;  184.475;    0.000
388.981;  979.600;  169.475;    0.000
389.039;  952.600;  102.475;    0.000
389.098; 1013.600;  183.475;    0.000
389.156; 1045.600;  182.475;    0.000
389.214; 1060.600;  173.475;    0.000
389.273;  988.600;  167.475;    0.000
389.331;  990.600;  170.475;    0.000
389.390; 1053.600;  150.475;    0.000
389.448;  967.600;  156.475;    0.000
389.506; 1032.600;  149.475;    0.000
389.565; 1028.600;  162.475;    0.000
389.623; 1009.600;  188.475;    0.000
389.681; 1075.600;  204.475;    0.000
389.740; 1140.600;  187.475;    0.000
389.798;  974.600;  153.475;    0.000
389.856;  978.600;  214.475;    0.000
389.914;  971.600;  177.475;    0.000
389.973; 1018.600;  189.475;    0.000
390.031;  960.600;  178.475;    0.000
390.089; 1039.600;  163.475;    0.000
390.147;  999.600;  170.475;    0.000
390.206; 1048.600;  183.475;    0.000
390.264;  981.600;  161.475;    0.000
390.322; 1010.600;  148.475;    0.000
390.380;  974.600;  138.475;    0.000
390.439;  978.600;  194.475;    0.000
390.497; 1008.600;  170.475;    0.000
390.555;  997.600;  165.475;    0.000
390.613;  983.600;  177.475;    0.000
390.671;  997.600;  170.475;    0.000
390.729;  983.600;  158.475;    0.000
390.788; 1006.600;  162.475;    0.000
390.846; 1053.600;  161.475;    0.000
390.904; 1018.600;  197.475;    0.000
390.962;  979.600;  212.475;    0.000
391.020; 1048.600;  224.475;    0.000
391.078;  995.600;  184.475;    0.000
391.136; 1021.600;  191.475;    0.000
391.194; 1035.600;  187.475;    0.000
391.253; 1012.600;  197.475;    0.000
391.311; 1026.600;  185.475;    0.000
391.369; 1012.600;  207.475;    0.000
391.427; 1077.600;  222.475;    0.000
391.485; 1092.600;  184.475;    0.000
391.543; 1078.600;  203.475;    0.000
391.601;  981.600;  151.475;    0.000
391.659;  978.600;  176.475;    0.000
391.717; 1023.600;  190.475;    0.000
391.775; 1006.600;  159.475;    0.000
391.833; 1027.600;  186.475;    0.000
391.891; 1037.600;  154.475;    0.000
391.949;  993.600;  181.475;    0.000
392.007; 1130.600;  190.475;    0.000
392.065; 1025.600;  182.475;    0.000
392.123; 1048.600;  158.475;    0.000
392.180; 1069.600;  198.475;    0.000
392.238; 1053.600;  191.475;    0.000
392.296; 1041.600;  164.475;    0.000
392.354; 1013.600;  172.475;    0.000
392.412; 1102.600;  194.475;    0.000
392.470; 1071.600;  154.475;    0.000
392.528; 1039.600;  172.475;    0.000
392.586; 1039.600;  179.475;    0.000
392.644; 1047.600;  173.475;    0.000
392.701; 1033.600;  202.475;    0.000
392.759; 1086.600;  180.475;    0.000
392.817; 1074.600;  181.475;    0.000
392.875; 1068.600;  168.475;    0.000
392.933; 1102.600;  161.475;    0.000
392.991; 1089.600;  216.475;    0.000
393.048; 1031.600;  197.475;    0.000
393.106; 1109.600;  199.475;    0.000
393.164; 1014.600;  173.475;    0.000
393.222; 1067.600;  179.475;    0.000
393.279; 1145.600;  209.475;    0.000
393.337; 1160.600;  185.475;    0.000
393.395; 1109.600;  174.475;    0.000
393.453; 1163.600;  181.475;    0.000
393.510; 1144.600;  188.475;    0.000
393.568; 1093.600;  191.475;    0.000
393.626; 1080.600;  151.475;    0.000
393.684; 1135.600;  208.475;    0.000
393.741; 1086.600;  179.475;    0.000
393.799; 1038.600;  149.475;    0.000
393.857; 1049.600;  136.475;    0.000
393.914; 1128.600;  190.475;    0.000
393.972; 1042.600;  155.475;    0.000
394.030; 1097.600;  170.475;    0.000
394.087; 1101.600;  213.475;    0.000
394.145; 1069.600;  191.475;    0.000
394.202; 1112.600;  188.475;    0.000
394.260; 1071.600;  168.475;    0.000
394.318; 1095.600;  176.475;    0.000
394.375; 1055.600;  159.475;    0.000
394.433; 1115.600;  168.475;    0.000
394.490; 1076.600;  163.475;    0.000
394.548; 1108.600;  163.475;    0.000
394.605; 1118.600;  181.475;    0.000
394.663; 1058.600;  180.475;    0.000
394.720; 1102.600;  193.475;    0.000
394.778; 1072.600;  168.475;    0.000
394.836; 1108.600;  128.475;    0.000
394.893; 1131.600;  151.475;    0.000
394.951; 1067.600;  173.475;    0.000
395.008; 1111.600;  201.475;    0.000
395.065; 1070.600;  139.475;    0.000
395.123; 1074.600;  173.475;    0.000
395.180; 1102.600;  144.475;    0.000
395.238; 1104.600;  135.475;    0.000
395.295; 1156.600;  167.475;    0.000
395.353; 1113.600;  150.475;    0.000
395.410; 1127.600;  165.475;    0.000
395.468; 1129.600;  223.475;    0.000
395.525; 1150.600;  156.475;    0.000
395.582; 1166.600;  178.475;    0.000
395.640; 1135.600;  178.475;    0.000
395.697; 1160.600;  173.475;    0.000
395.754; 1079.600;  154.475;    0.000
395.812; 1123.600;  169.475;    0.000
395.869; 1141.600;  196.475;    0.000
395.927; 1170.600;  190.475;    0.000
395.984; 1154.600;  195.475;    0.000
396.041; 1146.600;  160.475;    0.000
396.098; 1090.600;  161.475;    0.000
396.156; 1113.600;  187.475;    0.000
396.213; 1131.600;  200.475;    0.000
396.270; 1167.600;  160.475;    0.000
396.328; 1145.600;  113.475;    0.000
396.385; 1121.600;  165.475;    0.000
396.442; 1165.600;  168.475;    0.000
396.499; 1158.600;  117.475;    0.000
396.557; 1178.600;  203.475;    0.000
396.614; 1155.600;  155.475;    0.000
396.671; 1155.600;  187.475;    0.000
396.728; 1161.600;  169.475;    0.000
396.785; 1119.600;  167.475;    0.000
396.843; 1193.600;  154.475;    0.000
396.900; 1234.600;  172.475;    0.000
396.957; 1218.600;  176.475;    0.000
397.014; 1229.600;  193.475;    0.000
397.071; 1172.600;  170.475;    0.000
397.128; 1185.600;  172.475;    0.000
397.186; 1233.600;  205.475;    0.000
397.243; 1177.600;  163.475;    0.000
397.300; 1107.600;  193.475;    0.000
397.357; 1204.600;  166.475;    0.000
397.414; 1231.600;  149.475;    0.000
397.471; 1233.600;  157.475;    0.000
397.528; 1201.600;  180.475;    0.000
397.585; 1240.600;  203.475;    0.000
397.642; 1134.600;  156.475;    0.000
397.699; 1142.600;  229.475;    0.000
397.756; 1223.600;  185.475;    0.000
397.814; 1167.600;  191.475;    0.000
397.871; 1194.600;  170.475;    0.000
397.928; 1225.600;  191.475;    0.000
397.985; 1163.600;  183.475;    0.000
398.042; 1212.600;  161.475;    0.000
398.099; 1282.600;  192.475;    0.000
398.156; 1187.600;  176.475;    0.000
398.212; 1261.600;  170.475;    0.000
398.269; 1232.600;  158.475;    0.000
398.326; 1226.600;  175.475;    0.000
398.383; 1239.600;  177.475;    0.000
398.440; 1200.600;  169.475;    0.000
398.497; 1201.600;  184.475;    0.000
398.554; 1214.600;  196.475;    0.000
398.611; 1289.600;  198.475;    0.000
398.668; 1202.600;  135.475;    0.000
398.725; 1194.600;  181.475;    0.000
398.782; 1245.600;  195.475;    0.000
398.839; 1283.600;  179.475;    0.000
398.895; 1235.600;  188.475;    0.000
398.952; 1267.600;  176.475;    0.000
399.009; 1291.600;  183.475;    0.000
399.066; 1293.600;  190.475;    0.000
399.123; 1340.600;  174.475;    0.000
399.180; 1322.600;  191.475;    0.000
399.236; 1328.600;  217.475;    0.000
399.293; 1326.600;  154.475;    0.000
399.350; 1355.600;  210.475;    0.000
399.407; 1372.600;  202.475;    0.000
399.463; 1385.600;  162.475;    0.000
399.520; 1342.600;  207.475;    0.000
399.577; 1373.600;  174.475;    0.000
399.634; 1422.600;  170.475;    0.000
399.690; 1416.600;  186.475;    0.000
399.747; 1419.600;  218.475;    0.000
399.804; 1365.600;  200.475;    0.000
399.861; 1433.600;  190.475;    0.000
399.917; 1411.600;  218.475;    0.000
399.974; 1340.600;  200.475;    0.000
400.031; 1372.600;  200.475;    0.000
400.087; 1373.600;  153.475;    0.000
400.144; 1381.600;  188.475;    0.000
400.201; 1406.600;  198.475;    0.000
400.257; 1344.600;  205.475;    0.000
400.314; 1402.600;  183.475;    0.000
400.370; 1343.600;  227.475;    0.000
400.427; 1281.600;  177.475;    0.000
400.484; 1301.600;  202.475;    0.000
400.540; 1346.600;  173.475;    0.000
400.597; 1325.600;  212.475;    0.000
400.653; 1292.600;  182.475;    0.000
400.710; 1259.600;  201.475;    0.000
400.766; 1285.600;  188.475;    0.000
400.823; 1333.600;  205.475;    0.000
400.879; 1295.600;  165.475;    0.000
400.936; 1294.600;  180.475;    0.000
400.993; 1354.600;  181.475;    0.000
401.049; 1327.600;  147.475;    0.000
401.105; 1341.600;  205.475;    0.000
401.162; 1376.600;  197.475;    0.000
401.218; 1313.600;  177.475;    0.000
401.275; 1325.600;  183.475;    0.000
401.331; 1298.600;  198.475;    0.000
401.388; 1329.600;  209.475;    0.000
401.444; 1354.600;  211.475;    0.000
401.501; 1345.600;  185.475;    0.000
401.557; 1355.600;  190.475;    0.000
401.614; 1273.600;  172.475;    0.000
401.670; 1289.600;  185.475;    0.000
401.726; 1299.600;  196.475;    0.000
401.783; 1301.600;  187.475;    0.000
401.839; 1360.600;  192.475;    0.000
401.895; 1325.600;  173.475;    0.000
401.952; 1297.600;  145.475;    0.000
402.008; 1344.600;  197.475;    0.000
402.064; 1253.600;  146.475;    0.000
402.121; 1372.600;  197.475;    0.000
402.177; 1303.600;  173.475;    0.000
402.233; 1339.600;  185.475;    0.000
402.290; 1320.600;  175.475;    0.000
402.346; 1327.600;  164.475;    0.000
402.402; 1338.600;  173.475;    0.000
402.458; 1358.600;  183.475;    0.000
402.515; 1352.600;  147.475;    0.000
402.571; 1362.600;  210.475;    0.000
402.627; 1328.600;  181.475;    0.000
402.683; 1339.600;  177.475;    0.000
402.740; 1355.600;  162.475;    0.000
402.796; 1258.600;  178.475;    0.000
402.852; 1343.600;  138.475;    0.000
402.908; 1424.600;  181.475;    0.000
402.964; 1328.600;  151.475;    0.000
403.021; 1324.600;  170.475;    0.000
403.077; 1445.600;  204.475;    0.000
403.133; 1334.600;  144.475;    0.000
403.189; 1360.600;  207.475;    0.000
403.245; 1388.600;  184.475;    0.000
403.301; 1356.600;  170.475;    0.000
403.357; 1401.600;  201.475;    0.000
403.414; 1351.600;  205.475;    0.000
403.470; 1450.600;  170.475;    0.000
403.526; 1316.600;  135.475;    0.000
403.582; 1440.600;  180.475;    0.000
403.638; 1417.600;  185.475;    0.000
403.694; 1450.600;  169.475;    0.000
403.750; 1435.600;  210.475;    0.000
403.806; 1476.600;  210.475;    0.000
403.862; 1394.600;  219.475;    0.000
403.918; 1447.600;  191.475;    0.000
403.974; 1357.600;  193.475;    0.000
404.030; 1446.600;  154.475;    0.000
404.086; 1384.600;  170.475;    0.000
404.142; 1391.600;  194.475;    0.000
404.198; 1502.600;  224.475;    0.000
404.254; 1383.600;  177.475;    0.000
404.310; 1421.600;  204.475;    0.000
404.366; 1354.600;  170.475;    0.000
404.422; 1368.600;  172.475;    0.000
404.478; 1389.600;  153.475;    0.000
404.534; 1374.600;  159.475;    0.000
404.590; 1345.600;  203.475;    0.000
404.646; 1359.600;  164.475;    0.000
404.701; 1418.600;  141.475;    0.000
404.757; 1365.600;  195.475;    0.000
404.813; 1343.600;  152.475;    0.000
404.869; 1455.600;  174.475;    0.000
404.925; 1370.600;  167.475;    0.000
404.981; 1391.600;  175.475;    0.000
405.037; 1345.600;  170.475;    0.000
405.092; 1376.600;  155.475;    0.000
405.148; 1388.600;  160.475;    0.000
405.204; 1425.600;  158.475;    0.000
405.260; 1436.600;  128.475;    0.000
405.316; 1391.600;  168.475;    0.000
405.371; 1382.600;  162.475;    0.000
405.427; 1400.600;  187.475;    0.000
405.483; 1475.600;  214.475;    0.000
405.539; 1502.600;  163.475;    0.000
405.594; 1396.600;  191.475;    0.000
405.650; 1359.600;  124.475;    0.000
405.706; 1404.600;  188.475;    0.000
405.761; 1452.600;  204.475;    0.000
405.817; 1449.600;  150.475;    0.000
405.873; 1422.600;  152.475;    0.000
405.928; 1460.600;  135.475;    0.000
405.984; 1440.600;  209.475;    0.000
406.040; 1428.600;  165.475;    0.000
406.095; 1441.600;  146.475;    0.000
406.151; 1479.600;  169.475;    0.000
406.207; 1472.600;  174.475;    0.000
406.262; 1470.600;  189.475;    0.000
406.318; 1422.600;  141.475;    0.000
406.374; 1387.600;  178.475;    0.000
406.429; 1460.600;  197.475;    0.000
406.485; 1520.600;  194.475;    0.000
406.540; 1487.600;  149.475;    0.000
406.596; 1559.600;  173.475;    0.000
406.651; 1604.600;  154.475;    0.000
406.707; 1488.600;  183.475;    0.000
406.763; 1524.600;  156.475;    0.000
406.818; 1548.600;  181.475;    0.000
406.874; 1532.600;  135.475;    0.000
406.929; 1542.600;  194.475;    0.000
406.985; 1596.600;  166.475;    0.000
407.040; 1550.600;  207.475;    0.000
407.095; 1514.600;  213.475;    0.000
407.151; 1524.600;  198.475;    0.000
407.206; 1581.600;  186.475;    0.000
407.262; 1562.600;  148.475;    0.000
407.317; 1581.600;  212.475;    0.000
407.373; 1635.600;  209.475;    0.000
407.428; 1640.600;  218.475;    0.000
407.484; 1575.600;  158.475;    0.000
407.539; 1633.600;  165.475;    0.000
407.594; 1695.600;  197.475;    0.000
407.650; 1610.600;  177.475;    0.000
407.705; 1618.600;  154.475;    0.000
407.760; 1644.600;  198.475;    0.000
407.816; 1643.600;  181.475;    0.000
407.871; 1624.600;  185.475;    0.000
407.926; 1591.600;  167.475;    0.000
407.982; 1611.600;  172.475;    0.000
408.037; 1636.600;  202.475;    0.000
408.092; 1652.600;  201.475;    0.000
408.148; 1622.600;  199.475;    0.000
408.203; 1584.600;  174.475;    0.000
408.258; 1598.600;  157.475;    0.000
408.314; 1632.600;  194.475;    0.000
408.369; 1608.600;  189.475;    0.000
408.424; 1607.600;  204.475;    0.000
408.479; 1520.600;  192.475;    0.000
408.534; 1601.600;  215.475;    0.000
408.590; 1550.600;  190.475;    0.000
408.645; 1554.600;  159.475;    0.000
408.700; 1586.600;  191.475;    0.000
408.755; 1610.600;  217.475;    0.000
408.810; 1543.600;  158.475;    0.000
408.866; 1585.600;  166.475;    0.000
408.921; 1627.600;  214.475;    0.000
408.976; 1587.600;  158.475;    0.000
409.031; 1541.600;  185.475;    0.000
409.086; 1598.600;  158.475;    0.000
409.141; 1619.600;  180.475;    0.000
409.196; 1644.600;  188.475;    0.000
409.252; 1552.600;  186.475;    0.000
409.307; 1535.600;  135.475;    0.000
409.362; 1545.600;  162.475;    0.000
409.417; 1512.600;  149.475;    0.000
409.472; 1582.600;  205.475;    0.000
409.527; 1570.600;  184.475;    0.000
409.582; 1620.600;  174.475;    0.000
409.637; 1609.600;  188.475;    0.000
409.692; 1568.600;  211.475;    0.000
409.747; 1585.600;  159.475;    0.000
409.802; 1589.600;  199.475;    0.000
409.857; 1550.600;  118.475;    0.000
409.912; 1535.600;  177.475;    0.000
409.967; 1560.600;  182.475;    0.000
410.022; 1565.600;  188.475;    0.000
410.077; 1643.600;  204.475;    0.000
410.132; 1585.600;  174.475;    0.000
410.187; 1588.600;  169.475;    0.000
410.242; 1516.600;  178.475;    0.000
410.297; 1573.600;  185.475;    0.000
410.351; 1580.600;  203.475;    0.000
410.406; 1553.600;  180.475;    0.000
410.461; 1586.600;  213.475;    0.000
410.516; 1564.600;  198.475;    0.000
410.571; 1565.600;  171.475;    0.000
410.626; 1568.600;  186.475;    0.000
410.681; 1649.600;  187.475;    0.000
410.736; 1555.600;  147.475;    0.000
410.790; 1616.600;  186.475;    0.000
410.845; 1595.600;  152.475;    0.000
410.900; 1578.600;  202.475;    0.000
410.955; 1545.600;  196.475;    0.000
411.010; 1552.600;  150.475;    0.000
411.064; 1602.600;  200.475;    0.000
411.119; 1566.600;  203.475;    0.000
411.174; 1625.600;  176.475;    0.000
411.229; 1659.600;  203.475;    0.000
411.283; 1600.600;  176.475;    0.000
411.338; 1501.600;  153.475;    0.000
411.393; 1533.600;  168.475;    0.000
411.447; 1627.600;  223.475;    0.000
411.502; 1588.600;  238.475;    0.000
411.557; 1568.600;  179.475;    0.000
411.612; 1585.600;  159.475;    0.000
411.666; 1515.600;  189.475;    0.000
411.721; 1636.600;  212.475;    0.000
411.776; 1600.600;  242.475;    0.000
411.830; 1646.600;  194.475;    0.000
411.885; 1573.600;  188.475;    0.000
411.939; 1602.600;  245.475;    0.000
411.994; 1548.600;  177.475;    0.000
412.049; 1642.600;  170.475;    0.000
412.103; 1521.600;  196.475;    0.000
412.158; 1609.600;  215.475;    0.000
412.212; 1611.600;  199.475;    0.000
412.267; 1592.600;  191.475;    0.000
412.322; 1591.600;  238.475;    0.000
412.376; 1617.600;  243.475;    0.000
412.431; 1613.600;  214.475;    0.000
412.485; 1662.600;  210.475;    0.000
412.540; 1600.600;  200.475;    0.000
412.594; 1582.600;  174.475;    0.000
412.649; 1607.600;  246.475;    0.000
412.703; 1565.600;  182.475;    0.000
412.758; 1597.600;  222.475;    0.000
412.812; 1566.600;  201.475;    0.000
412.866; 1559.600;  162.475;    0.000
412.921; 1580.600;  202.475;    0.000
412.975; 1589.600;  212.475;    0.000
413.030; 1633.600;  238.475;    0.000
413.084; 1617.600;  201.475;    0.000
413.139; 1550.600;  210.475;    0.000
413.193; 1526.600;  218.475;    0.000
413.247; 1579.600;  203.475;    0.000
413.302; 1575.600;  176.475;    0.000
413.356; 1589.600;  215.475;    0.000
413.410; 1609.600;  204.475;    0.000
413.465; 1621.600;  186.475;    0.000
413.519; 1586.600;  196.475;    0.000
413.573; 1570.600;  181.475;    0.000
413.628; 1569.600;  200.475;    0.000
413.682; 1601.600;  157.475;    0.000
413.736; 1577.600;  194.475;    0.000
413.791; 1571.600;  193.475;    0.000
413.845; 1605.600;  225.475;    0.000
413.899; 1565.600;  195.475;    0.000
413.953; 1531.600;  173.475;    0.000
414.008; 1573.600;  186.475;    0.000
414.062; 1610.600;  217.475;    0.000
414.116; 1569.600;  169.475;    0.000
414.170; 1595.600;  228.475;    0.000
414.225; 1566.600;  177.475;    0.000
414.279; 1625.600;  210.475;    0.000
414.333; 1611.600;  207.475;    0.000
414.387; 1563.600;  217.475;    0.000
414.441; 1610.600;  187.475;    0.000
414.496; 1581.600;  215.475;    0.000
414.550; 1611.600;  204.475;    0.000
414.604; 1598.600;  206.475;    0.000
414.658; 1530.600;  139.475;    0.000
414.712; 1547.600;  198.475;    0.000
414.766; 1587.600;  208.475;    0.000
414.820; 1604.600;  199.475;    0.000
414.874; 1647.600;  216.475;    0.000
414.928; 1647.600;  186.475;    0.000
414.982; 1574.600;  176.475;    0.000
415.037; 1572.600;  181.475;    0.000
415.091; 1600.600;  208.475;    0.000
415.145; 1592.600;  209.475;    0.000
415.199; 1556.600;  186.475;    0.000
415.253; 1555.600;  203.475;    0.000
415.307; 1594.600;  197.475;    0.000
415.361; 1602.600;  223.475;    0.000
415.415; 1552.600;  213.475;    0.000
415.469; 1636.600;  226.475;    0.000
415.523; 1512.600;  222.475;    0.000
415.577; 1537.600;  205.475;    0.000
415.631; 1603.600;  224.475;    0.000
415.684; 1610.600;  193.475;    0.000
415.738; 1580.600;  224.475;    0.000
415.792; 1496.600;  204.475;    0.000
415.846; 1547.600;  189.475;    0.000
415.900; 1616.600;  223.475;    0.000
415.954; 1609.600;  187.475;    0.000
416.008; 1654.600;  237.475;    0.000
416.062; 1524.600;  195.475;    0.000
416.116; 1532.600;  223.475;    0.000
416.169; 1618.600;  210.475;    0.000
416.223; 1591.600;  232.475;    0.000
416.277; 1583.600;  227.475;    0.000
416.331; 1594.600;  216.475;    0.000
416.385; 1536.600;  186.475;    0.000
416.439; 1599.600;  226.475;    0.000
416.492; 1626.600;  229.475;    0.000
416.546; 1566.600;  216.475;    0.000
416.600; 1559.600;  211.475;    0.000
416.654; 1618.600;  226.475;    0.000
416.707; 1622.600;  248.475;    0.000
416.761; 1593.600;  217.475;    0.000
416.815; 1539.600;  207.475;    0.000
416.869; 1562.600;  226.475;    0.000
416.922; 1633.600;  192.475;    0.000
416.976; 1571.600;  205.475;    0.000
417.030; 1585.600;  233.475;    0.000
417.083; 1552.600;  226.475;    0.000
417.137; 1617.600;  222.475;    0.000
417.191; 1585.600;  217.475;    0.000
417.244; 1628.600;  221.475;    0.000
417.298; 1561.600;  201.475;    0.000
417.352; 1524.600;  170.475;    0.000
417.405; 1579.600;  234.475;    0.000
417.459; 1667.600;  241.475;    0.000
417.512; 1576.600;  247.475;    0.000
417.566; 1567.600;  219.475;    0.000
417.620; 1672.600;  228.475;    0.000
417.673; 1592.600;  192.475;    0.000
417.727; 1590.600;  203.475;    0.000
417.780; 1528.600;  204.475;    0.000
417.834; 1596.600;  234.475;    0.000
417.887; 1548.600;  245.475;    0.000
417.941; 1594.600;  211.475;    0.000
417.994; 1637.600;  244.475;    0.000
418.048; 1588.600;  203.475;    0.000
418.101; 1564.600;  212.475;    0.000
418.155; 1516.600;  251.475;    0.000
418.208; 1599.600;  286.475;    0.000
418.262; 1569.600;  243.475;    0.000
418.315; 1566.600;  214.475;    0.000
418.369; 1688.600;  269.475;    0.000
418.422; 1612.600;  222.475;    0.000
418.476; 1648.600;  226.475;    0.000
418.529; 1585.600;  238.475;    0.000
418.582; 1619.600;  210.475;    0.000
418.636; 1670.600;  221.475;    0.000
418.689; 1600.600;  224.475;    0.000
418.743; 1604.600;  228.475;    0.000
418.796; 1635.600;  192.475;    0.000
418.849; 1576.600;  230.475;    0.000
418.903; 1589.600;  257.475;    0.000
418.956; 1556.600;  241.475;    0.000
419.009; 1632.600;  247.475;    0.000
419.063; 1630.600;  235.475;    0.000
419.116; 1614.600;  218.475;    0.000
419.169; 1625.600;  219.475;    0.000
419.222; 1640.600;  215.475;    0.000
419.276; 1602.600;  202.475;    0.000
419.329; 1573.600;  210.475;    0.000
419.382; 1539.600;  188.475;    0.000
419.435; 1585.600;  222.475;    0.000
419.489; 1582.600;  232.475;    0.000
419.542; 1579.600;  250.475;    0.000
419.595; 1617.600;  240.475;    0.000
419.648; 1602.600;  261.475;    0.000
419.701; 1601.600;  222.475;    0.000
419.755; 1583.600;  233.475;    0.000
419.808; 1590.600;  178.475;    0.000
419.861; 1573.600;  207.475;    0.000
419.914; 1603.600;  223.475;    0.000
419.967; 1577.600;  216.475;    0.000
420.020; 1560.600;  211.475;    0.000
420.073; 1577.600;  200.475;    0.000
420.127; 1531.600;  248.475;    0.000
420.180; 1572.600;  220.475;    0.000
420.233; 1563.600;  215.475;    0.000
420.286; 1542.600;  222.475;    0.000
420.339; 1593.600;  229.475;    0.000
420.392; 1606.600;  245.475;    0.000
420.445; 1548.600;  221.475;    0.000
420.498; 1624.600;  224.475;    0.000
420.551; 1531.600;  170.475;    0.000
420.604; 1515.600;  237.475;    0.000
420.657; 1579.600;  235.475;    0.000
420.710; 1576.600;  223.475;    0.000
420.763; 1540.600;  219.475;    0.000
420.816; 1504.600;  200.475;    0.000
420.869; 1506.600;  197.475;    0.000
420.922; 1546.600;  212.475;    0.000
420.975; 1572.600;  274.475;    0.000
421.028; 1604.600;  228.475;    0.000
421.081; 1532.600;  243.475;    0.000
421.134; 1539.600;  227.475;    0.000
421.187; 1517.600;  245.475;    0.000
421.239; 1498.600;  210.475;    0.000
421.292; 1558.600;  193.475;    0.000
421.345; 1544.600;  226.475;    0.000
421.398; 1586.600;  226.475;    0.000
421.451; 1557.600;  259.475;    0.000
421.504; 1541.600;  204.475;    0.000
421.557; 1469.600;  215.475;    0.000
421.609; 1486.600;  194.475;    0.000
421.662; 1513.600;  216.475;    0.000
421.715; 1517.600;  226.475;    0.000
421.768; 1547.600;  177.475;    0.000
421.821; 1515.600;  210.475;    0.000
421.873; 1507.600;  208.475;    0.000
421.926; 1515.600;  223.475;    0.000
421.979; 1571.600;  230.475;    0.000
422.032; 1498.600;  227.475;    0.000
422.084; 1522.600;  234.475;    0.000
422.137; 1496.600;  207.475;    0.000
422.190; 1478.600;  228.475;    0.000
422.243; 1562.600;  206.475;    0.000
422.295; 1515.600;  236.475;    0.000
422.348; 1489.600;  232.475;    0.000
422.401; 1474.600;  228.475;    0.000
422.453; 1565.600;  239.475;    0.000
422.506; 1489.600;  226.475;    0.000
422.559; 1540.600;  205.475;    0.000
422.611; 1511.600;  235.475;    0.000
422.664; 1485.600;  231.475;    0.000
422.716; 1551.600;  228.475;    0.000
422.769; 1519.600;  204.475;    0.000
422.822; 1472.600;  205.475;    0.000
422.874; 1492.600;  228.475;    0.000
422.927; 1481.600;  266.475;    0.000
422.979; 1522.600;  223.475;    0.000
423.032; 1570.600;  207.475;    0.000
423.084; 1540.600;  211.475;    0.000
423.137; 1548.600;  205.475;    0.000
423.189; 1553.600;  254.475;    0.000
423.242; 1473.600;  208.475;    0.000
423.294; 1471.600;  240.475;    0.000
423.347; 1512.600;  218.475;    0.000
423.399; 1504.600;  237.475;    0.000
423.452; 1567.600;  242.475;    0.000
423.504; 1495.600;  225.475;    0.000
423.557; 1548.600;  195.475;    0.000
423.609; 1474.600;  206.475;    0.000
423.662; 1512.600;  211.475;    0.000
423.714; 1510.600;  252.475;    0.000
423.766; 1474.600;  181.475;    0.000
423.819; 1456.600;  216.475;    0.000
423.871; 1463.600;  216.475;    0.000
423.923; 1452.600;  222.475;    0.000
423.976; 1501.600;  223.475;    0.000
424.028; 1439.600;  229.475;    0.000
424.081; 1518.600;  267.475;    0.000
424.133; 1438.600;  251.475;    0.000
424.185; 1494.600;  238.475;    0.000
424.238; 1489.600;  220.475;    0.000
424.290; 1486.600;  259.475;    0.000
424.342; 1443.600;  248.475;    0.000
424.394; 1545.600;  234.475;    0.000
424.447; 1571.600;  248.475;    0.000
424.499; 1429.600;  233.475;    0.000
424.551; 1525.600;  236.475;    0.000
424.603; 1444.600;  207.475;    0.000
424.656; 1455.600;  210.475;    0.000
424.708; 1460.600;  251.475;    0.000
424.760; 1501.600;  221.475;    0.000
424.812; 1515.600;  275.475;    0.000
424.864; 1478.600;  206.475;    0.000
424.917; 1464.600;  198.475;    0.000
424.969; 1524.600;  246.475;    0.000
425.021; 1465.600;  209.475;    0.000
425.073; 1502.600;  242.475;    0.000
425.125; 1473.600;  254.475;    0.000
425.177; 1460.600;  224.475;    0.000
425.229; 1542.600;  256.475;    0.000
425.282; 1463.600;  265.475;    0.000
425.334; 1405.600;  266.475;    0.000
425.386; 1479.600;  242.475;    0.000
425.438; 1484.600;  205.475;    0.000
425.490; 1549.600;  227.475;    0.000
425.542; 1476.600;  235.475;    0.000
425.594; 1433.600;  210.475;    0.000
425.646; 1462.600;  232.475;    0.000
425.698; 1412.600;  243.475;    0.000
425.750; 1451.600;  230.475;    0.000
425.802; 1410.600;  218.475;    0.000
425.854; 1457.600;  222.475;    0.000
425.906; 1445.600;  235.475;    0.000
425.958; 1504.600;  220.475;    0.000
426.010; 1486.600;  236.475;    0.000
426.062; 1445.600;  230.475;    0.000
426.114; 1435.600;  216.475;    0.000
426.166; 1463.600;  230.475;    0.000
426.218; 1458.600;  237.475;    0.000
426.270; 1457.600;  217.475;    0.000
426.321; 1457.600;  224.475;    0.000
426.373; 1404.600;  207.475;    0.000
426.425; 1466.600;  278.475;    0.000
426.477; 1433.600;  243.475;    0.000
426.529; 1417.600;  247.475;    0.000
426.581; 1411.600;  229.475;    0.000
426.633; 1388.600;  212.475;    0.000
426.684; 1483.600;  244.475;    0.000
426.736; 1445.600;  250.475;    0.000
426.788; 1439.600;  210.475;    0.000
426.840; 1376.600;  201.475;    0.000
426.892; 1418.600;  225.475;    0.000
426.943; 1436.600;  215.475;    0.000
426.995; 1449.600;  216.475;    0.000
427.047; 1434.600;  216.475;    0.000
427.099; 1422.600;  203.475;    0.000
427.150; 1387.600;  195.475;    0.000
427.202; 1376.600;  212.475;    0.000
427.254; 1331.600;  233.475;    0.000
427.306; 1433.600;  211.475;    0.000
427.357; 1427.600;  210.475;    0.000
427.409; 1406.600;  244.475;    0.000
427.461; 1398.600;  187.475;    0.000
427.512; 1414.600;  227.475;    0.000
427.564; 1415.600;  210.475;    0.000
427.616; 1360.600;  202.475;    0.000
427.667; 1337.600;  185.475;    0.000
427.719; 1461.600;  222.475;    0.000
427.770; 1377.600;  230.475;    0.000
427.822; 1410.600;  254.475;    0.000
427.874; 1374.600;  222.475;    0.000
427.925; 1331.600;  199.475;    0.000
427.977; 1403.600;  228.475;    0.000
428.028; 1339.600;  226.475;    0.000
428.080; 1431.600;  236.475;    0.000
428.131; 1405.600;  220.475;    0.000
428.183; 1300.600;  256.475;    0.000
428.234; 1386.600;  217.475;    0.000
428.286; 1414.600;  234.475;    0.000
428.337; 1382.600;  209.475;    0.000
428.389; 1333.600;  219.475;    0.000
428.440; 1386.600;  249.475;    0.000
428.492; 1431.600;  255.475;    0.000
428.543; 1365.600;  224.475;    0.000
428.595; 1351.600;  225.475;    0.000
428.646; 1389.600;  240.475;    0.000
428.697; 1345.600;  211.475;    0.000
428.749; 1418.600;  200.475;    0.000
428.800; 1383.600;  235.475;    0.000
428.852; 1426.600;  265.475;    0.000
428.903; 1373.600;  201.475;    0.000
428.954; 1371.600;  242.475;    0.000
429.006; 1363.600;  245.475;    0.000
429.057; 1350.600;  252.475;    0.000
429.108; 1321.600;  211.475;    0.000
429.160; 1357.600;  217.475;    0.000
429.211; 1332.600;  234.475;    0.000
429.262; 1338.600;  205.475;    0.000
429.314; 1439.600;  211.475;    0.000
429.365; 1389.600;  240.475;    0.000
429.416; 1415.600;  263.475;    0.000
429.467; 1390.600;  244.475;    0.000
429.519; 1355.600;  223.475;    0.000
429.570; 1352.600;  214.475;    0.000
429.621; 1341.600;  235.475;    0.000
429.672; 1332.600;  202.475;    0.000
429.724; 1329.600;  189.475;    0.000
429.775; 1358.600;  214.475;    0.000
429.826; 1304.600;  178.475;    0.000
429.877; 1309.600;  224.475;    0.000
429.928; 1398.600;  230.475;    0.000
429.980; 1307.600;  199.475;    0.000
430.031; 1323.600;  208.475;    0.000
430.082; 1376.600;  224.475;    0.000
430.133; 1373.600;  193.475;    0.000
430.184; 1415.600;  220.475;    0.000
430.235; 1370.600;  184.475;    0.000
430.286; 1394.600;  197.475;    0.000
430.337; 1326.600;  199.475;    0.000
430.388; 1299.600;  207.475;    0.000
430.439; 1374.600;  227.475;    0.000
430.490; 1325.600;  215.475;    0.000
430.542; 1425.600;  211.475;    0.000
430.593; 1333.600;  230.475;    0.000
430.644; 1306.600;  186.475;    0.000
430.695; 1323.600;  232.475;    0.000
430.746; 1347.600;  214.475;    0.000
430.797; 1359.600;  260.475;    0.000
430.848; 1405.600;  214.475;    0.000
430.898; 1351.600;  204.475;    0.000
430.949; 1340.600;  189.475;    0.000
431.000; 1332.600;  240.475;    0.000
431.051; 1316.600;  201.475;    0.000
431.102; 1323.600;  188.475;    0.000
431.153; 1286.600;  209.475;    0.000
431.204; 1278.600;  187.475;    0.000
431.255; 1318.600;  171.475;    0.000
431.306; 1344.600;  181.475;    0.000
431.357; 1282.600;  221.475;    0.000
431.408; 1359.600;  217.475;    0.000
431.458; 1317.600;  206.475;    0.000
431.509; 1369.600;  194.475;    0.000
431.560; 1296.600;  235.475;    0.000
431.611; 1359.600;  213.475;    0.000
431.662; 1346.600;  237.475;    0.000
431.713; 1383.600;  220.475;    0.000
431.763; 1379.600;  212.475;    0.000
431.814; 1354.600;  238.475;    0.000
431.865; 1318.600;  213.475;    0.000
431.916; 1313.600;  191.475;    0.000
431.966; 1358.600;  171.475;    0.000
432.017; 1356.600;  263.475;    0.000
432.068; 1399.600;  240.475;    0.000
432.118; 1337.600;  235.475;    0.000
432.169; 1327.600;  212.475;    0.000
432.220; 1375.600;  188.475;    0.000
432.271; 1326.600;  216.475;    0.000
432.321; 1398.600;  223.475;    0.000
432.372; 1369.600;  254.475;    0.000
432.423; 1294.600;  193.475;    0.000
432.473; 1336.600;  219.475;    0.000
432.524; 1401.600;  215.475;    0.000
432.574; 1253.600;  234.475;    0.000
432.625; 1371.600;  226.475;    0.000
432.676; 1291.600;  219.475;    0.000
432.726; 1342.600;  254.475;    0.000
432.777; 1283.600;  210.475;    0.000
432.827; 1291.600;  234.475;    0.000
432.878; 1272.600;  212.475;    0.000
432.928; 1264.600;  238.475;    0.000
432.979; 1385.600;  252.475;    0.000
433.029; 1302.600;  222.475;    0.000
433.080; 1272.600;  188.475;    0.000
433.130; 1326.600;  223.475;    0.000
433.181; 1302.600;  254.475;    0.000
433.231; 1383.600;  237.475;    0.000
433.282; 1375.600;  242.475;    0.000
433.332; 1344.600;  261.475;    0.000
433.383; 1363.600;  266.475;    0.000
433.433; 1385.600;  286.475;    0.000
433.484; 1390.600;  231.475;    0.000
433.534; 1336.600;  256.475;    0.000
433.585; 1334.600;  253.475;    0.000
433.635; 1360.600;  228.475;    0.000
433.685; 1295.600;  226.475;    0.000
433.736; 1347.600;  276.475;    0.000
433.786; 1302.600;  253.475;    0.000
433.836; 1391.600;  289.475;    0.000
433.887; 1364.600;  241.475;    0.000
433.937; 1332.600;  252.475;    0.000
433.987; 1314.600;  223.475;    0.000
434.038; 1291.600;  241.475;    0.000
434.088; 1382.600;  231.475;    0.000
434.138; 1370.600;  259.475;    0.000
434.189; 1380.600;  263.475;    0.000
434.239; 1315.600;  194.475;    0.000
434.289; 1388.600;  273.475;    0.000
434.339; 1395.600;  212.475;    0.000
434.389; 1337.600;  248.475;    0.000
434.440; 1334.600;  250.475;    0.000
434.490; 1328.600;  278.475;    0.000
434.540; 1422.600;  241.475;    0.000
434.590; 1354.600;  251.475;    0.000
434.640; 1315.600;  207.475;    0.000
434.691; 1363.600;  242.475;    0.000
434.741; 1398.600;  218.475;    0.000
434.791; 1399.600;  267.475;    0.000
434.841; 1369.600;  272.475;    0.000
434.891; 1354.600;  260.475;    0.000
434.941; 1388.600;  258.475;    0.000
434.991; 1359.600;  264.475;    0.000
435.042; 1418.600;  264.475;    0.000
435.092; 1437.600;  271.475;    0.000
435.142; 1347.600;  229.475;    0.000
435.192; 1398.600;  226.475;    0.000
435.242; 1384.600;  253.475;    0.000
435.292; 1327.600;  215.475;    0.000
435.342; 1361.600;  240.475;    0.000
435.392; 1342.600;  235.475;    0.000
435.442; 1311.600;  230.475;    0.000
435.492; 1338.600;  235.475;    0.000
435.542; 1306.600;  230.475;    0.000
435.592; 1323.600;  239.475;    0.000
435.642; 1339.600;  244.475;    0.000
435.692; 1288.600;  236.475;    0.000
435.742; 1319.600;  236.475;    0.000
435.792; 1373.600;  230.475;    0.000
435.842; 1316.600;  248.475;    0.000
435.891; 1336.600;  233.475;    0.000
435.941; 1322.600;  243.475;    0.000
435.991; 1380.600;  279.475;    0.000
436.041; 1327.600;  204.475;    0.000
436.091; 1334.600;  217.475;    0.000
436.141; 1292.600;  205.475;    0.000
436.191; 1269.600;  220.475;    0.000
436.241; 1316.600;  248.475;    0.000
436.290; 1300.600;  255.475;    0.000
436.340; 1329.600;  235.475;    0.000
436.390; 1244.600;  207.475;    0.000
436.440; 1319.600;  207.475;    0.000
436.490; 1274.600;  251.475;    0.000
436.539; 1300.600;  240.475;    0.000
436.589; 1331.600;  198.475;    0.000
436.639; 1380.600;  240.475;    0.000
436.689; 1272.600;  216.475;    0.000
436.738; 1293.600;  246.475;    0.000
436.788; 1286.600;  203.475;    0.000
436.838; 1288.600;  230.475;    0.000
436.887; 1282.600;  235.475;    0.000
436.937; 1276.600;  249.475;    0.000
436.987; 1279.600;  208.475;    0.000
437.036; 1319.600;  232.475;    0.000
437.086; 1284.600;  238.475;    0.000
437.136; 1307.600;  228.475;    0.000
437.185; 1200.600;  219.475;    0.000
437.235; 1268.600;  227.475;    0.000
437.285; 1278.600;  241.475;    0.000
437.334; 1262.600;  216.475;    0.000
437.384; 1312.600;  243.475;    0.000
437.433; 1284.600;  214.475;    0.000
437.483; 1296.600;  246.475;    0.000
437.532; 1287.600;  261.475;    0.000
437.582; 1315.600;  205.475;    0.000
437.631; 1284.600;  218.475;    0.000
437.681; 1240.600;  240.475;    0.000
437.730; 1262.600;  258.475;    0.000
437.780; 1236.600;  237.475;    0.000
437.829; 1258.600;  209.475;    0.000
437.879; 1278.600;  214.475;    0.000
437.928; 1256.600;  223.475;    0.000
437.978; 1255.600;  220.475;    0.000
438.027; 1310.600;  239.475;    0.000
438.077; 1267.600;  231.475;    0.000
438.126; 1233.600;  266.475;    0.000
438.176; 1272.600;  234.475;    0.000
438.225; 1336.600;  237.475;    0.000
438.274; 1291.600;  234.475;    0.000
438.324; 1236.600;  244.475;    0.000
438.373; 1229.600;  232.475;    0.000
438.422; 1322.600;  218.475;    0.000
438.472; 1308.600;  221.475;    0.000
438.521; 1162.600;  190.475;    0.000
438.570; 1186.600;  243.475;    0.000
438.620; 1267.600;  255.475;    0.000
438.669; 1207.600;  210.475;    0.000
438.718; 1288.600;  237.475;    0.000
438.768; 1259.600;  220.475;    0.000
438.817; 1221.600;  218.475;    0.000
438.866; 1256.600;  198.475;    0.000
438.915; 1318.600;  256.475;    0.000
438.965; 1244.600;  221.475;    0.000
439.014; 1260.600;  255.475;    0.000
439.063; 1305.600;  276.475;    0.000
439.112; 1256.600;  220.475;    0.000
439.162; 1327.600;  253.475;    0.000
439.211; 1398.600;  247.475;    0.000
439.260; 1266.600;  220.475;    0.000
439.309; 1271.600;  235.475;    0.000
439.358; 1254.600;  205.475;    0.000
439.407; 1284.600;  207.475;    0.000
439.456; 1233.600;  216.475;    0.000
439.506; 1289.600;  245.475;    0.000
439.555; 1280.600;  264.475;    0.000
439.604; 1283.600;  227.475;    0.000
439.653; 1240.600;  220.475;    0.000
439.702; 1303.600;  223.475;    0.000
439.751; 1269.600;  197.475;    0.000
439.800; 1266.600;  207.475;    0.000
439.849; 1240.600;  238.475;    0.000
439.898; 1298.600;  209.475;    0.000
439.947; 1212.600;  170.475;    0.000
439.996; 1285.600;  233.475;    0.000
440.045; 1229.600;  222.475;    0.000
440.094; 1224.600;  240.475;    0.000
440.143; 1259.600;  249.475;    0.000
440.192; 1304.600;  252.475;    0.000
440.241; 1243.600;  239.475;    0.000
440.290; 1339.600;  234.475;    0.000
440.339; 1298.600;  241.475;    0.000
440.388; 1304.600;  239.475;    0.000
440.437; 1268.600;  231.475;    0.000
440.486; 1290.600;  254.475;    0.000
440.535; 1282.600;  266.475;    0.000
440.583; 1279.600;  205.475;    0.000
440.632; 1276.600;  234.475;    0.000
440.681; 1258.600;  218.475;    0.000
440.730; 1301.600;  248.475;    0.000
440.779; 1279.600;  246.475;    0.000
440.828; 1302.600;  235.475;    0.000
440.876; 1306.600;  218.475;    0.000
440.925; 1279.600;  228.475;    0.000
440.974; 1295.600;  249.475;    0.000
441.023; 1318.600;  192.475;    0.000
441.072; 1305.600;  226.475;    0.000
441.120; 1379.600;  238.475;    0.000
441.169; 1312.600;  255.475;    0.000
441.218; 1322.600;  233.475;    0.000
441.267; 1293.600;  231.475;    0.000
441.315; 1351.600;  214.475;    0.000
441.364; 1320.600;  250.475;    0.000
441.413; 1298.600;  228.475;    0.000
441.461; 1355.600;  209.475;    0.000
441.510; 1379.600;  260.475;    0.000
441.559; 1388.600;  230.475;    0.000
441.607; 1370.600;  220.475;    0.000
441.656; 1299.600;  251.475;    0.000
441.705; 1354.600;  237.475;    0.000
441.753; 1400.600;  257.475;    0.000
441.802; 1346.600;  256.475;    0.000
441.850; 1315.600;  253.475;    0.000
441.899; 1292.600;  212.475;    0.000
441.948; 1363.600;  251.475;    0.000
441.996; 1336.600;  239.475;    0.000
442.045; 1397.600;  223.475;    0.000
442.093; 1332.600;  211.475;    0.000
442.142; 1382.600;  235.475;    0.000
442.190; 1388.600;  254.475;    0.000
442.239; 1362.600;  226.475;    0.000
442.287; 1331.600;  242.475;    0.000
442.336; 1370.600;  256.475;    0.000
442.384; 1319.600;  252.475;    0.000
442.433; 1374.600;  262.475;    0.000
442.481; 1315.600;  246.475;    0.000
442.529; 1412.600;  290.475;    0.000
442.578; 1347.600;  247.475;    0.000
442.626; 1326.600;  247.475;    0.000
442.675; 1345.600;  272.475;    0.000
442.723; 1272.600;  230.475;    0.000
442.771; 1314.600;  234.475;    0.000
442.820; 1342.600;  224.475;    0.000
442.868; 1325.600;  246.475;    0.000
442.917; 1325.600;  249.475;    0.000
442.965; 1368.600;  260.475;    0.000
443.013; 1337.600;  258.475;    0.000
443.062; 1319.600;  259.475;    0.000
443.110; 1333.600;  226.475;    0.000
443.158; 1375.600;  213.475;    0.000
443.206; 1318.600;  201.475;    0.000
443.255; 1405.600;  280.475;    0.000
443.303; 1358.600;  292.475;    0.000
443.351; 1357.600;  256.475;    0.000
443.399; 1362.600;  215.475;    0.000
443.448; 1313.600;  243.475;    0.000
443.496; 1397.600;  249.475;    0.000
443.544; 1321.600;  231.475;    0.000
443.592; 1371.600;  243.475;    0.000
443.640; 1329.600;  252.475;    0.000
443.689; 1301.600;  220.475;    0.000
443.737; 1349.600;  231.475;    0.000
443.785; 1399.600;  256.475;    0.000
443.833; 1396.600;  268.475;    0.000
443.881; 1315.600;  181.475;    0.000
443.929; 1357.600;  245.475;    0.000
443.977; 1387.600;  278.475;    0.000
444.025; 1406.600;  245.475;    0.000
444.074; 1352.600;  233.475;    0.000
444.122; 1426.600;  267.475;    0.000
444.170; 1381.600;  247.475;    0.000
444.218; 1410.600;  246.475;    0.000
444.266; 1433.600;  275.475;    0.000
444.314; 1404.600;  263.475;    0.000
444.362; 1413.600;  240.475;    0.000
444.410; 1375.600;  220.475;    0.000
444.458; 1415.600;  258.475;    0.000
444.506; 1431.600;  258.475;    0.000
444.554; 1412.600;  224.475;    0.000
444.602; 1427.600;  245.475;    0.000
444.650; 1482.600;  261.475;    0.000
444.698; 1452.600;  232.475;    0.000
444.746; 1428.600;  206.475;    0.000
444.793; 1406.600;  249.475;    0.000
444.841; 1458.600;  261.475;    0.000
444.889; 1465.600;  221.475;    0.000
444.937; 1478.600;  215.475;    0.000
444.985; 1454.600;  244.475;    0.000
445.033; 1351.600;  211.475;    0.000
445.081; 1417.600;  225.475;    0.000
445.129; 1389.600;  217.475;    0.000
445.176; 1377.600;  196.475;    0.000
445.224; 1411.600;  211.475;    0.000
445.272; 1422.600;  242.475;    0.000
445.320; 1435.600;  225.475;    0.000
445.368; 1441.600;  249.475;    0.000
445.415; 1435.600;  243.475;    0.000
445.463; 1386.600;  242.475;    0.000
445.511; 1415.600;  248.475;    0.000
445.559; 1450.600;  219.475;    0.000
445.606; 1407.600;  221.475;    0.000
445.654; 1392.600;  202.475;    0.000
445.702; 1417.600;  210.475;    0.000
445.749; 1520.600;  249.475;    0.000
445.797; 1447.600;  206.475;    0.000
445.845; 1416.600;  213.475;    0.000
445.892; 1466.600;  224.475;    0.000
445.940; 1377.600;  214.475;    0.000
445.988; 1496.600;  247.475;    0.000
446.035; 1384.600;  204.475;    0.000
446.083; 1450.600;  235.475;    0.000
446.130; 1407.600;  195.475;    0.000
446.178; 1391.600;  236.475;    0.000
446.226; 1486.600;  218.475;    0.000
446.273; 1426.600;  215.475;    0.000
446.321; 1423.600;  222.475;    0.000
446.368; 1470.600;  228.475;    0.000
446.416; 1430.600;  223.475;    0.000
446.463; 1513.600;  220.475;    0.000
446.511; 1473.600;  198.475;    0.000
446.558; 1466.600;  208.475;    0.000
446.606; 1537.600;  253.475;    0.000
446.653; 1465.600;  198.475;    0.000
446.701; 1503.600;  231.475;    0.000
446.748; 1447.600;  224.475;    0.000
446.796; 1455.600;  201.475;    0.000
446.843; 1519.600;  257.475;    0.000
446.891; 1517.600;  218.475;    0.000
446.938; 1522.600;  232.475;    0.000
446.985; 1506.600;  229.475;    0.000
447.033; 1544.600;  251.475;    0.000
447.080; 1562.600;  257.475;    0.000
447.128; 1563.600;  232.475;    0.000
447.175; 1563.600;  269.475;    0.000
447.222; 1519.600;  185.475;    0.000
447.270; 1584.600;  264.475;    0.000
447.317; 1609.600;  225.475;    0.000
447.364; 1604.600;  243.475;    0.000
447.411; 1616.600;  263.475;    0.000
447.459; 1596.600;  257.475;    0.000
447.506; 1610.600;  175.475;    0.000
447.553; 1623.600;  203.475;    0.000
447.601; 1628.600;  238.475;    0.000
447.648; 1708.600;  244.475;    0.000
447.695; 1660.600;  249.475;    0.000
447.742; 1693.600;  234.475;    0.000
447.789; 1690.600;  228.475;    0.000
447.837; 1618.600;  258.475;    0.000
447.884; 1732.600;  243.475;    0.000
447.931; 1690.600;  235.475;    0.000
447.978; 1753.600;  224.475;    0.000
448.025; 1769.600;  245.475;    0.000
448.072; 1801.600;  212.475;    0.000
448.120; 1816.600;  256.475;    0.000
448.167; 1857.600;  240.475;    0.000
448.214; 1771.600;  247.475;    0.000
448.261; 1737.600;  245.475;    0.000
448.308; 1719.600;  273.475;    0.000
448.355; 1838.600;  257.475;    0.000
448.402; 1667.600;  259.475;    0.000
448.449; 1592.600;  238.475;    0.000
448.496; 1577.600;  245.475;    0.000
448.543; 1562.600;  217.475;    0.000
448.590; 1627.600;  269.475;    0.000
448.637; 1632.600;  250.475;    0.000
448.684; 1562.600;  250.475;    0.000
448.731; 1631.600;  235.475;    0.000
448.778; 1593.600;  265.475;    0.000
448.825; 1522.600;  257.475;    0.000
448.872; 1522.600;  234.475;    0.000
448.919; 1653.600;  216.475;    0.000
448.966; 1540.600;  274.475;    0.000
449.013; 1519.600;  263.475;    0.000
449.060; 1537.600;  247.475;    0.000
449.107; 1455.600;  218.475;    0.000
449.154; 1409.600;  225.475;    0.000
449.200; 1512.600;  212.475;    0.000
449.247; 1466.600;  242.475;    0.000
449.294; 1477.600;  228.475;    0.000
449.341; 1502.600;  232.475;    0.000
449.388; 1461.600;  247.475;    0.000
449.435; 1430.600;  227.475;    0.000
449.481; 1439.600;  270.475;    0.000
449.528; 1471.600;  265.475;    0.000
449.575; 1465.600;  255.475;    0.000
449.622; 1371.600;  210.475;    0.000
449.668; 1429.600;  234.475;    0.000
449.715; 1428.600;  262.475;    0.000
449.762; 1344.600;  247.475;    0.000
449.809; 1397.600;  286.475;    0.000
449.855; 1504.600;  246.475;    0.000
449.902; 1461.600;  224.475;    0.000
449.949; 1444.600;  244.475;    0.000
449.995; 1454.600;  274.475;    0.000
450.042; 1397.600;  272.475;    0.000
450.089; 1360.600;  274.475;    0.000
450.135; 1447.600;  285.475;    0.000
450.182; 1354.600;  251.475;    0.000
450.229; 1397.600;  242.475;    0.000
450.275; 1413.600;  277.475;    0.000
450.322; 1404.600;  260.475;    0.000
450.368; 1378.600;  257.475;    0.000
450.415; 1435.600;  276.475;    0.000
450.462; 1383.600;  298.475;    0.000
450.508; 1373.600;  255.475;    0.000
450.555; 1338.600;  271.475;    0.000
450.601; 1411.600;  281.475;    0.000
450.648; 1356.600;  249.475;    0.000
450.694; 1350.600;  270.475;    0.000
450.741; 1413.600;  256.475;    0.000
450.787; 1359.600;  292.475;    0.000
450.834; 1372.600;  221.475;    0.000
450.880; 1316.600;  265.475;    0.000
450.927; 1281.600;  242.475;    0.000
450.973; 1389.600;  259.475;    0.000
451.019; 1306.600;  221.475;    0.000
451.066; 1352.600;  257.475;    0.000
451.112; 1364.600;  251.475;    0.000
451.159; 1329.600;  278.475;    0.000
451.205; 1339.600;  274.475;    0.000
451.251; 1365.600;  281.475;    0.000
451.298; 1330.600;  273.475;    0.000
451.344; 1330.600;  246.475;    0.000
451.390; 1367.600;  286.475;    0.000
451.437; 1346.600;  268.475;    0.000
451.483; 1359.600;  315.475;    0.000
451.529; 1315.600;  251.475;    0.000
451.576; 1349.600;  306.475;    0.000
451.622; 1316.600;  234.475;    0.000
451.668; 1289.600;  243.475;    0.000
451.714; 1316.600;  256.475;    0.000
451.761; 1338.600;  264.475;    0.000
451.807; 1383.600;  284.475;    0.000
451.853; 1306.600;  282.475;    0.000
451.899; 1361.600;  240.475;    0.000
451.945; 1274.600;  263.475;    0.000
451.992; 1321.600;  255.475;    0.000
452.038; 1314.600;  273.475;    0.000
452.084; 1361.600;  274.475;    0.000
452.130; 1321.600;  261.475;    0.000
452.176; 1315.600;  246.475;    0.000
452.222; 1319.600;  238.475;    0.000
452.268; 1285.600;  267.475;    0.000
452.315; 1307.600;  274.475;    0.000
452.361; 1241.600;  241.475;    0.000
452.407; 1310.600;  274.475;    0.000
452.453; 1280.600;  260.475;    0.000
452.499; 1285.600;  232.475;    0.000
452.545; 1280.600;  252.475;    0.000
452.591; 1339.600;  263.475;    0.000
452.637; 1311.600;  208.475;    0.000
452.683; 1302.600;  237.475;    0.000
452.729; 1269.600;  263.475;    0.000
452.775; 1294.600;  291.475;    0.000
452.821; 1290.600;  238.475;    0.000
452.867; 1254.600;  223.475;    0.000
452.913; 1311.600;  257.475;    0.000
452.959; 1261.600;  238.475;    0.000
453.005; 1355.600;  252.475;    0.000
453.051; 1243.600;  260.475;    0.000
453.097; 1303.600;  268.475;    0.000
453.142; 1200.600;  231.475;    0.000
453.188; 1297.600;  266.475;    0.000
453.234; 1318.600;  233.475;    0.000
453.280; 1244.600;  219.475;    0.000
453.326; 1248.600;  265.475;    0.000
453.372; 1242.600;  238.475;    0.000
453.418; 1239.600;  240.475;    0.000
453.463; 1223.600;  219.475;    0.000
453.509; 1304.600;  264.475;    0.000
453.555; 1278.600;  247.475;    0.000
453.601; 1199.600;  230.475;    0.000
453.647; 1318.600;  285.475;    0.000
453.692; 1186.600;  240.475;    0.000
453.738; 1250.600;  233.475;    0.000
453.784; 1185.600;  230.475;    0.000
453.829; 1236.600;  246.475;    0.000
453.875; 1223.600;  261.475;    0.000
453.921; 1225.600;  203.475;    0.000
453.967; 1239.600;  241.475;    0.000
454.012; 1273.600;  250.475;    0.000
454.058; 1224.600;  252.475;    0.000
454.104; 1270.600;  239.475;    0.000
454.149; 1183.600;  250.475;    0.000
454.195; 1226.600;  243.475;    0.000
454.240; 1273.600;  252.475;    0.000
454.286; 1188.600;  245.475;    0.000
454.332; 1285.600;  286.475;    0.000
454.377; 1228.600;  254.475;    0.000
454.423; 1211.600;  246.475;    0.000
454.468; 1223.600;  235.475;    0.000
454.514; 1234.600;  231.475;    0.000
454.559; 1265.600;  246.475;    0.000
454.605; 1256.600;  204.475;    0.000
454.650; 1250.600;  272.475;    0.000
454.696; 1240.600;  222.475;    0.000
454.741; 1245.600;  290.475;    0.000
454.787; 1255.600;  262.475;    0.000
454.832; 1182.600;  227.475;    0.000
454.878; 1265.600;  241.475;    0.000
454.923; 1228.600;  272.475;    0.000
454.969; 1219.600;  290.475;    0.000
455.014; 1254.600;  278.475;    0.000
455.060; 1293.600;  246.475;    0.000
455.105; 1305.600;  231.475;    0.000
455.150; 1250.600;  265.475;    0.000
455.196; 1246.600;  266.475;    0.000
455.241; 1283.600;  258.475;    0.000
455.286; 1239.600;  266.475;    0.000
455.332; 1231.600;  252.475;    0.000
455.377; 1189.600;  219.475;    0.000
455.422; 1235.600;  262.475;    0.000
455.468; 1186.600;  260.475;    0.000
455.513; 1226.600;  212.475;    0.000
455.558; 1214.600;  197.475;    0.000
455.604; 1211.600;  262.475;    0.000
455.649; 1236.600;  238.475;    0.000
455.694; 1241.600;  221.475;    0.000
455.739; 1265.600;  251.475;    0.000
455.785; 1221.600;  287.475;    0.000
455.830; 1226.600;  284.475;    0.000
455.875; 1192.600;  234.475;    0.000
455.920; 1151.600;  215.475;    0.000
455.965; 1225.600;  256.475;    0.000
456.010; 1299.600;  266.475;    0.000
456.056; 1277.600;  263.475;    0.000
456.101; 1162.600;  240.475;    0.000
456.146; 1252.600;  258.475;    0.000
456.191; 1307.600;  241.475;    0.000
456.236; 1210.600;  252.475;    0.000
456.281; 1205.600;  218.475;    0.000
456.326; 1277.600;  251.475;    0.000
456.371; 1282.600;  256.475;    0.000
456.416; 1268.600;  301.475;    0.000
456.461; 1229.600;  233.475;    0.000
456.507; 1211.600;  218.475;    0.000
456.552; 1241.600;  278.475;    0.000
456.597; 1233.600;  223.475;    0.000
456.642; 1334.600;  203.475;    0.000
456.687; 1283.600;  245.475;    0.000
456.732; 1258.600;  256.475;    0.000
456.776; 1293.600;  244.475;    0.000
456.821; 1239.600;  276.475;    0.000
456.866; 1345.600;  232.475;    0.000
456.911; 1246.600;  225.475;    0.000
456.956; 1303.600;  237.475;    0.000
457.001; 1267.600;  261.475;    0.000
457.046; 1254.600;  205.475;    0.000
457.091; 1255.600;  241.475;    0.000
457.136; 1195.600;  217.475;    0.000
457.181; 1246.600;  251.475;    0.000
457.225; 1280.600;  241.475;    0.000
457.270; 1285.600;  237.475;    0.000
457.315; 1262.600;  279.475;    0.000
457.360; 1196.600;  245.475;    0.000
457.405; 1237.600;  202.475;    0.000
457.450; 1256.600;  247.475;    0.000
457.494; 1261.600;  243.475;    0.000
457.539; 1253.600;  222.475;    0.000
457.584; 1216.600;  239.475;    0.000
457.629; 1201.600;  236.475;    0.000
457.673; 1254.600;  234.475;    0.000
457.718; 1227.600;  202.475;    0.000
457.763; 1231.600;  274.475;    0.000
457.807; 1324.600;  236.475;    0.000
457.852; 1247.600;  265.475;    0.000
457.897; 1247.600;  252.475;    0.000
457.941; 1304.600;  264.475;    0.000
457.986; 1290.600;  280.475;    0.000
458.031; 1288.600;  217.475;    0.000
458.075; 1268.600;  249.475;    0.000
458.120; 1328.600;  257.475;    0.000
458.165; 1284.600;  183.475;    0.000
458.209; 1271.600;  245.475;    0.000
458.254; 1238.600;  245.475;    0.000
458.298; 1292.600;  265.475;    0.000
458.343; 1252.600;  241.475;    0.000
458.387; 1312.600;  262.475;    0.000
458.432; 1302.600;  245.475;    0.000
458.476; 1329.600;  255.475;    0.000
458.521; 1296.600;  269.475;    0.000
458.565; 1300.600;  265.475;    0.000
458.610; 1304.600;  222.475;    0.000
458.654; 1323.600;  257.475;    0.000
458.699; 1263.600;  296.475;    0.000
458.743; 1282.600;  203.475;    0.000
458.788; 1310.600;  267.475;    0.000
458.832; 1360.600;  274.475;    0.000
458.877; 1356.600;  251.475;    0.000
458.921; 1312.600;  237.475;    0.000
458.965; 1305.600;  264.475;    0.000
459.010; 1331.600;  256.475;    0.000
459.054; 1368.600;  280.475;    0.000
459.099; 1310.600;  240.475;    0.000
459.143; 1324.600;  287.475;    0.000
459.187; 1331.600;  257.475;    0.000
459.231; 1358.600;  273.475;    0.000
459.276; 1364.600;  231.475;    0.000
459.320; 1319.600;  261.475;    0.000
459.364; 1294.600;  278.475;    0.000
459.409; 1302.600;  249.475;    0.000
459.453; 1305.600;  235.475;    0.000
459.497; 1364.600;  262.475;    0.000
459.541; 1346.600;  269.475;    0.000
459.586; 1313.600;  240.475;    0.000
459.630; 1379.600;  261.475;    0.000
459.674; 1335.600;  276.475;    0.000
459.718; 1346.600;  236.475;    0.000
459.762; 1361.600;  263.475;    0.000
459.807; 1359.600;  263.475;    0.000
459.851; 1406.600;  225.475;    0.000
459.895; 1338.600;  247.475;    0.000
459.939; 1337.600;  231.475;    0.000
459.983; 1319.600;  242.475;    0.000
460.027; 1348.600;  248.475;    0.000
460.071; 1363.600;  273.475;    0.000
460.115; 1327.600;  282.475;    0.000
460.159; 1383.600;  264.475;    0.000
460.204; 1380.600;  288.475;    0.000
460.248; 1420.600;  293.475;    0.000
460.292; 1424.600;  277.475;    0.000
460.336; 1384.600;  250.475;    0.000
460.380; 1326.600;  275.475;    0.000
460.424; 1402.600;  243.475;    0.000
460.468; 1414.600;  277.475;    0.000
460.512; 1392.600;  261.475;    0.000
460.556; 1432.600;  266.475;    0.000
460.599; 1347.600;  246.475;    0.000
460.643; 1313.600;  256.475;    0.000
460.687; 1363.600;  257.475;    0.000
460.731; 1318.600;  235.475;    0.000
460.775; 1384.600;  278.475;    0.000
460.819; 1460.600;  268.475;    0.000
460.863; 1399.600;  257.475;    0.000
460.907; 1394.600;  213.475;    0.000
460.951; 1357.600;  274.475;    0.000
460.995; 1406.600;  258.475;    0.000
461.038; 1450.600;  219.475;    0.000
461.082; 1384.600;  253.475;    0.000
461.126; 1359.600;  281.475;    0.000
461.170; 1379.600;  244.475;    0.000
461.214; 1359.600;  262.475;    0.000
461.257; 1371.600;  284.475;    0.000
461.301; 1436.600;  275.475;    0.000
461.345; 1410.600;  267.475;    0.000
461.389; 1378.600;  255.475;    0.000
461.432; 1374.600;  282.475;    0.000
461.476; 1370.600;  263.475;    0.000
461.520; 1466.600;  260.475;    0.000
461.563; 1441.600;  278.475;    0.000
461.607; 1321.600;  236.475;    0.000
461.651; 1399.600;  262.475;    0.000
461.694; 1305.600;  236.475;    0.000
461.738; 1345.600;  295.475;    0.000
461.782; 1399.600;  252.475;    0.000
461.825; 1433.600;  271.475;    0.000
461.869; 1410.600;  278.475;    0.000
461.913; 1421.600;  255.475;    0.000
461.956; 1465.600;  254.475;    0.000
462.000; 1460.600;  299.475;    0.000
462.043; 1457.600;  282.475;    0.000
462.087; 1457.600;  274.475;    0.000
462.130; 1529.600;  270.475;    0.000
462.174; 1415.600;  274.475;    0.000
462.217; 1412.600;  272.475;    0.000
462.261; 1503.600;  286.475;    0.000
462.304; 1373.600;  236.475;    0.000
462.348; 1401.600;  262.475;    0.000
462.391; 1406.600;  244.475;    0.000
462.435; 1520.600;  321.475;    0.000
462.478; 1424.600;  230.475;    0.000
462.522; 1435.600;  245.475;    0.000
462.565; 1499.600;  278.475;    0.000
462.608; 1553.600;  303.475;    0.000
462.652; 1512.600;  275.475;    0.000
462.695; 1508.600;  314.475;    0.000
462.739; 1452.600;  307.475;    0.000
462.782; 1460.600;  286.475;    0.000
462.825; 1463.600;  312.475;    0.000
462.869; 1510.600;  338.475;    0.000
462.912; 1548.600;  304.475;    0.000
462.955; 1518.600;  288.475;    0.000
462.998; 1528.600;  292.475;    0.000
463.042; 1536.600;  309.475;    0.000
463.085; 1489.600;  292.475;    0.000
463.128; 1514.600;  317.475;    0.000
463.172; 1445.600;  287.475;    0.000
463.215;  390.600;  313.475;    0.000
463.258;  322.600;  295.475;    0.000
463.301;  289.600;  275.475;    0.000
463.344;  333.600;  311.475;    0.000
463.388;  325.600;  296.475;    0.000
463.431;  321.600;  277.475;    0.000
463.474;  337.600;  364.475;    0.000
463.517;  331.600;  306.475;    0.000
463.560;  313.600;  308.475;    0.000
463.603;  355.600;  343.475;    0.000
463.646;  323.600;  309.475;    0.000
463.690;  301.600;  309.475;    0.000
463.733;  328.600;  320.475;    0.000
463.776;  319.600;  299.475;    0.000
463.819;  354.600;  320.475;    0.000
463.862;  268.600;  283.475;    0.000

