
Integration time [ms]:   1.000
Averaging Nr. [scans]: 1
Smoothing Nr. [pixels]: 0
Data measured with spectrometer [name]: NIR
Wave   ;Sample   ;Dark     ;Reference
[nm]   ;[counts] ;[counts] ;[counts] 

691.496; -123.200;  163.125;    0.000
691.696;  -68.200;  208.125;    0.000
691.896;  -87.200;  111.125;    0.000
692.096;  -72.200;  178.125;    0.000
692.296; -125.200;   93.125;    0.000
692.496; -104.200;  161.125;    0.000
692.695;  -93.200;  135.125;    0.000
692.895;  -62.200;  179.125;    0.000
693.095; -115.200;  158.125;    0.000
693.295;  -63.200;  168.125;    0.000
693.495;  -73.200;  170.125;    0.000
693.695; -107.200;  155.125;    0.000
693.894;  -84.200;  151.125;    0.000
694.094;  -76.200;  164.125;    0.000
694.294;  -60.200;  129.125;    0.000
694.494;   98.800;  170.125;    0.000
694.693; 1457.800;  137.125;    0.000
694.893; 1660.800;  163.125;    0.000
695.093; 1638.800;  121.125;    0.000
695.293; 1624.800;  144.125;    0.000
695.492; 1582.800;   88.125;    0.000
695.692; 1687.800;  148.125;    0.000
695.891; 1635.800;  125.125;    0.000
696.091; 1730.800;  184.125;    0.000
696.291; 1671.800;  153.125;    0.000
696.490; 1646.800;  131.125;    0.000
696.690; 1672.800;  123.125;    0.000
696.889; 1650.800;  180.125;    0.000
697.089; 1676.800;  147.125;    0.000
697.288; 1714.800;  164.125;    0.000
697.488; 1746.800;  133.125;    0.000
697.687; 1699.800;  153.125;    0.000
697.887; 1662.800;  119.125;    0.000
698.086; 1713.800;  143.125;    0.000
698.286; 1730.800;  125.125;    0.000
698.485; 1796.800;  120.125;    0.000
698.684; 1674.800;  116.125;    0.000
698.884; 1744.800;  131.125;    0.000
699.083; 1707.800;  115.125;    0.000
699.282; 1706.800;  144.125;    0.000
699.482; 1685.800;  109.125;    0.000
699.681; 1756.800;  115.125;    0.000
699.880; 1755.800;  125.125;    0.000
700.080; 1748.800;  139.125;    0.000
700.279; 1686.800;  111.125;    0.000
700.478; 1805.800;  146.125;    0.000
700.677; 1765.800;  131.125;    0.000
700.877; 1772.800;  156.125;    0.000
701.076; 1787.800;  153.125;    0.000
701.275; 1776.800;  123.125;    0.000
701.474; 1767.800;  150.125;    0.000
701.673; 1723.800;   97.125;    0.000
701.872; 1717.800;  139.125;    0.000
702.071; 1714.800;  108.125;    0.000
702.271; 1753.800;  125.125;    0.000
702.470; 1798.800;  108.125;    0.000
702.669; 1768.800;  102.125;    0.000
702.868; 1863.800;  153.125;    0.000
703.067; 1794.800;  145.125;    0.000
703.266; 1751.800;   96.125;    0.000
703.465; 1798.800;  165.125;    0.000
703.664; 1773.800;  106.125;    0.000
703.863; 1780.800;  144.125;    0.000
704.062; 1766.800;   86.125;    0.000
704.260; 1832.800;   99.125;    0.000
704.459; 1848.800;  112.125;    0.000
704.658; 1847.800;  106.125;    0.000
704.857; 1851.800;  129.125;    0.000
705.056; 1736.800;   98.125;    0.000
705.255; 1851.800;   97.125;    0.000
705.454; 1703.800;  101.125;    0.000
705.652; 1812.800;  142.125;    0.000
705.851; 1754.800;  100.125;    0.000
706.050; 1749.800;  162.125;    0.000
706.249; 1768.800;  146.125;    0.000
706.447; 1760.800;  120.125;    0.000
706.646; 1743.800;  114.125;    0.000
706.845; 1794.800;  117.125;    0.000
707.043; 1799.800;  136.125;    0.000
707.242; 1787.800;   90.125;    0.000
707.441; 1801.800;  131.125;    0.000
707.639; 1798.800;  120.125;    0.000
707.838; 1852.800;  122.125;    0.000
708.037; 1834.800;  109.125;    0.000
708.235; 1774.800;  122.125;    0.000
708.434; 1821.800;  109.125;    0.000
708.632; 1824.800;   47.125;    0.000
708.831; 1885.800;  122.125;    0.000
709.029; 1900.800;  130.125;    0.000
709.228; 1834.800;  112.125;    0.000
709.426; 1869.800;  128.125;    0.000
709.625; 1881.800;  129.125;    0.000
709.823; 1801.800;  130.125;    0.000
710.022; 1837.800;   90.125;    0.000
710.220; 1896.800;  131.125;    0.000
710.418; 1907.800;  133.125;    0.000
710.617; 1845.800;   82.125;    0.000
710.815; 1911.800;   90.125;    0.000
711.013; 1891.800;   86.125;    0.000
711.212; 1939.800;  117.125;    0.000
711.410; 1862.800;  106.125;    0.000
711.608; 1881.800;  138.125;    0.000
711.807; 1878.800;  116.125;    0.000
712.005; 1892.800;   82.125;    0.000
712.203; 1874.800;   90.125;    0.000
712.401; 1886.800;  124.125;    0.000
712.599; 1953.800;   64.125;    0.000
712.798; 1952.800;  113.125;    0.000
712.996; 1927.800;  100.125;    0.000
713.194; 1846.800;  130.125;    0.000
713.392; 1976.800;   89.125;    0.000
713.590; 1903.800;  105.125;    0.000
713.788; 1985.800;  100.125;    0.000
713.986; 2036.800;  117.125;    0.000
714.184; 1986.800;   72.125;    0.000
714.382; 2041.800;   88.125;    0.000
714.580; 2000.800;   88.125;    0.000
714.778; 2019.800;  129.125;    0.000
714.976; 2081.800;   90.125;    0.000
715.174; 2030.800;  119.125;    0.000
715.372; 2213.800;  117.125;    0.000
715.570; 2175.800;  101.125;    0.000
715.768; 2264.800;  122.125;    0.000
715.966; 2299.800;  114.125;    0.000
716.164; 2376.800;  135.125;    0.000
716.362; 2283.800;  126.125;    0.000
716.560; 2262.800;  126.125;    0.000
716.758; 2161.800;   98.125;    0.000
716.955; 2148.800;   76.125;    0.000
717.153; 2259.800;   45.125;    0.000
717.351; 2160.800;  106.125;    0.000
717.549; 2198.800;  108.125;    0.000
717.746; 2097.800;   66.125;    0.000
717.944; 2201.800;  127.125;    0.000
718.142; 2226.800;  148.125;    0.000
718.340; 2109.800;   94.125;    0.000
718.537; 2140.800;  107.125;    0.000
718.735; 2161.800;  130.125;    0.000
718.933; 2237.800;  111.125;    0.000
719.130; 2128.800;  107.125;    0.000
719.328; 2145.800;  128.125;    0.000
719.525; 2139.800;  141.125;    0.000
719.723; 2187.800;  122.125;    0.000
719.920; 2103.800;   85.125;    0.000
720.118; 2131.800;  115.125;    0.000
720.316; 2155.800;  153.125;    0.000
720.513; 2078.800;  120.125;    0.000
720.711; 2146.800;  134.125;    0.000
720.908; 2164.800;  126.125;    0.000
721.105; 2204.800;  119.125;    0.000
721.303; 2074.800;  112.125;    0.000
721.500; 1992.800;  125.125;    0.000
721.698; 2196.800;   94.125;    0.000
721.895; 2175.800;  118.125;    0.000
722.092; 2119.800;   77.125;    0.000
722.290; 2092.800;  135.125;    0.000
722.487; 2129.800;  154.125;    0.000
722.684; 2125.800;  122.125;    0.000
722.882; 2220.800;   90.125;    0.000
723.079; 2154.800;  132.125;    0.000
723.276; 2065.800;   95.125;    0.000
723.473; 2137.800;  106.125;    0.000
723.671; 2121.800;   80.125;    0.000
723.868; 2139.800;  112.125;    0.000
724.065; 2098.800;  107.125;    0.000
724.262; 2135.800;  119.125;    0.000
724.459; 2109.800;   80.125;    0.000
724.656; 2121.800;  109.125;    0.000
724.854; 2216.800;  107.125;    0.000
725.051; 2236.800;  103.125;    0.000
725.248; 2186.800;  101.125;    0.000
725.445; 2175.800;   93.125;    0.000
725.642; 2145.800;   92.125;    0.000
725.839; 2165.800;  157.125;    0.000
726.036; 2101.800;   71.125;    0.000
726.233; 2100.800;   80.125;    0.000
726.430; 2182.800;  146.125;    0.000
726.627; 2169.800;  103.125;    0.000
726.824; 2207.800;   46.125;    0.000
727.021; 2243.800;  149.125;    0.000
727.218; 2153.800;   87.125;    0.000
727.414; 2238.800;  112.125;    0.000
727.611; 2181.800;  111.125;    0.000
727.808; 2156.800;  122.125;    0.000
728.005; 2178.800;   58.125;    0.000
728.202; 2267.800;  129.125;    0.000
728.399; 2290.800;  111.125;    0.000
728.595; 2215.800;   93.125;    0.000
728.792; 2235.800;   78.125;    0.000
728.989; 2254.800;  104.125;    0.000
729.186; 2250.800;  110.125;    0.000
729.382; 2204.800;   93.125;    0.000
729.579; 2270.800;  102.125;    0.000
729.776; 2234.800;  112.125;    0.000
729.972; 2232.800;  101.125;    0.000
730.169; 2230.800;  150.125;    0.000
730.366; 2251.800;   92.125;    0.000
730.562; 2260.800;   74.125;    0.000
730.759; 2190.800;   97.125;    0.000
730.955; 2209.800;   86.125;    0.000
731.152; 2274.800;   88.125;    0.000
731.348; 2172.800;  117.125;    0.000
731.545; 2113.800;   62.125;    0.000
731.741; 2140.800;   84.125;    0.000
731.938; 2287.800;  108.125;    0.000
732.134; 2256.800;  115.125;    0.000
732.331; 2229.800;   88.125;    0.000
732.527; 2275.800;   96.125;    0.000
732.724; 2327.800;  103.125;    0.000
732.920; 2356.800;   93.125;    0.000
733.116; 2293.800;  109.125;    0.000
733.313; 2301.800;   77.125;    0.000
733.509; 2224.800;   81.125;    0.000
733.705; 2214.800;  141.125;    0.000
733.902; 2193.800;   88.125;    0.000
734.098; 2285.800;   56.125;    0.000
734.294; 2369.800;  122.125;    0.000
734.490; 2317.800;  102.125;    0.000
734.687; 2324.800;   70.125;    0.000
734.883; 2289.800;   73.125;    0.000
735.079; 2237.800;   65.125;    0.000
735.275; 2291.800;  112.125;    0.000
735.471; 2427.800;  124.125;    0.000
735.667; 2327.800;   94.125;    0.000
735.863; 2265.800;  106.125;    0.000
736.060; 2323.800;  106.125;    0.000
736.256; 2258.800;   95.125;    0.000
736.452; 2232.800;  103.125;    0.000
736.648; 2288.800;  106.125;    0.000
736.844; 2301.800;   98.125;    0.000
737.040; 2390.800;  118.125;    0.000
737.236; 2332.800;   95.125;    0.000
737.432; 2323.800;   59.125;    0.000
737.628; 2307.800;  120.125;    0.000
737.824; 2365.800;   78.125;    0.000
738.019; 2314.800;   98.125;    0.000
738.215; 2389.800;  127.125;    0.000
738.411; 2340.800;  111.125;    0.000
738.607; 2350.800;   69.125;    0.000
738.803; 2285.800;   40.125;    0.000
738.999; 2420.800;  128.125;    0.000
739.195; 2425.800;   81.125;    0.000
739.390; 2417.800;   97.125;    0.000
739.586; 2350.800;  100.125;    0.000
739.782; 2403.800;  135.125;    0.000
739.978; 2415.800;  121.125;    0.000
740.173; 2387.800;   92.125;    0.000
740.369; 2489.800;   92.125;    0.000
740.565; 2376.800;  119.125;    0.000
740.760; 2528.800;  139.125;    0.000
740.956; 2394.800;  134.125;    0.000
741.152; 2486.800;  107.125;    0.000
741.347; 2503.800;   63.125;    0.000
741.543; 2493.800;   99.125;    0.000
741.738; 2607.800;  119.125;    0.000
741.934; 2620.800;  156.125;    0.000
742.129; 2824.800;   87.125;    0.000
742.325; 3012.800;  143.125;    0.000
742.520; 3131.800;  109.125;    0.000
742.716; 3072.800;  135.125;    0.000
742.911; 2873.800;   77.125;    0.000
743.107; 2885.800;  117.125;    0.000
743.302; 2781.800;   93.125;    0.000
743.498; 2902.800;  118.125;    0.000
743.693; 2905.800;   95.125;    0.000
743.888; 3103.800;  122.125;    0.000
744.084; 3339.800;  104.125;    0.000
744.279; 3863.800;   94.125;    0.000
744.474; 3968.800;  138.125;    0.000
744.670; 3691.800;  113.125;    0.000
744.865; 3514.800;  116.125;    0.000
745.060; 3274.800;   89.125;    0.000
745.255; 3222.800;  144.125;    0.000
745.451; 3263.800;   98.125;    0.000
745.646; 3050.800;  110.125;    0.000
745.841; 3130.800;   87.125;    0.000
746.036; 3124.800;   98.125;    0.000
746.231; 3250.800;  153.125;    0.000
746.426; 3276.800;   90.125;    0.000
746.622; 3666.800;  154.125;    0.000
746.817; 4506.800;  111.125;    0.000
747.012; 4957.800;  110.125;    0.000
747.207; 4584.800;   76.125;    0.000
747.402; 4255.800;   94.125;    0.000
747.597; 3892.800;   68.125;    0.000
747.792; 3750.800;  125.125;    0.000
747.987; 3681.800;   92.125;    0.000
748.182; 3579.800;  113.125;    0.000
748.377; 3392.800;   72.125;    0.000
748.572; 3387.800;  135.125;    0.000
748.767; 3210.800;   98.125;    0.000
748.961; 3101.800;  123.125;    0.000
749.156; 3072.800;   96.125;    0.000
749.351; 3031.800;  121.125;    0.000
749.546; 2988.800;   95.125;    0.000
749.741; 2900.800;  144.125;    0.000
749.936; 2925.800;  105.125;    0.000
750.130; 2893.800;  101.125;    0.000
750.325; 2850.800;  126.125;    0.000
750.520; 2829.800;  113.125;    0.000
750.715; 2815.800;  135.125;    0.000
750.909; 2795.800;  138.125;    0.000
751.104; 2717.800;   96.125;    0.000
751.299; 2852.800;  118.125;    0.000
751.493; 2743.800;  124.125;    0.000
751.688; 2744.800;  131.125;    0.000
751.882; 2740.800;   96.125;    0.000
752.077; 2679.800;  123.125;    0.000
752.272; 2739.800;  112.125;    0.000
752.466; 2678.800;  143.125;    0.000
752.661; 2627.800;  107.125;    0.000
752.855; 2555.800;   97.125;    0.000
753.050; 2660.800;  125.125;    0.000
753.244; 2676.800;  161.125;    0.000
753.439; 2606.800;  101.125;    0.000
753.633; 2720.800;  129.125;    0.000
753.828; 2604.800;  114.125;    0.000
754.022; 2609.800;  118.125;    0.000
754.216; 2603.800;  126.125;    0.000
754.411; 2580.800;  148.125;    0.000
754.605; 2643.800;  100.125;    0.000
754.799; 2669.800;  146.125;    0.000
754.994; 2607.800;  116.125;    0.000
755.188; 2592.800;  146.125;    0.000
755.382; 2605.800;  103.125;    0.000
755.576; 2566.800;  119.125;    0.000
755.771; 2505.800;  100.125;    0.000
755.965; 2576.800;  129.125;    0.000
756.159; 2501.800;  100.125;    0.000
756.353; 2645.800;  153.125;    0.000
756.547; 2578.800;  113.125;    0.000
756.742; 2551.800;  129.125;    0.000
756.936; 2637.800;   70.125;    0.000
757.130; 2557.800;   91.125;    0.000
757.324; 2543.800;   92.125;    0.000
757.518; 2554.800;  128.125;    0.000
757.712; 2564.800;  146.125;    0.000
757.906; 2457.800;  114.125;    0.000
758.100; 2629.800;  153.125;    0.000
758.294; 2574.800;  133.125;    0.000
758.488; 2658.800;  149.125;    0.000
758.682; 2609.800;  132.125;    0.000
758.876; 2619.800;  128.125;    0.000
759.070; 2671.800;  178.125;    0.000
759.264; 2458.800;   98.125;    0.000
759.458; 2542.800;  168.125;    0.000
759.651; 2565.800;  131.125;    0.000
759.845; 2572.800;  133.125;    0.000
760.039; 2560.800;  120.125;    0.000
760.233; 2564.800;  116.125;    0.000
760.427; 2570.800;  121.125;    0.000
760.620; 2529.800;  163.125;    0.000
760.814; 2575.800;  106.125;    0.000
761.008; 2615.800;  119.125;    0.000
761.202; 2477.800;  121.125;    0.000
761.395; 2562.800;  136.125;    0.000
761.589; 2573.800;  111.125;    0.000
761.783; 2518.800;  116.125;    0.000
761.976; 2536.800;  139.125;    0.000
762.170; 2579.800;  140.125;    0.000
762.363; 2570.800;  115.125;    0.000
762.557; 2431.800;  129.125;    0.000
762.750; 2586.800;   85.125;    0.000
762.944; 2505.800;  107.125;    0.000
763.138; 2512.800;   99.125;    0.000
763.331; 2528.800;   97.125;    0.000
763.524; 2558.800;  100.125;    0.000
763.718; 2632.800;  130.125;    0.000
763.911; 2563.800;  127.125;    0.000
764.105; 2619.800;   69.125;    0.000
764.298; 2583.800;   94.125;    0.000
764.492; 2556.800;  129.125;    0.000
764.685; 2619.800;  114.125;    0.000
764.878; 2564.800;  145.125;    0.000
765.072; 2594.800;  124.125;    0.000
765.265; 2652.800;  124.125;    0.000
765.458; 2569.800;  108.125;    0.000
765.651; 2624.800;  132.125;    0.000
765.845; 2595.800;  106.125;    0.000
766.038; 2722.800;  155.125;    0.000
766.231; 3251.800;  153.125;    0.000
766.424; 4743.800;  165.125;    0.000
766.617; 4853.800;   85.125;    0.000
766.811; 3006.800;  140.125;    0.000
767.004; 2784.800;  151.125;    0.000
767.197; 2770.800;  178.125;    0.000
767.390; 2626.800;  112.125;    0.000
767.583; 2715.800;  134.125;    0.000
767.776; 2694.800;  101.125;    0.000
767.969; 2585.800;   99.125;    0.000
768.162; 2798.800;  152.125;    0.000
768.355; 2748.800;  115.125;    0.000
768.548; 2754.800;  154.125;    0.000
768.741; 2718.800;  124.125;    0.000
768.934; 2665.800;  129.125;    0.000
769.127; 2750.800;  137.125;    0.000
769.320; 2727.800;  115.125;    0.000
769.513; 2814.800;  144.125;    0.000
769.706; 3360.800;  107.125;    0.000
769.898; 4831.800;  134.125;    0.000
770.091; 3586.800;  128.125;    0.000
770.284; 2858.800;   97.125;    0.000
770.477; 2958.800;  135.125;    0.000
770.670; 2909.800;  137.125;    0.000
770.862; 2898.800;  112.125;    0.000
771.055; 2916.800;  127.125;    0.000
771.248; 2934.800;  116.125;    0.000
771.441; 2878.800;  101.125;    0.000
771.633; 2949.800;  130.125;    0.000
771.826; 2906.800;  147.125;    0.000
772.018; 2957.800;  117.125;    0.000
772.211; 2998.800;  141.125;    0.000
772.404; 3004.800;  104.125;    0.000
772.596; 3111.800;  128.125;    0.000
772.789; 3022.800;  131.125;    0.000
772.981; 3125.800;  134.125;    0.000
773.174; 3116.800;  108.125;    0.000
773.366; 3093.800;  153.125;    0.000
773.559; 3164.800;  137.125;    0.000
773.751; 3166.800;  119.125;    0.000
773.944; 3235.800;  148.125;    0.000
774.136; 3329.800;  155.125;    0.000
774.329; 3393.800;  126.125;    0.000
774.521; 3531.800;  116.125;    0.000
774.713; 3644.800;  119.125;    0.000
774.906; 3658.800;  179.125;    0.000
775.098; 3817.800;  127.125;    0.000
775.290; 3971.800;  146.125;    0.000
775.483; 4126.800;  123.125;    0.000
775.675; 4325.800;  119.125;    0.000
775.867; 4676.800;  119.125;    0.000
776.059; 4969.800;  137.125;    0.000
776.251; 5438.800;  154.125;    0.000
776.444; 5982.800;  101.125;    0.000
776.636; 6907.800;  153.125;    0.000
776.828; 8079.800;  127.125;    0.000
777.020;11153.800;  140.125;    0.000
777.212;16124.800;  160.125;    0.000
777.404;17950.801;  170.125;    0.000
777.596;16818.801;  136.125;    0.000
777.788;12896.800;  137.125;    0.000
777.980;10171.800;  129.125;    0.000
778.172; 8411.800;  139.125;    0.000
778.364; 7452.800;  124.125;    0.000
778.556; 6686.800;  163.125;    0.000
778.748; 6049.800;  142.125;    0.000
778.940; 5604.800;  178.125;    0.000
779.132; 5246.800;  159.125;    0.000
779.324; 4699.800;  109.125;    0.000
779.516; 4598.800;  143.125;    0.000
779.708; 4421.800;  158.125;    0.000
779.900; 4133.800;  142.125;    0.000
780.091; 3958.800;  131.125;    0.000
780.283; 3882.800;  176.125;    0.000
780.475; 3710.800;  151.125;    0.000
780.667; 3695.800;  120.125;    0.000
780.859; 3555.800;  134.125;    0.000
781.050; 3496.800;  183.125;    0.000
781.242; 3262.800;   95.125;    0.000
781.434; 3334.800;  127.125;    0.000
781.625; 3204.800;  163.125;    0.000
781.817; 3134.800;  170.125;    0.000
782.008; 3125.800;  123.125;    0.000
782.200; 3064.800;  141.125;    0.000
782.392; 3092.800;  149.125;    0.000
782.583; 3001.800;  155.125;    0.000
782.775; 3004.800;  140.125;    0.000
782.966; 2967.800;  167.125;    0.000
783.158; 2897.800;  164.125;    0.000
783.349; 2997.800;  174.125;    0.000
783.541; 2847.800;  141.125;    0.000
783.732; 2859.800;  115.125;    0.000
783.924; 2818.800;  135.125;    0.000
784.115; 2787.800;  157.125;    0.000
784.306; 2781.800;  102.125;    0.000
784.498; 2758.800;  124.125;    0.000
784.689; 2798.800;  171.125;    0.000
784.880; 2744.800;  165.125;    0.000
785.072; 2668.800;  152.125;    0.000
785.263; 2763.800;  146.125;    0.000
785.454; 2760.800;  145.125;    0.000
785.645; 2724.800;  127.125;    0.000
785.837; 2589.800;  138.125;    0.000
786.028; 2737.800;  151.125;    0.000
786.219; 2654.800;  142.125;    0.000
786.410; 2765.800;  140.125;    0.000
786.601; 2711.800;  137.125;    0.000
786.792; 2705.800;  158.125;    0.000
786.984; 2713.800;  139.125;    0.000
787.175; 2678.800;  140.125;    0.000
787.366; 2697.800;  145.125;    0.000
787.557; 2700.800;  156.125;    0.000
787.748; 2653.800;  148.125;    0.000
787.939; 2675.800;  157.125;    0.000
788.130; 2658.800;  179.125;    0.000
788.321; 2641.800;  142.125;    0.000
788.512; 2819.800;  167.125;    0.000
788.703; 2793.800;  145.125;    0.000
788.894; 2812.800;  132.125;    0.000
789.084; 2784.800;  113.125;    0.000
789.275; 2675.800;  134.125;    0.000
789.466; 2680.800;  151.125;    0.000
789.657; 2685.800;  138.125;    0.000
789.848; 2725.800;  145.125;    0.000
790.039; 2711.800;  130.125;    0.000
790.229; 2788.800;  140.125;    0.000
790.420; 2751.800;  135.125;    0.000
790.611; 2753.800;  156.125;    0.000
790.801; 2791.800;   64.125;    0.000
790.992; 2866.800;  150.125;    0.000
791.183; 2777.800;  177.125;    0.000
791.373; 2680.800;   91.125;    0.000
791.564; 2737.800;   85.125;    0.000
791.755; 2676.800;  125.125;    0.000
791.945; 2738.800;   94.125;    0.000
792.136; 2711.800;   98.125;    0.000
792.326; 2715.800;  105.125;    0.000
792.517; 2677.800;  136.125;    0.000
792.707; 2733.800;  140.125;    0.000
792.898; 2786.800;  164.125;    0.000
793.088; 2792.800;  116.125;    0.000
793.279; 2846.800;  112.125;    0.000
793.469; 2803.800;  105.125;    0.000
793.660; 2873.800;  161.125;    0.000
793.850; 2824.800;  133.125;    0.000
794.040; 2979.800;  121.125;    0.000
794.231; 2914.800;  115.125;    0.000
794.421; 3176.800;  152.125;    0.000
794.611; 3435.800;  132.125;    0.000
794.802; 3851.800;  144.125;    0.000
794.992; 3966.800;  142.125;    0.000
795.182; 4156.800;  179.125;    0.000
795.372; 3957.800;  167.125;    0.000
795.563; 3710.800;  149.125;    0.000
795.753; 3522.800;  117.125;    0.000
795.943; 3240.800;  146.125;    0.000
796.133; 3087.800;  119.125;    0.000
796.323; 3127.800;  141.125;    0.000
796.513; 3034.800;  134.125;    0.000
796.703; 2906.800;  116.125;    0.000
796.893; 2855.800;  120.125;    0.000
797.083; 2972.800;  131.125;    0.000
797.273; 2812.800;  118.125;    0.000
797.463; 2738.800;  130.125;    0.000
797.653; 2684.800;   87.125;    0.000
797.843; 2756.800;  123.125;    0.000
798.033; 2647.800;  115.125;    0.000
798.223; 2601.800;  142.125;    0.000
798.413; 2594.800;  148.125;    0.000
798.603; 2493.800;  147.125;    0.000
798.793; 2477.800;  107.125;    0.000
798.983; 2432.800;  121.125;    0.000
799.172; 2499.800;  120.125;    0.000
799.362; 2366.800;  145.125;    0.000
799.552; 2379.800;  101.125;    0.000
799.742; 2405.800;  149.125;    0.000
799.932; 2415.800;  104.125;    0.000
800.121; 2376.800;  175.125;    0.000
800.311; 2336.800;  132.125;    0.000
800.501; 2384.800;  118.125;    0.000
800.690; 2395.800;  162.125;    0.000
800.880; 2292.800;  141.125;    0.000
801.070; 2297.800;  151.125;    0.000
801.259; 2315.800;  167.125;    0.000
801.449; 2379.800;  108.125;    0.000
801.638; 2304.800;  176.125;    0.000
801.828; 2261.800;  118.125;    0.000
802.017; 2269.800;  179.125;    0.000
802.207; 2248.800;  127.125;    0.000
802.396; 2316.800;  167.125;    0.000
802.586; 2279.800;  129.125;    0.000
802.775; 2259.800;  142.125;    0.000
802.965; 2153.800;  147.125;    0.000
803.154; 2251.800;  179.125;    0.000
803.343; 2239.800;  117.125;    0.000
803.533; 2222.800;  120.125;    0.000
803.722; 2238.800;  122.125;    0.000
803.911; 2187.800;  155.125;    0.000
804.101; 2208.800;  147.125;    0.000
804.290; 2174.800;  160.125;    0.000
804.479; 2172.800;  139.125;    0.000
804.668; 2154.800;  180.125;    0.000
804.857; 2102.800;  131.125;    0.000
805.047; 2049.800;  119.125;    0.000
805.236; 2176.800;  139.125;    0.000
805.425; 2273.800;  163.125;    0.000
805.614; 2206.800;  103.125;    0.000
805.803; 2228.800;  133.125;    0.000
805.992; 2131.800;  147.125;    0.000
806.181; 2195.800;  109.125;    0.000
806.370; 2081.800;  133.125;    0.000
806.559; 2128.800;  119.125;    0.000
806.748; 2171.800;  144.125;    0.000
806.937; 2150.800;  147.125;    0.000
807.126; 2048.800;  134.125;    0.000
807.315; 2189.800;  132.125;    0.000
807.504; 2073.800;  141.125;    0.000
807.693; 2158.800;  145.125;    0.000
807.882; 2140.800;   91.125;    0.000
808.071; 2181.800;  116.125;    0.000
808.260; 2071.800;  105.125;    0.000
808.448; 2081.800;  184.125;    0.000
808.637; 2186.800;  146.125;    0.000
808.826; 2083.800;  153.125;    0.000
809.015; 2125.800;  113.125;    0.000
809.203; 2136.800;  166.125;    0.000
809.392; 2151.800;  117.125;    0.000
809.581; 2130.800;  186.125;    0.000
809.770; 2078.800;  122.125;    0.000
809.958; 2161.800;  140.125;    0.000
810.147; 2071.800;  130.125;    0.000
810.335; 2064.800;  112.125;    0.000
810.524; 2092.800;  106.125;    0.000
810.713; 2090.800;  154.125;    0.000
810.901; 2117.800;  131.125;    0.000
811.090; 2118.800;  164.125;    0.000
811.278; 2085.800;  159.125;    0.000
811.467; 2179.800;  194.125;    0.000
811.655; 2194.800;  164.125;    0.000
811.844; 2123.800;  149.125;    0.000
812.032; 2184.800;  169.125;    0.000
812.220; 2141.800;  163.125;    0.000
812.409; 2116.800;  134.125;    0.000
812.597; 2120.800;  165.125;    0.000
812.785; 2178.800;  180.125;    0.000
812.974; 2193.800;  166.125;    0.000
813.162; 2197.800;  171.125;    0.000
813.350; 2195.800;  142.125;    0.000
813.539; 2177.800;  126.125;    0.000
813.727; 2198.800;  153.125;    0.000
813.915; 2131.800;  138.125;    0.000
814.103; 2187.800;  191.125;    0.000
814.291; 2156.800;  142.125;    0.000
814.479; 2163.800;  156.125;    0.000
814.668; 2172.800;  152.125;    0.000
814.856; 2200.800;  150.125;    0.000
815.044; 2184.800;  165.125;    0.000
815.232; 2195.800;  172.125;    0.000
815.420; 2186.800;  147.125;    0.000
815.608; 2187.800;  143.125;    0.000
815.796; 2153.800;  126.125;    0.000
815.984; 2211.800;  152.125;    0.000
816.172; 2162.800;  129.125;    0.000
816.360; 2310.800;  177.125;    0.000
816.548; 2130.800;  141.125;    0.000
816.736; 2241.800;  142.125;    0.000
816.924; 2278.800;  161.125;    0.000
817.111; 2256.800;  138.125;    0.000
817.299; 2448.800;  112.125;    0.000
817.487; 2412.800;  180.125;    0.000
817.675; 2521.800;  138.125;    0.000
817.863; 2614.800;  172.125;    0.000
818.050; 2821.800;  142.125;    0.000
818.238; 3311.800;  151.125;    0.000
818.426; 4131.800;  129.125;    0.000
818.613; 4193.800;  124.125;    0.000
818.801; 4434.800;  209.125;    0.000
818.989; 4329.800;  178.125;    0.000
819.176; 3842.800;  155.125;    0.000
819.364; 4106.800;  174.125;    0.000
819.552; 4483.800;  131.125;    0.000
819.739; 3778.800;  184.125;    0.000
819.927; 3423.800;  132.125;    0.000
820.114; 3280.800;  173.125;    0.000
820.302; 3272.800;  140.125;    0.000
820.489; 3214.800;  133.125;    0.000
820.677; 3256.800;  167.125;    0.000
820.864; 3414.800;  161.125;    0.000
821.052; 3709.800;  134.125;    0.000
821.239; 4119.800;  149.125;    0.000
821.426; 4544.800;  160.125;    0.000
821.614; 5639.800;  143.125;    0.000
821.801; 6084.800;  118.125;    0.000
821.988; 5431.800;  154.125;    0.000
822.176; 5224.800;  112.125;    0.000
822.363; 5479.800;  131.125;    0.000
822.550; 5000.800;  131.125;    0.000
822.737; 4553.800;  104.125;    0.000
822.924; 4284.800;  160.125;    0.000
823.112; 4087.800;  161.125;    0.000
823.299; 3898.800;  169.125;    0.000
823.486; 3697.800;  129.125;    0.000
823.673; 3447.800;  135.125;    0.000
823.860; 3465.800;  169.125;    0.000
824.047; 3504.800;  124.125;    0.000
824.234; 3898.800;  160.125;    0.000
824.421; 3871.800;  114.125;    0.000
824.608; 3564.800;  191.125;    0.000
824.795; 3285.800;  160.125;    0.000
824.982; 3147.800;  139.125;    0.000
825.169; 2878.800;  121.125;    0.000
825.356; 2830.800;  148.125;    0.000
825.543; 2755.800;  167.125;    0.000
825.730; 2595.800;  103.125;    0.000
825.917; 2518.800;  113.125;    0.000
826.104; 2614.800;  188.125;    0.000
826.290; 2378.800;  193.125;    0.000
826.477; 2410.800;  175.125;    0.000
826.664; 2366.800;  151.125;    0.000
826.851; 2244.800;  122.125;    0.000
827.038; 2226.800;  121.125;    0.000
827.224; 2198.800;  124.125;    0.000
827.411; 2186.800;  155.125;    0.000
827.598; 2092.800;  127.125;    0.000
827.784; 2125.800;  140.125;    0.000
827.971; 2178.800;  114.125;    0.000
828.157; 2056.800;  135.125;    0.000
828.344; 2004.800;  173.125;    0.000
828.531; 2055.800;  113.125;    0.000
828.717; 1969.800;  137.125;    0.000
828.904; 2054.800;  158.125;    0.000
829.090; 2105.800;  199.125;    0.000
829.277; 1991.800;  156.125;    0.000
829.463; 2006.800;  154.125;    0.000
829.650; 1945.800;  174.125;    0.000
829.836; 1924.800;  136.125;    0.000
830.022; 1941.800;  143.125;    0.000
830.209; 1932.800;  157.125;    0.000
830.395; 1924.800;  156.125;    0.000
830.581; 1881.800;  148.125;    0.000
830.768; 1881.800;  169.125;    0.000
830.954; 1887.800;  169.125;    0.000
831.140; 1849.800;  124.125;    0.000
831.327; 1957.800;  157.125;    0.000
831.513; 1911.800;  163.125;    0.000
831.699; 1899.800;  176.125;    0.000
831.885; 1870.800;  154.125;    0.000
832.071; 1797.800;  159.125;    0.000
832.257; 1837.800;  142.125;    0.000
832.444; 1888.800;  159.125;    0.000
832.630; 1828.800;  129.125;    0.000
832.816; 1820.800;  132.125;    0.000
833.002; 1803.800;  125.125;    0.000
833.188; 1811.800;  144.125;    0.000
833.374; 1811.800;  131.125;    0.000
833.560; 1785.800;  154.125;    0.000
833.746; 1733.800;  171.125;    0.000
833.932; 1778.800;  162.125;    0.000
834.118; 1758.800;  131.125;    0.000
834.303; 1684.800;  113.125;    0.000
834.489; 1821.800;  170.125;    0.000
834.675; 1829.800;  177.125;    0.000
834.861; 1760.800;  154.125;    0.000
835.047; 1798.800;  171.125;    0.000
835.233; 1713.800;   98.125;    0.000
835.418; 1805.800;  138.125;    0.000
835.604; 1729.800;  140.125;    0.000
835.790; 1683.800;  130.125;    0.000
835.976; 1714.800;  129.125;    0.000
836.161; 1771.800;  142.125;    0.000
836.347; 1691.800;  128.125;    0.000
836.533; 1715.800;  143.125;    0.000
836.718; 1812.800;  164.125;    0.000
836.904; 1788.800;  172.125;    0.000
837.089; 1750.800;  152.125;    0.000
837.275; 1694.800;  143.125;    0.000
837.460; 1718.800;  125.125;    0.000
837.646; 1743.800;  137.125;    0.000
837.831; 1679.800;  153.125;    0.000
838.017; 1752.800;  171.125;    0.000
838.202; 1674.800;  111.125;    0.000
838.388; 1736.800;  140.125;    0.000
838.573; 1746.800;  158.125;    0.000
838.759; 1802.800;  188.125;    0.000
838.944; 1761.800;  125.125;    0.000
839.129; 1726.800;  123.125;    0.000
839.315; 1785.800;  181.125;    0.000
839.500; 1788.800;  150.125;    0.000
839.685; 1806.800;  109.125;    0.000
839.870; 1775.800;  202.125;    0.000
840.056; 1786.800;  101.125;    0.000
840.241; 1751.800;  184.125;    0.000
840.426; 1829.800;  192.125;    0.000
840.611; 1812.800;  180.125;    0.000
840.796; 1830.800;  156.125;    0.000
840.981; 1850.800;  142.125;    0.000
841.166; 1844.800;  161.125;    0.000
841.352; 1883.800;  185.125;    0.000
841.537; 1887.800;  139.125;    0.000
841.722; 1868.800;  143.125;    0.000
841.907; 1836.800;  140.125;    0.000
842.092; 1915.800;  176.125;    0.000
842.277; 1888.800;  136.125;    0.000
842.461; 1974.800;  155.125;    0.000
842.646; 1943.800;  163.125;    0.000
842.831; 2049.800;  153.125;    0.000
843.016; 2100.800;  187.125;    0.000
843.201; 2125.800;  179.125;    0.000
843.386; 2234.800;  167.125;    0.000
843.571; 2212.800;  129.125;    0.000
843.755; 2341.800;  136.125;    0.000
843.940; 2459.800;  121.125;    0.000
844.125; 2679.800;  157.125;    0.000
844.310; 3056.800;  175.125;    0.000
844.494; 3875.800;  164.125;    0.000
844.679; 5115.800;  167.125;    0.000
844.864; 4976.800;  166.125;    0.000
845.048; 4186.800;  132.125;    0.000
845.233; 3705.800;  175.125;    0.000
845.418; 3244.800;  159.125;    0.000
845.602; 3040.800;  147.125;    0.000
845.787; 2793.800;  132.125;    0.000
845.971; 2674.800;  187.125;    0.000
846.156; 2465.800;  141.125;    0.000
846.340; 2333.800;  153.125;    0.000
846.525; 2219.800;  157.125;    0.000
846.709; 2193.800;  117.125;    0.000
846.893; 2168.800;  147.125;    0.000
847.078; 2115.800;  170.125;    0.000
847.262; 2079.800;  150.125;    0.000
847.447; 1978.800;  132.125;    0.000
847.631; 2005.800;  144.125;    0.000
847.815; 1897.800;  157.125;    0.000
848.000; 1788.800;  164.125;    0.000
848.184; 1910.800;  174.125;    0.000
848.368; 1912.800;  149.125;    0.000
848.552; 1877.800;  143.125;    0.000
848.736; 1737.800;  132.125;    0.000
848.921; 1777.800;  147.125;    0.000
849.105; 1716.800;  150.125;    0.000
849.289; 1759.800;  146.125;    0.000
849.473; 1725.800;  167.125;    0.000
849.657; 1743.800;  149.125;    0.000
849.841; 1689.800;  181.125;    0.000
850.025; 1731.800;  154.125;    0.000
850.209; 1736.800;  152.125;    0.000
850.393; 1601.800;  139.125;    0.000
850.577; 1660.800;  128.125;    0.000
850.761; 1717.800;  194.125;    0.000
850.945; 1652.800;  152.125;    0.000
851.129; 1669.800;  157.125;    0.000
851.313; 1663.800;  181.125;    0.000
851.497; 1615.800;  145.125;    0.000
851.680; 1667.800;  168.125;    0.000
851.864; 1627.800;  185.125;    0.000
852.048; 1627.800;  170.125;    0.000
852.232; 1622.800;  192.125;    0.000
852.416; 1672.800;  182.125;    0.000
852.599; 1664.800;  169.125;    0.000
852.783; 1638.800;  168.125;    0.000
852.967; 1592.800;  184.125;    0.000
853.150; 1716.800;  163.125;    0.000
853.334; 1683.800;  164.125;    0.000
853.518; 1649.800;  190.125;    0.000
853.701; 1582.800;  137.125;    0.000
853.885; 1627.800;  177.125;    0.000
854.068; 1639.800;  163.125;    0.000
854.252; 1610.800;  139.125;    0.000
854.435; 1549.800;  152.125;    0.000
854.619; 1606.800;  148.125;    0.000
854.802; 1568.800;  168.125;    0.000
854.986; 1620.800;  157.125;    0.000
855.169; 1612.800;  147.125;    0.000
855.353; 1667.800;  173.125;    0.000
855.536; 1602.800;  127.125;    0.000
855.719; 1643.800;  191.125;    0.000
855.903; 1689.800;  186.125;    0.000
856.086; 1577.800;  145.125;    0.000
856.269; 1660.800;  130.125;    0.000
856.452; 1626.800;  153.125;    0.000
856.636; 1658.800;  129.125;    0.000
856.819; 1809.800;  134.125;    0.000
857.002; 1833.800;  152.125;    0.000
857.185; 1669.800;  140.125;    0.000
857.368; 1660.800;  170.125;    0.000
857.552; 1712.800;  132.125;    0.000
857.735; 1743.800;  160.125;    0.000
857.918; 1665.800;  139.125;    0.000
858.101; 1639.800;  159.125;    0.000
858.284; 1681.800;  136.125;    0.000
858.467; 1699.800;  147.125;    0.000
858.650; 1716.800;  153.125;    0.000
858.833; 1691.800;  113.125;    0.000
859.016; 1764.800;  167.125;    0.000
859.199; 1787.800;  141.125;    0.000
859.382; 1982.800;  155.125;    0.000
859.564; 2067.800;  136.125;    0.000
859.747; 1962.800;  142.125;    0.000
859.930; 1855.800;  141.125;    0.000
860.113; 1886.800;  156.125;    0.000
860.296; 1906.800;  167.125;    0.000
860.478; 1854.800;  121.125;    0.000
860.661; 1866.800;  230.125;    0.000
860.844; 1788.800;  186.125;    0.000
861.027; 1782.800;  155.125;    0.000
861.209; 1918.800;  151.125;    0.000
861.392; 1772.800;  162.125;    0.000
861.575; 1828.800;  150.125;    0.000
861.757; 1879.800;  162.125;    0.000
861.940; 1892.800;  207.125;    0.000
862.122; 1914.800;  113.125;    0.000
862.305; 1931.800;  114.125;    0.000
862.487; 2031.800;  162.125;    0.000
862.670; 2030.800;  148.125;    0.000
862.852; 2303.800;  131.125;    0.000
863.035; 2710.800;  174.125;    0.000
863.217; 2622.800;  170.125;    0.000
863.400; 2444.800;  148.125;    0.000
863.582; 2318.800;  129.125;    0.000
863.764; 2284.800;  181.125;    0.000
863.947; 2204.800;  152.125;    0.000
864.129; 2136.800;  178.125;    0.000
864.311; 2081.800;  139.125;    0.000
864.493; 2144.800;  166.125;    0.000
864.676; 2033.800;  148.125;    0.000
864.858; 2055.800;  123.125;    0.000
865.040; 2001.800;  180.125;    0.000
865.222; 2025.800;  131.125;    0.000
865.404; 2081.800;  146.125;    0.000
865.587; 2235.800;  175.125;    0.000
865.769; 2280.800;  183.125;    0.000
865.951; 2209.800;  171.125;    0.000
866.133; 2251.800;  165.125;    0.000
866.315; 2253.800;  138.125;    0.000
866.497; 2278.800;  139.125;    0.000
866.679; 2225.800;  167.125;    0.000
866.861; 2369.800;  151.125;    0.000
867.043; 2496.800;  190.125;    0.000
867.225; 2577.800;  140.125;    0.000
867.407; 2794.800;  125.125;    0.000
867.589; 3009.800;  141.125;    0.000
867.770; 3467.800;  149.125;    0.000
867.952; 4573.800;  138.125;    0.000
868.134; 5787.800;  153.125;    0.000
868.316; 5704.800;  148.125;    0.000
868.498; 5533.800;  180.125;    0.000
868.679; 5016.800;  152.125;    0.000
868.861; 4399.800;  174.125;    0.000
869.043; 3800.800;  152.125;    0.000
869.224; 3345.800;  177.125;    0.000
869.406; 3147.800;  171.125;    0.000
869.588; 3059.800;  177.125;    0.000
869.769; 2888.800;  174.125;    0.000
869.951; 2829.800;  167.125;    0.000
870.132; 2757.800;  144.125;    0.000
870.314; 3000.800;  143.125;    0.000
870.495; 2998.800;  162.125;    0.000
870.677; 2807.800;  136.125;    0.000
870.858; 2853.800;  155.125;    0.000
871.040; 2859.800;  179.125;    0.000
871.221; 3065.800;  177.125;    0.000
871.403; 3002.800;  180.125;    0.000
871.584; 2928.800;  157.125;    0.000
871.765; 3027.800;  183.125;    0.000
871.947; 3174.800;  169.125;    0.000
872.128; 2767.800;  162.125;    0.000
872.309; 2570.800;  159.125;    0.000
872.491; 2401.800;  148.125;    0.000
872.672; 2318.800;  163.125;    0.000
872.853; 2246.800;  152.125;    0.000
873.034; 2128.800;  166.125;    0.000
873.215; 2056.800;  155.125;    0.000
873.396; 2013.800;  147.125;    0.000
873.578; 1910.800;  147.125;    0.000
873.759; 1940.800;  153.125;    0.000
873.940; 1903.800;  194.125;    0.000
874.121; 1767.800;  179.125;    0.000
874.302; 1865.800;  155.125;    0.000
874.483; 1754.800;  131.125;    0.000
874.664; 1787.800;  106.125;    0.000
874.845; 1788.800;  122.125;    0.000
875.026; 1768.800;  127.125;    0.000
875.207; 1719.800;  151.125;    0.000
875.388; 1698.800;  149.125;    0.000
875.568; 1742.800;  164.125;    0.000
875.749; 1731.800;  176.125;    0.000
875.930; 1685.800;  207.125;    0.000
876.111; 1726.800;  177.125;    0.000
876.292; 1700.800;  178.125;    0.000
876.472; 1698.800;  163.125;    0.000
876.653; 1564.800;  159.125;    0.000
876.834; 1669.800;  177.125;    0.000
877.015; 1600.800;  212.125;    0.000
877.195; 1615.800;  166.125;    0.000
877.376; 1658.800;  157.125;    0.000
877.556; 1699.800;  175.125;    0.000
877.737; 1545.800;  220.125;    0.000
877.918; 1503.800;  163.125;    0.000
878.098; 1568.800;  166.125;    0.000
878.279; 1480.800;  136.125;    0.000
878.459; 1560.800;  167.125;    0.000
878.640; 1569.800;  167.125;    0.000
878.820; 1508.800;  155.125;    0.000
879.000; 1539.800;  158.125;    0.000
879.181; 1545.800;  155.125;    0.000
879.361; 1519.800;  181.125;    0.000
879.542; 1587.800;  181.125;    0.000
879.722; 1549.800;  117.125;    0.000
879.902; 1542.800;  180.125;    0.000
880.083; 1533.800;  139.125;    0.000
880.263; 1534.800;  168.125;    0.000
880.443; 1634.800;  206.125;    0.000
880.623; 1899.800;  132.125;    0.000
880.803; 2064.800;  149.125;    0.000
880.984; 1783.800;  189.125;    0.000
881.164; 1610.800;  171.125;    0.000
881.344; 1638.800;  150.125;    0.000
881.524; 1602.800;  185.125;    0.000
881.704; 1663.800;  152.125;    0.000
881.884; 1688.800;  188.125;    0.000
882.064; 1810.800;  155.125;    0.000
882.244; 1804.800;  182.125;    0.000
882.424; 1686.800;  154.125;    0.000
882.604; 1660.800;  175.125;    0.000
882.784; 1609.800;  137.125;    0.000
882.964; 1650.800;  135.125;    0.000
883.144; 1509.800;  142.125;    0.000
883.324; 1610.800;  192.125;    0.000
883.504; 1625.800;  193.125;    0.000
883.683; 1569.800;  208.125;    0.000
883.863; 1568.800;  127.125;    0.000
884.043; 1511.800;  140.125;    0.000
884.223; 1494.800;  167.125;    0.000
884.402; 1481.800;  156.125;    0.000
884.582; 1515.800;  185.125;    0.000
884.762; 1511.800;  187.125;    0.000
884.941; 1452.800;  201.125;    0.000
885.121; 1424.800;  157.125;    0.000
885.301; 1511.800;  173.125;    0.000
885.480; 1516.800;  158.125;    0.000
885.660; 1484.800;  153.125;    0.000
885.839; 1507.800;  144.125;    0.000
886.019; 1481.800;  184.125;    0.000
886.198; 1414.800;  132.125;    0.000
886.378; 1459.800;  124.125;    0.000
886.557; 1511.800;  146.125;    0.000
886.737; 1376.800;  157.125;    0.000
886.916; 1485.800;  203.125;    0.000
887.095; 1460.800;  151.125;    0.000
887.275; 1418.800;  143.125;    0.000
887.454; 1490.800;  140.125;    0.000
887.633; 1445.800;  196.125;    0.000
887.813; 1431.800;  161.125;    0.000
887.992; 1471.800;  183.125;    0.000
888.171; 1478.800;  153.125;    0.000
888.350; 1528.800;  185.125;    0.000
888.530; 1481.800;  163.125;    0.000
888.709; 1412.800;  174.125;    0.000
888.888; 1356.800;  179.125;    0.000
889.067; 1418.800;  178.125;    0.000
889.246; 1505.800;  184.125;    0.000
889.425; 1421.800;  169.125;    0.000
889.604; 1501.800;  210.125;    0.000
889.783; 1473.800;  183.125;    0.000
889.962; 1424.800;  116.125;    0.000
890.141; 1519.800;  179.125;    0.000
890.320; 1481.800;  182.125;    0.000
890.499; 1467.800;  188.125;    0.000
890.678; 1443.800;  167.125;    0.000
890.857; 1495.800;  141.125;    0.000
891.036; 1442.800;  179.125;    0.000
891.214; 1479.800;  156.125;    0.000
891.393; 1446.800;  209.125;    0.000
891.572; 1460.800;  181.125;    0.000
891.751; 1484.800;  172.125;    0.000
891.930; 1476.800;  169.125;    0.000
892.108; 1446.800;  131.125;    0.000
892.287; 1514.800;  162.125;    0.000
892.466; 1447.800;  178.125;    0.000
892.644; 1475.800;  161.125;    0.000
892.823; 1457.800;  180.125;    0.000
893.001; 1482.800;  179.125;    0.000
893.180; 1420.800;  152.125;    0.000
893.359; 1444.800;  184.125;    0.000
893.537; 1434.800;  178.125;    0.000
893.716; 1505.800;  169.125;    0.000
893.894; 1472.800;  159.125;    0.000
894.073; 1531.800;  179.125;    0.000
894.251; 1509.800;  167.125;    0.000
894.429; 1502.800;  142.125;    0.000
894.608; 1489.800;  166.125;    0.000
894.786; 1431.800;  153.125;    0.000
894.964; 1460.800;  181.125;    0.000
895.143; 1389.800;  161.125;    0.000
895.321; 1504.800;  198.125;    0.000
895.499; 1439.800;  184.125;    0.000
895.677; 1506.800;  178.125;    0.000
895.856; 1499.800;  226.125;    0.000
896.034; 1487.800;  180.125;    0.000
896.212; 1511.800;  200.125;    0.000
896.390; 1502.800;  161.125;    0.000
896.568; 1496.800;  204.125;    0.000
896.746; 1506.800;  136.125;    0.000
896.924; 1460.800;  171.125;    0.000
897.102; 1430.800;  203.125;    0.000
897.280; 1448.800;  142.125;    0.000
897.458; 1533.800;  159.125;    0.000
897.636; 1524.800;  163.125;    0.000
897.814; 1493.800;  137.125;    0.000
897.992; 1540.800;  199.125;    0.000
898.170; 1473.800;  176.125;    0.000
898.348; 1535.800;  195.125;    0.000
898.526; 1423.800;  199.125;    0.000
898.704; 1523.800;  260.125;    0.000
898.882; 1547.800;  185.125;    0.000
899.059; 1513.800;  169.125;    0.000
899.237; 1518.800;  197.125;    0.000
899.415; 1566.800;  207.125;    0.000
899.593; 1470.800;  169.125;    0.000
899.770; 1498.800;  182.125;    0.000
899.948; 1553.800;  198.125;    0.000
900.125; 1576.800;  200.125;    0.000
900.303; 1528.800;  165.125;    0.000
900.481; 1458.800;  182.125;    0.000
900.658; 1612.800;  206.125;    0.000
900.836; 1527.800;  188.125;    0.000
901.013; 1583.800;  169.125;    0.000
901.191; 1535.800;  172.125;    0.000
901.368; 1512.800;  170.125;    0.000
901.546; 1607.800;  234.125;    0.000
901.723; 1652.800;  173.125;    0.000
901.901; 1624.800;  190.125;    0.000
902.078; 1644.800;  145.125;    0.000
902.255; 1655.800;  204.125;    0.000
902.433; 1730.800;  198.125;    0.000
902.610; 1619.800;  190.125;    0.000
902.787; 1641.800;  204.125;    0.000
902.964; 1667.800;  208.125;    0.000
903.142; 1764.800;  187.125;    0.000
903.319; 1704.800;  216.125;    0.000
903.496; 1734.800;  186.125;    0.000
903.673; 1737.800;  201.125;    0.000
903.850; 1690.800;  195.125;    0.000
904.027; 1839.800;  211.125;    0.000
904.204; 1807.800;  197.125;    0.000
904.381; 2006.800;  198.125;    0.000
904.558; 2069.800;  188.125;    0.000
904.735; 2270.800;  207.125;    0.000
904.912; 2220.800;  217.125;    0.000
905.089; 2362.800;  188.125;    0.000
905.266; 2226.800;  160.125;    0.000
905.443; 2073.800;  221.125;    0.000
905.620; 2010.800;  163.125;    0.000
905.797; 2053.800;  186.125;    0.000
905.974; 1878.800;  205.125;    0.000
906.151; 1926.800;  159.125;    0.000
906.327; 1943.800;  206.125;    0.000
906.504; 1882.800;  201.125;    0.000
906.681; 1851.800;  202.125;    0.000
906.858; 1800.800;  188.125;    0.000
907.034; 1794.800;  207.125;    0.000
907.211; 1708.800;  182.125;    0.000
907.388; 1764.800;  184.125;    0.000
907.564; 1660.800;  148.125;    0.000
907.741; 1675.800;  181.125;    0.000
907.917; 1668.800;  191.125;    0.000
908.094; 1779.800;  210.125;    0.000
908.271; 1641.800;  171.125;    0.000
908.447; 1703.800;  241.125;    0.000
908.623; 1668.800;  188.125;    0.000
908.800; 1671.800;  205.125;    0.000
908.976; 1670.800;  210.125;    0.000
909.153; 1685.800;  193.125;    0.000
909.329; 1720.800;  206.125;    0.000
909.505; 1573.800;  181.125;    0.000
909.682; 1554.800;  192.125;    0.000
909.858; 1574.800;  134.125;    0.000
910.034; 1645.800;  214.125;    0.000
910.211; 1511.800;  182.125;    0.000
910.387; 1581.800;  194.125;    0.000
910.563; 1684.800;  199.125;    0.000
910.739; 1654.800;  188.125;    0.000
910.915; 1573.800;  192.125;    0.000
911.091; 1622.800;  198.125;    0.000
911.268; 1589.800;  178.125;    0.000
911.444; 1535.800;  201.125;    0.000
911.620; 1570.800;  181.125;    0.000
911.796; 1621.800;  185.125;    0.000
911.972; 1642.800;  176.125;    0.000
912.148; 1623.800;  196.125;    0.000
912.324; 1634.800;  192.125;    0.000
912.500; 1666.800;  204.125;    0.000
912.676; 1547.800;  164.125;    0.000
912.851; 1572.800;  193.125;    0.000
913.027; 1580.800;  175.125;    0.000
913.203; 1618.800;  193.125;    0.000
913.379; 1550.800;  213.125;    0.000
913.555; 1594.800;  211.125;    0.000
913.730; 1555.800;  194.125;    0.000
913.906; 1577.800;  153.125;    0.000
914.082; 1608.800;  212.125;    0.000
914.258; 1590.800;  194.125;    0.000
914.433; 1632.800;  191.125;    0.000
914.609; 1572.800;  208.125;    0.000
914.784; 1577.800;  176.125;    0.000
914.960; 1571.800;  227.125;    0.000
915.136; 1550.800;  152.125;    0.000
915.311; 1663.800;  171.125;    0.000
915.487; 1625.800;  173.125;    0.000
915.662; 1617.800;  189.125;    0.000
915.838; 1512.800;  179.125;    0.000
916.013; 1628.800;  191.125;    0.000
916.189; 1634.800;  207.125;    0.000
916.364; 1617.800;  194.125;    0.000
916.539; 1605.800;  174.125;    0.000
916.715; 1659.800;  207.125;    0.000
916.890; 1647.800;  193.125;    0.000
917.065; 1564.800;  199.125;    0.000
917.240; 1591.800;  214.125;    0.000
917.416; 1603.800;  194.125;    0.000
917.591; 1712.800;  213.125;    0.000
917.766; 1566.800;  194.125;    0.000
917.941; 1563.800;  201.125;    0.000
918.116; 1612.800;  198.125;    0.000
918.292; 1560.800;  176.125;    0.000
918.467; 1569.800;  190.125;    0.000
918.642; 1570.800;  200.125;    0.000
918.817; 1594.800;  186.125;    0.000
918.992; 1555.800;  174.125;    0.000
919.167; 1667.800;  197.125;    0.000
919.342; 1611.800;  188.125;    0.000
919.517; 1662.800;  179.125;    0.000
919.692; 1662.800;  182.125;    0.000
919.867; 1748.800;  216.125;    0.000
920.041; 1690.800;  208.125;    0.000
920.216; 1652.800;  223.125;    0.000
920.391; 1744.800;  203.125;    0.000
920.566; 1760.800;  202.125;    0.000
920.741; 1703.800;  197.125;    0.000
920.915; 1772.800;  223.125;    0.000
921.090; 1809.800;  183.125;    0.000
921.265; 1861.800;  169.125;    0.000
921.439; 2009.800;  212.125;    0.000
921.614; 1960.800;  190.125;    0.000
921.789; 1853.800;  177.125;    0.000
921.963; 1889.800;  233.125;    0.000
922.138; 1831.800;  156.125;    0.000
922.312; 1711.800;  193.125;    0.000
922.487; 1743.800;  208.125;    0.000
922.661; 1771.800;  212.125;    0.000
922.836; 1847.800;  210.125;    0.000
923.010; 1884.800;  183.125;    0.000
923.185; 1836.800;  228.125;    0.000
923.359; 1808.800;  227.125;    0.000
923.534; 1824.800;  189.125;    0.000
923.708; 1782.800;  210.125;    0.000
923.882; 1805.800;  217.125;    0.000
924.057; 1887.800;  195.125;    0.000
924.231; 1821.800;  201.125;    0.000
924.405; 1871.800;  188.125;    0.000
924.579; 1762.800;  188.125;    0.000
924.753; 1737.800;  174.125;    0.000
924.928; 1788.800;  179.125;    0.000
925.102; 1727.800;  186.125;    0.000
925.276; 1716.800;  201.125;    0.000
925.450; 1788.800;  211.125;    0.000
925.624; 1785.800;  238.125;    0.000
925.798; 1849.800;  191.125;    0.000
925.972; 1862.800;  192.125;    0.000
926.146; 1947.800;  198.125;    0.000
926.320; 2019.800;  151.125;    0.000
926.494; 2037.800;  202.125;    0.000
926.668; 2117.800;  197.125;    0.000
926.842; 2222.800;  177.125;    0.000
927.016; 2182.800;  202.125;    0.000
927.190; 2118.800;  207.125;    0.000
927.363; 2113.800;  180.125;    0.000
927.537; 2159.800;  212.125;    0.000
927.711; 2056.800;  148.125;    0.000
927.885; 2034.800;  196.125;    0.000
928.058; 1978.800;  173.125;    0.000
928.232; 2107.800;  219.125;    0.000
928.406; 1920.800;  141.125;    0.000
928.579; 1965.800;  157.125;    0.000
928.753; 1946.800;  205.125;    0.000
928.927; 1912.800;  196.125;    0.000
929.100; 1876.800;  237.125;    0.000
929.274; 1801.800;  166.125;    0.000
929.447; 1871.800;  150.125;    0.000
929.621; 1840.800;  188.125;    0.000
929.794; 1827.800;  169.125;    0.000
929.968; 1855.800;  194.125;    0.000
930.141; 1775.800;  226.125;    0.000
930.315; 1854.800;  196.125;    0.000
930.488; 1779.800;  233.125;    0.000
930.661; 1828.800;  188.125;    0.000
930.835; 1754.800;  170.125;    0.000
931.008; 1670.800;  176.125;    0.000
931.181; 1810.800;  175.125;    0.000
931.354; 1808.800;  212.125;    0.000
931.528; 1719.800;  177.125;    0.000
931.701; 1686.800;  218.125;    0.000
931.874; 1720.800;  175.125;    0.000
932.047; 1666.800;  157.125;    0.000
932.220; 1703.800;  187.125;    0.000
932.393; 1702.800;  166.125;    0.000
932.566; 1592.800;  168.125;    0.000
932.739; 1725.800;  203.125;    0.000
932.912; 1680.800;  202.125;    0.000
933.085; 1682.800;  209.125;    0.000
933.258; 1670.800;  196.125;    0.000
933.431; 1609.800;  207.125;    0.000
933.604; 1635.800;  201.125;    0.000
933.777; 1685.800;  202.125;    0.000
933.950; 1658.800;  184.125;    0.000
934.123; 1644.800;  167.125;    0.000
934.296; 1729.800;  209.125;    0.000
934.468; 1658.800;  216.125;    0.000
934.641; 1637.800;  156.125;    0.000
934.814; 1728.800;  215.125;    0.000
934.987; 1555.800;  201.125;    0.000
935.159; 1647.800;  176.125;    0.000
935.332; 1664.800;  203.125;    0.000
935.505; 1665.800;  163.125;    0.000
935.677; 1653.800;  169.125;    0.000
935.850; 1640.800;  178.125;    0.000
936.022; 1620.800;  187.125;    0.000
936.195; 1691.800;  207.125;    0.000
936.367; 1623.800;  191.125;    0.000
936.540; 1659.800;  214.125;    0.000
936.712; 1699.800;  202.125;    0.000
936.885; 1687.800;  195.125;    0.000
937.057; 1666.800;  173.125;    0.000
937.229; 1732.800;  179.125;    0.000
937.402; 1684.800;  174.125;    0.000
937.574; 1726.800;  140.125;    0.000
937.746; 1738.800;  153.125;    0.000
937.919; 1814.800;  196.125;    0.000
938.091; 1789.800;  173.125;    0.000
938.263; 1845.800;  206.125;    0.000
938.435; 2016.800;  213.125;    0.000
938.608; 2124.800;  204.125;    0.000
938.780; 2308.800;  199.125;    0.000
938.952; 2343.800;  190.125;    0.000
939.124; 2309.800;  182.125;    0.000
939.296; 2611.800;  188.125;    0.000
939.468; 2607.800;  119.125;    0.000
939.640; 2377.800;  171.125;    0.000
939.812; 2308.800;  222.125;    0.000
939.984; 2163.800;  172.125;    0.000
940.156; 2114.800;  171.125;    0.000
940.328; 2046.800;  215.125;    0.000
940.500; 2017.800;  179.125;    0.000
940.672; 1897.800;  178.125;    0.000
940.843; 1872.800;  193.125;    0.000
941.015; 1834.800;  207.125;    0.000
941.187; 1706.800;  179.125;    0.000
941.359; 1861.800;  191.125;    0.000
941.531; 1827.800;  160.125;    0.000
941.702; 1823.800;  208.125;    0.000
941.874; 1754.800;  143.125;    0.000
942.046; 1770.800;  189.125;    0.000
942.217; 1703.800;  167.125;    0.000
942.389; 1748.800;  199.125;    0.000
942.560; 1628.800;  179.125;    0.000
942.732; 1666.800;  209.125;    0.000
942.904; 1628.800;  180.125;    0.000
943.075; 1662.800;  197.125;    0.000
943.247; 1597.800;  207.125;    0.000
943.418; 1637.800;  183.125;    0.000
943.589; 1598.800;  176.125;    0.000
943.761; 1629.800;  165.125;    0.000
943.932; 1570.800;  170.125;    0.000
944.104; 1623.800;  147.125;    0.000
944.275; 1663.800;  149.125;    0.000
944.446; 1642.800;  191.125;    0.000
944.617; 1587.800;  128.125;    0.000
944.789; 1630.800;  166.125;    0.000
944.960; 1618.800;  195.125;    0.000
945.131; 1560.800;  164.125;    0.000
945.302; 1616.800;  229.125;    0.000
945.473; 1592.800;  153.125;    0.000
945.645; 1558.800;  166.125;    0.000
945.816; 1632.800;  187.125;    0.000
945.987; 1629.800;  193.125;    0.000
946.158; 1659.800;  166.125;    0.000
946.329; 1663.800;  196.125;    0.000
946.500; 1624.800;  152.125;    0.000
946.671; 1597.800;  161.125;    0.000
946.842; 1639.800;  176.125;    0.000
947.013; 1630.800;  188.125;    0.000
947.183; 1640.800;  213.125;    0.000
947.354; 1569.800;  163.125;    0.000
947.525; 1565.800;  204.125;    0.000
947.696; 1530.800;  159.125;    0.000
947.867; 1636.800;  197.125;    0.000
948.037; 1511.800;  174.125;    0.000
948.208; 1493.800;  163.125;    0.000
948.379; 1597.800;  189.125;    0.000
948.550; 1536.800;  173.125;    0.000
948.720; 1569.800;  186.125;    0.000
948.891; 1574.800;  166.125;    0.000
949.061; 1563.800;  197.125;    0.000
949.232; 1567.800;  168.125;    0.000
949.403; 1543.800;  188.125;    0.000
949.573; 1561.800;  164.125;    0.000
949.744; 1620.800;  194.125;    0.000
949.914; 1576.800;  154.125;    0.000
950.085; 1566.800;  197.125;    0.000
950.255; 1496.800;  187.125;    0.000
950.425; 1539.800;  193.125;    0.000
950.596; 1501.800;  182.125;    0.000
950.766; 1667.800;  202.125;    0.000
950.936; 1576.800;  230.125;    0.000
951.107; 1527.800;  133.125;    0.000
951.277; 1634.800;  234.125;    0.000
951.447; 1619.800;  200.125;    0.000
951.617; 1608.800;  212.125;    0.000
951.788; 1515.800;  176.125;    0.000
951.958; 1550.800;  218.125;    0.000
952.128; 1600.800;  198.125;    0.000
952.298; 1594.800;  185.125;    0.000
952.468; 1549.800;  231.125;    0.000
952.638; 1574.800;  213.125;    0.000
952.808; 1510.800;  218.125;    0.000
952.978; 1535.800;  252.125;    0.000
953.148; 1536.800;  200.125;    0.000
953.318; 1639.800;  243.125;    0.000
953.488; 1502.800;  140.125;    0.000
953.658; 1546.800;  208.125;    0.000
953.828; 1534.800;  179.125;    0.000
953.998; 1489.800;  211.125;    0.000
954.167; 1590.800;  197.125;    0.000
954.337; 1550.800;  217.125;    0.000
954.507; 1586.800;  219.125;    0.000
954.677; 1514.800;  201.125;    0.000
954.846; 1575.800;  241.125;    0.000
955.016; 1588.800;  222.125;    0.000
955.186; 1642.800;  200.125;    0.000
955.355; 1574.800;  247.125;    0.000
955.525; 1588.800;  212.125;    0.000
955.695; 1552.800;  200.125;    0.000
955.864; 1477.800;  196.125;    0.000
956.034; 1500.800;  195.125;    0.000
956.203; 1622.800;  243.125;    0.000
956.373; 1447.800;  197.125;    0.000
956.542; 1573.800;  237.125;    0.000
956.711; 1619.800;  249.125;    0.000
956.881; 1575.800;  235.125;    0.000
957.050; 1576.800;  259.125;    0.000
957.220; 1608.800;  234.125;    0.000
957.389; 1611.800;  250.125;    0.000
957.558; 1544.800;  214.125;    0.000
957.727; 1514.800;  225.125;    0.000
957.897; 1533.800;  211.125;    0.000
958.066; 1569.800;  200.125;    0.000
958.235; 1514.800;  202.125;    0.000
958.404; 1557.800;  242.125;    0.000
958.573; 1560.800;  222.125;    0.000
958.743; 1535.800;  191.125;    0.000
958.912; 1469.800;  183.125;    0.000
959.081; 1528.800;  212.125;    0.000
959.250; 1445.800;  192.125;    0.000
959.419; 1551.800;  238.125;    0.000
959.588; 1490.800;  205.125;    0.000
959.757; 1481.800;  213.125;    0.000
959.926; 1495.800;  217.125;    0.000
960.094; 1531.800;  215.125;    0.000
960.263; 1480.800;  220.125;    0.000
960.432; 1484.800;  164.125;    0.000
960.601; 1453.800;  228.125;    0.000
960.770; 1500.800;  176.125;    0.000
960.939; 1590.800;  201.125;    0.000
961.107; 1521.800;  183.125;    0.000
961.276; 1477.800;  199.125;    0.000
961.445; 1515.800;  205.125;    0.000
961.613; 1427.800;  183.125;    0.000
961.782; 1492.800;  216.125;    0.000
961.951; 1409.800;  169.125;    0.000
962.119; 1545.800;  211.125;    0.000
962.288; 1468.800;  204.125;    0.000
962.456; 1444.800;  187.125;    0.000
962.625; 1461.800;  223.125;    0.000
962.793; 1525.800;  200.125;    0.000
962.962; 1483.800;  185.125;    0.000
963.130; 1455.800;  195.125;    0.000
963.298; 1503.800;  187.125;    0.000
963.467; 1457.800;  247.125;    0.000
963.635; 1437.800;  165.125;    0.000
963.803; 1564.800;  192.125;    0.000
963.972; 1504.800;  191.125;    0.000
964.140; 1486.800;  163.125;    0.000
964.308; 1499.800;  161.125;    0.000
964.477; 1589.800;  182.125;    0.000
964.645; 1499.800;  195.125;    0.000
964.813; 1493.800;  165.125;    0.000
964.981; 1496.800;  193.125;    0.000
965.149; 1584.800;  174.125;    0.000
965.317; 1499.800;  194.125;    0.000
965.485; 1548.800;  209.125;    0.000
965.653; 1515.800;  210.125;    0.000
965.821; 1523.800;  194.125;    0.000
965.989; 1525.800;  182.125;    0.000
966.157; 1456.800;  180.125;    0.000
966.325; 1501.800;  198.125;    0.000
966.493; 1484.800;  182.125;    0.000
966.661; 1542.800;  200.125;    0.000
966.829; 1471.800;  190.125;    0.000
966.996; 1555.800;  221.125;    0.000
967.164; 1443.800;  176.125;    0.000
967.332; 1479.800;  228.125;    0.000
967.500; 1510.800;  177.125;    0.000
967.667; 1484.800;  202.125;    0.000
967.835; 1546.800;  220.125;    0.000
968.003; 1490.800;  183.125;    0.000
968.170; 1556.800;  163.125;    0.000
968.338; 1492.800;  162.125;    0.000
968.505; 1459.800;  198.125;    0.000
968.673; 1472.800;  213.125;    0.000
968.841; 1486.800;  131.125;    0.000
969.008; 1439.800;  225.125;    0.000
969.175; 1441.800;  202.125;    0.000
969.343; 1478.800;  222.125;    0.000
969.510; 1529.800;  230.125;    0.000
969.678; 1456.800;  161.125;    0.000
969.845; 1530.800;  208.125;    0.000
970.012; 1535.800;  186.125;    0.000
970.180; 1516.800;  226.125;    0.000
970.347; 1503.800;  222.125;    0.000
970.514; 1523.800;  206.125;    0.000
970.681; 1522.800;  173.125;    0.000
970.849; 1580.800;  190.125;    0.000
971.016; 1577.800;  220.125;    0.000
971.183; 1516.800;  202.125;    0.000
971.350; 1522.800;  196.125;    0.000
971.517; 1556.800;  218.125;    0.000
971.684; 1537.800;  228.125;    0.000
971.851; 1533.800;  235.125;    0.000
972.018; 1519.800;  200.125;    0.000
972.185; 1580.800;  183.125;    0.000
972.352; 1645.800;  216.125;    0.000
972.519; 1699.800;  227.125;    0.000
972.686; 1621.800;  209.125;    0.000
972.853; 1528.800;  157.125;    0.000
973.020; 1621.800;  179.125;    0.000
973.186; 1511.800;  173.125;    0.000
973.353; 1556.800;  189.125;    0.000
973.520; 1573.800;  228.125;    0.000
973.687; 1631.800;  190.125;    0.000
973.853; 1633.800;  197.125;    0.000
974.020; 1516.800;  208.125;    0.000
974.187; 1545.800;  158.125;    0.000
974.353; 1499.800;  201.125;    0.000
974.520; 1506.800;  158.125;    0.000
974.687; 1515.800;  192.125;    0.000
974.853; 1635.800;  177.125;    0.000
975.020; 1639.800;  212.125;    0.000
975.186; 1536.800;  200.125;    0.000
975.353; 1568.800;  208.125;    0.000
975.519; 1502.800;  169.125;    0.000
975.685; 1530.800;  176.125;    0.000
975.852; 1532.800;  201.125;    0.000
976.018; 1573.800;  209.125;    0.000
976.184; 1637.800;  197.125;    0.000
976.351; 1540.800;  196.125;    0.000
976.517; 1560.800;  243.125;    0.000
976.683; 1507.800;  210.125;    0.000
976.849; 1535.800;  226.125;    0.000
977.016; 1493.800;  218.125;    0.000
977.182; 1505.800;  213.125;    0.000
977.348; 1493.800;  205.125;    0.000
977.514; 1532.800;  210.125;    0.000
977.680; 1488.800;  226.125;    0.000
977.846; 1511.800;  206.125;    0.000
978.012; 1507.800;  222.125;    0.000
978.178; 1455.800;  216.125;    0.000
978.344; 1495.800;  172.125;    0.000
978.510; 1425.800;  210.125;    0.000
978.676; 1480.800;  184.125;    0.000
978.842; 1510.800;  190.125;    0.000
979.008; 1530.800;  203.125;    0.000
979.174; 1452.800;  211.125;    0.000
979.340; 1567.800;  190.125;    0.000
979.505; 1525.800;  235.125;    0.000
979.671; 1494.800;  182.125;    0.000
979.837; 1578.800;  235.125;    0.000
980.003; 1465.800;  183.125;    0.000
980.168; 1560.800;  220.125;    0.000
980.334; 1543.800;  161.125;    0.000
980.499; 1570.800;  212.125;    0.000
980.665; 1568.800;  219.125;    0.000
980.831; 1571.800;  201.125;    0.000
980.996; 1623.800;  189.125;    0.000
981.162; 1596.800;  222.125;    0.000
981.327; 1588.800;  173.125;    0.000
981.493; 1587.800;  197.125;    0.000
981.658; 1494.800;  178.125;    0.000
981.823; 1514.800;  196.125;    0.000
981.989; 1597.800;  248.125;    0.000
982.154; 1599.800;  222.125;    0.000
982.319; 1574.800;  226.125;    0.000
982.485; 1632.800;  188.125;    0.000
982.650; 1630.800;  203.125;    0.000
982.815; 1617.800;  237.125;    0.000
982.980; 1592.800;  210.125;    0.000
983.146; 1566.800;  202.125;    0.000
983.311; 1507.800;  195.125;    0.000
983.476; 1544.800;  207.125;    0.000
983.641; 1565.800;  198.125;    0.000
983.806; 1575.800;  136.125;    0.000
983.971; 1596.800;  248.125;    0.000
984.136; 1462.800;  213.125;    0.000
984.301; 1521.800;  181.125;    0.000
984.466; 1493.800;  210.125;    0.000
984.631; 1612.800;  219.125;    0.000
984.796; 1577.800;  207.125;    0.000
984.961; 1594.800;  214.125;    0.000
985.126; 1553.800;  218.125;    0.000
985.291; 1551.800;  214.125;    0.000
985.455; 1547.800;  187.125;    0.000
985.620; 1527.800;  191.125;    0.000
985.785; 1492.800;  190.125;    0.000
985.950; 1513.800;  184.125;    0.000
986.114; 1596.800;  242.125;    0.000
986.279; 1556.800;  251.125;    0.000
986.444; 1642.800;  177.125;    0.000
986.608; 1633.800;  216.125;    0.000
986.773; 1485.800;  211.125;    0.000
986.937; 1667.800;  244.125;    0.000
987.102; 1617.800;  187.125;    0.000
987.266; 1574.800;  178.125;    0.000
987.431; 1577.800;  205.125;    0.000
987.595; 1541.800;  221.125;    0.000
987.760; 1530.800;  205.125;    0.000
987.924; 1599.800;  195.125;    0.000
988.088; 1592.800;  184.125;    0.000
988.253; 1503.800;  188.125;    0.000
988.417; 1617.800;  196.125;    0.000
988.581; 1566.800;  218.125;    0.000
988.746; 1624.800;  203.125;    0.000
988.910; 1579.800;  195.125;    0.000
989.074; 1520.800;  187.125;    0.000
989.238; 1523.800;  243.125;    0.000
989.402; 1530.800;  242.125;    0.000
989.566; 1547.800;  205.125;    0.000
989.731; 1582.800;  195.125;    0.000
989.895; 1553.800;  211.125;    0.000
990.059; 1562.800;  175.125;    0.000
990.223; 1556.800;  176.125;    0.000
990.387; 1624.800;  234.125;    0.000
990.551; 1632.800;  231.125;    0.000
990.714; 1605.800;  209.125;    0.000
990.878; 1578.800;  187.125;    0.000
991.042; 1519.800;  183.125;    0.000
991.206; 1529.800;  216.125;    0.000
991.370; 1673.800;  257.125;    0.000
991.534; 1571.800;  188.125;    0.000
991.697; 1632.800;  203.125;    0.000
991.861; 1648.800;  219.125;    0.000
992.025; 1647.800;  221.125;    0.000
992.188; 1595.800;  188.125;    0.000
992.352; 1546.800;  205.125;    0.000
992.516; 1603.800;  189.125;    0.000
992.679; 1635.800;  207.125;    0.000
992.843; 1546.800;  210.125;    0.000
993.006; 1500.800;  191.125;    0.000
993.170; 1610.800;  228.125;    0.000
993.333; 1536.800;  142.125;    0.000
993.497; 1542.800;  175.125;    0.000
993.660; 1564.800;  220.125;    0.000
993.824; 1643.800;  193.125;    0.000
993.987; 1652.800;  219.125;    0.000
994.150; 1611.800;  166.125;    0.000
994.314; 1612.800;  207.125;    0.000
994.477; 1619.800;  227.125;    0.000
994.640; 1602.800;  210.125;    0.000
994.803; 1653.800;  219.125;    0.000
994.967; 1602.800;  192.125;    0.000
995.130; 1585.800;  197.125;    0.000
995.293; 1676.800;  189.125;    0.000
995.456; 1592.800;  180.125;    0.000
995.619; 1585.800;  239.125;    0.000
995.782; 1510.800;  209.125;    0.000
995.945; 1575.800;  216.125;    0.000
996.108; 1597.800;  198.125;    0.000
996.271; 1605.800;  205.125;    0.000
996.434; 1645.800;  205.125;    0.000
996.597; 1570.800;  208.125;    0.000
996.760; 1604.800;  205.125;    0.000
996.923; 1571.800;  174.125;    0.000
997.086; 1567.800;  198.125;    0.000
997.248; 1659.800;  214.125;    0.000
997.411; 1630.800;  237.125;    0.000
997.574; 1555.800;  182.125;    0.000
997.737; 1546.800;  188.125;    0.000
997.899; 1554.800;  216.125;    0.000
998.062; 1550.800;  210.125;    0.000
998.225; 1508.800;  202.125;    0.000
998.387; 1552.800;  202.125;    0.000
998.550; 1480.800;  193.125;    0.000
998.712; 1562.800;  225.125;    0.000
998.875; 1636.800;  228.125;    0.000
999.037; 1571.800;  186.125;    0.000
999.200; 1581.800;  212.125;    0.000
999.362; 1539.800;  234.125;    0.000
999.525; 1638.800;  170.125;    0.000
999.687; 1541.800;  191.125;    0.000
999.849; 1554.800;  218.125;    0.000
1000.012; 1643.800;  187.125;    0.000
1000.174; 1598.800;  216.125;    0.000
1000.336; 1560.800;  194.125;    0.000
1000.499; 1647.800;  209.125;    0.000
1000.661; 1580.800;  208.125;    0.000
1000.823; 1518.800;  197.125;    0.000
1000.985; 1668.800;  201.125;    0.000
1001.147; 1701.800;  234.125;    0.000
1001.309; 1612.800;  180.125;    0.000
1001.471; 1757.800;  223.125;    0.000
1001.633; 1684.800;  198.125;    0.000
1001.796; 1619.800;  200.125;    0.000
1001.958; 1675.800;  204.125;    0.000
1002.119; 1739.800;  193.125;    0.000
1002.281; 1783.800;  205.125;    0.000
1002.443; 1865.800;  236.125;    0.000
1002.605; 1934.800;  197.125;    0.000
1002.767; 2082.800;  223.125;    0.000
1002.929; 2166.800;  220.125;    0.000
1003.091; 2292.800;  214.125;    0.000
1003.252; 2337.800;  233.125;    0.000
1003.414; 2484.800;  230.125;    0.000
1003.576; 2572.800;  203.125;    0.000
1003.738; 2694.800;  201.125;    0.000
1003.899; 2879.800;  222.125;    0.000
1004.061; 3049.800;  208.125;    0.000
1004.222; 3071.800;  194.125;    0.000
1004.384; 3351.800;  205.125;    0.000
1004.546; 3434.800;  162.125;    0.000
1004.707; 3488.800;  232.125;    0.000
1004.869; 3619.800;  223.125;    0.000
1005.030; 3448.800;  204.125;    0.000
1005.191; 3432.800;  214.125;    0.000
1005.353; 3310.800;  226.125;    0.000
1005.514; 3111.800;  201.125;    0.000
1005.675; 3058.800;  205.125;    0.000
1005.837; 2777.800;  235.125;    0.000
1005.998; 2723.800;  210.125;    0.000
1006.159; 2756.800;  214.125;    0.000
1006.321; 2836.800;  236.125;    0.000
1006.482; 2810.800;  214.125;    0.000
1006.643; 2887.800;  213.125;    0.000
1006.804; 3138.800;  204.125;    0.000
1006.965; 3287.800;  212.125;    0.000
1007.126; 3345.800;  251.125;    0.000
1007.287; 3230.800;  238.125;    0.000
1007.448; 3222.800;  198.125;    0.000
1007.609; 3192.800;  241.125;    0.000
1007.770; 3056.800;  213.125;    0.000
1007.931; 2957.800;  225.125;    0.000
1008.092; 2978.800;  204.125;    0.000
1008.253; 3154.800;  220.125;    0.000
1008.414; 3281.800;  180.125;    0.000
1008.575; 3339.800;  224.125;    0.000
1008.736; 3253.800;  164.125;    0.000
1008.896; 3252.800;  247.125;    0.000
1009.057; 3306.800;  263.125;    0.000
1009.218; 3155.800;  233.125;    0.000
1009.379; 3206.800;  207.125;    0.000
1009.539; 3361.800;  221.125;    0.000
1009.700; 3411.800;  209.125;    0.000
1009.860; 3488.800;  217.125;    0.000
1010.021; 3324.800;  182.125;    0.000
1010.182; 3258.800;  233.125;    0.000
1010.342; 3267.800;  210.125;    0.000
1010.503; 3364.800;  232.125;    0.000
1010.663; 3531.800;  228.125;    0.000
1010.823; 3461.800;  212.125;    0.000
1010.984; 3404.800;  244.125;    0.000
1011.144; 3472.800;  200.125;    0.000
1011.305; 3471.800;  237.125;    0.000
1011.465; 3590.800;  225.125;    0.000
1011.625; 3619.800;  215.125;    0.000
1011.785; 3647.800;  235.125;    0.000
1011.946; 3801.800;  231.125;    0.000
1012.106; 3612.800;  206.125;    0.000
1012.266; 3670.800;  218.125;    0.000
1012.426; 3700.800;  249.125;    0.000
1012.586; 3756.800;  217.125;    0.000
1012.746; 3599.800;  231.125;    0.000
1012.906; 3663.800;  230.125;    0.000
1013.066; 3646.800;  260.125;    0.000
1013.226; 3733.800;  206.125;    0.000
1013.386; 3731.800;  220.125;    0.000
1013.546; 3736.800;  233.125;    0.000
1013.706; 3656.800;  194.125;    0.000
1013.866; 3758.800;  209.125;    0.000
1014.026; 3745.800;  204.125;    0.000
1014.186; 3708.800;  203.125;    0.000
1014.346; 3675.800;  244.125;    0.000
1014.505; 3873.800;  206.125;    0.000
1014.665; 3846.800;  210.125;    0.000
1014.825; 3847.800;  235.125;    0.000
1014.985; 3807.800;  227.125;    0.000
1015.144; 4150.800;  237.125;    0.000
1015.304; 4337.800;  196.125;    0.000
1015.464; 3978.800;  228.125;    0.000
1015.623; 4226.800;  235.125;    0.000
1015.783; 4640.800;  187.125;    0.000
1015.942; 4984.800;  184.125;    0.000
1016.102; 4841.800;  245.125;    0.000
1016.261; 4796.800;  203.125;    0.000
1016.420; 5290.800;  209.125;    0.000
1016.580; 5927.800;  235.125;    0.000
1016.739; 5843.800;  175.125;    0.000
1016.899; 5377.800;  220.125;    0.000
1017.058; 5827.800;  219.125;    0.000
1017.217; 6376.800;  238.125;    0.000
1017.376; 5980.800;  235.125;    0.000
1017.536; 5284.800;  195.125;    0.000
1017.695; 5397.800;  215.125;    0.000
1017.854; 5532.800;  231.125;    0.000
1018.013; 5505.800;  184.125;    0.000
1018.172; 4951.800;  179.125;    0.000
1018.331; 4941.800;  205.125;    0.000
1018.490; 5219.800;  203.125;    0.000
1018.649; 5881.800;  261.125;    0.000
1018.808; 5919.800;  253.125;    0.000
1018.967; 5816.800;  201.125;    0.000
1019.126; 5973.800;  216.125;    0.000
1019.285; 6372.800;  169.125;    0.000
1019.444; 6231.800;  226.125;    0.000
1019.603; 5862.800;  252.125;    0.000
1019.762; 5445.800;  206.125;    0.000
1019.921; 5639.800;  235.125;    0.000
1020.079; 6199.800;  192.125;    0.000
1020.238; 6682.800;  226.125;    0.000
1020.397; 6130.800;  231.125;    0.000
1020.555; 5865.800;  218.125;    0.000
1020.714; 6006.800;  235.125;    0.000
1020.873; 6472.800;  229.125;    0.000
1021.031; 6478.800;  234.125;    0.000
1021.190; 5856.800;  223.125;    0.000
1021.348; 5681.800;  186.125;    0.000
1021.507; 6504.800;  201.125;    0.000
1021.665; 7131.800;  222.125;    0.000
1021.824; 6508.800;  208.125;    0.000
1021.982; 5807.800;  209.125;    0.000
1022.141; 5963.800;  224.125;    0.000
1022.299; 6959.800;  214.125;    0.000
1022.457; 7290.800;  176.125;    0.000
1022.616; 6661.800;  211.125;    0.000
1022.774; 5710.800;  218.125;    0.000
1022.932; 6066.800;  205.125;    0.000
1023.090; 7066.800;  246.125;    0.000
1023.249; 7300.800;  249.125;    0.000
1023.407; 6749.800;  235.125;    0.000
1023.565; 5972.800;  202.125;    0.000
1023.723; 6222.800;  210.125;    0.000
1023.881; 7164.800;  206.125;    0.000
1024.039; 7587.800;  240.125;    0.000
1024.197; 6869.800;  275.125;    0.000
1024.355; 6331.800;  228.125;    0.000
1024.513; 6338.800;  234.125;    0.000
1024.671; 7151.800;  222.125;    0.000
1024.829; 7760.800;  241.125;    0.000
1024.987; 7071.800;  209.125;    0.000
1025.145; 6246.800;  227.125;    0.000
1025.302; 6304.800;  208.125;    0.000
1025.460; 7086.800;  210.125;    0.000
1025.618; 7801.800;  192.125;    0.000
1025.776; 7638.800;  220.125;    0.000
1025.933; 6676.800;  223.125;    0.000
1026.091; 6711.800;  189.125;    0.000
1026.249; 7104.800;  210.125;    0.000
1026.406; 7945.800;  231.125;    0.000
1026.564; 7682.800;  247.125;    0.000
1026.721; 7379.800;  213.125;    0.000
1026.879; 6898.800;  208.125;    0.000
1027.036; 7147.800;  222.125;    0.000
1027.194; 7759.800;  253.125;    0.000
1027.351; 7948.800;  239.125;    0.000
1027.509; 7802.800;  232.125;    0.000
1027.666; 7090.800;  251.125;    0.000
1027.823; 7610.800;  212.125;    0.000
1027.981; 7484.800;  260.125;    0.000
1028.138; 7959.800;  263.125;    0.000
1028.295; 7758.800;  251.125;    0.000
1028.452; 7596.800;  249.125;    0.000
1028.609; 7580.800;  259.125;    0.000
1028.767; 7801.800;  255.125;    0.000
1028.924; 8192.800;  201.125;    0.000
1029.081; 7938.800;  217.125;    0.000
1029.238; 7899.800;  230.125;    0.000
1029.395; 7935.800;  263.125;    0.000
1029.552; 8135.800;  207.125;    0.000
1029.709; 8499.800;  220.125;    0.000
1029.866; 8272.800;  214.125;    0.000
1030.023; 7908.800;  224.125;    0.000
1030.180; 7526.800;  209.125;    0.000
1030.337; 7774.800;  269.125;    0.000
1030.494; 8436.800;  207.125;    0.000
1030.650; 8681.800;  230.125;    0.000
1030.807; 8679.800;  217.125;    0.000
1030.964; 7720.800;  212.125;    0.000
1031.121; 7656.800;  220.125;    0.000
1031.277; 7831.800;  233.125;    0.000
1031.434; 8543.800;  266.125;    0.000
1031.591; 9208.800;  270.125;    0.000
1031.747; 9305.800;  229.125;    0.000
1031.904; 8325.800;  227.125;    0.000
1032.060; 7754.800;  210.125;    0.000
1032.217; 7834.800;  218.125;    0.000
1032.373; 9237.800;  190.125;    0.000
1032.530; 9535.800;  236.125;    0.000
1032.686;10215.800;  199.125;    0.000
1032.843;10350.800;  216.125;    0.000
1032.999; 8928.800;  204.125;    0.000
1033.155; 9077.800;  208.125;    0.000
1033.312; 9686.800;  231.125;    0.000
1033.468;11638.800;  213.125;    0.000
1033.624;12464.800;  235.125;    0.000
1033.780;12911.800;  233.125;    0.000
1033.937;12825.800;  201.125;    0.000
1034.093;11350.800;  233.125;    0.000
1034.249;11664.800;  214.125;    0.000
1034.405;11677.800;  245.125;    0.000
1034.561;13396.800;  228.125;    0.000
1034.717;14013.800;  234.125;    0.000
1034.873;13954.800;  248.125;    0.000
1035.029;14005.800;  220.125;    0.000
1035.185;12963.800;  294.125;    0.000
1035.341;12139.800;  231.125;    0.000
1035.497;13267.800;  254.125;    0.000
1035.653;13610.800;  225.125;    0.000
1035.809;15193.800;  243.125;    0.000
1035.964;16252.800;  216.125;    0.000
1036.120;15624.800;  199.125;    0.000
1036.276;15066.800;  220.125;    0.000
1036.432;15226.800;  210.125;    0.000
1036.587;13887.800;  225.125;    0.000
1036.743;15037.800;  245.125;    0.000
1036.899;16327.800;  219.125;    0.000
1037.054;16676.801;  157.125;    0.000
1037.210;18308.801;  208.125;    0.000
1037.365;18510.801;  230.125;    0.000
1037.521;17271.801;  236.125;    0.000
1037.676;16578.801;  193.125;    0.000
1037.832;15441.800;  246.125;    0.000
1037.987;15939.800;  231.125;    0.000
1038.143;16160.800;  234.125;    0.000
1038.298;18454.801;  219.125;    0.000
1038.453;18568.801;  230.125;    0.000
1038.609;19019.801;  254.125;    0.000
1038.764;21016.801;  249.125;    0.000
1038.919;18819.801;  224.125;    0.000
1039.074;18876.801;  209.125;    0.000
1039.229;17539.801;  214.125;    0.000
1039.385;17182.801;  268.125;    0.000
1039.540;17967.801;  268.125;    0.000
1039.695;20290.801;  229.125;    0.000
1039.850;21667.801;  252.125;    0.000
1040.005;22370.801;  248.125;    0.000
1040.160;23394.801;  215.125;    0.000
1040.315;23152.801;  239.125;    0.000
1040.470;21706.801;  210.125;    0.000
1040.625;20964.801;  239.125;    0.000
1040.780;21260.801;  251.125;    0.000
1040.935;20334.801;  247.125;    0.000
1041.089;20919.801;  215.125;    0.000
1041.244;23678.801;  210.125;    0.000
1041.399;25097.801;  237.125;    0.000
1041.554;27119.801;  253.125;    0.000
1041.708;30178.801;  227.125;    0.000
1041.863;30470.801;  219.125;    0.000
1042.018;27630.801;  246.125;    0.000
1042.172;27687.801;  236.125;    0.000
1042.327;25606.801;  272.125;    0.000
1042.481;24938.801;  197.125;    0.000
1042.636;25950.801;  213.125;    0.000
1042.791;26336.801;  250.125;    0.000
1042.945;30754.801;  267.125;    0.000
1043.099;33800.801;  257.125;    0.000
1043.254;33036.801;  206.125;    0.000
1043.408;34840.801;  266.125;    0.000
1043.563;36709.801;  232.125;    0.000
1043.717;35894.801;  241.125;    0.000
1043.871;34653.801;  248.125;    0.000
1044.025;32523.801;  234.125;    0.000
1044.180;31297.801;  222.125;    0.000
1044.334;32409.801;  235.125;    0.000
1044.488;33766.801;  270.125;    0.000
1044.642;34463.801;  215.125;    0.000
1044.796;37830.801;  212.125;    0.000
1044.950;42029.801;  228.125;    0.000
1045.104;44229.801;  223.125;    0.000
1045.258;46322.801;  236.125;    0.000
1045.412;44800.801;  225.125;    0.000
1045.566;44440.801;  245.125;    0.000
1045.720;44089.801;  201.125;    0.000
1045.874;41001.801;  229.125;    0.000
1046.028;37104.801;  243.125;    0.000
1046.182;36647.801;  212.125;    0.000
1046.336;39837.801;  256.125;    0.000
1046.489;41311.801;  234.125;    0.000
1046.643;41461.801;  246.125;    0.000
1046.797;44247.801;  219.125;    0.000
1046.951;46324.801;  231.125;    0.000
1047.104;44767.801;  285.125;    0.000
1047.258;49036.801;  256.125;    0.000
1047.411;52735.801;  232.125;    0.000
1047.565;50970.801;  269.125;    0.000
1047.719;48193.801;  213.125;    0.000
1047.872;45508.801;  210.125;    0.000
1048.026;45611.801;  251.125;    0.000
1048.179;46622.801;  213.125;    0.000
1048.332;47210.801;  212.125;    0.000
1048.486;45335.801;  218.125;    0.000
1048.639;46545.801;  218.125;    0.000
1048.792;47436.801;  247.125;    0.000
1048.946;49032.801;  208.125;    0.000
1049.099;54946.801;  247.125;    0.000
1049.252;55856.801;  274.125;    0.000
1049.406;52765.801;  232.125;    0.000
1049.559;53351.801;  251.125;    0.000
1049.712;58517.801;  243.125;    0.000
1049.865;61486.801;  219.125;    0.000
1050.018;63591.801;  216.125;    0.000
1050.171;55875.801;  237.125;    0.000
1050.324;52850.801;  291.125;    0.000
1050.477;54691.801;  241.125;    0.000
1050.630;58194.801;  245.125;    0.000
1050.783;61790.801;  213.125;    0.000
1050.936;58304.801;  246.125;    0.000
1051.089;54528.801;  255.125;    0.000
1051.242;55098.801;  228.125;    0.000
1051.394;62124.801;  276.125;    0.000
1051.547;64110.801;  246.125;    0.000
1051.700;60659.801;  252.125;    0.000
1051.853;58069.801;  267.125;    0.000
1052.005;59546.801;  261.125;    0.000
1052.158;65061.801;  313.125;    0.000
1052.311;65061.801;  264.125;    0.000
1052.463;65061.801;  271.125;    0.000
1052.616;65061.801;  291.125;    0.000
1052.768;59208.801;  298.125;    0.000
1052.921;56648.801;  262.125;    0.000
1053.073;62252.801;  307.125;    0.000
1053.226;65061.801;  301.125;    0.000
1053.378;65061.801;  309.125;    0.000
1053.531;65061.801;  280.125;    0.000
1053.683;65061.801;  258.125;    0.000
1053.835;65061.801;  267.125;    0.000
1053.988;52372.801;  294.125;    0.000
1054.140; 8981.800;  292.125;    0.000
1054.292; 2230.800;  249.125;    0.000
1054.444; 1711.800;  288.125;    0.000
1054.596; 1621.800;  275.125;    0.000
1054.749; 1393.800;  284.125;    0.000
1054.901; 1307.800;  291.125;    0.000
1055.053; 1224.800;  274.125;    0.000
1055.205; 1200.800;  313.125;    0.000
1055.357; 1077.800;  309.125;    0.000
1055.509; 1041.800;  283.125;    0.000
1055.661; 1006.800;  341.125;    0.000
1055.813;  977.800;  288.125;    0.000
1055.965;  955.800;  300.125;    0.000
1056.116;  927.800;  296.125;    0.000
1056.268;  947.800;  319.125;    0.000
1056.420; 1016.800;  298.125;    0.000

