
Integration time [ms]:   1.000
Averaging Nr. [scans]: 1
Smoothing Nr. [pixels]: 0
Data measured with spectrometer [name]: NIR
Wave   ;Sample   ;Dark     ;Reference
[nm]   ;[counts] ;[counts] ;[counts] 

691.496;  -84.475;  163.125;    0.000
691.696;  -37.475;  208.125;    0.000
691.896;  -97.475;  111.125;    0.000
692.096;  -68.475;  178.125;    0.000
692.296; -110.475;   93.125;    0.000
692.496;  -53.475;  161.125;    0.000
692.695; -109.475;  135.125;    0.000
692.895;  -71.475;  179.125;    0.000
693.095; -107.475;  158.125;    0.000
693.295;  -38.475;  168.125;    0.000
693.495;  -75.475;  170.125;    0.000
693.695;  -81.475;  155.125;    0.000
693.894;  -40.475;  151.125;    0.000
694.094;  -84.475;  164.125;    0.000
694.294;  -60.475;  129.125;    0.000
694.494;  109.525;  170.125;    0.000
694.693; 1708.525;  137.125;    0.000
694.893; 1822.525;  163.125;    0.000
695.093; 1896.525;  121.125;    0.000
695.293; 1858.525;  144.125;    0.000
695.492; 1869.525;   88.125;    0.000
695.692; 1935.525;  148.125;    0.000
695.891; 1872.525;  125.125;    0.000
696.091; 1979.525;  184.125;    0.000
696.291; 1906.525;  153.125;    0.000
696.490; 2013.525;  131.125;    0.000
696.690; 2010.525;  123.125;    0.000
696.889; 1969.525;  180.125;    0.000
697.089; 2016.525;  147.125;    0.000
697.288; 1972.525;  164.125;    0.000
697.488; 1903.525;  133.125;    0.000
697.687; 2006.525;  153.125;    0.000
697.887; 1993.525;  119.125;    0.000
698.086; 1999.525;  143.125;    0.000
698.286; 2007.525;  125.125;    0.000
698.485; 1974.525;  120.125;    0.000
698.684; 1924.525;  116.125;    0.000
698.884; 1999.525;  131.125;    0.000
699.083; 1922.525;  115.125;    0.000
699.282; 1916.525;  144.125;    0.000
699.482; 1960.525;  109.125;    0.000
699.681; 1947.525;  115.125;    0.000
699.880; 2054.525;  125.125;    0.000
700.080; 2070.525;  139.125;    0.000
700.279; 1963.525;  111.125;    0.000
700.478; 2119.525;  146.125;    0.000
700.677; 1976.525;  131.125;    0.000
700.877; 2100.525;  156.125;    0.000
701.076; 2100.525;  153.125;    0.000
701.275; 2010.525;  123.125;    0.000
701.474; 2036.525;  150.125;    0.000
701.673; 1975.525;   97.125;    0.000
701.872; 2015.525;  139.125;    0.000
702.071; 2011.525;  108.125;    0.000
702.271; 1976.525;  125.125;    0.000
702.470; 2065.525;  108.125;    0.000
702.669; 2084.525;  102.125;    0.000
702.868; 1994.525;  153.125;    0.000
703.067; 1990.525;  145.125;    0.000
703.266; 2065.525;   96.125;    0.000
703.465; 2037.525;  165.125;    0.000
703.664; 2081.525;  106.125;    0.000
703.863; 2170.525;  144.125;    0.000
704.062; 2036.525;   86.125;    0.000
704.260; 2087.525;   99.125;    0.000
704.459; 2159.525;  112.125;    0.000
704.658; 2109.525;  106.125;    0.000
704.857; 2104.525;  129.125;    0.000
705.056; 2051.525;   98.125;    0.000
705.255; 2094.525;   97.125;    0.000
705.454; 2058.525;  101.125;    0.000
705.652; 2067.525;  142.125;    0.000
705.851; 2149.525;  100.125;    0.000
706.050; 2190.525;  162.125;    0.000
706.249; 2064.525;  146.125;    0.000
706.447; 2034.525;  120.125;    0.000
706.646; 2078.525;  114.125;    0.000
706.845; 2047.525;  117.125;    0.000
707.043; 2150.525;  136.125;    0.000
707.242; 2147.525;   90.125;    0.000
707.441; 2122.525;  131.125;    0.000
707.639; 2104.525;  120.125;    0.000
707.838; 2126.525;  122.125;    0.000
708.037; 2058.525;  109.125;    0.000
708.235; 2142.525;  122.125;    0.000
708.434; 2152.525;  109.125;    0.000
708.632; 2191.525;   47.125;    0.000
708.831; 2244.525;  122.125;    0.000
709.029; 2128.525;  130.125;    0.000
709.228; 2098.525;  112.125;    0.000
709.426; 2249.525;  128.125;    0.000
709.625; 2226.525;  129.125;    0.000
709.823; 2135.525;  130.125;    0.000
710.022; 2265.525;   90.125;    0.000
710.220; 2210.525;  131.125;    0.000
710.418; 2185.525;  133.125;    0.000
710.617; 2254.525;   82.125;    0.000
710.815; 2174.525;   90.125;    0.000
711.013; 2153.525;   86.125;    0.000
711.212; 2210.525;  117.125;    0.000
711.410; 2249.525;  106.125;    0.000
711.608; 2296.525;  138.125;    0.000
711.807; 2196.525;  116.125;    0.000
712.005; 2151.525;   82.125;    0.000
712.203; 2164.525;   90.125;    0.000
712.401; 2265.525;  124.125;    0.000
712.599; 2279.525;   64.125;    0.000
712.798; 2203.525;  113.125;    0.000
712.996; 2200.525;  100.125;    0.000
713.194; 2227.525;  130.125;    0.000
713.392; 2249.525;   89.125;    0.000
713.590; 2272.525;  105.125;    0.000
713.788; 2344.525;  100.125;    0.000
713.986; 2275.525;  117.125;    0.000
714.184; 2228.525;   72.125;    0.000
714.382; 2285.525;   88.125;    0.000
714.580; 2289.525;   88.125;    0.000
714.778; 2331.525;  129.125;    0.000
714.976; 2354.525;   90.125;    0.000
715.174; 2413.525;  119.125;    0.000
715.372; 2469.525;  117.125;    0.000
715.570; 2581.525;  101.125;    0.000
715.768; 2674.525;  122.125;    0.000
715.966; 2768.525;  114.125;    0.000
716.164; 2751.525;  135.125;    0.000
716.362; 2667.525;  126.125;    0.000
716.560; 2589.525;  126.125;    0.000
716.758; 2580.525;   98.125;    0.000
716.955; 2553.525;   76.125;    0.000
717.153; 2482.525;   45.125;    0.000
717.351; 2564.525;  106.125;    0.000
717.549; 2493.525;  108.125;    0.000
717.746; 2415.525;   66.125;    0.000
717.944; 2573.525;  127.125;    0.000
718.142; 2502.525;  148.125;    0.000
718.340; 2543.525;   94.125;    0.000
718.537; 2469.525;  107.125;    0.000
718.735; 2580.525;  130.125;    0.000
718.933; 2547.525;  111.125;    0.000
719.130; 2450.525;  107.125;    0.000
719.328; 2514.525;  128.125;    0.000
719.525; 2505.525;  141.125;    0.000
719.723; 2471.525;  122.125;    0.000
719.920; 2498.525;   85.125;    0.000
720.118; 2454.525;  115.125;    0.000
720.316; 2520.525;  153.125;    0.000
720.513; 2423.525;  120.125;    0.000
720.711; 2424.525;  134.125;    0.000
720.908; 2460.525;  126.125;    0.000
721.105; 2558.525;  119.125;    0.000
721.303; 2539.525;  112.125;    0.000
721.500; 2534.525;  125.125;    0.000
721.698; 2461.525;   94.125;    0.000
721.895; 2493.525;  118.125;    0.000
722.092; 2440.525;   77.125;    0.000
722.290; 2436.525;  135.125;    0.000
722.487; 2450.525;  154.125;    0.000
722.684; 2525.525;  122.125;    0.000
722.882; 2449.525;   90.125;    0.000
723.079; 2463.525;  132.125;    0.000
723.276; 2581.525;   95.125;    0.000
723.473; 2534.525;  106.125;    0.000
723.671; 2415.525;   80.125;    0.000
723.868; 2459.525;  112.125;    0.000
724.065; 2532.525;  107.125;    0.000
724.262; 2653.525;  119.125;    0.000
724.459; 2514.525;   80.125;    0.000
724.656; 2590.525;  109.125;    0.000
724.854; 2480.525;  107.125;    0.000
725.051; 2539.525;  103.125;    0.000
725.248; 2525.525;  101.125;    0.000
725.445; 2532.525;   93.125;    0.000
725.642; 2586.525;   92.125;    0.000
725.839; 2455.525;  157.125;    0.000
726.036; 2486.525;   71.125;    0.000
726.233; 2391.525;   80.125;    0.000
726.430; 2587.525;  146.125;    0.000
726.627; 2488.525;  103.125;    0.000
726.824; 2474.525;   46.125;    0.000
727.021; 2596.525;  149.125;    0.000
727.218; 2480.525;   87.125;    0.000
727.414; 2500.525;  112.125;    0.000
727.611; 2565.525;  111.125;    0.000
727.808; 2502.525;  122.125;    0.000
728.005; 2537.525;   58.125;    0.000
728.202; 2607.525;  129.125;    0.000
728.399; 2447.525;  111.125;    0.000
728.595; 2559.525;   93.125;    0.000
728.792; 2596.525;   78.125;    0.000
728.989; 2663.525;  104.125;    0.000
729.186; 2532.525;  110.125;    0.000
729.382; 2612.525;   93.125;    0.000
729.579; 2598.525;  102.125;    0.000
729.776; 2573.525;  112.125;    0.000
729.972; 2576.525;  101.125;    0.000
730.169; 2627.525;  150.125;    0.000
730.366; 2639.525;   92.125;    0.000
730.562; 2600.525;   74.125;    0.000
730.759; 2585.525;   97.125;    0.000
730.955; 2679.525;   86.125;    0.000
731.152; 2480.525;   88.125;    0.000
731.348; 2554.525;  117.125;    0.000
731.545; 2573.525;   62.125;    0.000
731.741; 2603.525;   84.125;    0.000
731.938; 2592.525;  108.125;    0.000
732.134; 2587.525;  115.125;    0.000
732.331; 2568.525;   88.125;    0.000
732.527; 2631.525;   96.125;    0.000
732.724; 2652.525;  103.125;    0.000
732.920; 2567.525;   93.125;    0.000
733.116; 2602.525;  109.125;    0.000
733.313; 2665.525;   77.125;    0.000
733.509; 2630.525;   81.125;    0.000
733.705; 2677.525;  141.125;    0.000
733.902; 2692.525;   88.125;    0.000
734.098; 2652.525;   56.125;    0.000
734.294; 2653.525;  122.125;    0.000
734.490; 2648.525;  102.125;    0.000
734.687; 2667.525;   70.125;    0.000
734.883; 2649.525;   73.125;    0.000
735.079; 2603.525;   65.125;    0.000
735.275; 2633.525;  112.125;    0.000
735.471; 2681.525;  124.125;    0.000
735.667; 2682.525;   94.125;    0.000
735.863; 2647.525;  106.125;    0.000
736.060; 2650.525;  106.125;    0.000
736.256; 2739.525;   95.125;    0.000
736.452; 2675.525;  103.125;    0.000
736.648; 2702.525;  106.125;    0.000
736.844; 2710.525;   98.125;    0.000
737.040; 2766.525;  118.125;    0.000
737.236; 2710.525;   95.125;    0.000
737.432; 2724.525;   59.125;    0.000
737.628; 2668.525;  120.125;    0.000
737.824; 2824.525;   78.125;    0.000
738.019; 2750.525;   98.125;    0.000
738.215; 2784.525;  127.125;    0.000
738.411; 2739.525;  111.125;    0.000
738.607; 2669.525;   69.125;    0.000
738.803; 2753.525;   40.125;    0.000
738.999; 2718.525;  128.125;    0.000
739.195; 2829.525;   81.125;    0.000
739.390; 2830.525;   97.125;    0.000
739.586; 2835.525;  100.125;    0.000
739.782; 2853.525;  135.125;    0.000
739.978; 2816.525;  121.125;    0.000
740.173; 2883.525;   92.125;    0.000
740.369; 2766.525;   92.125;    0.000
740.565; 2928.525;  119.125;    0.000
740.760; 2873.525;  139.125;    0.000
740.956; 2833.525;  134.125;    0.000
741.152; 2916.525;  107.125;    0.000
741.347; 2896.525;   63.125;    0.000
741.543; 2949.525;   99.125;    0.000
741.738; 2971.525;  119.125;    0.000
741.934; 3127.525;  156.125;    0.000
742.129; 3159.525;   87.125;    0.000
742.325; 3471.525;  143.125;    0.000
742.520; 3641.525;  109.125;    0.000
742.716; 3614.525;  135.125;    0.000
742.911; 3430.525;   77.125;    0.000
743.107; 3416.525;  117.125;    0.000
743.302; 3408.525;   93.125;    0.000
743.498; 3469.525;  118.125;    0.000
743.693; 3446.525;   95.125;    0.000
743.888; 3564.525;  122.125;    0.000
744.084; 4049.525;  104.125;    0.000
744.279; 4707.525;   94.125;    0.000
744.474; 4761.525;  138.125;    0.000
744.670; 4270.525;  113.125;    0.000
744.865; 3977.525;  116.125;    0.000
745.060; 3939.525;   89.125;    0.000
745.255; 3742.525;  144.125;    0.000
745.451; 3709.525;   98.125;    0.000
745.646; 3636.525;  110.125;    0.000
745.841; 3637.525;   87.125;    0.000
746.036; 3638.525;   98.125;    0.000
746.231; 3722.525;  153.125;    0.000
746.426; 3835.525;   90.125;    0.000
746.622; 4297.525;  154.125;    0.000
746.817; 5411.525;  111.125;    0.000
747.012; 6064.525;  110.125;    0.000
747.207; 5448.525;   76.125;    0.000
747.402; 4936.525;   94.125;    0.000
747.597; 4619.525;   68.125;    0.000
747.792; 4418.525;  125.125;    0.000
747.987; 4207.525;   92.125;    0.000
748.182; 4241.525;  113.125;    0.000
748.377; 3949.525;   72.125;    0.000
748.572; 3896.525;  135.125;    0.000
748.767; 3832.525;   98.125;    0.000
748.961; 3654.525;  123.125;    0.000
749.156; 3619.525;   96.125;    0.000
749.351; 3575.525;  121.125;    0.000
749.546; 3537.525;   95.125;    0.000
749.741; 3453.525;  144.125;    0.000
749.936; 3418.525;  105.125;    0.000
750.130; 3286.525;  101.125;    0.000
750.325; 3338.525;  126.125;    0.000
750.520; 3311.525;  113.125;    0.000
750.715; 3263.525;  135.125;    0.000
750.909; 3254.525;  138.125;    0.000
751.104; 3256.525;   96.125;    0.000
751.299; 3226.525;  118.125;    0.000
751.493; 3188.525;  124.125;    0.000
751.688; 3194.525;  131.125;    0.000
751.882; 3146.525;   96.125;    0.000
752.077; 3119.525;  123.125;    0.000
752.272; 3194.525;  112.125;    0.000
752.466; 3147.525;  143.125;    0.000
752.661; 3122.525;  107.125;    0.000
752.855; 3026.525;   97.125;    0.000
753.050; 2924.525;  125.125;    0.000
753.244; 3166.525;  161.125;    0.000
753.439; 3086.525;  101.125;    0.000
753.633; 3102.525;  129.125;    0.000
753.828; 3098.525;  114.125;    0.000
754.022; 3079.525;  118.125;    0.000
754.216; 2988.525;  126.125;    0.000
754.411; 3030.525;  148.125;    0.000
754.605; 2974.525;  100.125;    0.000
754.799; 3096.525;  146.125;    0.000
754.994; 3076.525;  116.125;    0.000
755.188; 3009.525;  146.125;    0.000
755.382; 2990.525;  103.125;    0.000
755.576; 2936.525;  119.125;    0.000
755.771; 3011.525;  100.125;    0.000
755.965; 2959.525;  129.125;    0.000
756.159; 3013.525;  100.125;    0.000
756.353; 2958.525;  153.125;    0.000
756.547; 2921.525;  113.125;    0.000
756.742; 2904.525;  129.125;    0.000
756.936; 2948.525;   70.125;    0.000
757.130; 2993.525;   91.125;    0.000
757.324; 2962.525;   92.125;    0.000
757.518; 2985.525;  128.125;    0.000
757.712; 2925.525;  146.125;    0.000
757.906; 2927.525;  114.125;    0.000
758.100; 2965.525;  153.125;    0.000
758.294; 3028.525;  133.125;    0.000
758.488; 2951.525;  149.125;    0.000
758.682; 2993.525;  132.125;    0.000
758.876; 2904.525;  128.125;    0.000
759.070; 2897.525;  178.125;    0.000
759.264; 3007.525;   98.125;    0.000
759.458; 2986.525;  168.125;    0.000
759.651; 2895.525;  131.125;    0.000
759.845; 2881.525;  133.125;    0.000
760.039; 2995.525;  120.125;    0.000
760.233; 3000.525;  116.125;    0.000
760.427; 2984.525;  121.125;    0.000
760.620; 2920.525;  163.125;    0.000
760.814; 3043.525;  106.125;    0.000
761.008; 3008.525;  119.125;    0.000
761.202; 3031.525;  121.125;    0.000
761.395; 2965.525;  136.125;    0.000
761.589; 2919.525;  111.125;    0.000
761.783; 2996.525;  116.125;    0.000
761.976; 2937.525;  139.125;    0.000
762.170; 3052.525;  140.125;    0.000
762.363; 2937.525;  115.125;    0.000
762.557; 3052.525;  129.125;    0.000
762.750; 3017.525;   85.125;    0.000
762.944; 2969.525;  107.125;    0.000
763.138; 2985.525;   99.125;    0.000
763.331; 3035.525;   97.125;    0.000
763.524; 2947.525;  100.125;    0.000
763.718; 3063.525;  130.125;    0.000
763.911; 3023.525;  127.125;    0.000
764.105; 2955.525;   69.125;    0.000
764.298; 2956.525;   94.125;    0.000
764.492; 3118.525;  129.125;    0.000
764.685; 2964.525;  114.125;    0.000
764.878; 2994.525;  145.125;    0.000
765.072; 3066.525;  124.125;    0.000
765.265; 2957.525;  124.125;    0.000
765.458; 2998.525;  108.125;    0.000
765.651; 3155.525;  132.125;    0.000
765.845; 3030.525;  106.125;    0.000
766.038; 3014.525;  155.125;    0.000
766.231; 3441.525;  153.125;    0.000
766.424; 4862.525;  165.125;    0.000
766.617; 5200.525;   85.125;    0.000
766.811; 3384.525;  140.125;    0.000
767.004; 3216.525;  151.125;    0.000
767.197; 3085.525;  178.125;    0.000
767.390; 3068.525;  112.125;    0.000
767.583; 3115.525;  134.125;    0.000
767.776; 3099.525;  101.125;    0.000
767.969; 3087.525;   99.125;    0.000
768.162; 3189.525;  152.125;    0.000
768.355; 3053.525;  115.125;    0.000
768.548; 3090.525;  154.125;    0.000
768.741; 3164.525;  124.125;    0.000
768.934; 3182.525;  129.125;    0.000
769.127; 3263.525;  137.125;    0.000
769.320; 3297.525;  115.125;    0.000
769.513; 3176.525;  144.125;    0.000
769.706; 3673.525;  107.125;    0.000
769.898; 5140.525;  134.125;    0.000
770.091; 4034.525;  128.125;    0.000
770.284; 3417.525;   97.125;    0.000
770.477; 3287.525;  135.125;    0.000
770.670; 3385.525;  137.125;    0.000
770.862; 3299.525;  112.125;    0.000
771.055; 3240.525;  127.125;    0.000
771.248; 3359.525;  116.125;    0.000
771.441; 3332.525;  101.125;    0.000
771.633; 3397.525;  130.125;    0.000
771.826; 3466.525;  147.125;    0.000
772.018; 3355.525;  117.125;    0.000
772.211; 3550.525;  141.125;    0.000
772.404; 3579.525;  104.125;    0.000
772.596; 3427.525;  128.125;    0.000
772.789; 3536.525;  131.125;    0.000
772.981; 3592.525;  134.125;    0.000
773.174; 3614.525;  108.125;    0.000
773.366; 3684.525;  153.125;    0.000
773.559; 3652.525;  137.125;    0.000
773.751; 3715.525;  119.125;    0.000
773.944; 3811.525;  148.125;    0.000
774.136; 3888.525;  155.125;    0.000
774.329; 3911.525;  126.125;    0.000
774.521; 3973.525;  116.125;    0.000
774.713; 4150.525;  119.125;    0.000
774.906; 4314.525;  179.125;    0.000
775.098; 4539.525;  127.125;    0.000
775.290; 4694.525;  146.125;    0.000
775.483; 4759.525;  123.125;    0.000
775.675; 5170.525;  119.125;    0.000
775.867; 5324.525;  119.125;    0.000
776.059; 5820.525;  137.125;    0.000
776.251; 6318.525;  154.125;    0.000
776.444; 6902.525;  101.125;    0.000
776.636; 8184.525;  153.125;    0.000
776.828; 9885.525;  127.125;    0.000
777.020;13619.525;  140.125;    0.000
777.212;20186.525;  160.125;    0.000
777.404;22576.525;  170.125;    0.000
777.596;20849.525;  136.125;    0.000
777.788;15765.525;  137.125;    0.000
777.980;12240.525;  129.125;    0.000
778.172;10018.525;  139.125;    0.000
778.364; 8721.525;  124.125;    0.000
778.556; 7745.525;  163.125;    0.000
778.748; 7075.525;  142.125;    0.000
778.940; 6515.525;  178.125;    0.000
779.132; 5980.525;  159.125;    0.000
779.324; 5579.525;  109.125;    0.000
779.516; 5353.525;  143.125;    0.000
779.708; 5056.525;  158.125;    0.000
779.900; 4784.525;  142.125;    0.000
780.091; 4635.525;  131.125;    0.000
780.283; 4406.525;  176.125;    0.000
780.475; 4333.525;  151.125;    0.000
780.667; 4175.525;  120.125;    0.000
780.859; 4037.525;  134.125;    0.000
781.050; 4122.525;  183.125;    0.000
781.242; 3924.525;   95.125;    0.000
781.434; 3759.525;  127.125;    0.000
781.625; 3724.525;  163.125;    0.000
781.817; 3715.525;  170.125;    0.000
782.008; 3546.525;  123.125;    0.000
782.200; 3557.525;  141.125;    0.000
782.392; 3590.525;  149.125;    0.000
782.583; 3489.525;  155.125;    0.000
782.775; 3564.525;  140.125;    0.000
782.966; 3352.525;  167.125;    0.000
783.158; 3367.525;  164.125;    0.000
783.349; 3312.525;  174.125;    0.000
783.541; 3297.525;  141.125;    0.000
783.732; 3299.525;  115.125;    0.000
783.924; 3301.525;  135.125;    0.000
784.115; 3274.525;  157.125;    0.000
784.306; 3195.525;  102.125;    0.000
784.498; 3127.525;  124.125;    0.000
784.689; 3204.525;  171.125;    0.000
784.880; 3089.525;  165.125;    0.000
785.072; 3090.525;  152.125;    0.000
785.263; 3166.525;  146.125;    0.000
785.454; 3178.525;  145.125;    0.000
785.645; 3067.525;  127.125;    0.000
785.837; 3219.525;  138.125;    0.000
786.028; 3034.525;  151.125;    0.000
786.219; 3080.525;  142.125;    0.000
786.410; 3096.525;  140.125;    0.000
786.601; 3056.525;  137.125;    0.000
786.792; 3062.525;  158.125;    0.000
786.984; 3120.525;  139.125;    0.000
787.175; 3031.525;  140.125;    0.000
787.366; 2987.525;  145.125;    0.000
787.557; 3141.525;  156.125;    0.000
787.748; 3088.525;  148.125;    0.000
787.939; 3097.525;  157.125;    0.000
788.130; 3116.525;  179.125;    0.000
788.321; 3066.525;  142.125;    0.000
788.512; 3205.525;  167.125;    0.000
788.703; 3115.525;  145.125;    0.000
788.894; 3151.525;  132.125;    0.000
789.084; 3175.525;  113.125;    0.000
789.275; 3200.525;  134.125;    0.000
789.466; 3211.525;  151.125;    0.000
789.657; 3198.525;  138.125;    0.000
789.848; 3256.525;  145.125;    0.000
790.039; 3156.525;  130.125;    0.000
790.229; 3145.525;  140.125;    0.000
790.420; 3098.525;  135.125;    0.000
790.611; 3218.525;  156.125;    0.000
790.801; 3195.525;   64.125;    0.000
790.992; 3115.525;  150.125;    0.000
791.183; 3169.525;  177.125;    0.000
791.373; 3070.525;   91.125;    0.000
791.564; 3132.525;   85.125;    0.000
791.755; 3240.525;  125.125;    0.000
791.945; 3222.525;   94.125;    0.000
792.136; 3103.525;   98.125;    0.000
792.326; 3068.525;  105.125;    0.000
792.517; 3135.525;  136.125;    0.000
792.707; 3277.525;  140.125;    0.000
792.898; 3258.525;  164.125;    0.000
793.088; 3076.525;  116.125;    0.000
793.279; 3179.525;  112.125;    0.000
793.469; 3122.525;  105.125;    0.000
793.660; 3153.525;  161.125;    0.000
793.850; 3380.525;  133.125;    0.000
794.040; 3313.525;  121.125;    0.000
794.231; 3490.525;  115.125;    0.000
794.421; 3590.525;  152.125;    0.000
794.611; 4095.525;  132.125;    0.000
794.802; 4547.525;  144.125;    0.000
794.992; 4731.525;  142.125;    0.000
795.182; 4896.525;  179.125;    0.000
795.372; 4710.525;  167.125;    0.000
795.563; 4404.525;  149.125;    0.000
795.753; 4078.525;  117.125;    0.000
795.943; 3816.525;  146.125;    0.000
796.133; 3601.525;  119.125;    0.000
796.323; 3574.525;  141.125;    0.000
796.513; 3465.525;  134.125;    0.000
796.703; 3348.525;  116.125;    0.000
796.893; 3255.525;  120.125;    0.000
797.083; 3291.525;  131.125;    0.000
797.273; 3190.525;  118.125;    0.000
797.463; 3151.525;  130.125;    0.000
797.653; 3037.525;   87.125;    0.000
797.843; 3088.525;  123.125;    0.000
798.033; 3038.525;  115.125;    0.000
798.223; 2994.525;  142.125;    0.000
798.413; 2922.525;  148.125;    0.000
798.603; 2935.525;  147.125;    0.000
798.793; 2847.525;  107.125;    0.000
798.983; 2760.525;  121.125;    0.000
799.172; 2796.525;  120.125;    0.000
799.362; 2774.525;  145.125;    0.000
799.552; 2756.525;  101.125;    0.000
799.742; 2698.525;  149.125;    0.000
799.932; 2755.525;  104.125;    0.000
800.121; 2655.525;  175.125;    0.000
800.311; 2616.525;  132.125;    0.000
800.501; 2705.525;  118.125;    0.000
800.690; 2748.525;  162.125;    0.000
800.880; 2632.525;  141.125;    0.000
801.070; 2596.525;  151.125;    0.000
801.259; 2667.525;  167.125;    0.000
801.449; 2615.525;  108.125;    0.000
801.638; 2629.525;  176.125;    0.000
801.828; 2571.525;  118.125;    0.000
802.017; 2719.525;  179.125;    0.000
802.207; 2580.525;  127.125;    0.000
802.396; 2618.525;  167.125;    0.000
802.586; 2547.525;  129.125;    0.000
802.775; 2632.525;  142.125;    0.000
802.965; 2464.525;  147.125;    0.000
803.154; 2583.525;  179.125;    0.000
803.343; 2574.525;  117.125;    0.000
803.533; 2572.525;  120.125;    0.000
803.722; 2469.525;  122.125;    0.000
803.911; 2515.525;  155.125;    0.000
804.101; 2416.525;  147.125;    0.000
804.290; 2450.525;  160.125;    0.000
804.479; 2459.525;  139.125;    0.000
804.668; 2495.525;  180.125;    0.000
804.857; 2410.525;  131.125;    0.000
805.047; 2409.525;  119.125;    0.000
805.236; 2460.525;  139.125;    0.000
805.425; 2522.525;  163.125;    0.000
805.614; 2518.525;  103.125;    0.000
805.803; 2444.525;  133.125;    0.000
805.992; 2445.525;  147.125;    0.000
806.181; 2397.525;  109.125;    0.000
806.370; 2448.525;  133.125;    0.000
806.559; 2356.525;  119.125;    0.000
806.748; 2417.525;  144.125;    0.000
806.937; 2381.525;  147.125;    0.000
807.126; 2463.525;  134.125;    0.000
807.315; 2381.525;  132.125;    0.000
807.504; 2347.525;  141.125;    0.000
807.693; 2389.525;  145.125;    0.000
807.882; 2415.525;   91.125;    0.000
808.071; 2428.525;  116.125;    0.000
808.260; 2405.525;  105.125;    0.000
808.448; 2458.525;  184.125;    0.000
808.637; 2349.525;  146.125;    0.000
808.826; 2398.525;  153.125;    0.000
809.015; 2385.525;  113.125;    0.000
809.203; 2343.525;  166.125;    0.000
809.392; 2446.525;  117.125;    0.000
809.581; 2473.525;  186.125;    0.000
809.770; 2430.525;  122.125;    0.000
809.958; 2377.525;  140.125;    0.000
810.147; 2366.525;  130.125;    0.000
810.335; 2350.525;  112.125;    0.000
810.524; 2441.525;  106.125;    0.000
810.713; 2432.525;  154.125;    0.000
810.901; 2413.525;  131.125;    0.000
811.090; 2356.525;  164.125;    0.000
811.278; 2422.525;  159.125;    0.000
811.467; 2449.525;  194.125;    0.000
811.655; 2543.525;  164.125;    0.000
811.844; 2523.525;  149.125;    0.000
812.032; 2495.525;  169.125;    0.000
812.220; 2438.525;  163.125;    0.000
812.409; 2377.525;  134.125;    0.000
812.597; 2500.525;  165.125;    0.000
812.785; 2564.525;  180.125;    0.000
812.974; 2378.525;  166.125;    0.000
813.162; 2422.525;  171.125;    0.000
813.350; 2495.525;  142.125;    0.000
813.539; 2385.525;  126.125;    0.000
813.727; 2477.525;  153.125;    0.000
813.915; 2416.525;  138.125;    0.000
814.103; 2430.525;  191.125;    0.000
814.291; 2478.525;  142.125;    0.000
814.479; 2505.525;  156.125;    0.000
814.668; 2409.525;  152.125;    0.000
814.856; 2463.525;  150.125;    0.000
815.044; 2518.525;  165.125;    0.000
815.232; 2508.525;  172.125;    0.000
815.420; 2503.525;  147.125;    0.000
815.608; 2561.525;  143.125;    0.000
815.796; 2430.525;  126.125;    0.000
815.984; 2516.525;  152.125;    0.000
816.172; 2463.525;  129.125;    0.000
816.360; 2540.525;  177.125;    0.000
816.548; 2595.525;  141.125;    0.000
816.736; 2634.525;  142.125;    0.000
816.924; 2643.525;  161.125;    0.000
817.111; 2642.525;  138.125;    0.000
817.299; 2723.525;  112.125;    0.000
817.487; 2782.525;  180.125;    0.000
817.675; 2922.525;  138.125;    0.000
817.863; 2954.525;  172.125;    0.000
818.050; 3214.525;  142.125;    0.000
818.238; 4026.525;  151.125;    0.000
818.426; 5014.525;  129.125;    0.000
818.613; 5096.525;  124.125;    0.000
818.801; 5262.525;  209.125;    0.000
818.989; 5212.525;  178.125;    0.000
819.176; 4606.525;  155.125;    0.000
819.364; 4884.525;  174.125;    0.000
819.552; 5589.525;  131.125;    0.000
819.739; 4450.525;  184.125;    0.000
819.927; 4087.525;  132.125;    0.000
820.114; 3938.525;  173.125;    0.000
820.302; 3991.525;  140.125;    0.000
820.489; 3763.525;  133.125;    0.000
820.677; 3862.525;  167.125;    0.000
820.864; 4044.525;  161.125;    0.000
821.052; 4342.525;  134.125;    0.000
821.239; 4740.525;  149.125;    0.000
821.426; 5276.525;  160.125;    0.000
821.614; 6696.525;  143.125;    0.000
821.801; 7329.525;  118.125;    0.000
821.988; 6368.525;  154.125;    0.000
822.176; 6349.525;  112.125;    0.000
822.363; 6549.525;  131.125;    0.000
822.550; 6145.525;  131.125;    0.000
822.737; 5347.525;  104.125;    0.000
822.924; 5085.525;  160.125;    0.000
823.112; 4867.525;  161.125;    0.000
823.299; 4431.525;  169.125;    0.000
823.486; 4311.525;  129.125;    0.000
823.673; 4152.525;  135.125;    0.000
823.860; 4025.525;  169.125;    0.000
824.047; 4094.525;  124.125;    0.000
824.234; 4514.525;  160.125;    0.000
824.421; 4644.525;  114.125;    0.000
824.608; 4133.525;  191.125;    0.000
824.795; 3809.525;  160.125;    0.000
824.982; 3650.525;  139.125;    0.000
825.169; 3308.525;  121.125;    0.000
825.356; 3259.525;  148.125;    0.000
825.543; 3109.525;  167.125;    0.000
825.730; 2999.525;  103.125;    0.000
825.917; 2884.525;  113.125;    0.000
826.104; 2881.525;  188.125;    0.000
826.290; 2812.525;  193.125;    0.000
826.477; 2737.525;  175.125;    0.000
826.664; 2680.525;  151.125;    0.000
826.851; 2607.525;  122.125;    0.000
827.038; 2625.525;  121.125;    0.000
827.224; 2483.525;  124.125;    0.000
827.411; 2493.525;  155.125;    0.000
827.598; 2531.525;  127.125;    0.000
827.784; 2370.525;  140.125;    0.000
827.971; 2499.525;  114.125;    0.000
828.157; 2320.525;  135.125;    0.000
828.344; 2371.525;  173.125;    0.000
828.531; 2336.525;  113.125;    0.000
828.717; 2342.525;  137.125;    0.000
828.904; 2278.525;  158.125;    0.000
829.090; 2363.525;  199.125;    0.000
829.277; 2320.525;  156.125;    0.000
829.463; 2143.525;  154.125;    0.000
829.650; 2298.525;  174.125;    0.000
829.836; 2218.525;  136.125;    0.000
830.022; 2262.525;  143.125;    0.000
830.209; 2253.525;  157.125;    0.000
830.395; 2206.525;  156.125;    0.000
830.581; 2148.525;  148.125;    0.000
830.768; 2108.525;  169.125;    0.000
830.954; 2134.525;  169.125;    0.000
831.140; 2077.525;  124.125;    0.000
831.327; 2154.525;  157.125;    0.000
831.513; 2075.525;  163.125;    0.000
831.699; 2163.525;  176.125;    0.000
831.885; 2064.525;  154.125;    0.000
832.071; 2107.525;  159.125;    0.000
832.257; 2070.525;  142.125;    0.000
832.444; 2076.525;  159.125;    0.000
832.630; 2026.525;  129.125;    0.000
832.816; 2055.525;  132.125;    0.000
833.002; 2064.525;  125.125;    0.000
833.188; 1986.525;  144.125;    0.000
833.374; 2075.525;  131.125;    0.000
833.560; 2036.525;  154.125;    0.000
833.746; 1960.525;  171.125;    0.000
833.932; 2023.525;  162.125;    0.000
834.118; 2024.525;  131.125;    0.000
834.303; 2066.525;  113.125;    0.000
834.489; 2045.525;  170.125;    0.000
834.675; 1987.525;  177.125;    0.000
834.861; 1940.525;  154.125;    0.000
835.047; 2013.525;  171.125;    0.000
835.233; 1964.525;   98.125;    0.000
835.418; 1947.525;  138.125;    0.000
835.604; 1896.525;  140.125;    0.000
835.790; 1971.525;  130.125;    0.000
835.976; 1943.525;  129.125;    0.000
836.161; 1909.525;  142.125;    0.000
836.347; 1888.525;  128.125;    0.000
836.533; 1941.525;  143.125;    0.000
836.718; 1960.525;  164.125;    0.000
836.904; 1996.525;  172.125;    0.000
837.089; 1833.525;  152.125;    0.000
837.275; 1925.525;  143.125;    0.000
837.460; 1961.525;  125.125;    0.000
837.646; 1921.525;  137.125;    0.000
837.831; 1979.525;  153.125;    0.000
838.017; 2029.525;  171.125;    0.000
838.202; 1953.525;  111.125;    0.000
838.388; 2011.525;  140.125;    0.000
838.573; 1955.525;  158.125;    0.000
838.759; 2050.525;  188.125;    0.000
838.944; 1935.525;  125.125;    0.000
839.129; 1965.525;  123.125;    0.000
839.315; 1982.525;  181.125;    0.000
839.500; 1930.525;  150.125;    0.000
839.685; 1992.525;  109.125;    0.000
839.870; 1978.525;  202.125;    0.000
840.056; 1977.525;  101.125;    0.000
840.241; 2032.525;  184.125;    0.000
840.426; 2074.525;  192.125;    0.000
840.611; 2003.525;  180.125;    0.000
840.796; 2068.525;  156.125;    0.000
840.981; 2033.525;  142.125;    0.000
841.166; 2093.525;  161.125;    0.000
841.352; 2152.525;  185.125;    0.000
841.537; 2160.525;  139.125;    0.000
841.722; 2137.525;  143.125;    0.000
841.907; 2095.525;  140.125;    0.000
842.092; 2233.525;  176.125;    0.000
842.277; 2189.525;  136.125;    0.000
842.461; 2233.525;  155.125;    0.000
842.646; 2279.525;  163.125;    0.000
842.831; 2274.525;  153.125;    0.000
843.016; 2409.525;  187.125;    0.000
843.201; 2355.525;  179.125;    0.000
843.386; 2517.525;  167.125;    0.000
843.571; 2596.525;  129.125;    0.000
843.755; 2692.525;  136.125;    0.000
843.940; 2777.525;  121.125;    0.000
844.125; 3230.525;  157.125;    0.000
844.310; 3593.525;  175.125;    0.000
844.494; 4661.525;  164.125;    0.000
844.679; 6339.525;  167.125;    0.000
844.864; 6157.525;  166.125;    0.000
845.048; 4882.525;  132.125;    0.000
845.233; 4287.525;  175.125;    0.000
845.418; 3805.525;  159.125;    0.000
845.602; 3416.525;  147.125;    0.000
845.787; 3149.525;  132.125;    0.000
845.971; 3002.525;  187.125;    0.000
846.156; 2784.525;  141.125;    0.000
846.340; 2709.525;  153.125;    0.000
846.525; 2599.525;  157.125;    0.000
846.709; 2483.525;  117.125;    0.000
846.893; 2430.525;  147.125;    0.000
847.078; 2349.525;  170.125;    0.000
847.262; 2321.525;  150.125;    0.000
847.447; 2138.525;  132.125;    0.000
847.631; 2184.525;  144.125;    0.000
847.815; 2182.525;  157.125;    0.000
848.000; 2073.525;  164.125;    0.000
848.184; 2091.525;  174.125;    0.000
848.368; 2136.525;  149.125;    0.000
848.552; 2037.525;  143.125;    0.000
848.736; 2028.525;  132.125;    0.000
848.921; 1977.525;  147.125;    0.000
849.105; 1966.525;  150.125;    0.000
849.289; 1961.525;  146.125;    0.000
849.473; 1973.525;  167.125;    0.000
849.657; 1919.525;  149.125;    0.000
849.841; 1903.525;  181.125;    0.000
850.025; 1970.525;  154.125;    0.000
850.209; 1877.525;  152.125;    0.000
850.393; 1781.525;  139.125;    0.000
850.577; 1888.525;  128.125;    0.000
850.761; 1830.525;  194.125;    0.000
850.945; 1742.525;  152.125;    0.000
851.129; 1883.525;  157.125;    0.000
851.313; 1879.525;  181.125;    0.000
851.497; 1813.525;  145.125;    0.000
851.680; 1892.525;  168.125;    0.000
851.864; 1818.525;  185.125;    0.000
852.048; 1802.525;  170.125;    0.000
852.232; 1786.525;  192.125;    0.000
852.416; 1847.525;  182.125;    0.000
852.599; 1861.525;  169.125;    0.000
852.783; 1814.525;  168.125;    0.000
852.967; 1864.525;  184.125;    0.000
853.150; 1774.525;  163.125;    0.000
853.334; 1860.525;  164.125;    0.000
853.518; 1853.525;  190.125;    0.000
853.701; 1788.525;  137.125;    0.000
853.885; 1871.525;  177.125;    0.000
854.068; 1710.525;  163.125;    0.000
854.252; 1751.525;  139.125;    0.000
854.435; 1851.525;  152.125;    0.000
854.619; 1711.525;  148.125;    0.000
854.802; 1774.525;  168.125;    0.000
854.986; 1738.525;  157.125;    0.000
855.169; 1782.525;  147.125;    0.000
855.353; 1756.525;  173.125;    0.000
855.536; 1814.525;  127.125;    0.000
855.719; 1782.525;  191.125;    0.000
855.903; 1820.525;  186.125;    0.000
856.086; 1766.525;  145.125;    0.000
856.269; 1787.525;  130.125;    0.000
856.452; 1812.525;  153.125;    0.000
856.636; 1862.525;  129.125;    0.000
856.819; 2033.525;  134.125;    0.000
857.002; 2002.525;  152.125;    0.000
857.185; 2002.525;  140.125;    0.000
857.368; 1859.525;  170.125;    0.000
857.552; 1916.525;  132.125;    0.000
857.735; 1891.525;  160.125;    0.000
857.918; 1882.525;  139.125;    0.000
858.101; 1834.525;  159.125;    0.000
858.284; 1878.525;  136.125;    0.000
858.467; 1957.525;  147.125;    0.000
858.650; 1932.525;  153.125;    0.000
858.833; 1916.525;  113.125;    0.000
859.016; 1940.525;  167.125;    0.000
859.199; 2096.525;  141.125;    0.000
859.382; 2207.525;  155.125;    0.000
859.564; 2317.525;  136.125;    0.000
859.747; 2209.525;  142.125;    0.000
859.930; 2085.525;  141.125;    0.000
860.113; 2113.525;  156.125;    0.000
860.296; 2076.525;  167.125;    0.000
860.478; 2033.525;  121.125;    0.000
860.661; 2025.525;  230.125;    0.000
860.844; 2031.525;  186.125;    0.000
861.027; 1987.525;  155.125;    0.000
861.209; 2085.525;  151.125;    0.000
861.392; 1935.525;  162.125;    0.000
861.575; 2171.525;  150.125;    0.000
861.757; 2068.525;  162.125;    0.000
861.940; 2084.525;  207.125;    0.000
862.122; 2119.525;  113.125;    0.000
862.305; 2080.525;  114.125;    0.000
862.487; 2214.525;  162.125;    0.000
862.670; 2411.525;  148.125;    0.000
862.852; 2671.525;  131.125;    0.000
863.035; 3052.525;  174.125;    0.000
863.217; 2977.525;  170.125;    0.000
863.400; 2794.525;  148.125;    0.000
863.582; 2756.525;  129.125;    0.000
863.764; 2544.525;  181.125;    0.000
863.947; 2351.525;  152.125;    0.000
864.129; 2401.525;  178.125;    0.000
864.311; 2400.525;  139.125;    0.000
864.493; 2333.525;  166.125;    0.000
864.676; 2393.525;  148.125;    0.000
864.858; 2330.525;  123.125;    0.000
865.040; 2315.525;  180.125;    0.000
865.222; 2345.525;  131.125;    0.000
865.404; 2313.525;  146.125;    0.000
865.587; 2449.525;  175.125;    0.000
865.769; 2536.525;  183.125;    0.000
865.951; 2494.525;  171.125;    0.000
866.133; 2573.525;  165.125;    0.000
866.315; 2509.525;  138.125;    0.000
866.497; 2595.525;  139.125;    0.000
866.679; 2677.525;  167.125;    0.000
866.861; 2654.525;  151.125;    0.000
867.043; 2731.525;  190.125;    0.000
867.225; 2927.525;  140.125;    0.000
867.407; 3172.525;  125.125;    0.000
867.589; 3493.525;  141.125;    0.000
867.770; 4100.525;  149.125;    0.000
867.952; 5436.525;  138.125;    0.000
868.134; 6924.525;  153.125;    0.000
868.316; 6861.525;  148.125;    0.000
868.498; 6691.525;  180.125;    0.000
868.679; 5973.525;  152.125;    0.000
868.861; 4899.525;  174.125;    0.000
869.043; 4315.525;  152.125;    0.000
869.224; 3945.525;  177.125;    0.000
869.406; 3726.525;  171.125;    0.000
869.588; 3503.525;  177.125;    0.000
869.769; 3224.525;  174.125;    0.000
869.951; 3282.525;  167.125;    0.000
870.132; 3197.525;  144.125;    0.000
870.314; 3464.525;  143.125;    0.000
870.495; 3564.525;  162.125;    0.000
870.677; 3365.525;  136.125;    0.000
870.858; 3178.525;  155.125;    0.000
871.040; 3301.525;  179.125;    0.000
871.221; 3639.525;  177.125;    0.000
871.403; 3435.525;  180.125;    0.000
871.584; 3283.525;  157.125;    0.000
871.765; 3406.525;  183.125;    0.000
871.947; 3549.525;  169.125;    0.000
872.128; 3160.525;  162.125;    0.000
872.309; 2888.525;  159.125;    0.000
872.491; 2622.525;  148.125;    0.000
872.672; 2556.525;  163.125;    0.000
872.853; 2555.525;  152.125;    0.000
873.034; 2445.525;  166.125;    0.000
873.215; 2365.525;  155.125;    0.000
873.396; 2168.525;  147.125;    0.000
873.578; 2105.525;  147.125;    0.000
873.759; 2128.525;  153.125;    0.000
873.940; 2085.525;  194.125;    0.000
874.121; 2003.525;  179.125;    0.000
874.302; 2037.525;  155.125;    0.000
874.483; 2031.525;  131.125;    0.000
874.664; 2013.525;  106.125;    0.000
874.845; 1919.525;  122.125;    0.000
875.026; 1972.525;  127.125;    0.000
875.207; 1931.525;  151.125;    0.000
875.388; 1900.525;  149.125;    0.000
875.568; 1831.525;  164.125;    0.000
875.749; 1808.525;  176.125;    0.000
875.930; 1887.525;  207.125;    0.000
876.111; 1890.525;  177.125;    0.000
876.292; 1739.525;  178.125;    0.000
876.472; 1802.525;  163.125;    0.000
876.653; 1773.525;  159.125;    0.000
876.834; 1782.525;  177.125;    0.000
877.015; 1798.525;  212.125;    0.000
877.195; 1820.525;  166.125;    0.000
877.376; 1698.525;  157.125;    0.000
877.556; 1797.525;  175.125;    0.000
877.737; 1728.525;  220.125;    0.000
877.918; 1636.525;  163.125;    0.000
878.098; 1699.525;  166.125;    0.000
878.279; 1640.525;  136.125;    0.000
878.459; 1655.525;  167.125;    0.000
878.640; 1719.525;  167.125;    0.000
878.820; 1687.525;  155.125;    0.000
879.000; 1666.525;  158.125;    0.000
879.181; 1679.525;  155.125;    0.000
879.361; 1638.525;  181.125;    0.000
879.542; 1678.525;  181.125;    0.000
879.722; 1666.525;  117.125;    0.000
879.902; 1662.525;  180.125;    0.000
880.083; 1696.525;  139.125;    0.000
880.263; 1734.525;  168.125;    0.000
880.443; 1856.525;  206.125;    0.000
880.623; 2102.525;  132.125;    0.000
880.803; 2280.525;  149.125;    0.000
880.984; 1993.525;  189.125;    0.000
881.164; 1824.525;  171.125;    0.000
881.344; 1693.525;  150.125;    0.000
881.524; 1790.525;  185.125;    0.000
881.704; 1809.525;  152.125;    0.000
881.884; 1855.525;  188.125;    0.000
882.064; 1859.525;  155.125;    0.000
882.244; 1949.525;  182.125;    0.000
882.424; 1814.525;  154.125;    0.000
882.604; 1821.525;  175.125;    0.000
882.784; 1734.525;  137.125;    0.000
882.964; 1712.525;  135.125;    0.000
883.144; 1689.525;  142.125;    0.000
883.324; 1712.525;  192.125;    0.000
883.504; 1725.525;  193.125;    0.000
883.683; 1624.525;  208.125;    0.000
883.863; 1649.525;  127.125;    0.000
884.043; 1671.525;  140.125;    0.000
884.223; 1613.525;  167.125;    0.000
884.402; 1671.525;  156.125;    0.000
884.582; 1643.525;  185.125;    0.000
884.762; 1635.525;  187.125;    0.000
884.941; 1576.525;  201.125;    0.000
885.121; 1627.525;  157.125;    0.000
885.301; 1644.525;  173.125;    0.000
885.480; 1630.525;  158.125;    0.000
885.660; 1584.525;  153.125;    0.000
885.839; 1595.525;  144.125;    0.000
886.019; 1648.525;  184.125;    0.000
886.198; 1569.525;  132.125;    0.000
886.378; 1536.525;  124.125;    0.000
886.557; 1603.525;  146.125;    0.000
886.737; 1558.525;  157.125;    0.000
886.916; 1551.525;  203.125;    0.000
887.095; 1597.525;  151.125;    0.000
887.275; 1479.525;  143.125;    0.000
887.454; 1604.525;  140.125;    0.000
887.633; 1540.525;  196.125;    0.000
887.813; 1668.525;  161.125;    0.000
887.992; 1591.525;  183.125;    0.000
888.171; 1556.525;  153.125;    0.000
888.350; 1555.525;  185.125;    0.000
888.530; 1561.525;  163.125;    0.000
888.709; 1519.525;  174.125;    0.000
888.888; 1630.525;  179.125;    0.000
889.067; 1525.525;  178.125;    0.000
889.246; 1614.525;  184.125;    0.000
889.425; 1567.525;  169.125;    0.000
889.604; 1562.525;  210.125;    0.000
889.783; 1566.525;  183.125;    0.000
889.962; 1459.525;  116.125;    0.000
890.141; 1468.525;  179.125;    0.000
890.320; 1510.525;  182.125;    0.000
890.499; 1558.525;  188.125;    0.000
890.678; 1554.525;  167.125;    0.000
890.857; 1550.525;  141.125;    0.000
891.036; 1527.525;  179.125;    0.000
891.214; 1504.525;  156.125;    0.000
891.393; 1534.525;  209.125;    0.000
891.572; 1572.525;  181.125;    0.000
891.751; 1530.525;  172.125;    0.000
891.930; 1522.525;  169.125;    0.000
892.108; 1585.525;  131.125;    0.000
892.287; 1598.525;  162.125;    0.000
892.466; 1555.525;  178.125;    0.000
892.644; 1530.525;  161.125;    0.000
892.823; 1540.525;  180.125;    0.000
893.001; 1553.525;  179.125;    0.000
893.180; 1600.525;  152.125;    0.000
893.359; 1512.525;  184.125;    0.000
893.537; 1550.525;  178.125;    0.000
893.716; 1493.525;  169.125;    0.000
893.894; 1529.525;  159.125;    0.000
894.073; 1583.525;  179.125;    0.000
894.251; 1581.525;  167.125;    0.000
894.429; 1456.525;  142.125;    0.000
894.608; 1563.525;  166.125;    0.000
894.786; 1541.525;  153.125;    0.000
894.964; 1572.525;  181.125;    0.000
895.143; 1555.525;  161.125;    0.000
895.321; 1529.525;  198.125;    0.000
895.499; 1558.525;  184.125;    0.000
895.677; 1559.525;  178.125;    0.000
895.856; 1601.525;  226.125;    0.000
896.034; 1568.525;  180.125;    0.000
896.212; 1541.525;  200.125;    0.000
896.390; 1656.525;  161.125;    0.000
896.568; 1578.525;  204.125;    0.000
896.746; 1571.525;  136.125;    0.000
896.924; 1579.525;  171.125;    0.000
897.102; 1619.525;  203.125;    0.000
897.280; 1457.525;  142.125;    0.000
897.458; 1522.525;  159.125;    0.000
897.636; 1520.525;  163.125;    0.000
897.814; 1548.525;  137.125;    0.000
897.992; 1600.525;  199.125;    0.000
898.170; 1585.525;  176.125;    0.000
898.348; 1556.525;  195.125;    0.000
898.526; 1449.525;  199.125;    0.000
898.704; 1601.525;  260.125;    0.000
898.882; 1649.525;  185.125;    0.000
899.059; 1581.525;  169.125;    0.000
899.237; 1601.525;  197.125;    0.000
899.415; 1591.525;  207.125;    0.000
899.593; 1569.525;  169.125;    0.000
899.770; 1593.525;  182.125;    0.000
899.948; 1639.525;  198.125;    0.000
900.125; 1615.525;  200.125;    0.000
900.303; 1636.525;  165.125;    0.000
900.481; 1623.525;  182.125;    0.000
900.658; 1643.525;  206.125;    0.000
900.836; 1698.525;  188.125;    0.000
901.013; 1656.525;  169.125;    0.000
901.191; 1643.525;  172.125;    0.000
901.368; 1628.525;  170.125;    0.000
901.546; 1758.525;  234.125;    0.000
901.723; 1668.525;  173.125;    0.000
901.901; 1739.525;  190.125;    0.000
902.078; 1708.525;  145.125;    0.000
902.255; 1789.525;  204.125;    0.000
902.433; 1804.525;  198.125;    0.000
902.610; 1777.525;  190.125;    0.000
902.787; 1724.525;  204.125;    0.000
902.964; 1769.525;  208.125;    0.000
903.142; 1789.525;  187.125;    0.000
903.319; 1847.525;  216.125;    0.000
903.496; 1861.525;  186.125;    0.000
903.673; 1921.525;  201.125;    0.000
903.850; 1909.525;  195.125;    0.000
904.027; 1963.525;  211.125;    0.000
904.204; 1984.525;  197.125;    0.000
904.381; 2217.525;  198.125;    0.000
904.558; 2313.525;  188.125;    0.000
904.735; 2519.525;  207.125;    0.000
904.912; 2518.525;  217.125;    0.000
905.089; 2525.525;  188.125;    0.000
905.266; 2403.525;  160.125;    0.000
905.443; 2263.525;  221.125;    0.000
905.620; 2198.525;  163.125;    0.000
905.797; 2118.525;  186.125;    0.000
905.974; 2151.525;  205.125;    0.000
906.151; 2004.525;  159.125;    0.000
906.327; 2166.525;  206.125;    0.000
906.504; 2028.525;  201.125;    0.000
906.681; 2028.525;  202.125;    0.000
906.858; 1984.525;  188.125;    0.000
907.034; 1969.525;  207.125;    0.000
907.211; 1886.525;  182.125;    0.000
907.388; 1937.525;  184.125;    0.000
907.564; 1925.525;  148.125;    0.000
907.741; 1955.525;  181.125;    0.000
907.917; 1835.525;  191.125;    0.000
908.094; 1884.525;  210.125;    0.000
908.271; 1881.525;  171.125;    0.000
908.447; 1835.525;  241.125;    0.000
908.623; 1750.525;  188.125;    0.000
908.800; 1778.525;  205.125;    0.000
908.976; 1789.525;  210.125;    0.000
909.153; 1773.525;  193.125;    0.000
909.329; 1720.525;  206.125;    0.000
909.505; 1706.525;  181.125;    0.000
909.682; 1664.525;  192.125;    0.000
909.858; 1721.525;  134.125;    0.000
910.034; 1699.525;  214.125;    0.000
910.211; 1729.525;  182.125;    0.000
910.387; 1710.525;  194.125;    0.000
910.563; 1689.525;  199.125;    0.000
910.739; 1699.525;  188.125;    0.000
910.915; 1736.525;  192.125;    0.000
911.091; 1679.525;  198.125;    0.000
911.268; 1660.525;  178.125;    0.000
911.444; 1649.525;  201.125;    0.000
911.620; 1628.525;  181.125;    0.000
911.796; 1639.525;  185.125;    0.000
911.972; 1644.525;  176.125;    0.000
912.148; 1635.525;  196.125;    0.000
912.324; 1649.525;  192.125;    0.000
912.500; 1683.525;  204.125;    0.000
912.676; 1634.525;  164.125;    0.000
912.851; 1683.525;  193.125;    0.000
913.027; 1670.525;  175.125;    0.000
913.203; 1691.525;  193.125;    0.000
913.379; 1698.525;  213.125;    0.000
913.555; 1640.525;  211.125;    0.000
913.730; 1688.525;  194.125;    0.000
913.906; 1684.525;  153.125;    0.000
914.082; 1628.525;  212.125;    0.000
914.258; 1702.525;  194.125;    0.000
914.433; 1691.525;  191.125;    0.000
914.609; 1635.525;  208.125;    0.000
914.784; 1647.525;  176.125;    0.000
914.960; 1647.525;  227.125;    0.000
915.136; 1582.525;  152.125;    0.000
915.311; 1708.525;  171.125;    0.000
915.487; 1698.525;  173.125;    0.000
915.662; 1622.525;  189.125;    0.000
915.838; 1620.525;  179.125;    0.000
916.013; 1690.525;  191.125;    0.000
916.189; 1643.525;  207.125;    0.000
916.364; 1690.525;  194.125;    0.000
916.539; 1624.525;  174.125;    0.000
916.715; 1655.525;  207.125;    0.000
916.890; 1668.525;  193.125;    0.000
917.065; 1660.525;  199.125;    0.000
917.240; 1668.525;  214.125;    0.000
917.416; 1699.525;  194.125;    0.000
917.591; 1762.525;  213.125;    0.000
917.766; 1731.525;  194.125;    0.000
917.941; 1649.525;  201.125;    0.000
918.116; 1655.525;  198.125;    0.000
918.292; 1674.525;  176.125;    0.000
918.467; 1782.525;  190.125;    0.000
918.642; 1728.525;  200.125;    0.000
918.817; 1777.525;  186.125;    0.000
918.992; 1756.525;  174.125;    0.000
919.167; 1758.525;  197.125;    0.000
919.342; 1680.525;  188.125;    0.000
919.517; 1669.525;  179.125;    0.000
919.692; 1725.525;  182.125;    0.000
919.867; 1825.525;  216.125;    0.000
920.041; 1840.525;  208.125;    0.000
920.216; 1807.525;  223.125;    0.000
920.391; 1803.525;  203.125;    0.000
920.566; 1801.525;  202.125;    0.000
920.741; 1823.525;  197.125;    0.000
920.915; 1865.525;  223.125;    0.000
921.090; 1842.525;  183.125;    0.000
921.265; 2150.525;  169.125;    0.000
921.439; 2183.525;  212.125;    0.000
921.614; 2058.525;  190.125;    0.000
921.789; 1935.525;  177.125;    0.000
921.963; 1916.525;  233.125;    0.000
922.138; 1948.525;  156.125;    0.000
922.312; 1930.525;  193.125;    0.000
922.487; 1894.525;  208.125;    0.000
922.661; 1990.525;  212.125;    0.000
922.836; 2051.525;  210.125;    0.000
923.010; 2015.525;  183.125;    0.000
923.185; 2028.525;  228.125;    0.000
923.359; 1944.525;  227.125;    0.000
923.534; 1934.525;  189.125;    0.000
923.708; 1912.525;  210.125;    0.000
923.882; 2012.525;  217.125;    0.000
924.057; 1875.525;  195.125;    0.000
924.231; 1895.525;  201.125;    0.000
924.405; 1940.525;  188.125;    0.000
924.579; 1957.525;  188.125;    0.000
924.753; 1863.525;  174.125;    0.000
924.928; 1886.525;  179.125;    0.000
925.102; 1888.525;  186.125;    0.000
925.276; 1799.525;  201.125;    0.000
925.450; 1933.525;  211.125;    0.000
925.624; 2000.525;  238.125;    0.000
925.798; 1942.525;  191.125;    0.000
925.972; 2023.525;  192.125;    0.000
926.146; 2036.525;  198.125;    0.000
926.320; 2287.525;  151.125;    0.000
926.494; 2395.525;  202.125;    0.000
926.668; 2492.525;  197.125;    0.000
926.842; 2528.525;  177.125;    0.000
927.016; 2411.525;  202.125;    0.000
927.190; 2446.525;  207.125;    0.000
927.363; 2392.525;  180.125;    0.000
927.537; 2189.525;  212.125;    0.000
927.711; 2281.525;  148.125;    0.000
927.885; 2260.525;  196.125;    0.000
928.058; 2226.525;  173.125;    0.000
928.232; 2245.525;  219.125;    0.000
928.406; 2139.525;  141.125;    0.000
928.579; 2017.525;  157.125;    0.000
928.753; 2091.525;  205.125;    0.000
928.927; 2072.525;  196.125;    0.000
929.100; 2053.525;  237.125;    0.000
929.274; 2030.525;  166.125;    0.000
929.447; 1925.525;  150.125;    0.000
929.621; 2008.525;  188.125;    0.000
929.794; 1995.525;  169.125;    0.000
929.968; 2021.525;  194.125;    0.000
930.141; 1920.525;  226.125;    0.000
930.315; 1929.525;  196.125;    0.000
930.488; 1849.525;  233.125;    0.000
930.661; 1914.525;  188.125;    0.000
930.835; 1969.525;  170.125;    0.000
931.008; 1899.525;  176.125;    0.000
931.181; 1841.525;  175.125;    0.000
931.354; 1871.525;  212.125;    0.000
931.528; 1818.525;  177.125;    0.000
931.701; 1805.525;  218.125;    0.000
931.874; 1798.525;  175.125;    0.000
932.047; 1673.525;  157.125;    0.000
932.220; 1782.525;  187.125;    0.000
932.393; 1738.525;  166.125;    0.000
932.566; 1679.525;  168.125;    0.000
932.739; 1778.525;  203.125;    0.000
932.912; 1737.525;  202.125;    0.000
933.085; 1748.525;  209.125;    0.000
933.258; 1792.525;  196.125;    0.000
933.431; 1736.525;  207.125;    0.000
933.604; 1688.525;  201.125;    0.000
933.777; 1717.525;  202.125;    0.000
933.950; 1689.525;  184.125;    0.000
934.123; 1667.525;  167.125;    0.000
934.296; 1697.525;  209.125;    0.000
934.468; 1699.525;  216.125;    0.000
934.641; 1753.525;  156.125;    0.000
934.814; 1771.525;  215.125;    0.000
934.987; 1718.525;  201.125;    0.000
935.159; 1703.525;  176.125;    0.000
935.332; 1684.525;  203.125;    0.000
935.505; 1669.525;  163.125;    0.000
935.677; 1740.525;  169.125;    0.000
935.850; 1778.525;  178.125;    0.000
936.022; 1694.525;  187.125;    0.000
936.195; 1761.525;  207.125;    0.000
936.367; 1707.525;  191.125;    0.000
936.540; 1741.525;  214.125;    0.000
936.712; 1786.525;  202.125;    0.000
936.885; 1734.525;  195.125;    0.000
937.057; 1731.525;  173.125;    0.000
937.229; 1808.525;  179.125;    0.000
937.402; 1781.525;  174.125;    0.000
937.574; 1732.525;  140.125;    0.000
937.746; 1788.525;  153.125;    0.000
937.919; 1838.525;  196.125;    0.000
938.091; 1853.525;  173.125;    0.000
938.263; 1915.525;  206.125;    0.000
938.435; 2031.525;  213.125;    0.000
938.608; 2287.525;  204.125;    0.000
938.780; 2524.525;  199.125;    0.000
938.952; 2591.525;  190.125;    0.000
939.124; 2626.525;  182.125;    0.000
939.296; 2814.525;  188.125;    0.000
939.468; 2934.525;  119.125;    0.000
939.640; 2595.525;  171.125;    0.000
939.812; 2502.525;  222.125;    0.000
939.984; 2308.525;  172.125;    0.000
940.156; 2304.525;  171.125;    0.000
940.328; 2146.525;  215.125;    0.000
940.500; 2002.525;  179.125;    0.000
940.672; 1996.525;  178.125;    0.000
940.843; 1883.525;  193.125;    0.000
941.015; 1959.525;  207.125;    0.000
941.187; 1842.525;  179.125;    0.000
941.359; 1878.525;  191.125;    0.000
941.531; 1753.525;  160.125;    0.000
941.702; 1842.525;  208.125;    0.000
941.874; 1812.525;  143.125;    0.000
942.046; 1778.525;  189.125;    0.000
942.217; 1764.525;  167.125;    0.000
942.389; 1847.525;  199.125;    0.000
942.560; 1722.525;  179.125;    0.000
942.732; 1725.525;  209.125;    0.000
942.904; 1744.525;  180.125;    0.000
943.075; 1635.525;  197.125;    0.000
943.247; 1676.525;  207.125;    0.000
943.418; 1676.525;  183.125;    0.000
943.589; 1665.525;  176.125;    0.000
943.761; 1663.525;  165.125;    0.000
943.932; 1698.525;  170.125;    0.000
944.104; 1673.525;  147.125;    0.000
944.275; 1703.525;  149.125;    0.000
944.446; 1653.525;  191.125;    0.000
944.617; 1652.525;  128.125;    0.000
944.789; 1624.525;  166.125;    0.000
944.960; 1671.525;  195.125;    0.000
945.131; 1680.525;  164.125;    0.000
945.302; 1695.525;  229.125;    0.000
945.473; 1597.525;  153.125;    0.000
945.645; 1695.525;  166.125;    0.000
945.816; 1698.525;  187.125;    0.000
945.987; 1635.525;  193.125;    0.000
946.158; 1702.525;  166.125;    0.000
946.329; 1801.525;  196.125;    0.000
946.500; 1628.525;  152.125;    0.000
946.671; 1566.525;  161.125;    0.000
946.842; 1604.525;  176.125;    0.000
947.013; 1596.525;  188.125;    0.000
947.183; 1601.525;  213.125;    0.000
947.354; 1647.525;  163.125;    0.000
947.525; 1642.525;  204.125;    0.000
947.696; 1607.525;  159.125;    0.000
947.867; 1581.525;  197.125;    0.000
948.037; 1493.525;  174.125;    0.000
948.208; 1606.525;  163.125;    0.000
948.379; 1624.525;  189.125;    0.000
948.550; 1570.525;  173.125;    0.000
948.720; 1623.525;  186.125;    0.000
948.891; 1597.525;  166.125;    0.000
949.061; 1586.525;  197.125;    0.000
949.232; 1615.525;  168.125;    0.000
949.403; 1634.525;  188.125;    0.000
949.573; 1552.525;  164.125;    0.000
949.744; 1635.525;  194.125;    0.000
949.914; 1484.525;  154.125;    0.000
950.085; 1530.525;  197.125;    0.000
950.255; 1590.525;  187.125;    0.000
950.425; 1561.525;  193.125;    0.000
950.596; 1592.525;  182.125;    0.000
950.766; 1613.525;  202.125;    0.000
950.936; 1618.525;  230.125;    0.000
951.107; 1554.525;  133.125;    0.000
951.277; 1635.525;  234.125;    0.000
951.447; 1655.525;  200.125;    0.000
951.617; 1607.525;  212.125;    0.000
951.788; 1558.525;  176.125;    0.000
951.958; 1604.525;  218.125;    0.000
952.128; 1504.525;  198.125;    0.000
952.298; 1698.525;  185.125;    0.000
952.468; 1684.525;  231.125;    0.000
952.638; 1540.525;  213.125;    0.000
952.808; 1577.525;  218.125;    0.000
952.978; 1545.525;  252.125;    0.000
953.148; 1622.525;  200.125;    0.000
953.318; 1551.525;  243.125;    0.000
953.488; 1505.525;  140.125;    0.000
953.658; 1563.525;  208.125;    0.000
953.828; 1599.525;  179.125;    0.000
953.998; 1588.525;  211.125;    0.000
954.167; 1548.525;  197.125;    0.000
954.337; 1559.525;  217.125;    0.000
954.507; 1618.525;  219.125;    0.000
954.677; 1562.525;  201.125;    0.000
954.846; 1571.525;  241.125;    0.000
955.016; 1579.525;  222.125;    0.000
955.186; 1580.525;  200.125;    0.000
955.355; 1592.525;  247.125;    0.000
955.525; 1536.525;  212.125;    0.000
955.695; 1514.525;  200.125;    0.000
955.864; 1594.525;  196.125;    0.000
956.034; 1573.525;  195.125;    0.000
956.203; 1565.525;  243.125;    0.000
956.373; 1545.525;  197.125;    0.000
956.542; 1510.525;  237.125;    0.000
956.711; 1488.525;  249.125;    0.000
956.881; 1531.525;  235.125;    0.000
957.050; 1571.525;  259.125;    0.000
957.220; 1501.525;  234.125;    0.000
957.389; 1584.525;  250.125;    0.000
957.558; 1501.525;  214.125;    0.000
957.727; 1504.525;  225.125;    0.000
957.897; 1502.525;  211.125;    0.000
958.066; 1453.525;  200.125;    0.000
958.235; 1443.525;  202.125;    0.000
958.404; 1459.525;  242.125;    0.000
958.573; 1541.525;  222.125;    0.000
958.743; 1404.525;  191.125;    0.000
958.912; 1539.525;  183.125;    0.000
959.081; 1514.525;  212.125;    0.000
959.250; 1490.525;  192.125;    0.000
959.419; 1527.525;  238.125;    0.000
959.588; 1547.525;  205.125;    0.000
959.757; 1492.525;  213.125;    0.000
959.926; 1530.525;  217.125;    0.000
960.094; 1582.525;  215.125;    0.000
960.263; 1506.525;  220.125;    0.000
960.432; 1468.525;  164.125;    0.000
960.601; 1431.525;  228.125;    0.000
960.770; 1412.525;  176.125;    0.000
960.939; 1504.525;  201.125;    0.000
961.107; 1362.525;  183.125;    0.000
961.276; 1487.525;  199.125;    0.000
961.445; 1436.525;  205.125;    0.000
961.613; 1495.525;  183.125;    0.000
961.782; 1469.525;  216.125;    0.000
961.951; 1422.525;  169.125;    0.000
962.119; 1488.525;  211.125;    0.000
962.288; 1485.525;  204.125;    0.000
962.456; 1478.525;  187.125;    0.000
962.625; 1481.525;  223.125;    0.000
962.793; 1470.525;  200.125;    0.000
962.962; 1491.525;  185.125;    0.000
963.130; 1473.525;  195.125;    0.000
963.298; 1456.525;  187.125;    0.000
963.467; 1535.525;  247.125;    0.000
963.635; 1484.525;  165.125;    0.000
963.803; 1468.525;  192.125;    0.000
963.972; 1503.525;  191.125;    0.000
964.140; 1443.525;  163.125;    0.000
964.308; 1532.525;  161.125;    0.000
964.477; 1483.525;  182.125;    0.000
964.645; 1477.525;  195.125;    0.000
964.813; 1468.525;  165.125;    0.000
964.981; 1450.525;  193.125;    0.000
965.149; 1453.525;  174.125;    0.000
965.317; 1488.525;  194.125;    0.000
965.485; 1511.525;  209.125;    0.000
965.653; 1503.525;  210.125;    0.000
965.821; 1474.525;  194.125;    0.000
965.989; 1445.525;  182.125;    0.000
966.157; 1437.525;  180.125;    0.000
966.325; 1460.525;  198.125;    0.000
966.493; 1498.525;  182.125;    0.000
966.661; 1488.525;  200.125;    0.000
966.829; 1457.525;  190.125;    0.000
966.996; 1491.525;  221.125;    0.000
967.164; 1433.525;  176.125;    0.000
967.332; 1508.525;  228.125;    0.000
967.500; 1485.525;  177.125;    0.000
967.667; 1509.525;  202.125;    0.000
967.835; 1490.525;  220.125;    0.000
968.003; 1469.525;  183.125;    0.000
968.170; 1425.525;  163.125;    0.000
968.338; 1495.525;  162.125;    0.000
968.505; 1445.525;  198.125;    0.000
968.673; 1524.525;  213.125;    0.000
968.841; 1465.525;  131.125;    0.000
969.008; 1449.525;  225.125;    0.000
969.175; 1508.525;  202.125;    0.000
969.343; 1527.525;  222.125;    0.000
969.510; 1503.525;  230.125;    0.000
969.678; 1459.525;  161.125;    0.000
969.845; 1539.525;  208.125;    0.000
970.012; 1391.525;  186.125;    0.000
970.180; 1510.525;  226.125;    0.000
970.347; 1544.525;  222.125;    0.000
970.514; 1460.525;  206.125;    0.000
970.681; 1532.525;  173.125;    0.000
970.849; 1528.525;  190.125;    0.000
971.016; 1560.525;  220.125;    0.000
971.183; 1531.525;  202.125;    0.000
971.350; 1541.525;  196.125;    0.000
971.517; 1611.525;  218.125;    0.000
971.684; 1521.525;  228.125;    0.000
971.851; 1513.525;  235.125;    0.000
972.018; 1524.525;  200.125;    0.000
972.185; 1465.525;  183.125;    0.000
972.352; 1508.525;  216.125;    0.000
972.519; 1611.525;  227.125;    0.000
972.686; 1585.525;  209.125;    0.000
972.853; 1565.525;  157.125;    0.000
973.020; 1543.525;  179.125;    0.000
973.186; 1471.525;  173.125;    0.000
973.353; 1590.525;  189.125;    0.000
973.520; 1537.525;  228.125;    0.000
973.687; 1461.525;  190.125;    0.000
973.853; 1600.525;  197.125;    0.000
974.020; 1574.525;  208.125;    0.000
974.187; 1582.525;  158.125;    0.000
974.353; 1539.525;  201.125;    0.000
974.520; 1557.525;  158.125;    0.000
974.687; 1541.525;  192.125;    0.000
974.853; 1538.525;  177.125;    0.000
975.020; 1488.525;  212.125;    0.000
975.186; 1502.525;  200.125;    0.000
975.353; 1487.525;  208.125;    0.000
975.519; 1481.525;  169.125;    0.000
975.685; 1474.525;  176.125;    0.000
975.852; 1517.525;  201.125;    0.000
976.018; 1448.525;  209.125;    0.000
976.184; 1526.525;  197.125;    0.000
976.351; 1569.525;  196.125;    0.000
976.517; 1424.525;  243.125;    0.000
976.683; 1517.525;  210.125;    0.000
976.849; 1555.525;  226.125;    0.000
977.016; 1478.525;  218.125;    0.000
977.182; 1455.525;  213.125;    0.000
977.348; 1475.525;  205.125;    0.000
977.514; 1471.525;  210.125;    0.000
977.680; 1526.525;  226.125;    0.000
977.846; 1514.525;  206.125;    0.000
978.012; 1518.525;  222.125;    0.000
978.178; 1474.525;  216.125;    0.000
978.344; 1534.525;  172.125;    0.000
978.510; 1504.525;  210.125;    0.000
978.676; 1396.525;  184.125;    0.000
978.842; 1430.525;  190.125;    0.000
979.008; 1456.525;  203.125;    0.000
979.174; 1392.525;  211.125;    0.000
979.340; 1497.525;  190.125;    0.000
979.505; 1503.525;  235.125;    0.000
979.671; 1488.525;  182.125;    0.000
979.837; 1461.525;  235.125;    0.000
980.003; 1469.525;  183.125;    0.000
980.168; 1529.525;  220.125;    0.000
980.334; 1502.525;  161.125;    0.000
980.499; 1515.525;  212.125;    0.000
980.665; 1543.525;  219.125;    0.000
980.831; 1483.525;  201.125;    0.000
980.996; 1521.525;  189.125;    0.000
981.162; 1524.525;  222.125;    0.000
981.327; 1504.525;  173.125;    0.000
981.493; 1556.525;  197.125;    0.000
981.658; 1440.525;  178.125;    0.000
981.823; 1513.525;  196.125;    0.000
981.989; 1493.525;  248.125;    0.000
982.154; 1563.525;  222.125;    0.000
982.319; 1579.525;  226.125;    0.000
982.485; 1541.525;  188.125;    0.000
982.650; 1589.525;  203.125;    0.000
982.815; 1565.525;  237.125;    0.000
982.980; 1522.525;  210.125;    0.000
983.146; 1542.525;  202.125;    0.000
983.311; 1497.525;  195.125;    0.000
983.476; 1437.525;  207.125;    0.000
983.641; 1511.525;  198.125;    0.000
983.806; 1488.525;  136.125;    0.000
983.971; 1582.525;  248.125;    0.000
984.136; 1507.525;  213.125;    0.000
984.301; 1463.525;  181.125;    0.000
984.466; 1528.525;  210.125;    0.000
984.631; 1535.525;  219.125;    0.000
984.796; 1638.525;  207.125;    0.000
984.961; 1618.525;  214.125;    0.000
985.126; 1576.525;  218.125;    0.000
985.291; 1525.525;  214.125;    0.000
985.455; 1504.525;  187.125;    0.000
985.620; 1584.525;  191.125;    0.000
985.785; 1506.525;  190.125;    0.000
985.950; 1463.525;  184.125;    0.000
986.114; 1597.525;  242.125;    0.000
986.279; 1535.525;  251.125;    0.000
986.444; 1543.525;  177.125;    0.000
986.608; 1538.525;  216.125;    0.000
986.773; 1450.525;  211.125;    0.000
986.937; 1525.525;  244.125;    0.000
987.102; 1510.525;  187.125;    0.000
987.266; 1540.525;  178.125;    0.000
987.431; 1584.525;  205.125;    0.000
987.595; 1570.525;  221.125;    0.000
987.760; 1497.525;  205.125;    0.000
987.924; 1558.525;  195.125;    0.000
988.088; 1531.525;  184.125;    0.000
988.253; 1505.525;  188.125;    0.000
988.417; 1524.525;  196.125;    0.000
988.581; 1487.525;  218.125;    0.000
988.746; 1550.525;  203.125;    0.000
988.910; 1494.525;  195.125;    0.000
989.074; 1431.525;  187.125;    0.000
989.238; 1517.525;  243.125;    0.000
989.402; 1502.525;  242.125;    0.000
989.566; 1418.525;  205.125;    0.000
989.731; 1488.525;  195.125;    0.000
989.895; 1504.525;  211.125;    0.000
990.059; 1493.525;  175.125;    0.000
990.223; 1466.525;  176.125;    0.000
990.387; 1536.525;  234.125;    0.000
990.551; 1575.525;  231.125;    0.000
990.714; 1501.525;  209.125;    0.000
990.878; 1463.525;  187.125;    0.000
991.042; 1532.525;  183.125;    0.000
991.206; 1537.525;  216.125;    0.000
991.370; 1508.525;  257.125;    0.000
991.534; 1499.525;  188.125;    0.000
991.697; 1452.525;  203.125;    0.000
991.861; 1557.525;  219.125;    0.000
992.025; 1503.525;  221.125;    0.000
992.188; 1513.525;  188.125;    0.000
992.352; 1490.525;  205.125;    0.000
992.516; 1515.525;  189.125;    0.000
992.679; 1533.525;  207.125;    0.000
992.843; 1546.525;  210.125;    0.000
993.006; 1537.525;  191.125;    0.000
993.170; 1584.525;  228.125;    0.000
993.333; 1464.525;  142.125;    0.000
993.497; 1499.525;  175.125;    0.000
993.660; 1546.525;  220.125;    0.000
993.824; 1455.525;  193.125;    0.000
993.987; 1625.525;  219.125;    0.000
994.150; 1539.525;  166.125;    0.000
994.314; 1550.525;  207.125;    0.000
994.477; 1534.525;  227.125;    0.000
994.640; 1558.525;  210.125;    0.000
994.803; 1653.525;  219.125;    0.000
994.967; 1582.525;  192.125;    0.000
995.130; 1586.525;  197.125;    0.000
995.293; 1528.525;  189.125;    0.000
995.456; 1548.525;  180.125;    0.000
995.619; 1649.525;  239.125;    0.000
995.782; 1480.525;  209.125;    0.000
995.945; 1530.525;  216.125;    0.000
996.108; 1573.525;  198.125;    0.000
996.271; 1581.525;  205.125;    0.000
996.434; 1561.525;  205.125;    0.000
996.597; 1515.525;  208.125;    0.000
996.760; 1512.525;  205.125;    0.000
996.923; 1531.525;  174.125;    0.000
997.086; 1495.525;  198.125;    0.000
997.248; 1579.525;  214.125;    0.000
997.411; 1586.525;  237.125;    0.000
997.574; 1479.525;  182.125;    0.000
997.737; 1464.525;  188.125;    0.000
997.899; 1468.525;  216.125;    0.000
998.062; 1506.525;  210.125;    0.000
998.225; 1524.525;  202.125;    0.000
998.387; 1562.525;  202.125;    0.000
998.550; 1445.525;  193.125;    0.000
998.712; 1557.525;  225.125;    0.000
998.875; 1520.525;  228.125;    0.000
999.037; 1491.525;  186.125;    0.000
999.200; 1514.525;  212.125;    0.000
999.362; 1561.525;  234.125;    0.000
999.525; 1479.525;  170.125;    0.000
999.687; 1541.525;  191.125;    0.000
999.849; 1512.525;  218.125;    0.000
1000.012; 1498.525;  187.125;    0.000
1000.174; 1567.525;  216.125;    0.000
1000.336; 1508.525;  194.125;    0.000
1000.499; 1635.525;  209.125;    0.000
1000.661; 1577.525;  208.125;    0.000
1000.823; 1534.525;  197.125;    0.000
1000.985; 1576.525;  201.125;    0.000
1001.147; 1641.525;  234.125;    0.000
1001.309; 1610.525;  180.125;    0.000
1001.471; 1659.525;  223.125;    0.000
1001.633; 1576.525;  198.125;    0.000
1001.796; 1633.525;  200.125;    0.000
1001.958; 1667.525;  204.125;    0.000
1002.119; 1734.525;  193.125;    0.000
1002.281; 1760.525;  205.125;    0.000
1002.443; 1915.525;  236.125;    0.000
1002.605; 1963.525;  197.125;    0.000
1002.767; 2086.525;  223.125;    0.000
1002.929; 2180.525;  220.125;    0.000
1003.091; 2273.525;  214.125;    0.000
1003.252; 2450.525;  233.125;    0.000
1003.414; 2568.525;  230.125;    0.000
1003.576; 2620.525;  203.125;    0.000
1003.738; 2779.525;  201.125;    0.000
1003.899; 2945.525;  222.125;    0.000
1004.061; 3028.525;  208.125;    0.000
1004.222; 3295.525;  194.125;    0.000
1004.384; 3403.525;  205.125;    0.000
1004.546; 3494.525;  162.125;    0.000
1004.707; 3561.525;  232.125;    0.000
1004.869; 3565.525;  223.125;    0.000
1005.030; 3574.525;  204.125;    0.000
1005.191; 3428.525;  214.125;    0.000
1005.353; 3326.525;  226.125;    0.000
1005.514; 3229.525;  201.125;    0.000
1005.675; 3019.525;  205.125;    0.000
1005.837; 2920.525;  235.125;    0.000
1005.998; 2765.525;  210.125;    0.000
1006.159; 2664.525;  214.125;    0.000
1006.321; 2835.525;  236.125;    0.000
1006.482; 2910.525;  214.125;    0.000
1006.643; 3003.525;  213.125;    0.000
1006.804; 3041.525;  204.125;    0.000
1006.965; 3277.525;  212.125;    0.000
1007.126; 3236.525;  251.125;    0.000
1007.287; 3280.525;  238.125;    0.000
1007.448; 3332.525;  198.125;    0.000
1007.609; 3173.525;  241.125;    0.000
1007.770; 3005.525;  213.125;    0.000
1007.931; 3099.525;  225.125;    0.000
1008.092; 3187.525;  204.125;    0.000
1008.253; 3263.525;  220.125;    0.000
1008.414; 3259.525;  180.125;    0.000
1008.575; 3329.525;  224.125;    0.000
1008.736; 3276.525;  164.125;    0.000
1008.896; 3406.525;  247.125;    0.000
1009.057; 3266.525;  263.125;    0.000
1009.218; 3210.525;  233.125;    0.000
1009.379; 3279.525;  207.125;    0.000
1009.539; 3301.525;  221.125;    0.000
1009.700; 3354.525;  209.125;    0.000
1009.860; 3478.525;  217.125;    0.000
1010.021; 3350.525;  182.125;    0.000
1010.182; 3386.525;  233.125;    0.000
1010.342; 3335.525;  210.125;    0.000
1010.503; 3398.525;  232.125;    0.000
1010.663; 3574.525;  228.125;    0.000
1010.823; 3476.525;  212.125;    0.000
1010.984; 3544.525;  244.125;    0.000
1011.144; 3476.525;  200.125;    0.000
1011.305; 3516.525;  237.125;    0.000
1011.465; 3798.525;  225.125;    0.000
1011.625; 3855.525;  215.125;    0.000
1011.785; 3891.525;  235.125;    0.000
1011.946; 3849.525;  231.125;    0.000
1012.106; 3731.525;  206.125;    0.000
1012.266; 3714.525;  218.125;    0.000
1012.426; 3788.525;  249.125;    0.000
1012.586; 3858.525;  217.125;    0.000
1012.746; 3839.525;  231.125;    0.000
1012.906; 3784.525;  230.125;    0.000
1013.066; 3910.525;  260.125;    0.000
1013.226; 3909.525;  206.125;    0.000
1013.386; 3828.525;  220.125;    0.000
1013.546; 3750.525;  233.125;    0.000
1013.706; 3561.525;  194.125;    0.000
1013.866; 3828.525;  209.125;    0.000
1014.026; 3765.525;  204.125;    0.000
1014.186; 3805.525;  203.125;    0.000
1014.346; 3906.525;  244.125;    0.000
1014.505; 3999.525;  206.125;    0.000
1014.665; 4019.525;  210.125;    0.000
1014.825; 3865.525;  235.125;    0.000
1014.985; 3847.525;  227.125;    0.000
1015.144; 4082.525;  237.125;    0.000
1015.304; 4306.525;  196.125;    0.000
1015.464; 4210.525;  228.125;    0.000
1015.623; 4189.525;  235.125;    0.000
1015.783; 4744.525;  187.125;    0.000
1015.942; 5036.525;  184.125;    0.000
1016.102; 4976.525;  245.125;    0.000
1016.261; 4820.525;  203.125;    0.000
1016.420; 5425.525;  209.125;    0.000
1016.580; 6057.525;  235.125;    0.000
1016.739; 5939.525;  175.125;    0.000
1016.899; 5557.525;  220.125;    0.000
1017.058; 6057.525;  219.125;    0.000
1017.217; 6557.525;  238.125;    0.000
1017.376; 6161.525;  235.125;    0.000
1017.536; 5498.525;  195.125;    0.000
1017.695; 5525.525;  215.125;    0.000
1017.854; 5771.525;  231.125;    0.000
1018.013; 5475.525;  184.125;    0.000
1018.172; 4963.525;  179.125;    0.000
1018.331; 5126.525;  205.125;    0.000
1018.490; 5377.525;  203.125;    0.000
1018.649; 5912.525;  261.125;    0.000
1018.808; 6054.525;  253.125;    0.000
1018.967; 6028.525;  201.125;    0.000
1019.126; 6026.525;  216.125;    0.000
1019.285; 6231.525;  169.125;    0.000
1019.444; 6135.525;  226.125;    0.000
1019.603; 5960.525;  252.125;    0.000
1019.762; 5501.525;  206.125;    0.000
1019.921; 5332.525;  235.125;    0.000
1020.079; 5940.525;  192.125;    0.000
1020.238; 6638.525;  226.125;    0.000
1020.397; 6309.525;  231.125;    0.000
1020.555; 5681.525;  218.125;    0.000
1020.714; 5955.525;  235.125;    0.000
1020.873; 6393.525;  229.125;    0.000
1021.031; 6450.525;  234.125;    0.000
1021.190; 6033.525;  223.125;    0.000
1021.348; 5691.525;  186.125;    0.000
1021.507; 6260.525;  201.125;    0.000
1021.665; 6915.525;  222.125;    0.000
1021.824; 6700.525;  208.125;    0.000
1021.982; 6047.525;  209.125;    0.000
1022.141; 6006.525;  224.125;    0.000
1022.299; 6781.525;  214.125;    0.000
1022.457; 7400.525;  176.125;    0.000
1022.616; 6823.525;  211.125;    0.000
1022.774; 6104.525;  218.125;    0.000
1022.932; 6010.525;  205.125;    0.000
1023.090; 6871.525;  246.125;    0.000
1023.249; 7491.525;  249.125;    0.000
1023.407; 6834.525;  235.125;    0.000
1023.565; 6173.525;  202.125;    0.000
1023.723; 6362.525;  210.125;    0.000
1023.881; 7112.525;  206.125;    0.000
1024.039; 7476.525;  240.125;    0.000
1024.197; 6844.525;  275.125;    0.000
1024.355; 6465.525;  228.125;    0.000
1024.513; 6326.525;  234.125;    0.000
1024.671; 7179.525;  222.125;    0.000
1024.829; 7495.525;  241.125;    0.000
1024.987; 7059.525;  209.125;    0.000
1025.145; 6587.525;  227.125;    0.000
1025.302; 6554.525;  208.125;    0.000
1025.460; 7154.525;  210.125;    0.000
1025.618; 7352.525;  192.125;    0.000
1025.776; 7272.525;  220.125;    0.000
1025.933; 6722.525;  223.125;    0.000
1026.091; 6876.525;  189.125;    0.000
1026.249; 7352.525;  210.125;    0.000
1026.406; 7827.525;  231.125;    0.000
1026.564; 7477.525;  247.125;    0.000
1026.721; 7170.525;  213.125;    0.000
1026.879; 6981.525;  208.125;    0.000
1027.036; 7531.525;  222.125;    0.000
1027.194; 7984.525;  253.125;    0.000
1027.351; 8051.525;  239.125;    0.000
1027.509; 7436.525;  232.125;    0.000
1027.666; 6991.525;  251.125;    0.000
1027.823; 7828.525;  212.125;    0.000
1027.981; 8023.525;  260.125;    0.000
1028.138; 8358.525;  263.125;    0.000
1028.295; 7707.525;  251.125;    0.000
1028.452; 7380.525;  249.125;    0.000
1028.609; 7313.525;  259.125;    0.000
1028.767; 8148.525;  255.125;    0.000
1028.924; 8580.525;  201.125;    0.000
1029.081; 8046.525;  217.125;    0.000
1029.238; 7967.525;  230.125;    0.000
1029.395; 7409.525;  263.125;    0.000
1029.552; 7789.525;  207.125;    0.000
1029.709; 8505.525;  220.125;    0.000
1029.866; 8608.525;  214.125;    0.000
1030.023; 8176.525;  224.125;    0.000
1030.180; 7415.525;  209.125;    0.000
1030.337; 7495.525;  269.125;    0.000
1030.494; 8143.525;  207.125;    0.000
1030.650; 8695.525;  230.125;    0.000
1030.807; 9167.525;  217.125;    0.000
1030.964; 8046.525;  212.125;    0.000
1031.121; 7658.525;  220.125;    0.000
1031.277; 7566.525;  233.125;    0.000
1031.434; 8146.525;  266.125;    0.000
1031.591; 9016.525;  270.125;    0.000
1031.747; 9342.525;  229.125;    0.000
1031.904; 8846.525;  227.125;    0.000
1032.060; 8018.525;  210.125;    0.000
1032.217; 7890.525;  218.125;    0.000
1032.373; 9245.525;  190.125;    0.000
1032.530; 9270.525;  236.125;    0.000
1032.686;10210.525;  199.125;    0.000
1032.843;10108.525;  216.125;    0.000
1032.999; 9514.525;  204.125;    0.000
1033.155; 9683.525;  208.125;    0.000
1033.312; 9596.525;  231.125;    0.000
1033.468;11616.525;  213.125;    0.000
1033.624;12375.525;  235.125;    0.000
1033.780;13010.525;  233.125;    0.000
1033.937;12810.525;  201.125;    0.000
1034.093;11665.525;  233.125;    0.000
1034.249;12213.525;  214.125;    0.000
1034.405;12008.525;  245.125;    0.000
1034.561;13288.525;  228.125;    0.000
1034.717;13908.525;  234.125;    0.000
1034.873;13429.525;  248.125;    0.000
1035.029;14335.525;  220.125;    0.000
1035.185;13373.525;  294.125;    0.000
1035.341;12917.525;  231.125;    0.000
1035.497;14339.525;  254.125;    0.000
1035.653;14329.525;  225.125;    0.000
1035.809;15722.525;  243.125;    0.000
1035.964;16373.525;  216.125;    0.000
1036.120;15005.525;  199.125;    0.000
1036.276;14844.525;  220.125;    0.000
1036.432;15165.525;  210.125;    0.000
1036.587;13980.525;  225.125;    0.000
1036.743;15433.525;  245.125;    0.000
1036.899;16427.525;  219.125;    0.000
1037.054;16353.525;  157.125;    0.000
1037.210;18095.525;  208.125;    0.000
1037.365;18011.525;  230.125;    0.000
1037.521;17019.525;  236.125;    0.000
1037.676;16654.525;  193.125;    0.000
1037.832;15259.525;  246.125;    0.000
1037.987;16068.525;  231.125;    0.000
1038.143;16404.525;  234.125;    0.000
1038.298;18064.525;  219.125;    0.000
1038.453;18878.525;  230.125;    0.000
1038.609;20076.525;  254.125;    0.000
1038.764;20585.525;  249.125;    0.000
1038.919;19117.525;  224.125;    0.000
1039.074;19869.525;  209.125;    0.000
1039.229;18158.525;  214.125;    0.000
1039.385;17671.525;  268.125;    0.000
1039.540;18533.525;  268.125;    0.000
1039.695;19091.525;  229.125;    0.000
1039.850;21349.525;  252.125;    0.000
1040.005;22496.525;  248.125;    0.000
1040.160;23900.525;  215.125;    0.000
1040.315;23191.525;  239.125;    0.000
1040.470;22248.525;  210.125;    0.000
1040.625;21739.525;  239.125;    0.000
1040.780;20365.525;  251.125;    0.000
1040.935;21091.525;  247.125;    0.000
1041.089;21292.525;  215.125;    0.000
1041.244;23337.525;  210.125;    0.000
1041.399;24770.525;  237.125;    0.000
1041.554;26259.525;  253.125;    0.000
1041.708;28794.525;  227.125;    0.000
1041.863;28603.525;  219.125;    0.000
1042.018;27809.525;  246.125;    0.000
1042.172;28180.525;  236.125;    0.000
1042.327;26118.525;  272.125;    0.000
1042.481;25600.525;  197.125;    0.000
1042.636;27394.525;  213.125;    0.000
1042.791;27331.525;  250.125;    0.000
1042.945;30177.525;  267.125;    0.000
1043.099;33760.523;  257.125;    0.000
1043.254;32127.525;  206.125;    0.000
1043.408;33740.523;  266.125;    0.000
1043.563;35946.523;  232.125;    0.000
1043.717;35255.523;  241.125;    0.000
1043.871;34229.523;  248.125;    0.000
1044.025;33902.523;  234.125;    0.000
1044.180;32183.525;  222.125;    0.000
1044.334;31638.525;  235.125;    0.000
1044.488;33990.523;  270.125;    0.000
1044.642;36717.523;  215.125;    0.000
1044.796;40220.523;  212.125;    0.000
1044.950;44394.523;  228.125;    0.000
1045.104;45346.523;  223.125;    0.000
1045.258;46340.523;  236.125;    0.000
1045.412;46187.523;  225.125;    0.000
1045.566;46295.523;  245.125;    0.000
1045.720;43596.523;  201.125;    0.000
1045.874;40796.523;  229.125;    0.000
1046.028;37871.523;  243.125;    0.000
1046.182;38328.523;  212.125;    0.000
1046.336;39416.523;  256.125;    0.000
1046.489;40759.523;  234.125;    0.000
1046.643;41577.523;  246.125;    0.000
1046.797;46012.523;  219.125;    0.000
1046.951;47595.523;  231.125;    0.000
1047.104;47761.523;  285.125;    0.000
1047.258;49292.523;  256.125;    0.000
1047.411;51969.523;  232.125;    0.000
1047.565;52593.523;  269.125;    0.000
1047.719;49854.523;  213.125;    0.000
1047.872;47553.523;  210.125;    0.000
1048.026;45567.523;  251.125;    0.000
1048.179;43927.523;  213.125;    0.000
1048.332;44001.523;  212.125;    0.000
1048.486;43826.523;  218.125;    0.000
1048.639;47885.523;  218.125;    0.000
1048.792;45476.523;  247.125;    0.000
1048.946;50560.523;  208.125;    0.000
1049.099;56601.523;  247.125;    0.000
1049.252;60674.523;  274.125;    0.000
1049.406;52981.523;  232.125;    0.000
1049.559;53665.523;  251.125;    0.000
1049.712;59189.523;  243.125;    0.000
1049.865;64053.523;  219.125;    0.000
1050.018;63420.523;  216.125;    0.000
1050.171;55137.523;  237.125;    0.000
1050.324;54473.523;  291.125;    0.000
1050.477;55589.523;  241.125;    0.000
1050.630;60261.523;  245.125;    0.000
1050.783;62531.523;  213.125;    0.000
1050.936;59909.523;  246.125;    0.000
1051.089;54347.523;  255.125;    0.000
1051.242;58389.523;  228.125;    0.000
1051.394;64087.523;  276.125;    0.000
1051.547;65069.523;  246.125;    0.000
1051.700;62721.523;  252.125;    0.000
1051.853;60676.523;  267.125;    0.000
1052.005;60647.523;  261.125;    0.000
1052.158;65069.523;  313.125;    0.000
1052.311;65069.523;  264.125;    0.000
1052.463;65069.523;  271.125;    0.000
1052.616;65069.523;  291.125;    0.000
1052.768;58220.523;  298.125;    0.000
1052.921;57009.523;  262.125;    0.000
1053.073;61006.523;  307.125;    0.000
1053.226;65069.523;  301.125;    0.000
1053.378;65069.523;  309.125;    0.000
1053.531;65069.523;  280.125;    0.000
1053.683;65069.523;  258.125;    0.000
1053.835;65069.523;  267.125;    0.000
1053.988;51969.523;  294.125;    0.000
1054.140; 9503.525;  292.125;    0.000
1054.292; 2209.525;  249.125;    0.000
1054.444; 1767.525;  288.125;    0.000
1054.596; 1551.525;  275.125;    0.000
1054.749; 1395.525;  284.125;    0.000
1054.901; 1338.525;  291.125;    0.000
1055.053; 1153.525;  274.125;    0.000
1055.205; 1110.525;  313.125;    0.000
1055.357; 1142.525;  309.125;    0.000
1055.509;  984.525;  283.125;    0.000
1055.661; 1042.525;  341.125;    0.000
1055.813;  931.525;  288.125;    0.000
1055.965;  954.525;  300.125;    0.000
1056.116;  914.525;  296.125;    0.000
1056.268;  941.525;  319.125;    0.000
1056.420;  912.525;  298.125;    0.000

