
Integration time [ms]:   1.000
Averaging Nr. [scans]: 1
Smoothing Nr. [pixels]: 0
Data measured with spectrometer [name]: NIR
Wave   ;Sample   ;Dark     ;Reference
[nm]   ;[counts] ;[counts] ;[counts] 

691.496;  -71.575;  163.125;    0.000
691.696;  -59.575;  208.125;    0.000
691.896;  -99.575;  111.125;    0.000
692.096;  -59.575;  178.125;    0.000
692.296;  -91.575;   93.125;    0.000
692.496;  -77.575;  161.125;    0.000
692.695;  -77.575;  135.125;    0.000
692.895;  -63.575;  179.125;    0.000
693.095;  -57.575;  158.125;    0.000
693.295;  -29.575;  168.125;    0.000
693.495;  -56.575;  170.125;    0.000
693.695;  -50.575;  155.125;    0.000
693.894;  -59.575;  151.125;    0.000
694.094;  -48.575;  164.125;    0.000
694.294;  -64.575;  129.125;    0.000
694.494;  158.425;  170.125;    0.000
694.693; 2285.425;  137.125;    0.000
694.893; 2628.425;  163.125;    0.000
695.093; 2522.425;  121.125;    0.000
695.293; 2584.425;  144.125;    0.000
695.492; 2607.425;   88.125;    0.000
695.692; 2683.425;  148.125;    0.000
695.891; 2676.425;  125.125;    0.000
696.091; 2659.425;  184.125;    0.000
696.291; 2612.425;  153.125;    0.000
696.490; 2688.425;  131.125;    0.000
696.690; 2664.425;  123.125;    0.000
696.889; 2738.425;  180.125;    0.000
697.089; 2670.425;  147.125;    0.000
697.288; 2676.425;  164.125;    0.000
697.488; 2628.425;  133.125;    0.000
697.687; 2740.425;  153.125;    0.000
697.887; 2671.425;  119.125;    0.000
698.086; 2699.425;  143.125;    0.000
698.286; 2726.425;  125.125;    0.000
698.485; 2696.425;  120.125;    0.000
698.684; 2742.425;  116.125;    0.000
698.884; 2766.425;  131.125;    0.000
699.083; 2662.425;  115.125;    0.000
699.282; 2711.425;  144.125;    0.000
699.482; 2764.425;  109.125;    0.000
699.681; 2809.425;  115.125;    0.000
699.880; 2771.425;  125.125;    0.000
700.080; 2817.425;  139.125;    0.000
700.279; 2720.425;  111.125;    0.000
700.478; 2744.425;  146.125;    0.000
700.677; 2723.425;  131.125;    0.000
700.877; 2848.425;  156.125;    0.000
701.076; 2851.425;  153.125;    0.000
701.275; 2798.425;  123.125;    0.000
701.474; 2794.425;  150.125;    0.000
701.673; 2764.425;   97.125;    0.000
701.872; 2726.425;  139.125;    0.000
702.071; 2834.425;  108.125;    0.000
702.271; 2851.425;  125.125;    0.000
702.470; 2827.425;  108.125;    0.000
702.669; 2886.425;  102.125;    0.000
702.868; 2915.425;  153.125;    0.000
703.067; 2873.425;  145.125;    0.000
703.266; 2868.425;   96.125;    0.000
703.465; 2846.425;  165.125;    0.000
703.664; 3033.425;  106.125;    0.000
703.863; 2906.425;  144.125;    0.000
704.062; 2803.425;   86.125;    0.000
704.260; 2876.425;   99.125;    0.000
704.459; 2897.425;  112.125;    0.000
704.658; 2813.425;  106.125;    0.000
704.857; 2871.425;  129.125;    0.000
705.056; 2842.425;   98.125;    0.000
705.255; 2792.425;   97.125;    0.000
705.454; 2919.425;  101.125;    0.000
705.652; 2849.425;  142.125;    0.000
705.851; 2826.425;  100.125;    0.000
706.050; 2899.425;  162.125;    0.000
706.249; 2872.425;  146.125;    0.000
706.447; 2936.425;  120.125;    0.000
706.646; 2915.425;  114.125;    0.000
706.845; 2841.425;  117.125;    0.000
707.043; 2880.425;  136.125;    0.000
707.242; 2800.425;   90.125;    0.000
707.441; 2918.425;  131.125;    0.000
707.639; 2866.425;  120.125;    0.000
707.838; 2909.425;  122.125;    0.000
708.037; 2936.425;  109.125;    0.000
708.235; 2874.425;  122.125;    0.000
708.434; 2985.425;  109.125;    0.000
708.632; 3001.425;   47.125;    0.000
708.831; 2959.425;  122.125;    0.000
709.029; 2954.425;  130.125;    0.000
709.228; 2931.425;  112.125;    0.000
709.426; 2951.425;  128.125;    0.000
709.625; 3005.425;  129.125;    0.000
709.823; 2988.425;  130.125;    0.000
710.022; 3063.425;   90.125;    0.000
710.220; 3102.425;  131.125;    0.000
710.418; 3012.425;  133.125;    0.000
710.617; 2985.425;   82.125;    0.000
710.815; 3074.425;   90.125;    0.000
711.013; 3028.425;   86.125;    0.000
711.212; 3045.425;  117.125;    0.000
711.410; 3120.425;  106.125;    0.000
711.608; 2991.425;  138.125;    0.000
711.807; 3163.425;  116.125;    0.000
712.005; 3098.425;   82.125;    0.000
712.203; 3113.425;   90.125;    0.000
712.401; 3158.425;  124.125;    0.000
712.599; 3188.425;   64.125;    0.000
712.798; 3200.425;  113.125;    0.000
712.996; 3105.425;  100.125;    0.000
713.194; 3085.425;  130.125;    0.000
713.392; 3199.425;   89.125;    0.000
713.590; 3150.425;  105.125;    0.000
713.788; 3108.425;  100.125;    0.000
713.986; 3251.425;  117.125;    0.000
714.184; 3303.425;   72.125;    0.000
714.382; 3200.425;   88.125;    0.000
714.580; 3207.425;   88.125;    0.000
714.778; 3204.425;  129.125;    0.000
714.976; 3242.425;   90.125;    0.000
715.174; 3356.425;  119.125;    0.000
715.372; 3364.425;  117.125;    0.000
715.570; 3492.425;  101.125;    0.000
715.768; 3594.425;  122.125;    0.000
715.966; 3747.425;  114.125;    0.000
716.164; 3686.425;  135.125;    0.000
716.362; 3646.425;  126.125;    0.000
716.560; 3610.425;  126.125;    0.000
716.758; 3537.425;   98.125;    0.000
716.955; 3566.425;   76.125;    0.000
717.153; 3517.425;   45.125;    0.000
717.351; 3443.425;  106.125;    0.000
717.549; 3457.425;  108.125;    0.000
717.746; 3415.425;   66.125;    0.000
717.944; 3475.425;  127.125;    0.000
718.142; 3433.425;  148.125;    0.000
718.340; 3460.425;   94.125;    0.000
718.537; 3517.425;  107.125;    0.000
718.735; 3536.425;  130.125;    0.000
718.933; 3472.425;  111.125;    0.000
719.130; 3499.425;  107.125;    0.000
719.328; 3466.425;  128.125;    0.000
719.525; 3447.425;  141.125;    0.000
719.723; 3404.425;  122.125;    0.000
719.920; 3350.425;   85.125;    0.000
720.118; 3542.425;  115.125;    0.000
720.316; 3459.425;  153.125;    0.000
720.513; 3406.425;  120.125;    0.000
720.711; 3404.425;  134.125;    0.000
720.908; 3401.425;  126.125;    0.000
721.105; 3427.425;  119.125;    0.000
721.303; 3424.425;  112.125;    0.000
721.500; 3471.425;  125.125;    0.000
721.698; 3502.425;   94.125;    0.000
721.895; 3363.425;  118.125;    0.000
722.092; 3446.425;   77.125;    0.000
722.290; 3532.425;  135.125;    0.000
722.487; 3480.425;  154.125;    0.000
722.684; 3455.425;  122.125;    0.000
722.882; 3414.425;   90.125;    0.000
723.079; 3485.425;  132.125;    0.000
723.276; 3460.425;   95.125;    0.000
723.473; 3418.425;  106.125;    0.000
723.671; 3394.425;   80.125;    0.000
723.868; 3515.425;  112.125;    0.000
724.065; 3479.425;  107.125;    0.000
724.262; 3552.425;  119.125;    0.000
724.459; 3429.425;   80.125;    0.000
724.656; 3515.425;  109.125;    0.000
724.854; 3512.425;  107.125;    0.000
725.051; 3466.425;  103.125;    0.000
725.248; 3458.425;  101.125;    0.000
725.445; 3505.425;   93.125;    0.000
725.642; 3492.425;   92.125;    0.000
725.839; 3502.425;  157.125;    0.000
726.036; 3505.425;   71.125;    0.000
726.233; 3547.425;   80.125;    0.000
726.430; 3537.425;  146.125;    0.000
726.627; 3662.425;  103.125;    0.000
726.824; 3439.425;   46.125;    0.000
727.021; 3589.425;  149.125;    0.000
727.218; 3578.425;   87.125;    0.000
727.414; 3621.425;  112.125;    0.000
727.611; 3531.425;  111.125;    0.000
727.808; 3556.425;  122.125;    0.000
728.005; 3463.425;   58.125;    0.000
728.202; 3511.425;  129.125;    0.000
728.399; 3649.425;  111.125;    0.000
728.595; 3550.425;   93.125;    0.000
728.792; 3574.425;   78.125;    0.000
728.989; 3548.425;  104.125;    0.000
729.186; 3552.425;  110.125;    0.000
729.382; 3575.425;   93.125;    0.000
729.579; 3597.425;  102.125;    0.000
729.776; 3569.425;  112.125;    0.000
729.972; 3610.425;  101.125;    0.000
730.169; 3680.425;  150.125;    0.000
730.366; 3660.425;   92.125;    0.000
730.562; 3719.425;   74.125;    0.000
730.759; 3655.425;   97.125;    0.000
730.955; 3579.425;   86.125;    0.000
731.152; 3592.425;   88.125;    0.000
731.348; 3588.425;  117.125;    0.000
731.545; 3708.425;   62.125;    0.000
731.741; 3646.425;   84.125;    0.000
731.938; 3634.425;  108.125;    0.000
732.134; 3546.425;  115.125;    0.000
732.331; 3654.425;   88.125;    0.000
732.527; 3676.425;   96.125;    0.000
732.724; 3701.425;  103.125;    0.000
732.920; 3677.425;   93.125;    0.000
733.116; 3785.425;  109.125;    0.000
733.313; 3617.425;   77.125;    0.000
733.509; 3578.425;   81.125;    0.000
733.705; 3601.425;  141.125;    0.000
733.902; 3645.425;   88.125;    0.000
734.098; 3657.425;   56.125;    0.000
734.294; 3753.425;  122.125;    0.000
734.490; 3689.425;  102.125;    0.000
734.687; 3761.425;   70.125;    0.000
734.883; 3701.425;   73.125;    0.000
735.079; 3859.425;   65.125;    0.000
735.275; 3763.425;  112.125;    0.000
735.471; 3707.425;  124.125;    0.000
735.667; 3639.425;   94.125;    0.000
735.863; 3663.425;  106.125;    0.000
736.060; 3714.425;  106.125;    0.000
736.256; 3638.425;   95.125;    0.000
736.452; 3742.425;  103.125;    0.000
736.648; 3800.425;  106.125;    0.000
736.844; 3854.425;   98.125;    0.000
737.040; 3771.425;  118.125;    0.000
737.236; 3815.425;   95.125;    0.000
737.432; 3745.425;   59.125;    0.000
737.628; 3884.425;  120.125;    0.000
737.824; 3859.425;   78.125;    0.000
738.019; 3772.425;   98.125;    0.000
738.215; 3776.425;  127.125;    0.000
738.411; 3927.425;  111.125;    0.000
738.607; 3868.425;   69.125;    0.000
738.803; 3772.425;   40.125;    0.000
738.999; 3960.425;  128.125;    0.000
739.195; 3896.425;   81.125;    0.000
739.390; 3938.425;   97.125;    0.000
739.586; 3902.425;  100.125;    0.000
739.782; 3922.425;  135.125;    0.000
739.978; 4064.425;  121.125;    0.000
740.173; 3968.425;   92.125;    0.000
740.369; 3973.425;   92.125;    0.000
740.565; 4021.425;  119.125;    0.000
740.760; 4089.425;  139.125;    0.000
740.956; 3926.425;  134.125;    0.000
741.152; 3928.425;  107.125;    0.000
741.347; 4085.425;   63.125;    0.000
741.543; 4151.425;   99.125;    0.000
741.738; 4099.425;  119.125;    0.000
741.934; 4171.425;  156.125;    0.000
742.129; 4364.425;   87.125;    0.000
742.325; 4661.425;  143.125;    0.000
742.520; 5068.425;  109.125;    0.000
742.716; 4740.425;  135.125;    0.000
742.911; 4748.425;   77.125;    0.000
743.107; 4712.425;  117.125;    0.000
743.302; 4495.425;   93.125;    0.000
743.498; 4784.425;  118.125;    0.000
743.693; 4698.425;   95.125;    0.000
743.888; 4950.425;  122.125;    0.000
744.084; 5290.425;  104.125;    0.000
744.279; 5966.425;   94.125;    0.000
744.474; 6166.425;  138.125;    0.000
744.670; 5647.425;  113.125;    0.000
744.865; 5429.425;  116.125;    0.000
745.060; 5217.425;   89.125;    0.000
745.255; 5275.425;  144.125;    0.000
745.451; 5081.425;   98.125;    0.000
745.646; 5028.425;  110.125;    0.000
745.841; 5005.425;   87.125;    0.000
746.036; 4995.425;   98.125;    0.000
746.231; 4998.425;  153.125;    0.000
746.426; 5247.425;   90.125;    0.000
746.622; 5758.425;  154.125;    0.000
746.817; 6927.425;  111.125;    0.000
747.012; 7464.425;  110.125;    0.000
747.207; 6857.425;   76.125;    0.000
747.402; 6568.425;   94.125;    0.000
747.597; 6159.425;   68.125;    0.000
747.792; 5976.425;  125.125;    0.000
747.987; 5750.425;   92.125;    0.000
748.182; 5693.425;  113.125;    0.000
748.377; 5418.425;   72.125;    0.000
748.572; 5504.425;  135.125;    0.000
748.767; 5132.425;   98.125;    0.000
748.961; 5149.425;  123.125;    0.000
749.156; 4899.425;   96.125;    0.000
749.351; 5011.425;  121.125;    0.000
749.546; 4824.425;   95.125;    0.000
749.741; 4748.425;  144.125;    0.000
749.936; 4817.425;  105.125;    0.000
750.130; 4650.425;  101.125;    0.000
750.325; 4718.425;  126.125;    0.000
750.520; 4586.425;  113.125;    0.000
750.715; 4622.425;  135.125;    0.000
750.909; 4597.425;  138.125;    0.000
751.104; 4589.425;   96.125;    0.000
751.299; 4459.425;  118.125;    0.000
751.493; 4467.425;  124.125;    0.000
751.688; 4491.425;  131.125;    0.000
751.882; 4443.425;   96.125;    0.000
752.077; 4293.425;  123.125;    0.000
752.272; 4386.425;  112.125;    0.000
752.466; 4338.425;  143.125;    0.000
752.661; 4354.425;  107.125;    0.000
752.855; 4250.425;   97.125;    0.000
753.050; 4321.425;  125.125;    0.000
753.244; 4263.425;  161.125;    0.000
753.439; 4279.425;  101.125;    0.000
753.633; 4255.425;  129.125;    0.000
753.828; 4189.425;  114.125;    0.000
754.022; 4315.425;  118.125;    0.000
754.216; 4274.425;  126.125;    0.000
754.411; 4222.425;  148.125;    0.000
754.605; 4202.425;  100.125;    0.000
754.799; 4159.425;  146.125;    0.000
754.994; 4200.425;  116.125;    0.000
755.188; 4283.425;  146.125;    0.000
755.382; 4119.425;  103.125;    0.000
755.576; 4237.425;  119.125;    0.000
755.771; 4158.425;  100.125;    0.000
755.965; 4194.425;  129.125;    0.000
756.159; 4224.425;  100.125;    0.000
756.353; 4174.425;  153.125;    0.000
756.547; 4081.425;  113.125;    0.000
756.742; 4133.425;  129.125;    0.000
756.936; 4115.425;   70.125;    0.000
757.130; 4180.425;   91.125;    0.000
757.324; 4143.425;   92.125;    0.000
757.518; 4101.425;  128.125;    0.000
757.712; 4209.425;  146.125;    0.000
757.906; 4122.425;  114.125;    0.000
758.100; 4186.425;  153.125;    0.000
758.294; 4076.425;  133.125;    0.000
758.488; 4189.425;  149.125;    0.000
758.682; 4127.425;  132.125;    0.000
758.876; 4185.425;  128.125;    0.000
759.070; 4225.425;  178.125;    0.000
759.264; 4118.425;   98.125;    0.000
759.458; 4073.425;  168.125;    0.000
759.651; 4024.425;  131.125;    0.000
759.845; 4161.425;  133.125;    0.000
760.039; 4077.425;  120.125;    0.000
760.233; 4169.425;  116.125;    0.000
760.427; 4097.425;  121.125;    0.000
760.620; 4204.425;  163.125;    0.000
760.814; 4139.425;  106.125;    0.000
761.008; 4157.425;  119.125;    0.000
761.202; 4237.425;  121.125;    0.000
761.395; 4209.425;  136.125;    0.000
761.589; 4150.425;  111.125;    0.000
761.783; 4082.425;  116.125;    0.000
761.976; 4209.425;  139.125;    0.000
762.170; 4201.425;  140.125;    0.000
762.363; 4159.425;  115.125;    0.000
762.557; 4213.425;  129.125;    0.000
762.750; 4139.425;   85.125;    0.000
762.944; 4285.425;  107.125;    0.000
763.138; 4201.425;   99.125;    0.000
763.331; 4132.425;   97.125;    0.000
763.524; 4153.425;  100.125;    0.000
763.718; 4304.425;  130.125;    0.000
763.911; 4273.425;  127.125;    0.000
764.105; 4163.425;   69.125;    0.000
764.298; 4184.425;   94.125;    0.000
764.492; 4193.425;  129.125;    0.000
764.685; 4136.425;  114.125;    0.000
764.878; 4221.425;  145.125;    0.000
765.072; 4302.425;  124.125;    0.000
765.265; 4220.425;  124.125;    0.000
765.458; 4241.425;  108.125;    0.000
765.651; 4338.425;  132.125;    0.000
765.845; 4303.425;  106.125;    0.000
766.038; 4623.425;  155.125;    0.000
766.231; 5376.425;  153.125;    0.000
766.424; 8315.425;  165.125;    0.000
766.617; 8733.425;   85.125;    0.000
766.811; 5292.425;  140.125;    0.000
767.004; 4502.425;  151.125;    0.000
767.197; 4622.425;  178.125;    0.000
767.390; 4468.425;  112.125;    0.000
767.583; 4331.425;  134.125;    0.000
767.776; 4360.425;  101.125;    0.000
767.969; 4297.425;   99.125;    0.000
768.162; 4329.425;  152.125;    0.000
768.355; 4390.425;  115.125;    0.000
768.548; 4464.425;  154.125;    0.000
768.741; 4392.425;  124.125;    0.000
768.934; 4423.425;  129.125;    0.000
769.127; 4489.425;  137.125;    0.000
769.320; 4567.425;  115.125;    0.000
769.513; 4616.425;  144.125;    0.000
769.706; 5564.425;  107.125;    0.000
769.898; 8276.425;  134.125;    0.000
770.091; 6463.425;  128.125;    0.000
770.284; 4806.425;   97.125;    0.000
770.477; 4738.425;  135.125;    0.000
770.670; 4640.425;  137.125;    0.000
770.862; 4466.425;  112.125;    0.000
771.055; 4548.425;  127.125;    0.000
771.248; 4685.425;  116.125;    0.000
771.441; 4471.425;  101.125;    0.000
771.633; 4668.425;  130.125;    0.000
771.826; 4745.425;  147.125;    0.000
772.018; 4746.425;  117.125;    0.000
772.211; 4693.425;  141.125;    0.000
772.404; 4882.425;  104.125;    0.000
772.596; 4818.425;  128.125;    0.000
772.789; 4917.425;  131.125;    0.000
772.981; 5061.425;  134.125;    0.000
773.174; 5073.425;  108.125;    0.000
773.366; 5005.425;  153.125;    0.000
773.559; 5115.425;  137.125;    0.000
773.751; 5107.425;  119.125;    0.000
773.944; 5269.425;  148.125;    0.000
774.136; 5491.425;  155.125;    0.000
774.329; 5491.425;  126.125;    0.000
774.521; 5598.425;  116.125;    0.000
774.713; 5774.425;  119.125;    0.000
774.906; 5731.425;  179.125;    0.000
775.098; 6112.425;  127.125;    0.000
775.290; 6474.425;  146.125;    0.000
775.483; 6653.425;  123.125;    0.000
775.675; 6805.425;  119.125;    0.000
775.867; 7276.425;  119.125;    0.000
776.059; 7848.425;  137.125;    0.000
776.251; 8497.425;  154.125;    0.000
776.444; 9377.425;  101.125;    0.000
776.636;10543.425;  153.125;    0.000
776.828;12664.425;  127.125;    0.000
777.020;16676.426;  140.125;    0.000
777.212;23763.426;  160.125;    0.000
777.404;26323.426;  170.125;    0.000
777.596;24780.426;  136.125;    0.000
777.788;19578.426;  137.125;    0.000
777.980;15562.425;  129.125;    0.000
778.172;13064.425;  139.125;    0.000
778.364;11500.425;  124.125;    0.000
778.556;10208.425;  163.125;    0.000
778.748; 9463.425;  142.125;    0.000
778.940; 8689.425;  178.125;    0.000
779.132; 8164.425;  159.125;    0.000
779.324; 7658.425;  109.125;    0.000
779.516; 7128.425;  143.125;    0.000
779.708; 6950.425;  158.125;    0.000
779.900; 6597.425;  142.125;    0.000
780.091; 6282.425;  131.125;    0.000
780.283; 6109.425;  176.125;    0.000
780.475; 5996.425;  151.125;    0.000
780.667; 5749.425;  120.125;    0.000
780.859; 5579.425;  134.125;    0.000
781.050; 5513.425;  183.125;    0.000
781.242; 5433.425;   95.125;    0.000
781.434; 5188.425;  127.125;    0.000
781.625; 5219.425;  163.125;    0.000
781.817; 5064.425;  170.125;    0.000
782.008; 5053.425;  123.125;    0.000
782.200; 5009.425;  141.125;    0.000
782.392; 4916.425;  149.125;    0.000
782.583; 4658.425;  155.125;    0.000
782.775; 4874.425;  140.125;    0.000
782.966; 4747.425;  167.125;    0.000
783.158; 4725.425;  164.125;    0.000
783.349; 4604.425;  174.125;    0.000
783.541; 4629.425;  141.125;    0.000
783.732; 4605.425;  115.125;    0.000
783.924; 4554.425;  135.125;    0.000
784.115; 4459.425;  157.125;    0.000
784.306; 4482.425;  102.125;    0.000
784.498; 4371.425;  124.125;    0.000
784.689; 4429.425;  171.125;    0.000
784.880; 4359.425;  165.125;    0.000
785.072; 4330.425;  152.125;    0.000
785.263; 4441.425;  146.125;    0.000
785.454; 4312.425;  145.125;    0.000
785.645; 4331.425;  127.125;    0.000
785.837; 4346.425;  138.125;    0.000
786.028; 4317.425;  151.125;    0.000
786.219; 4341.425;  142.125;    0.000
786.410; 4274.425;  140.125;    0.000
786.601; 4240.425;  137.125;    0.000
786.792; 4307.425;  158.125;    0.000
786.984; 4163.425;  139.125;    0.000
787.175; 4203.425;  140.125;    0.000
787.366; 4259.425;  145.125;    0.000
787.557; 4286.425;  156.125;    0.000
787.748; 4326.425;  148.125;    0.000
787.939; 4204.425;  157.125;    0.000
788.130; 4278.425;  179.125;    0.000
788.321; 4190.425;  142.125;    0.000
788.512; 4391.425;  167.125;    0.000
788.703; 4361.425;  145.125;    0.000
788.894; 4222.425;  132.125;    0.000
789.084; 4309.425;  113.125;    0.000
789.275; 4341.425;  134.125;    0.000
789.466; 4304.425;  151.125;    0.000
789.657; 4215.425;  138.125;    0.000
789.848; 4413.425;  145.125;    0.000
790.039; 4331.425;  130.125;    0.000
790.229; 4209.425;  140.125;    0.000
790.420; 4390.425;  135.125;    0.000
790.611; 4352.425;  156.125;    0.000
790.801; 4325.425;   64.125;    0.000
790.992; 4338.425;  150.125;    0.000
791.183; 4289.425;  177.125;    0.000
791.373; 4295.425;   91.125;    0.000
791.564; 4224.425;   85.125;    0.000
791.755; 4217.425;  125.125;    0.000
791.945; 4305.425;   94.125;    0.000
792.136; 4243.425;   98.125;    0.000
792.326; 4204.425;  105.125;    0.000
792.517; 4348.425;  136.125;    0.000
792.707; 4351.425;  140.125;    0.000
792.898; 4227.425;  164.125;    0.000
793.088; 4328.425;  116.125;    0.000
793.279; 4394.425;  112.125;    0.000
793.469; 4392.425;  105.125;    0.000
793.660; 4582.425;  161.125;    0.000
793.850; 4582.425;  133.125;    0.000
794.040; 4536.425;  121.125;    0.000
794.231; 4759.425;  115.125;    0.000
794.421; 4966.425;  152.125;    0.000
794.611; 5435.425;  132.125;    0.000
794.802; 5991.425;  144.125;    0.000
794.992; 6228.425;  142.125;    0.000
795.182; 6352.425;  179.125;    0.000
795.372; 6217.425;  167.125;    0.000
795.563; 5726.425;  149.125;    0.000
795.753; 5394.425;  117.125;    0.000
795.943; 5136.425;  146.125;    0.000
796.133; 4830.425;  119.125;    0.000
796.323; 4799.425;  141.125;    0.000
796.513; 4673.425;  134.125;    0.000
796.703; 4649.425;  116.125;    0.000
796.893; 4568.425;  120.125;    0.000
797.083; 4439.425;  131.125;    0.000
797.273; 4336.425;  118.125;    0.000
797.463; 4425.425;  130.125;    0.000
797.653; 4287.425;   87.125;    0.000
797.843; 4170.425;  123.125;    0.000
798.033; 4168.425;  115.125;    0.000
798.223; 4024.425;  142.125;    0.000
798.413; 4121.425;  148.125;    0.000
798.603; 3984.425;  147.125;    0.000
798.793; 4035.425;  107.125;    0.000
798.983; 3960.425;  121.125;    0.000
799.172; 3782.425;  120.125;    0.000
799.362; 3843.425;  145.125;    0.000
799.552; 3794.425;  101.125;    0.000
799.742; 3970.425;  149.125;    0.000
799.932; 3694.425;  104.125;    0.000
800.121; 3817.425;  175.125;    0.000
800.311; 3740.425;  132.125;    0.000
800.501; 3777.425;  118.125;    0.000
800.690; 3689.425;  162.125;    0.000
800.880; 3603.425;  141.125;    0.000
801.070; 3707.425;  151.125;    0.000
801.259; 3682.425;  167.125;    0.000
801.449; 3585.425;  108.125;    0.000
801.638; 3737.425;  176.125;    0.000
801.828; 3688.425;  118.125;    0.000
802.017; 3634.425;  179.125;    0.000
802.207; 3713.425;  127.125;    0.000
802.396; 3695.425;  167.125;    0.000
802.586; 3595.425;  129.125;    0.000
802.775; 3672.425;  142.125;    0.000
802.965; 3547.425;  147.125;    0.000
803.154; 3573.425;  179.125;    0.000
803.343; 3570.425;  117.125;    0.000
803.533; 3572.425;  120.125;    0.000
803.722; 3678.425;  122.125;    0.000
803.911; 3560.425;  155.125;    0.000
804.101; 3393.425;  147.125;    0.000
804.290; 3539.425;  160.125;    0.000
804.479; 3562.425;  139.125;    0.000
804.668; 3495.425;  180.125;    0.000
804.857; 3568.425;  131.125;    0.000
805.047; 3431.425;  119.125;    0.000
805.236; 3570.425;  139.125;    0.000
805.425; 3523.425;  163.125;    0.000
805.614; 3422.425;  103.125;    0.000
805.803; 3546.425;  133.125;    0.000
805.992; 3418.425;  147.125;    0.000
806.181; 3451.425;  109.125;    0.000
806.370; 3472.425;  133.125;    0.000
806.559; 3403.425;  119.125;    0.000
806.748; 3537.425;  144.125;    0.000
806.937; 3497.425;  147.125;    0.000
807.126; 3464.425;  134.125;    0.000
807.315; 3338.425;  132.125;    0.000
807.504; 3466.425;  141.125;    0.000
807.693; 3423.425;  145.125;    0.000
807.882; 3423.425;   91.125;    0.000
808.071; 3414.425;  116.125;    0.000
808.260; 3405.425;  105.125;    0.000
808.448; 3441.425;  184.125;    0.000
808.637; 3426.425;  146.125;    0.000
808.826; 3382.425;  153.125;    0.000
809.015; 3419.425;  113.125;    0.000
809.203; 3565.425;  166.125;    0.000
809.392; 3521.425;  117.125;    0.000
809.581; 3479.425;  186.125;    0.000
809.770; 3401.425;  122.125;    0.000
809.958; 3548.425;  140.125;    0.000
810.147; 3449.425;  130.125;    0.000
810.335; 3493.425;  112.125;    0.000
810.524; 3502.425;  106.125;    0.000
810.713; 3533.425;  154.125;    0.000
810.901; 3482.425;  131.125;    0.000
811.090; 3561.425;  164.125;    0.000
811.278; 3503.425;  159.125;    0.000
811.467; 3687.425;  194.125;    0.000
811.655; 3683.425;  164.125;    0.000
811.844; 3651.425;  149.125;    0.000
812.032; 3709.425;  169.125;    0.000
812.220; 3576.425;  163.125;    0.000
812.409; 3474.425;  134.125;    0.000
812.597; 3526.425;  165.125;    0.000
812.785; 3704.425;  180.125;    0.000
812.974; 3639.425;  166.125;    0.000
813.162; 3718.425;  171.125;    0.000
813.350; 3619.425;  142.125;    0.000
813.539; 3603.425;  126.125;    0.000
813.727; 3768.425;  153.125;    0.000
813.915; 3700.425;  138.125;    0.000
814.103; 3733.425;  191.125;    0.000
814.291; 3834.425;  142.125;    0.000
814.479; 3812.425;  156.125;    0.000
814.668; 3714.425;  152.125;    0.000
814.856; 3924.425;  150.125;    0.000
815.044; 3895.425;  165.125;    0.000
815.232; 3983.425;  172.125;    0.000
815.420; 4098.425;  147.125;    0.000
815.608; 3965.425;  143.125;    0.000
815.796; 3958.425;  126.125;    0.000
815.984; 4100.425;  152.125;    0.000
816.172; 4066.425;  129.125;    0.000
816.360; 4119.425;  177.125;    0.000
816.548; 4269.425;  141.125;    0.000
816.736; 4379.425;  142.125;    0.000
816.924; 4644.425;  161.125;    0.000
817.111; 4593.425;  138.125;    0.000
817.299; 4784.425;  112.125;    0.000
817.487; 5091.425;  180.125;    0.000
817.675; 5408.425;  138.125;    0.000
817.863; 6162.425;  172.125;    0.000
818.050; 7499.425;  142.125;    0.000
818.238;11838.425;  151.125;    0.000
818.426;16454.426;  129.125;    0.000
818.613;12476.425;  124.125;    0.000
818.801;10715.425;  209.125;    0.000
818.989;10446.425;  178.125;    0.000
819.176;10639.425;  155.125;    0.000
819.364;14981.425;  174.125;    0.000
819.552;20258.426;  131.125;    0.000
819.739;15570.425;  184.125;    0.000
819.927;11845.425;  132.125;    0.000
820.114;10050.425;  173.125;    0.000
820.302; 8899.425;  140.125;    0.000
820.489; 8293.425;  133.125;    0.000
820.677; 7829.425;  167.125;    0.000
820.864; 7725.425;  161.125;    0.000
821.052; 7791.425;  134.125;    0.000
821.239; 8092.425;  149.125;    0.000
821.426; 8363.425;  160.125;    0.000
821.614; 9567.425;  143.125;    0.000
821.801;10425.425;  118.125;    0.000
821.988; 9230.425;  154.125;    0.000
822.176; 8936.425;  112.125;    0.000
822.363; 9222.425;  131.125;    0.000
822.550; 8472.425;  131.125;    0.000
822.737; 7887.425;  104.125;    0.000
822.924; 7537.425;  160.125;    0.000
823.112; 7096.425;  161.125;    0.000
823.299; 6879.425;  169.125;    0.000
823.486; 6530.425;  129.125;    0.000
823.673; 6108.425;  135.125;    0.000
823.860; 5969.425;  169.125;    0.000
824.047; 6140.425;  124.125;    0.000
824.234; 6484.425;  160.125;    0.000
824.421; 6397.425;  114.125;    0.000
824.608; 6024.425;  191.125;    0.000
824.795; 5671.425;  160.125;    0.000
824.982; 5290.425;  139.125;    0.000
825.169; 5054.425;  121.125;    0.000
825.356; 4857.425;  148.125;    0.000
825.543; 4722.425;  167.125;    0.000
825.730; 4564.425;  103.125;    0.000
825.917; 4457.425;  113.125;    0.000
826.104; 4333.425;  188.125;    0.000
826.290; 4183.425;  193.125;    0.000
826.477; 4211.425;  175.125;    0.000
826.664; 4102.425;  151.125;    0.000
826.851; 4007.425;  122.125;    0.000
827.038; 3851.425;  121.125;    0.000
827.224; 3872.425;  124.125;    0.000
827.411; 3868.425;  155.125;    0.000
827.598; 3711.425;  127.125;    0.000
827.784; 3708.425;  140.125;    0.000
827.971; 3634.425;  114.125;    0.000
828.157; 3586.425;  135.125;    0.000
828.344; 3636.425;  173.125;    0.000
828.531; 3604.425;  113.125;    0.000
828.717; 3448.425;  137.125;    0.000
828.904; 3455.425;  158.125;    0.000
829.090; 3467.425;  199.125;    0.000
829.277; 3362.425;  156.125;    0.000
829.463; 3338.425;  154.125;    0.000
829.650; 3332.425;  174.125;    0.000
829.836; 3342.425;  136.125;    0.000
830.022; 3256.425;  143.125;    0.000
830.209; 3239.425;  157.125;    0.000
830.395; 3307.425;  156.125;    0.000
830.581; 3110.425;  148.125;    0.000
830.768; 3115.425;  169.125;    0.000
830.954; 3144.425;  169.125;    0.000
831.140; 3152.425;  124.125;    0.000
831.327; 3130.425;  157.125;    0.000
831.513; 3055.425;  163.125;    0.000
831.699; 3104.425;  176.125;    0.000
831.885; 3068.425;  154.125;    0.000
832.071; 2982.425;  159.125;    0.000
832.257; 2985.425;  142.125;    0.000
832.444; 3048.425;  159.125;    0.000
832.630; 2998.425;  129.125;    0.000
832.816; 2978.425;  132.125;    0.000
833.002; 2899.425;  125.125;    0.000
833.188; 2927.425;  144.125;    0.000
833.374; 2910.425;  131.125;    0.000
833.560; 2897.425;  154.125;    0.000
833.746; 2851.425;  171.125;    0.000
833.932; 2912.425;  162.125;    0.000
834.118; 2850.425;  131.125;    0.000
834.303; 2911.425;  113.125;    0.000
834.489; 2901.425;  170.125;    0.000
834.675; 2814.425;  177.125;    0.000
834.861; 2740.425;  154.125;    0.000
835.047; 2891.425;  171.125;    0.000
835.233; 2846.425;   98.125;    0.000
835.418; 2829.425;  138.125;    0.000
835.604; 2699.425;  140.125;    0.000
835.790; 2804.425;  130.125;    0.000
835.976; 2782.425;  129.125;    0.000
836.161; 2865.425;  142.125;    0.000
836.347; 2761.425;  128.125;    0.000
836.533; 2712.425;  143.125;    0.000
836.718; 2740.425;  164.125;    0.000
836.904; 2767.425;  172.125;    0.000
837.089; 2707.425;  152.125;    0.000
837.275; 2809.425;  143.125;    0.000
837.460; 2684.425;  125.125;    0.000
837.646; 2794.425;  137.125;    0.000
837.831; 2768.425;  153.125;    0.000
838.017; 2718.425;  171.125;    0.000
838.202; 2691.425;  111.125;    0.000
838.388; 2844.425;  140.125;    0.000
838.573; 2721.425;  158.125;    0.000
838.759; 2728.425;  188.125;    0.000
838.944; 2659.425;  125.125;    0.000
839.129; 2794.425;  123.125;    0.000
839.315; 2740.425;  181.125;    0.000
839.500; 2785.425;  150.125;    0.000
839.685; 2684.425;  109.125;    0.000
839.870; 2806.425;  202.125;    0.000
840.056; 2747.425;  101.125;    0.000
840.241; 2738.425;  184.125;    0.000
840.426; 2777.425;  192.125;    0.000
840.611; 2778.425;  180.125;    0.000
840.796; 2841.425;  156.125;    0.000
840.981; 2810.425;  142.125;    0.000
841.166; 2851.425;  161.125;    0.000
841.352; 2865.425;  185.125;    0.000
841.537; 2887.425;  139.125;    0.000
841.722; 2857.425;  143.125;    0.000
841.907; 2909.425;  140.125;    0.000
842.092; 2934.425;  176.125;    0.000
842.277; 2849.425;  136.125;    0.000
842.461; 2972.425;  155.125;    0.000
842.646; 2963.425;  163.125;    0.000
842.831; 3087.425;  153.125;    0.000
843.016; 3287.425;  187.125;    0.000
843.201; 3155.425;  179.125;    0.000
843.386; 3268.425;  167.125;    0.000
843.571; 3406.425;  129.125;    0.000
843.755; 3594.425;  136.125;    0.000
843.940; 3782.425;  121.125;    0.000
844.125; 4118.425;  157.125;    0.000
844.310; 4682.425;  175.125;    0.000
844.494; 5719.425;  164.125;    0.000
844.679; 7529.425;  167.125;    0.000
844.864; 7599.425;  166.125;    0.000
845.048; 6451.425;  132.125;    0.000
845.233; 5637.425;  175.125;    0.000
845.418; 5040.425;  159.125;    0.000
845.602; 4581.425;  147.125;    0.000
845.787; 4190.425;  132.125;    0.000
845.971; 3992.425;  187.125;    0.000
846.156; 3641.425;  141.125;    0.000
846.340; 3732.425;  153.125;    0.000
846.525; 3525.425;  157.125;    0.000
846.709; 3433.425;  117.125;    0.000
846.893; 3150.425;  147.125;    0.000
847.078; 3131.425;  170.125;    0.000
847.262; 3132.425;  150.125;    0.000
847.447; 2975.425;  132.125;    0.000
847.631; 2977.425;  144.125;    0.000
847.815; 2993.425;  157.125;    0.000
848.000; 2810.425;  164.125;    0.000
848.184; 2840.425;  174.125;    0.000
848.368; 2784.425;  149.125;    0.000
848.552; 2761.425;  143.125;    0.000
848.736; 2743.425;  132.125;    0.000
848.921; 2637.425;  147.125;    0.000
849.105; 2624.425;  150.125;    0.000
849.289; 2652.425;  146.125;    0.000
849.473; 2627.425;  167.125;    0.000
849.657; 2574.425;  149.125;    0.000
849.841; 2639.425;  181.125;    0.000
850.025; 2568.425;  154.125;    0.000
850.209; 2632.425;  152.125;    0.000
850.393; 2494.425;  139.125;    0.000
850.577; 2501.425;  128.125;    0.000
850.761; 2536.425;  194.125;    0.000
850.945; 2442.425;  152.125;    0.000
851.129; 2474.425;  157.125;    0.000
851.313; 2453.425;  181.125;    0.000
851.497; 2481.425;  145.125;    0.000
851.680; 2530.425;  168.125;    0.000
851.864; 2457.425;  185.125;    0.000
852.048; 2417.425;  170.125;    0.000
852.232; 2449.425;  192.125;    0.000
852.416; 2485.425;  182.125;    0.000
852.599; 2471.425;  169.125;    0.000
852.783; 2475.425;  168.125;    0.000
852.967; 2557.425;  184.125;    0.000
853.150; 2497.425;  163.125;    0.000
853.334; 2455.425;  164.125;    0.000
853.518; 2462.425;  190.125;    0.000
853.701; 2386.425;  137.125;    0.000
853.885; 2403.425;  177.125;    0.000
854.068; 2371.425;  163.125;    0.000
854.252; 2390.425;  139.125;    0.000
854.435; 2353.425;  152.125;    0.000
854.619; 2321.425;  148.125;    0.000
854.802; 2420.425;  168.125;    0.000
854.986; 2312.425;  157.125;    0.000
855.169; 2471.425;  147.125;    0.000
855.353; 2449.425;  173.125;    0.000
855.536; 2379.425;  127.125;    0.000
855.719; 2380.425;  191.125;    0.000
855.903; 2468.425;  186.125;    0.000
856.086; 2388.425;  145.125;    0.000
856.269; 2315.425;  130.125;    0.000
856.452; 2448.425;  153.125;    0.000
856.636; 2418.425;  129.125;    0.000
856.819; 2510.425;  134.125;    0.000
857.002; 2576.425;  152.125;    0.000
857.185; 2670.425;  140.125;    0.000
857.368; 2480.425;  170.125;    0.000
857.552; 2435.425;  132.125;    0.000
857.735; 2483.425;  160.125;    0.000
857.918; 2464.425;  139.125;    0.000
858.101; 2497.425;  159.125;    0.000
858.284; 2500.425;  136.125;    0.000
858.467; 2610.425;  147.125;    0.000
858.650; 2630.425;  153.125;    0.000
858.833; 2546.425;  113.125;    0.000
859.016; 2657.425;  167.125;    0.000
859.199; 2762.425;  141.125;    0.000
859.382; 2805.425;  155.125;    0.000
859.564; 2935.425;  136.125;    0.000
859.747; 2919.425;  142.125;    0.000
859.930; 2717.425;  141.125;    0.000
860.113; 2839.425;  156.125;    0.000
860.296; 2851.425;  167.125;    0.000
860.478; 2676.425;  121.125;    0.000
860.661; 2742.425;  230.125;    0.000
860.844; 2653.425;  186.125;    0.000
861.027; 2684.425;  155.125;    0.000
861.209; 2640.425;  151.125;    0.000
861.392; 2634.425;  162.125;    0.000
861.575; 2695.425;  150.125;    0.000
861.757; 2717.425;  162.125;    0.000
861.940; 2748.425;  207.125;    0.000
862.122; 2850.425;  113.125;    0.000
862.305; 2799.425;  114.125;    0.000
862.487; 2878.425;  162.125;    0.000
862.670; 3067.425;  148.125;    0.000
862.852; 3358.425;  131.125;    0.000
863.035; 3811.425;  174.125;    0.000
863.217; 3792.425;  170.125;    0.000
863.400; 3511.425;  148.125;    0.000
863.582; 3378.425;  129.125;    0.000
863.764; 3193.425;  181.125;    0.000
863.947; 3284.425;  152.125;    0.000
864.129; 3156.425;  178.125;    0.000
864.311; 3112.425;  139.125;    0.000
864.493; 3101.425;  166.125;    0.000
864.676; 3053.425;  148.125;    0.000
864.858; 2962.425;  123.125;    0.000
865.040; 2964.425;  180.125;    0.000
865.222; 3014.425;  131.125;    0.000
865.404; 3119.425;  146.125;    0.000
865.587; 3151.425;  175.125;    0.000
865.769; 3205.425;  183.125;    0.000
865.951; 3142.425;  171.125;    0.000
866.133; 3245.425;  165.125;    0.000
866.315; 3246.425;  138.125;    0.000
866.497; 3198.425;  139.125;    0.000
866.679; 3409.425;  167.125;    0.000
866.861; 3429.425;  151.125;    0.000
867.043; 3697.425;  190.125;    0.000
867.225; 3823.425;  140.125;    0.000
867.407; 4045.425;  125.125;    0.000
867.589; 4345.425;  141.125;    0.000
867.770; 5017.425;  149.125;    0.000
867.952; 6435.425;  138.125;    0.000
868.134; 7946.425;  153.125;    0.000
868.316; 8257.425;  148.125;    0.000
868.498; 8041.425;  180.125;    0.000
868.679; 7081.425;  152.125;    0.000
868.861; 6262.425;  174.125;    0.000
869.043; 5513.425;  152.125;    0.000
869.224; 4943.425;  177.125;    0.000
869.406; 4573.425;  171.125;    0.000
869.588; 4327.425;  177.125;    0.000
869.769; 4163.425;  174.125;    0.000
869.951; 4053.425;  167.125;    0.000
870.132; 4110.425;  144.125;    0.000
870.314; 4291.425;  143.125;    0.000
870.495; 4492.425;  162.125;    0.000
870.677; 4240.425;  136.125;    0.000
870.858; 4035.425;  155.125;    0.000
871.040; 4151.425;  179.125;    0.000
871.221; 4526.425;  177.125;    0.000
871.403; 4300.425;  180.125;    0.000
871.584; 4084.425;  157.125;    0.000
871.765; 4346.425;  183.125;    0.000
871.947; 4378.425;  169.125;    0.000
872.128; 3935.425;  162.125;    0.000
872.309; 3652.425;  159.125;    0.000
872.491; 3438.425;  148.125;    0.000
872.672; 3311.425;  163.125;    0.000
872.853; 3131.425;  152.125;    0.000
873.034; 3044.425;  166.125;    0.000
873.215; 2982.425;  155.125;    0.000
873.396; 2879.425;  147.125;    0.000
873.578; 2830.425;  147.125;    0.000
873.759; 2668.425;  153.125;    0.000
873.940; 2636.425;  194.125;    0.000
874.121; 2601.425;  179.125;    0.000
874.302; 2588.425;  155.125;    0.000
874.483; 2565.425;  131.125;    0.000
874.664; 2606.425;  106.125;    0.000
874.845; 2468.425;  122.125;    0.000
875.026; 2535.425;  127.125;    0.000
875.207; 2502.425;  151.125;    0.000
875.388; 2439.425;  149.125;    0.000
875.568; 2455.425;  164.125;    0.000
875.749; 2456.425;  176.125;    0.000
875.930; 2394.425;  207.125;    0.000
876.111; 2367.425;  177.125;    0.000
876.292; 2338.425;  178.125;    0.000
876.472; 2276.425;  163.125;    0.000
876.653; 2264.425;  159.125;    0.000
876.834; 2335.425;  177.125;    0.000
877.015; 2342.425;  212.125;    0.000
877.195; 2197.425;  166.125;    0.000
877.376; 2268.425;  157.125;    0.000
877.556; 2250.425;  175.125;    0.000
877.737; 2194.425;  220.125;    0.000
877.918; 2179.425;  163.125;    0.000
878.098; 2127.425;  166.125;    0.000
878.279; 2156.425;  136.125;    0.000
878.459; 2153.425;  167.125;    0.000
878.640; 2255.425;  167.125;    0.000
878.820; 2148.425;  155.125;    0.000
879.000; 2158.425;  158.125;    0.000
879.181; 2132.425;  155.125;    0.000
879.361; 2075.425;  181.125;    0.000
879.542; 2160.425;  181.125;    0.000
879.722; 2102.425;  117.125;    0.000
879.902; 2145.425;  180.125;    0.000
880.083; 2168.425;  139.125;    0.000
880.263; 2214.425;  168.125;    0.000
880.443; 2290.425;  206.125;    0.000
880.623; 2611.425;  132.125;    0.000
880.803; 2981.425;  149.125;    0.000
880.984; 2626.425;  189.125;    0.000
881.164; 2469.425;  171.125;    0.000
881.344; 2303.425;  150.125;    0.000
881.524; 2268.425;  185.125;    0.000
881.704; 2311.425;  152.125;    0.000
881.884; 2295.425;  188.125;    0.000
882.064; 2401.425;  155.125;    0.000
882.244; 2326.425;  182.125;    0.000
882.424; 2278.425;  154.125;    0.000
882.604; 2288.425;  175.125;    0.000
882.784; 2292.425;  137.125;    0.000
882.964; 2219.425;  135.125;    0.000
883.144; 2159.425;  142.125;    0.000
883.324; 2159.425;  192.125;    0.000
883.504; 2126.425;  193.125;    0.000
883.683; 2098.425;  208.125;    0.000
883.863; 2142.425;  127.125;    0.000
884.043; 2048.425;  140.125;    0.000
884.223; 2008.425;  167.125;    0.000
884.402; 2007.425;  156.125;    0.000
884.582; 2115.425;  185.125;    0.000
884.762; 2123.425;  187.125;    0.000
884.941; 2044.425;  201.125;    0.000
885.121; 1986.425;  157.125;    0.000
885.301; 2058.425;  173.125;    0.000
885.480; 1990.425;  158.125;    0.000
885.660; 1962.425;  153.125;    0.000
885.839; 2028.425;  144.125;    0.000
886.019; 2009.425;  184.125;    0.000
886.198; 1921.425;  132.125;    0.000
886.378; 1917.425;  124.125;    0.000
886.557; 1953.425;  146.125;    0.000
886.737; 2002.425;  157.125;    0.000
886.916; 1965.425;  203.125;    0.000
887.095; 2019.425;  151.125;    0.000
887.275; 2039.425;  143.125;    0.000
887.454; 1945.425;  140.125;    0.000
887.633; 1969.425;  196.125;    0.000
887.813; 1877.425;  161.125;    0.000
887.992; 1974.425;  183.125;    0.000
888.171; 1958.425;  153.125;    0.000
888.350; 1933.425;  185.125;    0.000
888.530; 1971.425;  163.125;    0.000
888.709; 1923.425;  174.125;    0.000
888.888; 1971.425;  179.125;    0.000
889.067; 1877.425;  178.125;    0.000
889.246; 1961.425;  184.125;    0.000
889.425; 1950.425;  169.125;    0.000
889.604; 1968.425;  210.125;    0.000
889.783; 1926.425;  183.125;    0.000
889.962; 1907.425;  116.125;    0.000
890.141; 1939.425;  179.125;    0.000
890.320; 1937.425;  182.125;    0.000
890.499; 1996.425;  188.125;    0.000
890.678; 1863.425;  167.125;    0.000
890.857; 1904.425;  141.125;    0.000
891.036; 1934.425;  179.125;    0.000
891.214; 1913.425;  156.125;    0.000
891.393; 1864.425;  209.125;    0.000
891.572; 1810.425;  181.125;    0.000
891.751; 1982.425;  172.125;    0.000
891.930; 1847.425;  169.125;    0.000
892.108; 1911.425;  131.125;    0.000
892.287; 1940.425;  162.125;    0.000
892.466; 1901.425;  178.125;    0.000
892.644; 1809.425;  161.125;    0.000
892.823; 1950.425;  180.125;    0.000
893.001; 1834.425;  179.125;    0.000
893.180; 1902.425;  152.125;    0.000
893.359; 1977.425;  184.125;    0.000
893.537; 1821.425;  178.125;    0.000
893.716; 1931.425;  169.125;    0.000
893.894; 1913.425;  159.125;    0.000
894.073; 1947.425;  179.125;    0.000
894.251; 1855.425;  167.125;    0.000
894.429; 1835.425;  142.125;    0.000
894.608; 1868.425;  166.125;    0.000
894.786; 1853.425;  153.125;    0.000
894.964; 1982.425;  181.125;    0.000
895.143; 1850.425;  161.125;    0.000
895.321; 1844.425;  198.125;    0.000
895.499; 1892.425;  184.125;    0.000
895.677; 1875.425;  178.125;    0.000
895.856; 1923.425;  226.125;    0.000
896.034; 1929.425;  180.125;    0.000
896.212; 1894.425;  200.125;    0.000
896.390; 1878.425;  161.125;    0.000
896.568; 1922.425;  204.125;    0.000
896.746; 2006.425;  136.125;    0.000
896.924; 1979.425;  171.125;    0.000
897.102; 1903.425;  203.125;    0.000
897.280; 1911.425;  142.125;    0.000
897.458; 1927.425;  159.125;    0.000
897.636; 1825.425;  163.125;    0.000
897.814; 1904.425;  137.125;    0.000
897.992; 1978.425;  199.125;    0.000
898.170; 1956.425;  176.125;    0.000
898.348; 1970.425;  195.125;    0.000
898.526; 1995.425;  199.125;    0.000
898.704; 2002.425;  260.125;    0.000
898.882; 1953.425;  185.125;    0.000
899.059; 1974.425;  169.125;    0.000
899.237; 1953.425;  197.125;    0.000
899.415; 2026.425;  207.125;    0.000
899.593; 1853.425;  169.125;    0.000
899.770; 1995.425;  182.125;    0.000
899.948; 2017.425;  198.125;    0.000
900.125; 2017.425;  200.125;    0.000
900.303; 1897.425;  165.125;    0.000
900.481; 1971.425;  182.125;    0.000
900.658; 2000.425;  206.125;    0.000
900.836; 2025.425;  188.125;    0.000
901.013; 2057.425;  169.125;    0.000
901.191; 1989.425;  172.125;    0.000
901.368; 2012.425;  170.125;    0.000
901.546; 1966.425;  234.125;    0.000
901.723; 2111.425;  173.125;    0.000
901.901; 2145.425;  190.125;    0.000
902.078; 2137.425;  145.125;    0.000
902.255; 2170.425;  204.125;    0.000
902.433; 2221.425;  198.125;    0.000
902.610; 2226.425;  190.125;    0.000
902.787; 2135.425;  204.125;    0.000
902.964; 2185.425;  208.125;    0.000
903.142; 2287.425;  187.125;    0.000
903.319; 2155.425;  216.125;    0.000
903.496; 2283.425;  186.125;    0.000
903.673; 2330.425;  201.125;    0.000
903.850; 2271.425;  195.125;    0.000
904.027; 2324.425;  211.125;    0.000
904.204; 2358.425;  197.125;    0.000
904.381; 2594.425;  198.125;    0.000
904.558; 2781.425;  188.125;    0.000
904.735; 3012.425;  207.125;    0.000
904.912; 3066.425;  217.125;    0.000
905.089; 3069.425;  188.125;    0.000
905.266; 2885.425;  160.125;    0.000
905.443; 2751.425;  221.125;    0.000
905.620; 2594.425;  163.125;    0.000
905.797; 2665.425;  186.125;    0.000
905.974; 2511.425;  205.125;    0.000
906.151; 2441.425;  159.125;    0.000
906.327; 2500.425;  206.125;    0.000
906.504; 2583.425;  201.125;    0.000
906.681; 2381.425;  202.125;    0.000
906.858; 2412.425;  188.125;    0.000
907.034; 2413.425;  207.125;    0.000
907.211; 2244.425;  182.125;    0.000
907.388; 2326.425;  184.125;    0.000
907.564; 2169.425;  148.125;    0.000
907.741; 2244.425;  181.125;    0.000
907.917; 2195.425;  191.125;    0.000
908.094; 2208.425;  210.125;    0.000
908.271; 2137.425;  171.125;    0.000
908.447; 2177.425;  241.125;    0.000
908.623; 2174.425;  188.125;    0.000
908.800; 2096.425;  205.125;    0.000
908.976; 2160.425;  210.125;    0.000
909.153; 2173.425;  193.125;    0.000
909.329; 2129.425;  206.125;    0.000
909.505; 2143.425;  181.125;    0.000
909.682; 2076.425;  192.125;    0.000
909.858; 1980.425;  134.125;    0.000
910.034; 1991.425;  214.125;    0.000
910.211; 2025.425;  182.125;    0.000
910.387; 2116.425;  194.125;    0.000
910.563; 2100.425;  199.125;    0.000
910.739; 2012.425;  188.125;    0.000
910.915; 1938.425;  192.125;    0.000
911.091; 2033.425;  198.125;    0.000
911.268; 1982.425;  178.125;    0.000
911.444; 2024.425;  201.125;    0.000
911.620; 2004.425;  181.125;    0.000
911.796; 1961.425;  185.125;    0.000
911.972; 1985.425;  176.125;    0.000
912.148; 2073.425;  196.125;    0.000
912.324; 2002.425;  192.125;    0.000
912.500; 2046.425;  204.125;    0.000
912.676; 2033.425;  164.125;    0.000
912.851; 2057.425;  193.125;    0.000
913.027; 2067.425;  175.125;    0.000
913.203; 1969.425;  193.125;    0.000
913.379; 1999.425;  213.125;    0.000
913.555; 1977.425;  211.125;    0.000
913.730; 2025.425;  194.125;    0.000
913.906; 1964.425;  153.125;    0.000
914.082; 2045.425;  212.125;    0.000
914.258; 1964.425;  194.125;    0.000
914.433; 1987.425;  191.125;    0.000
914.609; 1913.425;  208.125;    0.000
914.784; 2070.425;  176.125;    0.000
914.960; 1953.425;  227.125;    0.000
915.136; 1978.425;  152.125;    0.000
915.311; 2026.425;  171.125;    0.000
915.487; 1889.425;  173.125;    0.000
915.662; 2095.425;  189.125;    0.000
915.838; 2021.425;  179.125;    0.000
916.013; 2037.425;  191.125;    0.000
916.189; 2043.425;  207.125;    0.000
916.364; 2043.425;  194.125;    0.000
916.539; 2044.425;  174.125;    0.000
916.715; 2063.425;  207.125;    0.000
916.890; 2029.425;  193.125;    0.000
917.065; 2004.425;  199.125;    0.000
917.240; 1986.425;  214.125;    0.000
917.416; 1978.425;  194.125;    0.000
917.591; 2076.425;  213.125;    0.000
917.766; 2067.425;  194.125;    0.000
917.941; 2052.425;  201.125;    0.000
918.116; 2033.425;  198.125;    0.000
918.292; 2007.425;  176.125;    0.000
918.467; 1980.425;  190.125;    0.000
918.642; 2062.425;  200.125;    0.000
918.817; 2034.425;  186.125;    0.000
918.992; 1991.425;  174.125;    0.000
919.167; 2008.425;  197.125;    0.000
919.342; 2044.425;  188.125;    0.000
919.517; 2109.425;  179.125;    0.000
919.692; 2027.425;  182.125;    0.000
919.867; 2140.425;  216.125;    0.000
920.041; 2080.425;  208.125;    0.000
920.216; 2114.425;  223.125;    0.000
920.391; 2129.425;  203.125;    0.000
920.566; 2168.425;  202.125;    0.000
920.741; 2246.425;  197.125;    0.000
920.915; 2244.425;  223.125;    0.000
921.090; 2329.425;  183.125;    0.000
921.265; 2595.425;  169.125;    0.000
921.439; 2708.425;  212.125;    0.000
921.614; 2497.425;  190.125;    0.000
921.789; 2506.425;  177.125;    0.000
921.963; 2329.425;  233.125;    0.000
922.138; 2340.425;  156.125;    0.000
922.312; 2376.425;  193.125;    0.000
922.487; 2379.425;  208.125;    0.000
922.661; 2389.425;  212.125;    0.000
922.836; 2535.425;  210.125;    0.000
923.010; 2598.425;  183.125;    0.000
923.185; 2410.425;  228.125;    0.000
923.359; 2390.425;  227.125;    0.000
923.534; 2407.425;  189.125;    0.000
923.708; 2404.425;  210.125;    0.000
923.882; 2481.425;  217.125;    0.000
924.057; 2457.425;  195.125;    0.000
924.231; 2309.425;  201.125;    0.000
924.405; 2380.425;  188.125;    0.000
924.579; 2324.425;  188.125;    0.000
924.753; 2285.425;  174.125;    0.000
924.928; 2269.425;  179.125;    0.000
925.102; 2325.425;  186.125;    0.000
925.276; 2328.425;  201.125;    0.000
925.450; 2316.425;  211.125;    0.000
925.624; 2305.425;  238.125;    0.000
925.798; 2425.425;  191.125;    0.000
925.972; 2437.425;  192.125;    0.000
926.146; 2478.425;  198.125;    0.000
926.320; 2650.425;  151.125;    0.000
926.494; 2705.425;  202.125;    0.000
926.668; 2711.425;  197.125;    0.000
926.842; 2913.425;  177.125;    0.000
927.016; 2843.425;  202.125;    0.000
927.190; 2885.425;  207.125;    0.000
927.363; 2733.425;  180.125;    0.000
927.537; 2742.425;  212.125;    0.000
927.711; 2643.425;  148.125;    0.000
927.885; 2698.425;  196.125;    0.000
928.058; 2629.425;  173.125;    0.000
928.232; 2601.425;  219.125;    0.000
928.406; 2497.425;  141.125;    0.000
928.579; 2512.425;  157.125;    0.000
928.753; 2541.425;  205.125;    0.000
928.927; 2437.425;  196.125;    0.000
929.100; 2417.425;  237.125;    0.000
929.274; 2365.425;  166.125;    0.000
929.447; 2364.425;  150.125;    0.000
929.621; 2349.425;  188.125;    0.000
929.794; 2269.425;  169.125;    0.000
929.968; 2283.425;  194.125;    0.000
930.141; 2319.425;  226.125;    0.000
930.315; 2220.425;  196.125;    0.000
930.488; 2249.425;  233.125;    0.000
930.661; 2199.425;  188.125;    0.000
930.835; 2194.425;  170.125;    0.000
931.008; 2258.425;  176.125;    0.000
931.181; 2256.425;  175.125;    0.000
931.354; 2165.425;  212.125;    0.000
931.528; 2142.425;  177.125;    0.000
931.701; 2083.425;  218.125;    0.000
931.874; 2123.425;  175.125;    0.000
932.047; 2150.425;  157.125;    0.000
932.220; 2151.425;  187.125;    0.000
932.393; 2077.425;  166.125;    0.000
932.566; 2080.425;  168.125;    0.000
932.739; 2080.425;  203.125;    0.000
932.912; 2113.425;  202.125;    0.000
933.085; 1964.425;  209.125;    0.000
933.258; 2113.425;  196.125;    0.000
933.431; 2116.425;  207.125;    0.000
933.604; 2100.425;  201.125;    0.000
933.777; 2055.425;  202.125;    0.000
933.950; 1982.425;  184.125;    0.000
934.123; 2001.425;  167.125;    0.000
934.296; 2078.425;  209.125;    0.000
934.468; 1984.425;  216.125;    0.000
934.641; 2006.425;  156.125;    0.000
934.814; 2051.425;  215.125;    0.000
934.987; 2011.425;  201.125;    0.000
935.159; 2063.425;  176.125;    0.000
935.332; 2024.425;  203.125;    0.000
935.505; 1975.425;  163.125;    0.000
935.677; 1962.425;  169.125;    0.000
935.850; 2036.425;  178.125;    0.000
936.022; 1976.425;  187.125;    0.000
936.195; 2058.425;  207.125;    0.000
936.367; 2066.425;  191.125;    0.000
936.540; 2043.425;  214.125;    0.000
936.712; 2024.425;  202.125;    0.000
936.885; 2048.425;  195.125;    0.000
937.057; 2005.425;  173.125;    0.000
937.229; 2065.425;  179.125;    0.000
937.402; 2080.425;  174.125;    0.000
937.574; 2102.425;  140.125;    0.000
937.746; 2086.425;  153.125;    0.000
937.919; 2161.425;  196.125;    0.000
938.091; 2173.425;  173.125;    0.000
938.263; 2342.425;  206.125;    0.000
938.435; 2491.425;  213.125;    0.000
938.608; 2601.425;  204.125;    0.000
938.780; 2835.425;  199.125;    0.000
938.952; 2885.425;  190.125;    0.000
939.124; 2947.425;  182.125;    0.000
939.296; 3236.425;  188.125;    0.000
939.468; 3321.425;  119.125;    0.000
939.640; 2988.425;  171.125;    0.000
939.812; 2883.425;  222.125;    0.000
939.984; 2660.425;  172.125;    0.000
940.156; 2538.425;  171.125;    0.000
940.328; 2507.425;  215.125;    0.000
940.500; 2390.425;  179.125;    0.000
940.672; 2378.425;  178.125;    0.000
940.843; 2262.425;  193.125;    0.000
941.015; 2321.425;  207.125;    0.000
941.187; 2144.425;  179.125;    0.000
941.359; 2267.425;  191.125;    0.000
941.531; 2179.425;  160.125;    0.000
941.702; 2181.425;  208.125;    0.000
941.874; 2179.425;  143.125;    0.000
942.046; 2132.425;  189.125;    0.000
942.217; 2102.425;  167.125;    0.000
942.389; 2088.425;  199.125;    0.000
942.560; 2061.425;  179.125;    0.000
942.732; 1986.425;  209.125;    0.000
942.904; 2002.425;  180.125;    0.000
943.075; 1907.425;  197.125;    0.000
943.247; 1984.425;  207.125;    0.000
943.418; 1943.425;  183.125;    0.000
943.589; 1967.425;  176.125;    0.000
943.761; 1889.425;  165.125;    0.000
943.932; 1938.425;  170.125;    0.000
944.104; 2040.425;  147.125;    0.000
944.275; 1990.425;  149.125;    0.000
944.446; 1896.425;  191.125;    0.000
944.617; 1865.425;  128.125;    0.000
944.789; 1951.425;  166.125;    0.000
944.960; 1914.425;  195.125;    0.000
945.131; 1889.425;  164.125;    0.000
945.302; 1950.425;  229.125;    0.000
945.473; 1893.425;  153.125;    0.000
945.645; 1928.425;  166.125;    0.000
945.816; 1915.425;  187.125;    0.000
945.987; 1939.425;  193.125;    0.000
946.158; 1959.425;  166.125;    0.000
946.329; 2017.425;  196.125;    0.000
946.500; 1924.425;  152.125;    0.000
946.671; 1930.425;  161.125;    0.000
946.842; 1866.425;  176.125;    0.000
947.013; 1862.425;  188.125;    0.000
947.183; 1937.425;  213.125;    0.000
947.354; 1808.425;  163.125;    0.000
947.525; 1893.425;  204.125;    0.000
947.696; 1853.425;  159.125;    0.000
947.867; 1759.425;  197.125;    0.000
948.037; 1779.425;  174.125;    0.000
948.208; 1826.425;  163.125;    0.000
948.379; 1873.425;  189.125;    0.000
948.550; 1861.425;  173.125;    0.000
948.720; 1878.425;  186.125;    0.000
948.891; 1860.425;  166.125;    0.000
949.061; 1781.425;  197.125;    0.000
949.232; 1747.425;  168.125;    0.000
949.403; 1709.425;  188.125;    0.000
949.573; 1777.425;  164.125;    0.000
949.744; 1838.425;  194.125;    0.000
949.914; 1839.425;  154.125;    0.000
950.085; 1870.425;  197.125;    0.000
950.255; 1763.425;  187.125;    0.000
950.425; 1829.425;  193.125;    0.000
950.596; 1723.425;  182.125;    0.000
950.766; 1810.425;  202.125;    0.000
950.936; 1847.425;  230.125;    0.000
951.107; 1738.425;  133.125;    0.000
951.277; 1835.425;  234.125;    0.000
951.447; 1796.425;  200.125;    0.000
951.617; 1819.425;  212.125;    0.000
951.788; 1790.425;  176.125;    0.000
951.958; 1723.425;  218.125;    0.000
952.128; 1750.425;  198.125;    0.000
952.298; 1774.425;  185.125;    0.000
952.468; 1752.425;  231.125;    0.000
952.638; 1729.425;  213.125;    0.000
952.808; 1748.425;  218.125;    0.000
952.978; 1789.425;  252.125;    0.000
953.148; 1725.425;  200.125;    0.000
953.318; 1776.425;  243.125;    0.000
953.488; 1753.425;  140.125;    0.000
953.658; 1766.425;  208.125;    0.000
953.828; 1727.425;  179.125;    0.000
953.998; 1737.425;  211.125;    0.000
954.167; 1770.425;  197.125;    0.000
954.337; 1705.425;  217.125;    0.000
954.507; 1721.425;  219.125;    0.000
954.677; 1734.425;  201.125;    0.000
954.846; 1725.425;  241.125;    0.000
955.016; 1745.425;  222.125;    0.000
955.186; 1759.425;  200.125;    0.000
955.355; 1741.425;  247.125;    0.000
955.525; 1785.425;  212.125;    0.000
955.695; 1719.425;  200.125;    0.000
955.864; 1689.425;  196.125;    0.000
956.034; 1712.425;  195.125;    0.000
956.203; 1763.425;  243.125;    0.000
956.373; 1667.425;  197.125;    0.000
956.542; 1650.425;  237.125;    0.000
956.711; 1693.425;  249.125;    0.000
956.881; 1732.425;  235.125;    0.000
957.050; 1716.425;  259.125;    0.000
957.220; 1664.425;  234.125;    0.000
957.389; 1647.425;  250.125;    0.000
957.558; 1699.425;  214.125;    0.000
957.727; 1696.425;  225.125;    0.000
957.897; 1540.425;  211.125;    0.000
958.066; 1730.425;  200.125;    0.000
958.235; 1616.425;  202.125;    0.000
958.404; 1648.425;  242.125;    0.000
958.573; 1652.425;  222.125;    0.000
958.743; 1584.425;  191.125;    0.000
958.912; 1673.425;  183.125;    0.000
959.081; 1708.425;  212.125;    0.000
959.250; 1640.425;  192.125;    0.000
959.419; 1656.425;  238.125;    0.000
959.588; 1764.425;  205.125;    0.000
959.757; 1705.425;  213.125;    0.000
959.926; 1604.425;  217.125;    0.000
960.094; 1582.425;  215.125;    0.000
960.263; 1742.425;  220.125;    0.000
960.432; 1674.425;  164.125;    0.000
960.601; 1567.425;  228.125;    0.000
960.770; 1622.425;  176.125;    0.000
960.939; 1685.425;  201.125;    0.000
961.107; 1619.425;  183.125;    0.000
961.276; 1575.425;  199.125;    0.000
961.445; 1620.425;  205.125;    0.000
961.613; 1619.425;  183.125;    0.000
961.782; 1649.425;  216.125;    0.000
961.951; 1576.425;  169.125;    0.000
962.119; 1648.425;  211.125;    0.000
962.288; 1606.425;  204.125;    0.000
962.456; 1588.425;  187.125;    0.000
962.625; 1621.425;  223.125;    0.000
962.793; 1652.425;  200.125;    0.000
962.962; 1600.425;  185.125;    0.000
963.130; 1609.425;  195.125;    0.000
963.298; 1584.425;  187.125;    0.000
963.467; 1569.425;  247.125;    0.000
963.635; 1684.425;  165.125;    0.000
963.803; 1674.425;  192.125;    0.000
963.972; 1635.425;  191.125;    0.000
964.140; 1630.425;  163.125;    0.000
964.308; 1609.425;  161.125;    0.000
964.477; 1656.425;  182.125;    0.000
964.645; 1647.425;  195.125;    0.000
964.813; 1700.425;  165.125;    0.000
964.981; 1629.425;  193.125;    0.000
965.149; 1629.425;  174.125;    0.000
965.317; 1656.425;  194.125;    0.000
965.485; 1582.425;  209.125;    0.000
965.653; 1572.425;  210.125;    0.000
965.821; 1591.425;  194.125;    0.000
965.989; 1607.425;  182.125;    0.000
966.157; 1628.425;  180.125;    0.000
966.325; 1601.425;  198.125;    0.000
966.493; 1606.425;  182.125;    0.000
966.661; 1552.425;  200.125;    0.000
966.829; 1560.425;  190.125;    0.000
966.996; 1576.425;  221.125;    0.000
967.164; 1605.425;  176.125;    0.000
967.332; 1605.425;  228.125;    0.000
967.500; 1570.425;  177.125;    0.000
967.667; 1646.425;  202.125;    0.000
967.835; 1570.425;  220.125;    0.000
968.003; 1607.425;  183.125;    0.000
968.170; 1539.425;  163.125;    0.000
968.338; 1557.425;  162.125;    0.000
968.505; 1525.425;  198.125;    0.000
968.673; 1609.425;  213.125;    0.000
968.841; 1598.425;  131.125;    0.000
969.008; 1684.425;  225.125;    0.000
969.175; 1587.425;  202.125;    0.000
969.343; 1629.425;  222.125;    0.000
969.510; 1611.425;  230.125;    0.000
969.678; 1669.425;  161.125;    0.000
969.845; 1672.425;  208.125;    0.000
970.012; 1666.425;  186.125;    0.000
970.180; 1625.425;  226.125;    0.000
970.347; 1596.425;  222.125;    0.000
970.514; 1557.425;  206.125;    0.000
970.681; 1598.425;  173.125;    0.000
970.849; 1597.425;  190.125;    0.000
971.016; 1609.425;  220.125;    0.000
971.183; 1654.425;  202.125;    0.000
971.350; 1611.425;  196.125;    0.000
971.517; 1691.425;  218.125;    0.000
971.684; 1749.425;  228.125;    0.000
971.851; 1589.425;  235.125;    0.000
972.018; 1583.425;  200.125;    0.000
972.185; 1618.425;  183.125;    0.000
972.352; 1626.425;  216.125;    0.000
972.519; 1663.425;  227.125;    0.000
972.686; 1633.425;  209.125;    0.000
972.853; 1678.425;  157.125;    0.000
973.020; 1623.425;  179.125;    0.000
973.186; 1623.425;  173.125;    0.000
973.353; 1654.425;  189.125;    0.000
973.520; 1629.425;  228.125;    0.000
973.687; 1661.425;  190.125;    0.000
973.853; 1648.425;  197.125;    0.000
974.020; 1588.425;  208.125;    0.000
974.187; 1607.425;  158.125;    0.000
974.353; 1671.425;  201.125;    0.000
974.520; 1629.425;  158.125;    0.000
974.687; 1620.425;  192.125;    0.000
974.853; 1616.425;  177.125;    0.000
975.020; 1646.425;  212.125;    0.000
975.186; 1582.425;  200.125;    0.000
975.353; 1579.425;  208.125;    0.000
975.519; 1566.425;  169.125;    0.000
975.685; 1704.425;  176.125;    0.000
975.852; 1655.425;  201.125;    0.000
976.018; 1635.425;  209.125;    0.000
976.184; 1600.425;  197.125;    0.000
976.351; 1591.425;  196.125;    0.000
976.517; 1628.425;  243.125;    0.000
976.683; 1568.425;  210.125;    0.000
976.849; 1662.425;  226.125;    0.000
977.016; 1568.425;  218.125;    0.000
977.182; 1582.425;  213.125;    0.000
977.348; 1486.425;  205.125;    0.000
977.514; 1654.425;  210.125;    0.000
977.680; 1597.425;  226.125;    0.000
977.846; 1578.425;  206.125;    0.000
978.012; 1619.425;  222.125;    0.000
978.178; 1573.425;  216.125;    0.000
978.344; 1527.425;  172.125;    0.000
978.510; 1579.425;  210.125;    0.000
978.676; 1507.425;  184.125;    0.000
978.842; 1542.425;  190.125;    0.000
979.008; 1587.425;  203.125;    0.000
979.174; 1640.425;  211.125;    0.000
979.340; 1622.425;  190.125;    0.000
979.505; 1608.425;  235.125;    0.000
979.671; 1613.425;  182.125;    0.000
979.837; 1620.425;  235.125;    0.000
980.003; 1588.425;  183.125;    0.000
980.168; 1611.425;  220.125;    0.000
980.334; 1592.425;  161.125;    0.000
980.499; 1629.425;  212.125;    0.000
980.665; 1624.425;  219.125;    0.000
980.831; 1650.425;  201.125;    0.000
980.996; 1664.425;  189.125;    0.000
981.162; 1662.425;  222.125;    0.000
981.327; 1591.425;  173.125;    0.000
981.493; 1584.425;  197.125;    0.000
981.658; 1617.425;  178.125;    0.000
981.823; 1600.425;  196.125;    0.000
981.989; 1585.425;  248.125;    0.000
982.154; 1628.425;  222.125;    0.000
982.319; 1550.425;  226.125;    0.000
982.485; 1685.425;  188.125;    0.000
982.650; 1708.425;  203.125;    0.000
982.815; 1575.425;  237.125;    0.000
982.980; 1652.425;  210.125;    0.000
983.146; 1651.425;  202.125;    0.000
983.311; 1589.425;  195.125;    0.000
983.476; 1666.425;  207.125;    0.000
983.641; 1620.425;  198.125;    0.000
983.806; 1622.425;  136.125;    0.000
983.971; 1644.425;  248.125;    0.000
984.136; 1589.425;  213.125;    0.000
984.301; 1631.425;  181.125;    0.000
984.466; 1574.425;  210.125;    0.000
984.631; 1609.425;  219.125;    0.000
984.796; 1602.425;  207.125;    0.000
984.961; 1585.425;  214.125;    0.000
985.126; 1636.425;  218.125;    0.000
985.291; 1591.425;  214.125;    0.000
985.455; 1619.425;  187.125;    0.000
985.620; 1621.425;  191.125;    0.000
985.785; 1617.425;  190.125;    0.000
985.950; 1614.425;  184.125;    0.000
986.114; 1700.425;  242.125;    0.000
986.279; 1616.425;  251.125;    0.000
986.444; 1701.425;  177.125;    0.000
986.608; 1665.425;  216.125;    0.000
986.773; 1615.425;  211.125;    0.000
986.937; 1762.425;  244.125;    0.000
987.102; 1678.425;  187.125;    0.000
987.266; 1599.425;  178.125;    0.000
987.431; 1627.425;  205.125;    0.000
987.595; 1658.425;  221.125;    0.000
987.760; 1581.425;  205.125;    0.000
987.924; 1677.425;  195.125;    0.000
988.088; 1606.425;  184.125;    0.000
988.253; 1628.425;  188.125;    0.000
988.417; 1605.425;  196.125;    0.000
988.581; 1635.425;  218.125;    0.000
988.746; 1593.425;  203.125;    0.000
988.910; 1573.425;  195.125;    0.000
989.074; 1646.425;  187.125;    0.000
989.238; 1577.425;  243.125;    0.000
989.402; 1630.425;  242.125;    0.000
989.566; 1577.425;  205.125;    0.000
989.731; 1561.425;  195.125;    0.000
989.895; 1661.425;  211.125;    0.000
990.059; 1503.425;  175.125;    0.000
990.223; 1565.425;  176.125;    0.000
990.387; 1615.425;  234.125;    0.000
990.551; 1547.425;  231.125;    0.000
990.714; 1659.425;  209.125;    0.000
990.878; 1612.425;  187.125;    0.000
991.042; 1577.425;  183.125;    0.000
991.206; 1624.425;  216.125;    0.000
991.370; 1594.425;  257.125;    0.000
991.534; 1582.425;  188.125;    0.000
991.697; 1636.425;  203.125;    0.000
991.861; 1649.425;  219.125;    0.000
992.025; 1624.425;  221.125;    0.000
992.188; 1669.425;  188.125;    0.000
992.352; 1581.425;  205.125;    0.000
992.516; 1652.425;  189.125;    0.000
992.679; 1621.425;  207.125;    0.000
992.843; 1668.425;  210.125;    0.000
993.006; 1599.425;  191.125;    0.000
993.170; 1587.425;  228.125;    0.000
993.333; 1576.425;  142.125;    0.000
993.497; 1587.425;  175.125;    0.000
993.660; 1618.425;  220.125;    0.000
993.824; 1652.425;  193.125;    0.000
993.987; 1634.425;  219.125;    0.000
994.150; 1604.425;  166.125;    0.000
994.314; 1610.425;  207.125;    0.000
994.477; 1575.425;  227.125;    0.000
994.640; 1626.425;  210.125;    0.000
994.803; 1675.425;  219.125;    0.000
994.967; 1630.425;  192.125;    0.000
995.130; 1623.425;  197.125;    0.000
995.293; 1576.425;  189.125;    0.000
995.456; 1575.425;  180.125;    0.000
995.619; 1610.425;  239.125;    0.000
995.782; 1609.425;  209.125;    0.000
995.945; 1612.425;  216.125;    0.000
996.108; 1624.425;  198.125;    0.000
996.271; 1608.425;  205.125;    0.000
996.434; 1573.425;  205.125;    0.000
996.597; 1615.425;  208.125;    0.000
996.760; 1638.425;  205.125;    0.000
996.923; 1664.425;  174.125;    0.000
997.086; 1612.425;  198.125;    0.000
997.248; 1681.425;  214.125;    0.000
997.411; 1624.425;  237.125;    0.000
997.574; 1565.425;  182.125;    0.000
997.737; 1654.425;  188.125;    0.000
997.899; 1554.425;  216.125;    0.000
998.062; 1561.425;  210.125;    0.000
998.225; 1542.425;  202.125;    0.000
998.387; 1613.425;  202.125;    0.000
998.550; 1489.425;  193.125;    0.000
998.712; 1625.425;  225.125;    0.000
998.875; 1583.425;  228.125;    0.000
999.037; 1605.425;  186.125;    0.000
999.200; 1653.425;  212.125;    0.000
999.362; 1661.425;  234.125;    0.000
999.525; 1575.425;  170.125;    0.000
999.687; 1578.425;  191.125;    0.000
999.849; 1649.425;  218.125;    0.000
1000.012; 1637.425;  187.125;    0.000
1000.174; 1647.425;  216.125;    0.000
1000.336; 1638.425;  194.125;    0.000
1000.499; 1569.425;  209.125;    0.000
1000.661; 1675.425;  208.125;    0.000
1000.823; 1639.425;  197.125;    0.000
1000.985; 1636.425;  201.125;    0.000
1001.147; 1781.425;  234.125;    0.000
1001.309; 1667.425;  180.125;    0.000
1001.471; 1682.425;  223.125;    0.000
1001.633; 1684.425;  198.125;    0.000
1001.796; 1740.425;  200.125;    0.000
1001.958; 1755.425;  204.125;    0.000
1002.119; 1804.425;  193.125;    0.000
1002.281; 1839.425;  205.125;    0.000
1002.443; 1918.425;  236.125;    0.000
1002.605; 1928.425;  197.125;    0.000
1002.767; 1992.425;  223.125;    0.000
1002.929; 2158.425;  220.125;    0.000
1003.091; 2142.425;  214.125;    0.000
1003.252; 2343.425;  233.125;    0.000
1003.414; 2460.425;  230.125;    0.000
1003.576; 2522.425;  203.125;    0.000
1003.738; 2633.425;  201.125;    0.000
1003.899; 2763.425;  222.125;    0.000
1004.061; 2836.425;  208.125;    0.000
1004.222; 3052.425;  194.125;    0.000
1004.384; 3121.425;  205.125;    0.000
1004.546; 3229.425;  162.125;    0.000
1004.707; 3302.425;  232.125;    0.000
1004.869; 3364.425;  223.125;    0.000
1005.030; 3314.425;  204.125;    0.000
1005.191; 3333.425;  214.125;    0.000
1005.353; 3183.425;  226.125;    0.000
1005.514; 2957.425;  201.125;    0.000
1005.675; 2836.425;  205.125;    0.000
1005.837; 2663.425;  235.125;    0.000
1005.998; 2641.425;  210.125;    0.000
1006.159; 2620.425;  214.125;    0.000
1006.321; 2627.425;  236.125;    0.000
1006.482; 2788.425;  214.125;    0.000
1006.643; 2910.425;  213.125;    0.000
1006.804; 3055.425;  204.125;    0.000
1006.965; 3098.425;  212.125;    0.000
1007.126; 3056.425;  251.125;    0.000
1007.287; 3082.425;  238.125;    0.000
1007.448; 3107.425;  198.125;    0.000
1007.609; 3034.425;  241.125;    0.000
1007.770; 2937.425;  213.125;    0.000
1007.931; 2858.425;  225.125;    0.000
1008.092; 2837.425;  204.125;    0.000
1008.253; 2986.425;  220.125;    0.000
1008.414; 3077.425;  180.125;    0.000
1008.575; 3083.425;  224.125;    0.000
1008.736; 3083.425;  164.125;    0.000
1008.896; 3123.425;  247.125;    0.000
1009.057; 3079.425;  263.125;    0.000
1009.218; 2957.425;  233.125;    0.000
1009.379; 2908.425;  207.125;    0.000
1009.539; 3144.425;  221.125;    0.000
1009.700; 3156.425;  209.125;    0.000
1009.860; 3212.425;  217.125;    0.000
1010.021; 3165.425;  182.125;    0.000
1010.182; 3010.425;  233.125;    0.000
1010.342; 3036.425;  210.125;    0.000
1010.503; 3222.425;  232.125;    0.000
1010.663; 3174.425;  228.125;    0.000
1010.823; 3285.425;  212.125;    0.000
1010.984; 3249.425;  244.125;    0.000
1011.144; 3238.425;  200.125;    0.000
1011.305; 3283.425;  237.125;    0.000
1011.465; 3473.425;  225.125;    0.000
1011.625; 3563.425;  215.125;    0.000
1011.785; 3619.425;  235.125;    0.000
1011.946; 3479.425;  231.125;    0.000
1012.106; 3446.425;  206.125;    0.000
1012.266; 3541.425;  218.125;    0.000
1012.426; 3446.425;  249.125;    0.000
1012.586; 3448.425;  217.125;    0.000
1012.746; 3470.425;  231.125;    0.000
1012.906; 3423.425;  230.125;    0.000
1013.066; 3507.425;  260.125;    0.000
1013.226; 3549.425;  206.125;    0.000
1013.386; 3500.425;  220.125;    0.000
1013.546; 3429.425;  233.125;    0.000
1013.706; 3466.425;  194.125;    0.000
1013.866; 3572.425;  209.125;    0.000
1014.026; 3611.425;  204.125;    0.000
1014.186; 3508.425;  203.125;    0.000
1014.346; 3537.425;  244.125;    0.000
1014.505; 3739.425;  206.125;    0.000
1014.665; 3676.425;  210.125;    0.000
1014.825; 3642.425;  235.125;    0.000
1014.985; 3696.425;  227.125;    0.000
1015.144; 3885.425;  237.125;    0.000
1015.304; 4060.425;  196.125;    0.000
1015.464; 3902.425;  228.125;    0.000
1015.623; 3881.425;  235.125;    0.000
1015.783; 4410.425;  187.125;    0.000
1015.942; 4773.425;  184.125;    0.000
1016.102; 4530.425;  245.125;    0.000
1016.261; 4347.425;  203.125;    0.000
1016.420; 4785.425;  209.125;    0.000
1016.580; 5395.425;  235.125;    0.000
1016.739; 5167.425;  175.125;    0.000
1016.899; 5007.425;  220.125;    0.000
1017.058; 5326.425;  219.125;    0.000
1017.217; 5699.425;  238.125;    0.000
1017.376; 5372.425;  235.125;    0.000
1017.536; 4850.425;  195.125;    0.000
1017.695; 4886.425;  215.125;    0.000
1017.854; 5093.425;  231.125;    0.000
1018.013; 4924.425;  184.125;    0.000
1018.172; 4652.425;  179.125;    0.000
1018.331; 4643.425;  205.125;    0.000
1018.490; 4935.425;  203.125;    0.000
1018.649; 5269.425;  261.125;    0.000
1018.808; 5362.425;  253.125;    0.000
1018.967; 5362.425;  201.125;    0.000
1019.126; 5288.425;  216.125;    0.000
1019.285; 5634.425;  169.125;    0.000
1019.444; 5663.425;  226.125;    0.000
1019.603; 5351.425;  252.125;    0.000
1019.762; 5041.425;  206.125;    0.000
1019.921; 5116.425;  235.125;    0.000
1020.079; 5629.425;  192.125;    0.000
1020.238; 5928.425;  226.125;    0.000
1020.397; 5562.425;  231.125;    0.000
1020.555; 5081.425;  218.125;    0.000
1020.714; 5420.425;  235.125;    0.000
1020.873; 5927.425;  229.125;    0.000
1021.031; 6012.425;  234.125;    0.000
1021.190; 5557.425;  223.125;    0.000
1021.348; 5209.425;  186.125;    0.000
1021.507; 5826.425;  201.125;    0.000
1021.665; 6522.425;  222.125;    0.000
1021.824; 5934.425;  208.125;    0.000
1021.982; 5571.425;  209.125;    0.000
1022.141; 5409.425;  224.125;    0.000
1022.299; 6345.425;  214.125;    0.000
1022.457; 6581.425;  176.125;    0.000
1022.616; 6121.425;  211.125;    0.000
1022.774; 5340.425;  218.125;    0.000
1022.932; 5653.425;  205.125;    0.000
1023.090; 6511.425;  246.125;    0.000
1023.249; 6551.425;  249.125;    0.000
1023.407; 6155.425;  235.125;    0.000
1023.565; 5558.425;  202.125;    0.000
1023.723; 5841.425;  210.125;    0.000
1023.881; 6626.425;  206.125;    0.000
1024.039; 6904.425;  240.125;    0.000
1024.197; 6256.425;  275.125;    0.000
1024.355; 5573.425;  228.125;    0.000
1024.513; 5965.425;  234.125;    0.000
1024.671; 6665.425;  222.125;    0.000
1024.829; 6822.425;  241.125;    0.000
1024.987; 6298.425;  209.125;    0.000
1025.145; 5791.425;  227.125;    0.000
1025.302; 5967.425;  208.125;    0.000
1025.460; 6641.425;  210.125;    0.000
1025.618; 6935.425;  192.125;    0.000
1025.776; 6623.425;  220.125;    0.000
1025.933; 6046.425;  223.125;    0.000
1026.091; 6232.425;  189.125;    0.000
1026.249; 6857.425;  210.125;    0.000
1026.406; 7048.425;  231.125;    0.000
1026.564; 6730.425;  247.125;    0.000
1026.721; 6307.425;  213.125;    0.000
1026.879; 6058.425;  208.125;    0.000
1027.036; 6777.425;  222.125;    0.000
1027.194; 7022.425;  253.125;    0.000
1027.351; 7205.425;  239.125;    0.000
1027.509; 6558.425;  232.125;    0.000
1027.666; 6217.425;  251.125;    0.000
1027.823; 6875.425;  212.125;    0.000
1027.981; 7021.425;  260.125;    0.000
1028.138; 7257.425;  263.125;    0.000
1028.295; 6683.425;  251.125;    0.000
1028.452; 6259.425;  249.125;    0.000
1028.609; 6370.425;  259.125;    0.000
1028.767; 7153.425;  255.125;    0.000
1028.924; 7555.425;  201.125;    0.000
1029.081; 7148.425;  217.125;    0.000
1029.238; 6784.425;  230.125;    0.000
1029.395; 6523.425;  263.125;    0.000
1029.552; 6899.425;  207.125;    0.000
1029.709; 7402.425;  220.125;    0.000
1029.866; 7446.425;  214.125;    0.000
1030.023; 6950.425;  224.125;    0.000
1030.180; 6434.425;  209.125;    0.000
1030.337; 6662.425;  269.125;    0.000
1030.494; 7027.425;  207.125;    0.000
1030.650; 7569.425;  230.125;    0.000
1030.807; 7751.425;  217.125;    0.000
1030.964; 6819.425;  212.125;    0.000
1031.121; 6907.425;  220.125;    0.000
1031.277; 6690.425;  233.125;    0.000
1031.434; 7279.425;  266.125;    0.000
1031.591; 7676.425;  270.125;    0.000
1031.747; 7656.425;  229.125;    0.000
1031.904; 7494.425;  227.125;    0.000
1032.060; 7259.425;  210.125;    0.000
1032.217; 6866.425;  218.125;    0.000
1032.373; 7876.425;  190.125;    0.000
1032.530; 8406.425;  236.125;    0.000
1032.686; 9105.425;  199.125;    0.000
1032.843; 8664.425;  216.125;    0.000
1032.999; 8227.425;  204.125;    0.000
1033.155; 8398.425;  208.125;    0.000
1033.312; 8265.425;  231.125;    0.000
1033.468;10157.425;  213.125;    0.000
1033.624;10396.425;  235.125;    0.000
1033.780;11160.425;  233.125;    0.000
1033.937;10801.425;  201.125;    0.000
1034.093; 9955.425;  233.125;    0.000
1034.249;10541.425;  214.125;    0.000
1034.405;10064.425;  245.125;    0.000
1034.561;11506.425;  228.125;    0.000
1034.717;11733.425;  234.125;    0.000
1034.873;11712.425;  248.125;    0.000
1035.029;11931.425;  220.125;    0.000
1035.185;11074.425;  294.125;    0.000
1035.341;10941.425;  231.125;    0.000
1035.497;11815.425;  254.125;    0.000
1035.653;12046.425;  225.125;    0.000
1035.809;13478.425;  243.125;    0.000
1035.964;14089.425;  216.125;    0.000
1036.120;13163.425;  199.125;    0.000
1036.276;13312.425;  220.125;    0.000
1036.432;13037.425;  210.125;    0.000
1036.587;11999.425;  225.125;    0.000
1036.743;13601.425;  245.125;    0.000
1036.899;14566.425;  219.125;    0.000
1037.054;14618.425;  157.125;    0.000
1037.210;16825.426;  208.125;    0.000
1037.365;16188.425;  230.125;    0.000
1037.521;15451.425;  236.125;    0.000
1037.676;14669.425;  193.125;    0.000
1037.832;14165.425;  246.125;    0.000
1037.987;14065.425;  231.125;    0.000
1038.143;14936.425;  234.125;    0.000
1038.298;16668.426;  219.125;    0.000
1038.453;16717.426;  230.125;    0.000
1038.609;17467.426;  254.125;    0.000
1038.764;18125.426;  249.125;    0.000
1038.919;16972.426;  224.125;    0.000
1039.074;16612.426;  209.125;    0.000
1039.229;15863.425;  214.125;    0.000
1039.385;15482.425;  268.125;    0.000
1039.540;16105.425;  268.125;    0.000
1039.695;17502.426;  229.125;    0.000
1039.850;19180.426;  252.125;    0.000
1040.005;19896.426;  248.125;    0.000
1040.160;20869.426;  215.125;    0.000
1040.315;20495.426;  239.125;    0.000
1040.470;19113.426;  210.125;    0.000
1040.625;18788.426;  239.125;    0.000
1040.780;17890.426;  251.125;    0.000
1040.935;18409.426;  247.125;    0.000
1041.089;18912.426;  215.125;    0.000
1041.244;21329.426;  210.125;    0.000
1041.399;23134.426;  237.125;    0.000
1041.554;24145.426;  253.125;    0.000
1041.708;25953.426;  227.125;    0.000
1041.863;25808.426;  219.125;    0.000
1042.018;24567.426;  246.125;    0.000
1042.172;24741.426;  236.125;    0.000
1042.327;23181.426;  272.125;    0.000
1042.481;23527.426;  197.125;    0.000
1042.636;24506.426;  213.125;    0.000
1042.791;23174.426;  250.125;    0.000
1042.945;27329.426;  267.125;    0.000
1043.099;29941.426;  257.125;    0.000
1043.254;29138.426;  206.125;    0.000
1043.408;30381.426;  266.125;    0.000
1043.563;33259.426;  232.125;    0.000
1043.717;32023.426;  241.125;    0.000
1043.871;29769.426;  248.125;    0.000
1044.025;28781.426;  234.125;    0.000
1044.180;28285.426;  222.125;    0.000
1044.334;29572.426;  235.125;    0.000
1044.488;30800.426;  270.125;    0.000
1044.642;31331.426;  215.125;    0.000
1044.796;35679.426;  212.125;    0.000
1044.950;39841.426;  228.125;    0.000
1045.104;40348.426;  223.125;    0.000
1045.258;41182.426;  236.125;    0.000
1045.412;41722.426;  225.125;    0.000
1045.566;39724.426;  245.125;    0.000
1045.720;36873.426;  201.125;    0.000
1045.874;36236.426;  229.125;    0.000
1046.028;33399.426;  243.125;    0.000
1046.182;32819.426;  212.125;    0.000
1046.336;34714.426;  256.125;    0.000
1046.489;35403.426;  234.125;    0.000
1046.643;36548.426;  246.125;    0.000
1046.797;39880.426;  219.125;    0.000
1046.951;42322.426;  231.125;    0.000
1047.104;42909.426;  285.125;    0.000
1047.258;43728.426;  256.125;    0.000
1047.411;48074.426;  232.125;    0.000
1047.565;47558.426;  269.125;    0.000
1047.719;44609.426;  213.125;    0.000
1047.872;43393.426;  210.125;    0.000
1048.026;42330.426;  251.125;    0.000
1048.179;40927.426;  213.125;    0.000
1048.332;40109.426;  212.125;    0.000
1048.486;38459.426;  218.125;    0.000
1048.639;40733.426;  218.125;    0.000
1048.792;41167.426;  247.125;    0.000
1048.946;43380.426;  208.125;    0.000
1049.099;46667.426;  247.125;    0.000
1049.252;47370.426;  274.125;    0.000
1049.406;45163.426;  232.125;    0.000
1049.559;50034.426;  251.125;    0.000
1049.712;52566.426;  243.125;    0.000
1049.865;55696.426;  219.125;    0.000
1050.018;55023.426;  216.125;    0.000
1050.171;48278.426;  237.125;    0.000
1050.324;46105.426;  291.125;    0.000
1050.477;48997.426;  241.125;    0.000
1050.630;54756.426;  245.125;    0.000
1050.783;55128.426;  213.125;    0.000
1050.936;50603.426;  246.125;    0.000
1051.089;48045.426;  255.125;    0.000
1051.242;51011.426;  228.125;    0.000
1051.394;55124.426;  276.125;    0.000
1051.547;57754.426;  246.125;    0.000
1051.700;54264.426;  252.125;    0.000
1051.853;52277.426;  267.125;    0.000
1052.005;55070.426;  261.125;    0.000
1052.158;60050.426;  313.125;    0.000
1052.311;63759.426;  264.125;    0.000
1052.463;62478.426;  271.125;    0.000
1052.616;57185.426;  291.125;    0.000
1052.768;52959.426;  298.125;    0.000
1052.921;51205.426;  262.125;    0.000
1053.073;54716.426;  307.125;    0.000
1053.226;62583.426;  301.125;    0.000
1053.378;65092.426;  309.125;    0.000
1053.531;65092.426;  280.125;    0.000
1053.683;65092.426;  258.125;    0.000
1053.835;60562.426;  267.125;    0.000
1053.988;45910.426;  294.125;    0.000
1054.140; 8533.425;  292.125;    0.000
1054.292; 1998.425;  249.125;    0.000
1054.444; 1493.425;  288.125;    0.000
1054.596; 1395.425;  275.125;    0.000
1054.749; 1311.425;  284.125;    0.000
1054.901; 1207.425;  291.125;    0.000
1055.053; 1087.425;  274.125;    0.000
1055.205; 1089.425;  313.125;    0.000
1055.357; 1012.425;  309.125;    0.000
1055.509;  894.425;  283.125;    0.000
1055.661;  962.425;  341.125;    0.000
1055.813;  924.425;  288.125;    0.000
1055.965;  895.425;  300.125;    0.000
1056.116;  876.425;  296.125;    0.000
1056.268;  891.425;  319.125;    0.000
1056.420;  905.425;  298.125;    0.000

