
Integration time [ms]:   1.000
Averaging Nr. [scans]: 1
Smoothing Nr. [pixels]: 0
Data measured with spectrometer [name]: NIR
Wave   ;Sample   ;Dark     ;Reference
[nm]   ;[counts] ;[counts] ;[counts] 

691.496;  -95.925;  163.125;    0.000
691.696;  -75.925;  208.125;    0.000
691.896; -110.925;  111.125;    0.000
692.096;  -62.925;  178.125;    0.000
692.296; -112.925;   93.125;    0.000
692.496;  -45.925;  161.125;    0.000
692.695; -115.925;  135.125;    0.000
692.895;  -54.925;  179.125;    0.000
693.095;  -84.925;  158.125;    0.000
693.295;  -57.925;  168.125;    0.000
693.495;  -72.925;  170.125;    0.000
693.695;  -67.925;  155.125;    0.000
693.894;  -76.925;  151.125;    0.000
694.094;  -63.925;  164.125;    0.000
694.294;  -80.925;  129.125;    0.000
694.494;  146.075;  170.125;    0.000
694.693; 2160.075;  137.125;    0.000
694.893; 2322.075;  163.125;    0.000
695.093; 2336.075;  121.125;    0.000
695.293; 2278.075;  144.125;    0.000
695.492; 2453.075;   88.125;    0.000
695.692; 2414.075;  148.125;    0.000
695.891; 2365.075;  125.125;    0.000
696.091; 2494.075;  184.125;    0.000
696.291; 2491.075;  153.125;    0.000
696.490; 2513.075;  131.125;    0.000
696.690; 2439.075;  123.125;    0.000
696.889; 2431.075;  180.125;    0.000
697.089; 2397.075;  147.125;    0.000
697.288; 2518.075;  164.125;    0.000
697.488; 2581.075;  133.125;    0.000
697.687; 2498.075;  153.125;    0.000
697.887; 2478.075;  119.125;    0.000
698.086; 2535.075;  143.125;    0.000
698.286; 2501.075;  125.125;    0.000
698.485; 2511.075;  120.125;    0.000
698.684; 2479.075;  116.125;    0.000
698.884; 2541.075;  131.125;    0.000
699.083; 2480.075;  115.125;    0.000
699.282; 2489.075;  144.125;    0.000
699.482; 2498.075;  109.125;    0.000
699.681; 2566.075;  115.125;    0.000
699.880; 2483.075;  125.125;    0.000
700.080; 2566.075;  139.125;    0.000
700.279; 2519.075;  111.125;    0.000
700.478; 2531.075;  146.125;    0.000
700.677; 2477.075;  131.125;    0.000
700.877; 2468.075;  156.125;    0.000
701.076; 2497.075;  153.125;    0.000
701.275; 2608.075;  123.125;    0.000
701.474; 2508.075;  150.125;    0.000
701.673; 2545.075;   97.125;    0.000
701.872; 2482.075;  139.125;    0.000
702.071; 2531.075;  108.125;    0.000
702.271; 2504.075;  125.125;    0.000
702.470; 2666.075;  108.125;    0.000
702.669; 2507.075;  102.125;    0.000
702.868; 2561.075;  153.125;    0.000
703.067; 2608.075;  145.125;    0.000
703.266; 2560.075;   96.125;    0.000
703.465; 2635.075;  165.125;    0.000
703.664; 2558.075;  106.125;    0.000
703.863; 2635.075;  144.125;    0.000
704.062; 2646.075;   86.125;    0.000
704.260; 2602.075;   99.125;    0.000
704.459; 2544.075;  112.125;    0.000
704.658; 2705.075;  106.125;    0.000
704.857; 2596.075;  129.125;    0.000
705.056; 2559.075;   98.125;    0.000
705.255; 2635.075;   97.125;    0.000
705.454; 2566.075;  101.125;    0.000
705.652; 2673.075;  142.125;    0.000
705.851; 2620.075;  100.125;    0.000
706.050; 2680.075;  162.125;    0.000
706.249; 2550.075;  146.125;    0.000
706.447; 2591.075;  120.125;    0.000
706.646; 2625.075;  114.125;    0.000
706.845; 2616.075;  117.125;    0.000
707.043; 2656.075;  136.125;    0.000
707.242; 2617.075;   90.125;    0.000
707.441; 2638.075;  131.125;    0.000
707.639; 2715.075;  120.125;    0.000
707.838; 2794.075;  122.125;    0.000
708.037; 2722.075;  109.125;    0.000
708.235; 2715.075;  122.125;    0.000
708.434; 2717.075;  109.125;    0.000
708.632; 2652.075;   47.125;    0.000
708.831; 2711.075;  122.125;    0.000
709.029; 2715.075;  130.125;    0.000
709.228; 2642.075;  112.125;    0.000
709.426; 2843.075;  128.125;    0.000
709.625; 2782.075;  129.125;    0.000
709.823; 2746.075;  130.125;    0.000
710.022; 2802.075;   90.125;    0.000
710.220; 2755.075;  131.125;    0.000
710.418; 2794.075;  133.125;    0.000
710.617; 2715.075;   82.125;    0.000
710.815; 2859.075;   90.125;    0.000
711.013; 2805.075;   86.125;    0.000
711.212; 2738.075;  117.125;    0.000
711.410; 2875.075;  106.125;    0.000
711.608; 2780.075;  138.125;    0.000
711.807; 2730.075;  116.125;    0.000
712.005; 2783.075;   82.125;    0.000
712.203; 2875.075;   90.125;    0.000
712.401; 2848.075;  124.125;    0.000
712.599; 2828.075;   64.125;    0.000
712.798; 2819.075;  113.125;    0.000
712.996; 2810.075;  100.125;    0.000
713.194; 2820.075;  130.125;    0.000
713.392; 2838.075;   89.125;    0.000
713.590; 2882.075;  105.125;    0.000
713.788; 2872.075;  100.125;    0.000
713.986; 2917.075;  117.125;    0.000
714.184; 2880.075;   72.125;    0.000
714.382; 2805.075;   88.125;    0.000
714.580; 2929.075;   88.125;    0.000
714.778; 3008.075;  129.125;    0.000
714.976; 2933.075;   90.125;    0.000
715.174; 2984.075;  119.125;    0.000
715.372; 3175.075;  117.125;    0.000
715.570; 3181.075;  101.125;    0.000
715.768; 3308.075;  122.125;    0.000
715.966; 3381.075;  114.125;    0.000
716.164; 3268.075;  135.125;    0.000
716.362; 3308.075;  126.125;    0.000
716.560; 3231.075;  126.125;    0.000
716.758; 3318.075;   98.125;    0.000
716.955; 3179.075;   76.125;    0.000
717.153; 3172.075;   45.125;    0.000
717.351; 3106.075;  106.125;    0.000
717.549; 3160.075;  108.125;    0.000
717.746; 3097.075;   66.125;    0.000
717.944; 3128.075;  127.125;    0.000
718.142; 3140.075;  148.125;    0.000
718.340; 3099.075;   94.125;    0.000
718.537; 3158.075;  107.125;    0.000
718.735; 3289.075;  130.125;    0.000
718.933; 3212.075;  111.125;    0.000
719.130; 3044.075;  107.125;    0.000
719.328; 3148.075;  128.125;    0.000
719.525; 3109.075;  141.125;    0.000
719.723; 3175.075;  122.125;    0.000
719.920; 3136.075;   85.125;    0.000
720.118; 3108.075;  115.125;    0.000
720.316; 3110.075;  153.125;    0.000
720.513; 3121.075;  120.125;    0.000
720.711; 3236.075;  134.125;    0.000
720.908; 3126.075;  126.125;    0.000
721.105; 3202.075;  119.125;    0.000
721.303; 3111.075;  112.125;    0.000
721.500; 3131.075;  125.125;    0.000
721.698; 3152.075;   94.125;    0.000
721.895; 3167.075;  118.125;    0.000
722.092; 3201.075;   77.125;    0.000
722.290; 3078.075;  135.125;    0.000
722.487; 3240.075;  154.125;    0.000
722.684; 3218.075;  122.125;    0.000
722.882; 3130.075;   90.125;    0.000
723.079; 3145.075;  132.125;    0.000
723.276; 3171.075;   95.125;    0.000
723.473; 3170.075;  106.125;    0.000
723.671; 3161.075;   80.125;    0.000
723.868; 3217.075;  112.125;    0.000
724.065; 3147.075;  107.125;    0.000
724.262; 3144.075;  119.125;    0.000
724.459; 3185.075;   80.125;    0.000
724.656; 3205.075;  109.125;    0.000
724.854; 3277.075;  107.125;    0.000
725.051; 3156.075;  103.125;    0.000
725.248; 3224.075;  101.125;    0.000
725.445; 3287.075;   93.125;    0.000
725.642; 3219.075;   92.125;    0.000
725.839; 3209.075;  157.125;    0.000
726.036; 3162.075;   71.125;    0.000
726.233; 3192.075;   80.125;    0.000
726.430; 3342.075;  146.125;    0.000
726.627; 3258.075;  103.125;    0.000
726.824; 3263.075;   46.125;    0.000
727.021; 3311.075;  149.125;    0.000
727.218; 3248.075;   87.125;    0.000
727.414; 3289.075;  112.125;    0.000
727.611; 3229.075;  111.125;    0.000
727.808; 3228.075;  122.125;    0.000
728.005; 3300.075;   58.125;    0.000
728.202; 3282.075;  129.125;    0.000
728.399; 3233.075;  111.125;    0.000
728.595; 3309.075;   93.125;    0.000
728.792; 3196.075;   78.125;    0.000
728.989; 3350.075;  104.125;    0.000
729.186; 3253.075;  110.125;    0.000
729.382; 3161.075;   93.125;    0.000
729.579; 3301.075;  102.125;    0.000
729.776; 3274.075;  112.125;    0.000
729.972; 3223.075;  101.125;    0.000
730.169; 3309.075;  150.125;    0.000
730.366; 3233.075;   92.125;    0.000
730.562; 3279.075;   74.125;    0.000
730.759; 3319.075;   97.125;    0.000
730.955; 3220.075;   86.125;    0.000
731.152; 3327.075;   88.125;    0.000
731.348; 3313.075;  117.125;    0.000
731.545; 3358.075;   62.125;    0.000
731.741; 3310.075;   84.125;    0.000
731.938; 3314.075;  108.125;    0.000
732.134; 3340.075;  115.125;    0.000
732.331; 3261.075;   88.125;    0.000
732.527; 3391.075;   96.125;    0.000
732.724; 3293.075;  103.125;    0.000
732.920; 3385.075;   93.125;    0.000
733.116; 3394.075;  109.125;    0.000
733.313; 3423.075;   77.125;    0.000
733.509; 3208.075;   81.125;    0.000
733.705; 3377.075;  141.125;    0.000
733.902; 3323.075;   88.125;    0.000
734.098; 3343.075;   56.125;    0.000
734.294; 3418.075;  122.125;    0.000
734.490; 3352.075;  102.125;    0.000
734.687; 3439.075;   70.125;    0.000
734.883; 3360.075;   73.125;    0.000
735.079; 3350.075;   65.125;    0.000
735.275; 3401.075;  112.125;    0.000
735.471; 3416.075;  124.125;    0.000
735.667; 3294.075;   94.125;    0.000
735.863; 3426.075;  106.125;    0.000
736.060; 3413.075;  106.125;    0.000
736.256; 3339.075;   95.125;    0.000
736.452; 3466.075;  103.125;    0.000
736.648; 3371.075;  106.125;    0.000
736.844; 3561.075;   98.125;    0.000
737.040; 3469.075;  118.125;    0.000
737.236; 3592.075;   95.125;    0.000
737.432; 3489.075;   59.125;    0.000
737.628; 3530.075;  120.125;    0.000
737.824; 3501.075;   78.125;    0.000
738.019; 3439.075;   98.125;    0.000
738.215; 3448.075;  127.125;    0.000
738.411; 3463.075;  111.125;    0.000
738.607; 3419.075;   69.125;    0.000
738.803; 3443.075;   40.125;    0.000
738.999; 3588.075;  128.125;    0.000
739.195; 3498.075;   81.125;    0.000
739.390; 3574.075;   97.125;    0.000
739.586; 3530.075;  100.125;    0.000
739.782; 3508.075;  135.125;    0.000
739.978; 3560.075;  121.125;    0.000
740.173; 3607.075;   92.125;    0.000
740.369; 3593.075;   92.125;    0.000
740.565; 3557.075;  119.125;    0.000
740.760; 3516.075;  139.125;    0.000
740.956; 3602.075;  134.125;    0.000
741.152; 3658.075;  107.125;    0.000
741.347; 3499.075;   63.125;    0.000
741.543; 3671.075;   99.125;    0.000
741.738; 3840.075;  119.125;    0.000
741.934; 3883.075;  156.125;    0.000
742.129; 3933.075;   87.125;    0.000
742.325; 4254.075;  143.125;    0.000
742.520; 4398.075;  109.125;    0.000
742.716; 4350.075;  135.125;    0.000
742.911; 4264.075;   77.125;    0.000
743.107; 4159.075;  117.125;    0.000
743.302; 4175.075;   93.125;    0.000
743.498; 4273.075;  118.125;    0.000
743.693; 4229.075;   95.125;    0.000
743.888; 4418.075;  122.125;    0.000
744.084; 4690.075;  104.125;    0.000
744.279; 5350.075;   94.125;    0.000
744.474; 5425.075;  138.125;    0.000
744.670; 5073.075;  113.125;    0.000
744.865; 4769.075;  116.125;    0.000
745.060; 4687.075;   89.125;    0.000
745.255; 4671.075;  144.125;    0.000
745.451; 4579.075;   98.125;    0.000
745.646; 4535.075;  110.125;    0.000
745.841; 4545.075;   87.125;    0.000
746.036; 4526.075;   98.125;    0.000
746.231; 4512.075;  153.125;    0.000
746.426; 4654.075;   90.125;    0.000
746.622; 4998.075;  154.125;    0.000
746.817; 5925.075;  111.125;    0.000
747.012; 6495.075;  110.125;    0.000
747.207; 6126.075;   76.125;    0.000
747.402; 5773.075;   94.125;    0.000
747.597; 5385.075;   68.125;    0.000
747.792; 5265.075;  125.125;    0.000
747.987; 5058.075;   92.125;    0.000
748.182; 5109.075;  113.125;    0.000
748.377; 4847.075;   72.125;    0.000
748.572; 4743.075;  135.125;    0.000
748.767; 4671.075;   98.125;    0.000
748.961; 4539.075;  123.125;    0.000
749.156; 4535.075;   96.125;    0.000
749.351; 4418.075;  121.125;    0.000
749.546; 4354.075;   95.125;    0.000
749.741; 4342.075;  144.125;    0.000
749.936; 4220.075;  105.125;    0.000
750.130; 4194.075;  101.125;    0.000
750.325; 4141.075;  126.125;    0.000
750.520; 4175.075;  113.125;    0.000
750.715; 4191.075;  135.125;    0.000
750.909; 4136.075;  138.125;    0.000
751.104; 4029.075;   96.125;    0.000
751.299; 4029.075;  118.125;    0.000
751.493; 4064.075;  124.125;    0.000
751.688; 4156.075;  131.125;    0.000
751.882; 3974.075;   96.125;    0.000
752.077; 4047.075;  123.125;    0.000
752.272; 3979.075;  112.125;    0.000
752.466; 3956.075;  143.125;    0.000
752.661; 4022.075;  107.125;    0.000
752.855; 3869.075;   97.125;    0.000
753.050; 3954.075;  125.125;    0.000
753.244; 3932.075;  161.125;    0.000
753.439; 3900.075;  101.125;    0.000
753.633; 3873.075;  129.125;    0.000
753.828; 3889.075;  114.125;    0.000
754.022; 3849.075;  118.125;    0.000
754.216; 3790.075;  126.125;    0.000
754.411; 3784.075;  148.125;    0.000
754.605; 3807.075;  100.125;    0.000
754.799; 3967.075;  146.125;    0.000
754.994; 3873.075;  116.125;    0.000
755.188; 3873.075;  146.125;    0.000
755.382; 3890.075;  103.125;    0.000
755.576; 3926.075;  119.125;    0.000
755.771; 3852.075;  100.125;    0.000
755.965; 3853.075;  129.125;    0.000
756.159; 3787.075;  100.125;    0.000
756.353; 3819.075;  153.125;    0.000
756.547; 3791.075;  113.125;    0.000
756.742; 3778.075;  129.125;    0.000
756.936; 3841.075;   70.125;    0.000
757.130; 3838.075;   91.125;    0.000
757.324; 3694.075;   92.125;    0.000
757.518; 3786.075;  128.125;    0.000
757.712; 3829.075;  146.125;    0.000
757.906; 3767.075;  114.125;    0.000
758.100; 3821.075;  153.125;    0.000
758.294; 3837.075;  133.125;    0.000
758.488; 3867.075;  149.125;    0.000
758.682; 3881.075;  132.125;    0.000
758.876; 3762.075;  128.125;    0.000
759.070; 3829.075;  178.125;    0.000
759.264; 3857.075;   98.125;    0.000
759.458; 3698.075;  168.125;    0.000
759.651; 3789.075;  131.125;    0.000
759.845; 3791.075;  133.125;    0.000
760.039; 3861.075;  120.125;    0.000
760.233; 3771.075;  116.125;    0.000
760.427; 3709.075;  121.125;    0.000
760.620; 3831.075;  163.125;    0.000
760.814; 3822.075;  106.125;    0.000
761.008; 3813.075;  119.125;    0.000
761.202; 3786.075;  121.125;    0.000
761.395; 3813.075;  136.125;    0.000
761.589; 3768.075;  111.125;    0.000
761.783; 3671.075;  116.125;    0.000
761.976; 3751.075;  139.125;    0.000
762.170; 3833.075;  140.125;    0.000
762.363; 3755.075;  115.125;    0.000
762.557; 3816.075;  129.125;    0.000
762.750; 3724.075;   85.125;    0.000
762.944; 3828.075;  107.125;    0.000
763.138; 3835.075;   99.125;    0.000
763.331; 3834.075;   97.125;    0.000
763.524; 3808.075;  100.125;    0.000
763.718; 3868.075;  130.125;    0.000
763.911; 3780.075;  127.125;    0.000
764.105; 3850.075;   69.125;    0.000
764.298; 3747.075;   94.125;    0.000
764.492; 3798.075;  129.125;    0.000
764.685; 3814.075;  114.125;    0.000
764.878; 3898.075;  145.125;    0.000
765.072; 3825.075;  124.125;    0.000
765.265; 3844.075;  124.125;    0.000
765.458; 3809.075;  108.125;    0.000
765.651; 4059.075;  132.125;    0.000
765.845; 3885.075;  106.125;    0.000
766.038; 3981.075;  155.125;    0.000
766.231; 4522.075;  153.125;    0.000
766.424; 6233.075;  165.125;    0.000
766.617; 6444.075;   85.125;    0.000
766.811; 4483.075;  140.125;    0.000
767.004; 4073.075;  151.125;    0.000
767.197; 4123.075;  178.125;    0.000
767.390; 3923.075;  112.125;    0.000
767.583; 3946.075;  134.125;    0.000
767.776; 3932.075;  101.125;    0.000
767.969; 3939.075;   99.125;    0.000
768.162; 4006.075;  152.125;    0.000
768.355; 3950.075;  115.125;    0.000
768.548; 3999.075;  154.125;    0.000
768.741; 3982.075;  124.125;    0.000
768.934; 3988.075;  129.125;    0.000
769.127; 4081.075;  137.125;    0.000
769.320; 3963.075;  115.125;    0.000
769.513; 4058.075;  144.125;    0.000
769.706; 4663.075;  107.125;    0.000
769.898; 6270.075;  134.125;    0.000
770.091; 5185.075;  128.125;    0.000
770.284; 4188.075;   97.125;    0.000
770.477; 4109.075;  135.125;    0.000
770.670; 4296.075;  137.125;    0.000
770.862; 4149.075;  112.125;    0.000
771.055; 4241.075;  127.125;    0.000
771.248; 4140.075;  116.125;    0.000
771.441; 4283.075;  101.125;    0.000
771.633; 4272.075;  130.125;    0.000
771.826; 4195.075;  147.125;    0.000
772.018; 4219.075;  117.125;    0.000
772.211; 4284.075;  141.125;    0.000
772.404; 4448.075;  104.125;    0.000
772.596; 4398.075;  128.125;    0.000
772.789; 4488.075;  131.125;    0.000
772.981; 4540.075;  134.125;    0.000
773.174; 4614.075;  108.125;    0.000
773.366; 4578.075;  153.125;    0.000
773.559; 4677.075;  137.125;    0.000
773.751; 4666.075;  119.125;    0.000
773.944; 4806.075;  148.125;    0.000
774.136; 4789.075;  155.125;    0.000
774.329; 4935.075;  126.125;    0.000
774.521; 5015.075;  116.125;    0.000
774.713; 5183.075;  119.125;    0.000
774.906; 5297.075;  179.125;    0.000
775.098; 5501.075;  127.125;    0.000
775.290; 5680.075;  146.125;    0.000
775.483; 5952.075;  123.125;    0.000
775.675; 6262.075;  119.125;    0.000
775.867; 6553.075;  119.125;    0.000
776.059; 6859.075;  137.125;    0.000
776.251; 7428.075;  154.125;    0.000
776.444; 8344.075;  101.125;    0.000
776.636; 9519.075;  153.125;    0.000
776.828;11341.075;  127.125;    0.000
777.020;15016.075;  140.125;    0.000
777.212;20824.074;  160.125;    0.000
777.404;23388.074;  170.125;    0.000
777.596;21778.074;  136.125;    0.000
777.788;17173.074;  137.125;    0.000
777.980;13712.075;  129.125;    0.000
778.172;11708.075;  139.125;    0.000
778.364;10220.075;  124.125;    0.000
778.556; 9265.075;  163.125;    0.000
778.748; 8633.075;  142.125;    0.000
778.940; 7842.075;  178.125;    0.000
779.132; 7286.075;  159.125;    0.000
779.324; 6774.075;  109.125;    0.000
779.516; 6499.075;  143.125;    0.000
779.708; 6281.075;  158.125;    0.000
779.900; 5935.075;  142.125;    0.000
780.091; 5693.075;  131.125;    0.000
780.283; 5443.075;  176.125;    0.000
780.475; 5422.075;  151.125;    0.000
780.667; 5441.075;  120.125;    0.000
780.859; 5040.075;  134.125;    0.000
781.050; 5045.075;  183.125;    0.000
781.242; 4884.075;   95.125;    0.000
781.434; 4807.075;  127.125;    0.000
781.625; 4645.075;  163.125;    0.000
781.817; 4578.075;  170.125;    0.000
782.008; 4569.075;  123.125;    0.000
782.200; 4512.075;  141.125;    0.000
782.392; 4554.075;  149.125;    0.000
782.583; 4373.075;  155.125;    0.000
782.775; 4449.075;  140.125;    0.000
782.966; 4397.075;  167.125;    0.000
783.158; 4258.075;  164.125;    0.000
783.349; 4231.075;  174.125;    0.000
783.541; 4187.075;  141.125;    0.000
783.732; 4093.075;  115.125;    0.000
783.924; 4239.075;  135.125;    0.000
784.115; 4093.075;  157.125;    0.000
784.306; 4134.075;  102.125;    0.000
784.498; 4122.075;  124.125;    0.000
784.689; 4141.075;  171.125;    0.000
784.880; 4136.075;  165.125;    0.000
785.072; 4075.075;  152.125;    0.000
785.263; 3971.075;  146.125;    0.000
785.454; 3913.075;  145.125;    0.000
785.645; 4043.075;  127.125;    0.000
785.837; 4084.075;  138.125;    0.000
786.028; 3918.075;  151.125;    0.000
786.219; 3914.075;  142.125;    0.000
786.410; 3933.075;  140.125;    0.000
786.601; 3892.075;  137.125;    0.000
786.792; 3876.075;  158.125;    0.000
786.984; 3865.075;  139.125;    0.000
787.175; 3939.075;  140.125;    0.000
787.366; 3787.075;  145.125;    0.000
787.557; 3906.075;  156.125;    0.000
787.748; 3954.075;  148.125;    0.000
787.939; 3947.075;  157.125;    0.000
788.130; 3936.075;  179.125;    0.000
788.321; 3978.075;  142.125;    0.000
788.512; 3983.075;  167.125;    0.000
788.703; 3941.075;  145.125;    0.000
788.894; 3936.075;  132.125;    0.000
789.084; 3958.075;  113.125;    0.000
789.275; 3969.075;  134.125;    0.000
789.466; 3922.075;  151.125;    0.000
789.657; 3933.075;  138.125;    0.000
789.848; 3992.075;  145.125;    0.000
790.039; 3939.075;  130.125;    0.000
790.229; 4019.075;  140.125;    0.000
790.420; 3969.075;  135.125;    0.000
790.611; 3937.075;  156.125;    0.000
790.801; 3818.075;   64.125;    0.000
790.992; 3922.075;  150.125;    0.000
791.183; 3940.075;  177.125;    0.000
791.373; 3931.075;   91.125;    0.000
791.564; 3871.075;   85.125;    0.000
791.755; 3847.075;  125.125;    0.000
791.945; 3801.075;   94.125;    0.000
792.136; 3956.075;   98.125;    0.000
792.326; 3930.075;  105.125;    0.000
792.517; 3872.075;  136.125;    0.000
792.707; 3916.075;  140.125;    0.000
792.898; 3921.075;  164.125;    0.000
793.088; 4098.075;  116.125;    0.000
793.279; 3941.075;  112.125;    0.000
793.469; 4124.075;  105.125;    0.000
793.660; 4134.075;  161.125;    0.000
793.850; 4063.075;  133.125;    0.000
794.040; 4197.075;  121.125;    0.000
794.231; 4417.075;  115.125;    0.000
794.421; 4514.075;  152.125;    0.000
794.611; 4929.075;  132.125;    0.000
794.802; 5446.075;  144.125;    0.000
794.992; 5633.075;  142.125;    0.000
795.182; 5835.075;  179.125;    0.000
795.372; 5465.075;  167.125;    0.000
795.563; 5269.075;  149.125;    0.000
795.753; 4789.075;  117.125;    0.000
795.943; 4663.075;  146.125;    0.000
796.133; 4470.075;  119.125;    0.000
796.323; 4335.075;  141.125;    0.000
796.513; 4361.075;  134.125;    0.000
796.703; 4313.075;  116.125;    0.000
796.893; 4172.075;  120.125;    0.000
797.083; 4023.075;  131.125;    0.000
797.273; 3962.075;  118.125;    0.000
797.463; 3985.075;  130.125;    0.000
797.653; 3817.075;   87.125;    0.000
797.843; 3856.075;  123.125;    0.000
798.033; 3854.075;  115.125;    0.000
798.223; 3753.075;  142.125;    0.000
798.413; 3779.075;  148.125;    0.000
798.603; 3633.075;  147.125;    0.000
798.793; 3560.075;  107.125;    0.000
798.983; 3647.075;  121.125;    0.000
799.172; 3583.075;  120.125;    0.000
799.362; 3650.075;  145.125;    0.000
799.552; 3487.075;  101.125;    0.000
799.742; 3516.075;  149.125;    0.000
799.932; 3518.075;  104.125;    0.000
800.121; 3490.075;  175.125;    0.000
800.311; 3435.075;  132.125;    0.000
800.501; 3422.075;  118.125;    0.000
800.690; 3478.075;  162.125;    0.000
800.880; 3423.075;  141.125;    0.000
801.070; 3327.075;  151.125;    0.000
801.259; 3302.075;  167.125;    0.000
801.449; 3319.075;  108.125;    0.000
801.638; 3385.075;  176.125;    0.000
801.828; 3310.075;  118.125;    0.000
802.017; 3398.075;  179.125;    0.000
802.207; 3355.075;  127.125;    0.000
802.396; 3296.075;  167.125;    0.000
802.586; 3355.075;  129.125;    0.000
802.775; 3339.075;  142.125;    0.000
802.965; 3185.075;  147.125;    0.000
803.154; 3252.075;  179.125;    0.000
803.343; 3298.075;  117.125;    0.000
803.533; 3310.075;  120.125;    0.000
803.722; 3164.075;  122.125;    0.000
803.911; 3259.075;  155.125;    0.000
804.101; 3288.075;  147.125;    0.000
804.290; 3285.075;  160.125;    0.000
804.479; 3187.075;  139.125;    0.000
804.668; 3252.075;  180.125;    0.000
804.857; 3220.075;  131.125;    0.000
805.047; 3212.075;  119.125;    0.000
805.236; 3253.075;  139.125;    0.000
805.425; 3244.075;  163.125;    0.000
805.614; 3156.075;  103.125;    0.000
805.803; 3230.075;  133.125;    0.000
805.992; 3312.075;  147.125;    0.000
806.181; 3217.075;  109.125;    0.000
806.370; 3254.075;  133.125;    0.000
806.559; 3222.075;  119.125;    0.000
806.748; 3185.075;  144.125;    0.000
806.937; 3216.075;  147.125;    0.000
807.126; 3213.075;  134.125;    0.000
807.315; 3231.075;  132.125;    0.000
807.504; 3141.075;  141.125;    0.000
807.693; 3231.075;  145.125;    0.000
807.882; 3232.075;   91.125;    0.000
808.071; 3289.075;  116.125;    0.000
808.260; 3134.075;  105.125;    0.000
808.448; 3213.075;  184.125;    0.000
808.637; 3172.075;  146.125;    0.000
808.826; 3108.075;  153.125;    0.000
809.015; 3169.075;  113.125;    0.000
809.203; 3203.075;  166.125;    0.000
809.392; 3193.075;  117.125;    0.000
809.581; 3304.075;  186.125;    0.000
809.770; 3212.075;  122.125;    0.000
809.958; 3167.075;  140.125;    0.000
810.147; 3288.075;  130.125;    0.000
810.335; 3213.075;  112.125;    0.000
810.524; 3248.075;  106.125;    0.000
810.713; 3258.075;  154.125;    0.000
810.901; 3260.075;  131.125;    0.000
811.090; 3346.075;  164.125;    0.000
811.278; 3379.075;  159.125;    0.000
811.467; 3218.075;  194.125;    0.000
811.655; 3445.075;  164.125;    0.000
811.844; 3410.075;  149.125;    0.000
812.032; 3219.075;  169.125;    0.000
812.220; 3340.075;  163.125;    0.000
812.409; 3301.075;  134.125;    0.000
812.597; 3389.075;  165.125;    0.000
812.785; 3313.075;  180.125;    0.000
812.974; 3310.075;  166.125;    0.000
813.162; 3452.075;  171.125;    0.000
813.350; 3447.075;  142.125;    0.000
813.539; 3469.075;  126.125;    0.000
813.727; 3413.075;  153.125;    0.000
813.915; 3451.075;  138.125;    0.000
814.103; 3486.075;  191.125;    0.000
814.291; 3500.075;  142.125;    0.000
814.479; 3461.075;  156.125;    0.000
814.668; 3431.075;  152.125;    0.000
814.856; 3542.075;  150.125;    0.000
815.044; 3581.075;  165.125;    0.000
815.232; 3618.075;  172.125;    0.000
815.420; 3709.075;  147.125;    0.000
815.608; 3834.075;  143.125;    0.000
815.796; 3627.075;  126.125;    0.000
815.984; 3809.075;  152.125;    0.000
816.172; 3841.075;  129.125;    0.000
816.360; 3897.075;  177.125;    0.000
816.548; 3959.075;  141.125;    0.000
816.736; 4210.075;  142.125;    0.000
816.924; 4169.075;  161.125;    0.000
817.111; 4251.075;  138.125;    0.000
817.299; 4541.075;  112.125;    0.000
817.487; 4574.075;  180.125;    0.000
817.675; 4967.075;  138.125;    0.000
817.863; 5457.075;  172.125;    0.000
818.050; 6484.075;  142.125;    0.000
818.238;10187.075;  151.125;    0.000
818.426;13729.075;  129.125;    0.000
818.613;10510.075;  124.125;    0.000
818.801; 9277.075;  209.125;    0.000
818.989; 8922.075;  178.125;    0.000
819.176; 9340.075;  155.125;    0.000
819.364;12513.075;  174.125;    0.000
819.552;17171.074;  131.125;    0.000
819.739;12967.075;  184.125;    0.000
819.927; 9801.075;  132.125;    0.000
820.114; 8556.075;  173.125;    0.000
820.302; 7867.075;  140.125;    0.000
820.489; 7486.075;  133.125;    0.000
820.677; 7126.075;  167.125;    0.000
820.864; 7003.075;  161.125;    0.000
821.052; 7100.075;  134.125;    0.000
821.239; 7232.075;  149.125;    0.000
821.426; 7495.075;  160.125;    0.000
821.614; 8623.075;  143.125;    0.000
821.801; 8992.075;  118.125;    0.000
821.988; 8372.075;  154.125;    0.000
822.176; 7954.075;  112.125;    0.000
822.363; 8336.075;  131.125;    0.000
822.550; 7784.075;  131.125;    0.000
822.737; 7010.075;  104.125;    0.000
822.924; 6754.075;  160.125;    0.000
823.112; 6575.075;  161.125;    0.000
823.299; 6098.075;  169.125;    0.000
823.486; 6020.075;  129.125;    0.000
823.673; 5741.075;  135.125;    0.000
823.860; 5483.075;  169.125;    0.000
824.047; 5600.075;  124.125;    0.000
824.234; 5891.075;  160.125;    0.000
824.421; 5932.075;  114.125;    0.000
824.608; 5491.075;  191.125;    0.000
824.795; 5094.075;  160.125;    0.000
824.982; 4812.075;  139.125;    0.000
825.169; 4694.075;  121.125;    0.000
825.356; 4594.075;  148.125;    0.000
825.543; 4408.075;  167.125;    0.000
825.730; 4243.075;  103.125;    0.000
825.917; 4136.075;  113.125;    0.000
826.104; 4067.075;  188.125;    0.000
826.290; 3969.075;  193.125;    0.000
826.477; 3804.075;  175.125;    0.000
826.664; 3764.075;  151.125;    0.000
826.851; 3716.075;  122.125;    0.000
827.038; 3538.075;  121.125;    0.000
827.224; 3571.075;  124.125;    0.000
827.411; 3472.075;  155.125;    0.000
827.598; 3558.075;  127.125;    0.000
827.784; 3538.075;  140.125;    0.000
827.971; 3453.075;  114.125;    0.000
828.157; 3352.075;  135.125;    0.000
828.344; 3330.075;  173.125;    0.000
828.531; 3203.075;  113.125;    0.000
828.717; 3295.075;  137.125;    0.000
828.904; 3289.075;  158.125;    0.000
829.090; 3228.075;  199.125;    0.000
829.277; 3125.075;  156.125;    0.000
829.463; 3184.075;  154.125;    0.000
829.650; 3208.075;  174.125;    0.000
829.836; 3105.075;  136.125;    0.000
830.022; 3142.075;  143.125;    0.000
830.209; 3155.075;  157.125;    0.000
830.395; 3034.075;  156.125;    0.000
830.581; 2928.075;  148.125;    0.000
830.768; 2911.075;  169.125;    0.000
830.954; 2945.075;  169.125;    0.000
831.140; 2878.075;  124.125;    0.000
831.327; 2863.075;  157.125;    0.000
831.513; 2900.075;  163.125;    0.000
831.699; 2808.075;  176.125;    0.000
831.885; 3021.075;  154.125;    0.000
832.071; 2801.075;  159.125;    0.000
832.257; 2834.075;  142.125;    0.000
832.444; 2796.075;  159.125;    0.000
832.630; 2766.075;  129.125;    0.000
832.816; 2819.075;  132.125;    0.000
833.002; 2727.075;  125.125;    0.000
833.188; 2719.075;  144.125;    0.000
833.374; 2706.075;  131.125;    0.000
833.560; 2745.075;  154.125;    0.000
833.746; 2660.075;  171.125;    0.000
833.932; 2588.075;  162.125;    0.000
834.118; 2634.075;  131.125;    0.000
834.303; 2587.075;  113.125;    0.000
834.489; 2623.075;  170.125;    0.000
834.675; 2678.075;  177.125;    0.000
834.861; 2648.075;  154.125;    0.000
835.047; 2663.075;  171.125;    0.000
835.233; 2606.075;   98.125;    0.000
835.418; 2648.075;  138.125;    0.000
835.604; 2489.075;  140.125;    0.000
835.790; 2570.075;  130.125;    0.000
835.976; 2526.075;  129.125;    0.000
836.161; 2613.075;  142.125;    0.000
836.347; 2546.075;  128.125;    0.000
836.533; 2549.075;  143.125;    0.000
836.718; 2619.075;  164.125;    0.000
836.904; 2633.075;  172.125;    0.000
837.089; 2587.075;  152.125;    0.000
837.275; 2585.075;  143.125;    0.000
837.460; 2525.075;  125.125;    0.000
837.646; 2590.075;  137.125;    0.000
837.831; 2563.075;  153.125;    0.000
838.017; 2610.075;  171.125;    0.000
838.202; 2495.075;  111.125;    0.000
838.388; 2607.075;  140.125;    0.000
838.573; 2527.075;  158.125;    0.000
838.759; 2480.075;  188.125;    0.000
838.944; 2499.075;  125.125;    0.000
839.129; 2544.075;  123.125;    0.000
839.315; 2532.075;  181.125;    0.000
839.500; 2524.075;  150.125;    0.000
839.685; 2430.075;  109.125;    0.000
839.870; 2648.075;  202.125;    0.000
840.056; 2550.075;  101.125;    0.000
840.241; 2512.075;  184.125;    0.000
840.426; 2508.075;  192.125;    0.000
840.611; 2575.075;  180.125;    0.000
840.796; 2658.075;  156.125;    0.000
840.981; 2599.075;  142.125;    0.000
841.166; 2650.075;  161.125;    0.000
841.352; 2646.075;  185.125;    0.000
841.537; 2576.075;  139.125;    0.000
841.722; 2633.075;  143.125;    0.000
841.907; 2706.075;  140.125;    0.000
842.092; 2699.075;  176.125;    0.000
842.277; 2697.075;  136.125;    0.000
842.461; 2756.075;  155.125;    0.000
842.646; 2809.075;  163.125;    0.000
842.831; 2819.075;  153.125;    0.000
843.016; 2924.075;  187.125;    0.000
843.201; 3011.075;  179.125;    0.000
843.386; 3084.075;  167.125;    0.000
843.571; 3167.075;  129.125;    0.000
843.755; 3314.075;  136.125;    0.000
843.940; 3392.075;  121.125;    0.000
844.125; 3726.075;  157.125;    0.000
844.310; 4330.075;  175.125;    0.000
844.494; 5184.075;  164.125;    0.000
844.679; 6625.075;  167.125;    0.000
844.864; 6570.075;  166.125;    0.000
845.048; 5807.075;  132.125;    0.000
845.233; 5025.075;  175.125;    0.000
845.418; 4576.075;  159.125;    0.000
845.602; 4055.075;  147.125;    0.000
845.787; 3819.075;  132.125;    0.000
845.971; 3676.075;  187.125;    0.000
846.156; 3367.075;  141.125;    0.000
846.340; 3284.075;  153.125;    0.000
846.525; 3190.075;  157.125;    0.000
846.709; 3050.075;  117.125;    0.000
846.893; 2966.075;  147.125;    0.000
847.078; 2832.075;  170.125;    0.000
847.262; 2846.075;  150.125;    0.000
847.447; 2751.075;  132.125;    0.000
847.631; 2739.075;  144.125;    0.000
847.815; 2661.075;  157.125;    0.000
848.000; 2612.075;  164.125;    0.000
848.184; 2581.075;  174.125;    0.000
848.368; 2520.075;  149.125;    0.000
848.552; 2460.075;  143.125;    0.000
848.736; 2539.075;  132.125;    0.000
848.921; 2460.075;  147.125;    0.000
849.105; 2467.075;  150.125;    0.000
849.289; 2416.075;  146.125;    0.000
849.473; 2426.075;  167.125;    0.000
849.657; 2432.075;  149.125;    0.000
849.841; 2390.075;  181.125;    0.000
850.025; 2452.075;  154.125;    0.000
850.209; 2392.075;  152.125;    0.000
850.393; 2271.075;  139.125;    0.000
850.577; 2374.075;  128.125;    0.000
850.761; 2301.075;  194.125;    0.000
850.945; 2262.075;  152.125;    0.000
851.129; 2274.075;  157.125;    0.000
851.313; 2264.075;  181.125;    0.000
851.497; 2281.075;  145.125;    0.000
851.680; 2263.075;  168.125;    0.000
851.864; 2323.075;  185.125;    0.000
852.048; 2331.075;  170.125;    0.000
852.232; 2210.075;  192.125;    0.000
852.416; 2289.075;  182.125;    0.000
852.599; 2236.075;  169.125;    0.000
852.783; 2250.075;  168.125;    0.000
852.967; 2304.075;  184.125;    0.000
853.150; 2335.075;  163.125;    0.000
853.334; 2215.075;  164.125;    0.000
853.518; 2234.075;  190.125;    0.000
853.701; 2159.075;  137.125;    0.000
853.885; 2186.075;  177.125;    0.000
854.068; 2230.075;  163.125;    0.000
854.252; 2148.075;  139.125;    0.000
854.435; 2213.075;  152.125;    0.000
854.619; 2214.075;  148.125;    0.000
854.802; 2293.075;  168.125;    0.000
854.986; 2169.075;  157.125;    0.000
855.169; 2120.075;  147.125;    0.000
855.353; 2257.075;  173.125;    0.000
855.536; 2139.075;  127.125;    0.000
855.719; 2221.075;  191.125;    0.000
855.903; 2247.075;  186.125;    0.000
856.086; 2198.075;  145.125;    0.000
856.269; 2225.075;  130.125;    0.000
856.452; 2202.075;  153.125;    0.000
856.636; 2315.075;  129.125;    0.000
856.819; 2360.075;  134.125;    0.000
857.002; 2477.075;  152.125;    0.000
857.185; 2359.075;  140.125;    0.000
857.368; 2341.075;  170.125;    0.000
857.552; 2314.075;  132.125;    0.000
857.735; 2380.075;  160.125;    0.000
857.918; 2357.075;  139.125;    0.000
858.101; 2316.075;  159.125;    0.000
858.284; 2283.075;  136.125;    0.000
858.467; 2335.075;  147.125;    0.000
858.650; 2336.075;  153.125;    0.000
858.833; 2385.075;  113.125;    0.000
859.016; 2396.075;  167.125;    0.000
859.199; 2426.075;  141.125;    0.000
859.382; 2604.075;  155.125;    0.000
859.564; 2674.075;  136.125;    0.000
859.747; 2653.075;  142.125;    0.000
859.930; 2594.075;  141.125;    0.000
860.113; 2605.075;  156.125;    0.000
860.296; 2544.075;  167.125;    0.000
860.478; 2437.075;  121.125;    0.000
860.661; 2449.075;  230.125;    0.000
860.844; 2437.075;  186.125;    0.000
861.027; 2387.075;  155.125;    0.000
861.209; 2468.075;  151.125;    0.000
861.392; 2413.075;  162.125;    0.000
861.575; 2475.075;  150.125;    0.000
861.757; 2531.075;  162.125;    0.000
861.940; 2440.075;  207.125;    0.000
862.122; 2422.075;  113.125;    0.000
862.305; 2479.075;  114.125;    0.000
862.487; 2554.075;  162.125;    0.000
862.670; 2672.075;  148.125;    0.000
862.852; 2878.075;  131.125;    0.000
863.035; 3239.075;  174.125;    0.000
863.217; 3422.075;  170.125;    0.000
863.400; 3101.075;  148.125;    0.000
863.582; 3074.075;  129.125;    0.000
863.764; 2975.075;  181.125;    0.000
863.947; 2850.075;  152.125;    0.000
864.129; 2831.075;  178.125;    0.000
864.311; 2793.075;  139.125;    0.000
864.493; 2823.075;  166.125;    0.000
864.676; 2712.075;  148.125;    0.000
864.858; 2689.075;  123.125;    0.000
865.040; 2798.075;  180.125;    0.000
865.222; 2793.075;  131.125;    0.000
865.404; 2712.075;  146.125;    0.000
865.587; 2756.075;  175.125;    0.000
865.769; 2907.075;  183.125;    0.000
865.951; 2813.075;  171.125;    0.000
866.133; 3061.075;  165.125;    0.000
866.315; 2868.075;  138.125;    0.000
866.497; 2958.075;  139.125;    0.000
866.679; 2994.075;  167.125;    0.000
866.861; 3065.075;  151.125;    0.000
867.043; 3165.075;  190.125;    0.000
867.225; 3334.075;  140.125;    0.000
867.407; 3455.075;  125.125;    0.000
867.589; 3845.075;  141.125;    0.000
867.770; 4345.075;  149.125;    0.000
867.952; 5483.075;  138.125;    0.000
868.134; 6849.075;  153.125;    0.000
868.316; 7050.075;  148.125;    0.000
868.498; 6837.075;  180.125;    0.000
868.679; 6143.075;  152.125;    0.000
868.861; 5260.075;  174.125;    0.000
869.043; 4649.075;  152.125;    0.000
869.224; 4253.075;  177.125;    0.000
869.406; 3949.075;  171.125;    0.000
869.588; 3814.075;  177.125;    0.000
869.769; 3606.075;  174.125;    0.000
869.951; 3585.075;  167.125;    0.000
870.132; 3549.075;  144.125;    0.000
870.314; 3799.075;  143.125;    0.000
870.495; 3847.075;  162.125;    0.000
870.677; 3659.075;  136.125;    0.000
870.858; 3509.075;  155.125;    0.000
871.040; 3607.075;  179.125;    0.000
871.221; 3816.075;  177.125;    0.000
871.403; 3718.075;  180.125;    0.000
871.584; 3588.075;  157.125;    0.000
871.765; 3859.075;  183.125;    0.000
871.947; 3892.075;  169.125;    0.000
872.128; 3512.075;  162.125;    0.000
872.309; 3227.075;  159.125;    0.000
872.491; 3038.075;  148.125;    0.000
872.672; 2930.075;  163.125;    0.000
872.853; 2918.075;  152.125;    0.000
873.034; 2828.075;  166.125;    0.000
873.215; 2706.075;  155.125;    0.000
873.396; 2613.075;  147.125;    0.000
873.578; 2535.075;  147.125;    0.000
873.759; 2531.075;  153.125;    0.000
873.940; 2448.075;  194.125;    0.000
874.121; 2363.075;  179.125;    0.000
874.302; 2397.075;  155.125;    0.000
874.483; 2390.075;  131.125;    0.000
874.664; 2306.075;  106.125;    0.000
874.845; 2302.075;  122.125;    0.000
875.026; 2268.075;  127.125;    0.000
875.207; 2279.075;  151.125;    0.000
875.388; 2299.075;  149.125;    0.000
875.568; 2199.075;  164.125;    0.000
875.749; 2159.075;  176.125;    0.000
875.930; 2162.075;  207.125;    0.000
876.111; 2208.075;  177.125;    0.000
876.292; 2204.075;  178.125;    0.000
876.472; 2098.075;  163.125;    0.000
876.653; 2154.075;  159.125;    0.000
876.834; 2117.075;  177.125;    0.000
877.015; 2098.075;  212.125;    0.000
877.195; 2212.075;  166.125;    0.000
877.376; 2067.075;  157.125;    0.000
877.556; 2115.075;  175.125;    0.000
877.737; 2089.075;  220.125;    0.000
877.918; 2085.075;  163.125;    0.000
878.098; 2012.075;  166.125;    0.000
878.279; 2030.075;  136.125;    0.000
878.459; 2006.075;  167.125;    0.000
878.640; 1961.075;  167.125;    0.000
878.820; 1991.075;  155.125;    0.000
879.000; 1982.075;  158.125;    0.000
879.181; 2005.075;  155.125;    0.000
879.361; 2037.075;  181.125;    0.000
879.542; 1975.075;  181.125;    0.000
879.722; 2048.075;  117.125;    0.000
879.902; 1989.075;  180.125;    0.000
880.083; 2019.075;  139.125;    0.000
880.263; 2135.075;  168.125;    0.000
880.443; 2124.075;  206.125;    0.000
880.623; 2458.075;  132.125;    0.000
880.803; 2613.075;  149.125;    0.000
880.984; 2352.075;  189.125;    0.000
881.164; 2218.075;  171.125;    0.000
881.344; 2226.075;  150.125;    0.000
881.524; 2149.075;  185.125;    0.000
881.704; 2121.075;  152.125;    0.000
881.884; 2134.075;  188.125;    0.000
882.064; 2215.075;  155.125;    0.000
882.244; 2259.075;  182.125;    0.000
882.424; 2219.075;  154.125;    0.000
882.604; 2069.075;  175.125;    0.000
882.784; 2125.075;  137.125;    0.000
882.964; 2064.075;  135.125;    0.000
883.144; 2076.075;  142.125;    0.000
883.324; 2022.075;  192.125;    0.000
883.504; 2093.075;  193.125;    0.000
883.683; 1877.075;  208.125;    0.000
883.863; 1976.075;  127.125;    0.000
884.043; 1956.075;  140.125;    0.000
884.223; 1887.075;  167.125;    0.000
884.402; 1877.075;  156.125;    0.000
884.582; 1905.075;  185.125;    0.000
884.762; 1954.075;  187.125;    0.000
884.941; 1916.075;  201.125;    0.000
885.121; 1908.075;  157.125;    0.000
885.301; 1915.075;  173.125;    0.000
885.480; 1893.075;  158.125;    0.000
885.660; 1871.075;  153.125;    0.000
885.839; 1908.075;  144.125;    0.000
886.019; 1878.075;  184.125;    0.000
886.198; 1854.075;  132.125;    0.000
886.378; 1853.075;  124.125;    0.000
886.557; 1802.075;  146.125;    0.000
886.737; 1858.075;  157.125;    0.000
886.916; 1819.075;  203.125;    0.000
887.095; 1825.075;  151.125;    0.000
887.275; 1819.075;  143.125;    0.000
887.454; 1853.075;  140.125;    0.000
887.633; 1749.075;  196.125;    0.000
887.813; 1878.075;  161.125;    0.000
887.992; 1941.075;  183.125;    0.000
888.171; 1814.075;  153.125;    0.000
888.350; 1813.075;  185.125;    0.000
888.530; 1793.075;  163.125;    0.000
888.709; 1881.075;  174.125;    0.000
888.888; 1849.075;  179.125;    0.000
889.067; 1809.075;  178.125;    0.000
889.246; 1857.075;  184.125;    0.000
889.425; 1853.075;  169.125;    0.000
889.604; 1891.075;  210.125;    0.000
889.783; 1915.075;  183.125;    0.000
889.962; 1799.075;  116.125;    0.000
890.141; 1801.075;  179.125;    0.000
890.320; 1781.075;  182.125;    0.000
890.499; 1820.075;  188.125;    0.000
890.678; 1824.075;  167.125;    0.000
890.857; 1770.075;  141.125;    0.000
891.036; 1847.075;  179.125;    0.000
891.214; 1765.075;  156.125;    0.000
891.393; 1790.075;  209.125;    0.000
891.572; 1832.075;  181.125;    0.000
891.751; 1769.075;  172.125;    0.000
891.930; 1824.075;  169.125;    0.000
892.108; 1739.075;  131.125;    0.000
892.287; 1887.075;  162.125;    0.000
892.466; 1852.075;  178.125;    0.000
892.644; 1887.075;  161.125;    0.000
892.823; 1764.075;  180.125;    0.000
893.001; 1808.075;  179.125;    0.000
893.180; 1776.075;  152.125;    0.000
893.359; 1852.075;  184.125;    0.000
893.537; 1826.075;  178.125;    0.000
893.716; 1814.075;  169.125;    0.000
893.894; 1842.075;  159.125;    0.000
894.073; 1834.075;  179.125;    0.000
894.251; 1786.075;  167.125;    0.000
894.429; 1711.075;  142.125;    0.000
894.608; 1829.075;  166.125;    0.000
894.786; 1887.075;  153.125;    0.000
894.964; 1783.075;  181.125;    0.000
895.143; 1813.075;  161.125;    0.000
895.321; 1780.075;  198.125;    0.000
895.499; 1795.075;  184.125;    0.000
895.677; 1896.075;  178.125;    0.000
895.856; 1806.075;  226.125;    0.000
896.034; 1835.075;  180.125;    0.000
896.212; 1870.075;  200.125;    0.000
896.390; 1832.075;  161.125;    0.000
896.568; 1832.075;  204.125;    0.000
896.746; 1863.075;  136.125;    0.000
896.924; 1752.075;  171.125;    0.000
897.102; 1867.075;  203.125;    0.000
897.280; 1864.075;  142.125;    0.000
897.458; 1854.075;  159.125;    0.000
897.636; 1826.075;  163.125;    0.000
897.814; 1766.075;  137.125;    0.000
897.992; 1904.075;  199.125;    0.000
898.170; 1876.075;  176.125;    0.000
898.348; 1821.075;  195.125;    0.000
898.526; 1847.075;  199.125;    0.000
898.704; 1833.075;  260.125;    0.000
898.882; 1848.075;  185.125;    0.000
899.059; 1896.075;  169.125;    0.000
899.237; 1879.075;  197.125;    0.000
899.415; 1904.075;  207.125;    0.000
899.593; 1917.075;  169.125;    0.000
899.770; 1954.075;  182.125;    0.000
899.948; 1896.075;  198.125;    0.000
900.125; 1810.075;  200.125;    0.000
900.303; 1882.075;  165.125;    0.000
900.481; 1891.075;  182.125;    0.000
900.658; 1985.075;  206.125;    0.000
900.836; 1864.075;  188.125;    0.000
901.013; 1931.075;  169.125;    0.000
901.191; 1943.075;  172.125;    0.000
901.368; 1990.075;  170.125;    0.000
901.546; 1933.075;  234.125;    0.000
901.723; 1890.075;  173.125;    0.000
901.901; 1922.075;  190.125;    0.000
902.078; 1998.075;  145.125;    0.000
902.255; 1967.075;  204.125;    0.000
902.433; 2019.075;  198.125;    0.000
902.610; 2001.075;  190.125;    0.000
902.787; 2037.075;  204.125;    0.000
902.964; 2139.075;  208.125;    0.000
903.142; 2086.075;  187.125;    0.000
903.319; 2136.075;  216.125;    0.000
903.496; 2033.075;  186.125;    0.000
903.673; 2109.075;  201.125;    0.000
903.850; 2132.075;  195.125;    0.000
904.027; 2215.075;  211.125;    0.000
904.204; 2232.075;  197.125;    0.000
904.381; 2367.075;  198.125;    0.000
904.558; 2495.075;  188.125;    0.000
904.735; 2670.075;  207.125;    0.000
904.912; 2744.075;  217.125;    0.000
905.089; 2766.075;  188.125;    0.000
905.266; 2582.075;  160.125;    0.000
905.443; 2566.075;  221.125;    0.000
905.620; 2313.075;  163.125;    0.000
905.797; 2324.075;  186.125;    0.000
905.974; 2343.075;  205.125;    0.000
906.151; 2313.075;  159.125;    0.000
906.327; 2265.075;  206.125;    0.000
906.504; 2419.075;  201.125;    0.000
906.681; 2154.075;  202.125;    0.000
906.858; 2216.075;  188.125;    0.000
907.034; 2195.075;  207.125;    0.000
907.211; 2145.075;  182.125;    0.000
907.388; 2094.075;  184.125;    0.000
907.564; 2119.075;  148.125;    0.000
907.741; 2092.075;  181.125;    0.000
907.917; 2022.075;  191.125;    0.000
908.094; 2081.075;  210.125;    0.000
908.271; 2019.075;  171.125;    0.000
908.447; 1972.075;  241.125;    0.000
908.623; 2022.075;  188.125;    0.000
908.800; 2003.075;  205.125;    0.000
908.976; 2013.075;  210.125;    0.000
909.153; 2072.075;  193.125;    0.000
909.329; 1954.075;  206.125;    0.000
909.505; 1919.075;  181.125;    0.000
909.682; 1986.075;  192.125;    0.000
909.858; 1937.075;  134.125;    0.000
910.034; 1988.075;  214.125;    0.000
910.211; 1945.075;  182.125;    0.000
910.387; 2048.075;  194.125;    0.000
910.563; 1955.075;  199.125;    0.000
910.739; 1897.075;  188.125;    0.000
910.915; 1940.075;  192.125;    0.000
911.091; 1891.075;  198.125;    0.000
911.268; 1922.075;  178.125;    0.000
911.444; 1996.075;  201.125;    0.000
911.620; 1833.075;  181.125;    0.000
911.796; 1868.075;  185.125;    0.000
911.972; 1930.075;  176.125;    0.000
912.148; 1955.075;  196.125;    0.000
912.324; 1934.075;  192.125;    0.000
912.500; 1907.075;  204.125;    0.000
912.676; 1832.075;  164.125;    0.000
912.851; 1937.075;  193.125;    0.000
913.027; 1926.075;  175.125;    0.000
913.203; 1937.075;  193.125;    0.000
913.379; 1866.075;  213.125;    0.000
913.555; 1874.075;  211.125;    0.000
913.730; 1815.075;  194.125;    0.000
913.906; 1887.075;  153.125;    0.000
914.082; 1967.075;  212.125;    0.000
914.258; 1993.075;  194.125;    0.000
914.433; 1923.075;  191.125;    0.000
914.609; 1860.075;  208.125;    0.000
914.784; 1892.075;  176.125;    0.000
914.960; 1900.075;  227.125;    0.000
915.136; 1859.075;  152.125;    0.000
915.311; 1940.075;  171.125;    0.000
915.487; 1882.075;  173.125;    0.000
915.662; 1966.075;  189.125;    0.000
915.838; 1890.075;  179.125;    0.000
916.013; 1966.075;  191.125;    0.000
916.189; 1926.075;  207.125;    0.000
916.364; 1885.075;  194.125;    0.000
916.539; 1971.075;  174.125;    0.000
916.715; 1883.075;  207.125;    0.000
916.890; 1965.075;  193.125;    0.000
917.065; 1941.075;  199.125;    0.000
917.240; 1907.075;  214.125;    0.000
917.416; 1868.075;  194.125;    0.000
917.591; 1958.075;  213.125;    0.000
917.766; 1941.075;  194.125;    0.000
917.941; 1909.075;  201.125;    0.000
918.116; 1934.075;  198.125;    0.000
918.292; 1976.075;  176.125;    0.000
918.467; 1963.075;  190.125;    0.000
918.642; 1913.075;  200.125;    0.000
918.817; 2019.075;  186.125;    0.000
918.992; 1915.075;  174.125;    0.000
919.167; 1988.075;  197.125;    0.000
919.342; 1950.075;  188.125;    0.000
919.517; 1993.075;  179.125;    0.000
919.692; 1986.075;  182.125;    0.000
919.867; 2044.075;  216.125;    0.000
920.041; 1952.075;  208.125;    0.000
920.216; 2099.075;  223.125;    0.000
920.391; 2101.075;  203.125;    0.000
920.566; 2137.075;  202.125;    0.000
920.741; 2116.075;  197.125;    0.000
920.915; 2230.075;  223.125;    0.000
921.090; 2256.075;  183.125;    0.000
921.265; 2453.075;  169.125;    0.000
921.439; 2643.075;  212.125;    0.000
921.614; 2430.075;  190.125;    0.000
921.789; 2345.075;  177.125;    0.000
921.963; 2276.075;  233.125;    0.000
922.138; 2221.075;  156.125;    0.000
922.312; 2202.075;  193.125;    0.000
922.487; 2283.075;  208.125;    0.000
922.661; 2311.075;  212.125;    0.000
922.836; 2372.075;  210.125;    0.000
923.010; 2401.075;  183.125;    0.000
923.185; 2305.075;  228.125;    0.000
923.359; 2286.075;  227.125;    0.000
923.534; 2274.075;  189.125;    0.000
923.708; 2310.075;  210.125;    0.000
923.882; 2409.075;  217.125;    0.000
924.057; 2353.075;  195.125;    0.000
924.231; 2309.075;  201.125;    0.000
924.405; 2261.075;  188.125;    0.000
924.579; 2231.075;  188.125;    0.000
924.753; 2243.075;  174.125;    0.000
924.928; 2237.075;  179.125;    0.000
925.102; 2201.075;  186.125;    0.000
925.276; 2169.075;  201.125;    0.000
925.450; 2182.075;  211.125;    0.000
925.624; 2168.075;  238.125;    0.000
925.798; 2255.075;  191.125;    0.000
925.972; 2303.075;  192.125;    0.000
926.146; 2395.075;  198.125;    0.000
926.320; 2455.075;  151.125;    0.000
926.494; 2626.075;  202.125;    0.000
926.668; 2618.075;  197.125;    0.000
926.842; 2626.075;  177.125;    0.000
927.016; 2606.075;  202.125;    0.000
927.190; 2742.075;  207.125;    0.000
927.363; 2591.075;  180.125;    0.000
927.537; 2567.075;  212.125;    0.000
927.711; 2487.075;  148.125;    0.000
927.885; 2451.075;  196.125;    0.000
928.058; 2511.075;  173.125;    0.000
928.232; 2488.075;  219.125;    0.000
928.406; 2386.075;  141.125;    0.000
928.579; 2430.075;  157.125;    0.000
928.753; 2248.075;  205.125;    0.000
928.927; 2282.075;  196.125;    0.000
929.100; 2322.075;  237.125;    0.000
929.274; 2275.075;  166.125;    0.000
929.447; 2229.075;  150.125;    0.000
929.621; 2214.075;  188.125;    0.000
929.794; 2245.075;  169.125;    0.000
929.968; 2159.075;  194.125;    0.000
930.141; 2272.075;  226.125;    0.000
930.315; 2173.075;  196.125;    0.000
930.488; 2257.075;  233.125;    0.000
930.661; 2125.075;  188.125;    0.000
930.835; 2132.075;  170.125;    0.000
931.008; 2148.075;  176.125;    0.000
931.181; 2125.075;  175.125;    0.000
931.354; 2121.075;  212.125;    0.000
931.528; 2037.075;  177.125;    0.000
931.701; 2068.075;  218.125;    0.000
931.874; 2020.075;  175.125;    0.000
932.047; 2047.075;  157.125;    0.000
932.220; 1981.075;  187.125;    0.000
932.393; 1929.075;  166.125;    0.000
932.566; 1896.075;  168.125;    0.000
932.739; 2028.075;  203.125;    0.000
932.912; 1916.075;  202.125;    0.000
933.085; 1999.075;  209.125;    0.000
933.258; 1967.075;  196.125;    0.000
933.431; 1992.075;  207.125;    0.000
933.604; 1994.075;  201.125;    0.000
933.777; 2050.075;  202.125;    0.000
933.950; 1946.075;  184.125;    0.000
934.123; 1976.075;  167.125;    0.000
934.296; 1958.075;  209.125;    0.000
934.468; 1905.075;  216.125;    0.000
934.641; 1893.075;  156.125;    0.000
934.814; 1977.075;  215.125;    0.000
934.987; 1948.075;  201.125;    0.000
935.159; 2005.075;  176.125;    0.000
935.332; 1853.075;  203.125;    0.000
935.505; 1985.075;  163.125;    0.000
935.677; 1889.075;  169.125;    0.000
935.850; 1930.075;  178.125;    0.000
936.022; 1901.075;  187.125;    0.000
936.195; 1957.075;  207.125;    0.000
936.367; 1947.075;  191.125;    0.000
936.540; 1985.075;  214.125;    0.000
936.712; 1993.075;  202.125;    0.000
936.885; 1935.075;  195.125;    0.000
937.057; 1915.075;  173.125;    0.000
937.229; 1980.075;  179.125;    0.000
937.402; 2009.075;  174.125;    0.000
937.574; 1969.075;  140.125;    0.000
937.746; 2018.075;  153.125;    0.000
937.919; 2126.075;  196.125;    0.000
938.091; 2100.075;  173.125;    0.000
938.263; 2167.075;  206.125;    0.000
938.435; 2253.075;  213.125;    0.000
938.608; 2487.075;  204.125;    0.000
938.780; 2689.075;  199.125;    0.000
938.952; 2728.075;  190.125;    0.000
939.124; 2720.075;  182.125;    0.000
939.296; 2973.075;  188.125;    0.000
939.468; 3048.075;  119.125;    0.000
939.640; 2815.075;  171.125;    0.000
939.812; 2748.075;  222.125;    0.000
939.984; 2540.075;  172.125;    0.000
940.156; 2493.075;  171.125;    0.000
940.328; 2384.075;  215.125;    0.000
940.500; 2272.075;  179.125;    0.000
940.672; 2288.075;  178.125;    0.000
940.843; 2154.075;  193.125;    0.000
941.015; 2093.075;  207.125;    0.000
941.187; 2094.075;  179.125;    0.000
941.359; 2158.075;  191.125;    0.000
941.531; 2038.075;  160.125;    0.000
941.702; 2111.075;  208.125;    0.000
941.874; 2025.075;  143.125;    0.000
942.046; 2065.075;  189.125;    0.000
942.217; 1899.075;  167.125;    0.000
942.389; 2091.075;  199.125;    0.000
942.560; 1950.075;  179.125;    0.000
942.732; 1993.075;  209.125;    0.000
942.904; 1979.075;  180.125;    0.000
943.075; 1944.075;  197.125;    0.000
943.247; 1872.075;  207.125;    0.000
943.418; 1863.075;  183.125;    0.000
943.589; 1969.075;  176.125;    0.000
943.761; 1940.075;  165.125;    0.000
943.932; 1886.075;  170.125;    0.000
944.104; 1888.075;  147.125;    0.000
944.275; 1864.075;  149.125;    0.000
944.446; 1957.075;  191.125;    0.000
944.617; 1822.075;  128.125;    0.000
944.789; 1809.075;  166.125;    0.000
944.960; 1862.075;  195.125;    0.000
945.131; 1880.075;  164.125;    0.000
945.302; 1935.075;  229.125;    0.000
945.473; 1777.075;  153.125;    0.000
945.645; 1867.075;  166.125;    0.000
945.816; 1859.075;  187.125;    0.000
945.987; 1844.075;  193.125;    0.000
946.158; 1882.075;  166.125;    0.000
946.329; 1975.075;  196.125;    0.000
946.500; 1878.075;  152.125;    0.000
946.671; 1860.075;  161.125;    0.000
946.842; 1830.075;  176.125;    0.000
947.013; 1753.075;  188.125;    0.000
947.183; 1824.075;  213.125;    0.000
947.354; 1841.075;  163.125;    0.000
947.525; 1856.075;  204.125;    0.000
947.696; 1813.075;  159.125;    0.000
947.867; 1845.075;  197.125;    0.000
948.037; 1756.075;  174.125;    0.000
948.208; 1827.075;  163.125;    0.000
948.379; 1850.075;  189.125;    0.000
948.550; 1821.075;  173.125;    0.000
948.720; 1835.075;  186.125;    0.000
948.891; 1862.075;  166.125;    0.000
949.061; 1790.075;  197.125;    0.000
949.232; 1739.075;  168.125;    0.000
949.403; 1711.075;  188.125;    0.000
949.573; 1804.075;  164.125;    0.000
949.744; 1857.075;  194.125;    0.000
949.914; 1749.075;  154.125;    0.000
950.085; 1792.075;  197.125;    0.000
950.255; 1734.075;  187.125;    0.000
950.425; 1786.075;  193.125;    0.000
950.596; 1729.075;  182.125;    0.000
950.766; 1807.075;  202.125;    0.000
950.936; 1732.075;  230.125;    0.000
951.107; 1759.075;  133.125;    0.000
951.277; 1745.075;  234.125;    0.000
951.447; 1809.075;  200.125;    0.000
951.617; 1784.075;  212.125;    0.000
951.788; 1764.075;  176.125;    0.000
951.958; 1810.075;  218.125;    0.000
952.128; 1751.075;  198.125;    0.000
952.298; 1829.075;  185.125;    0.000
952.468; 1688.075;  231.125;    0.000
952.638; 1748.075;  213.125;    0.000
952.808; 1703.075;  218.125;    0.000
952.978; 1692.075;  252.125;    0.000
953.148; 1797.075;  200.125;    0.000
953.318; 1746.075;  243.125;    0.000
953.488; 1718.075;  140.125;    0.000
953.658; 1718.075;  208.125;    0.000
953.828; 1688.075;  179.125;    0.000
953.998; 1659.075;  211.125;    0.000
954.167; 1763.075;  197.125;    0.000
954.337; 1681.075;  217.125;    0.000
954.507; 1765.075;  219.125;    0.000
954.677; 1694.075;  201.125;    0.000
954.846; 1814.075;  241.125;    0.000
955.016; 1758.075;  222.125;    0.000
955.186; 1677.075;  200.125;    0.000
955.355; 1719.075;  247.125;    0.000
955.525; 1757.075;  212.125;    0.000
955.695; 1727.075;  200.125;    0.000
955.864; 1743.075;  196.125;    0.000
956.034; 1649.075;  195.125;    0.000
956.203; 1694.075;  243.125;    0.000
956.373; 1683.075;  197.125;    0.000
956.542; 1694.075;  237.125;    0.000
956.711; 1724.075;  249.125;    0.000
956.881; 1609.075;  235.125;    0.000
957.050; 1765.075;  259.125;    0.000
957.220; 1666.075;  234.125;    0.000
957.389; 1671.075;  250.125;    0.000
957.558; 1658.075;  214.125;    0.000
957.727; 1677.075;  225.125;    0.000
957.897; 1645.075;  211.125;    0.000
958.066; 1685.075;  200.125;    0.000
958.235; 1714.075;  202.125;    0.000
958.404; 1701.075;  242.125;    0.000
958.573; 1715.075;  222.125;    0.000
958.743; 1631.075;  191.125;    0.000
958.912; 1687.075;  183.125;    0.000
959.081; 1717.075;  212.125;    0.000
959.250; 1647.075;  192.125;    0.000
959.419; 1670.075;  238.125;    0.000
959.588; 1628.075;  205.125;    0.000
959.757; 1704.075;  213.125;    0.000
959.926; 1685.075;  217.125;    0.000
960.094; 1676.075;  215.125;    0.000
960.263; 1599.075;  220.125;    0.000
960.432; 1682.075;  164.125;    0.000
960.601; 1602.075;  228.125;    0.000
960.770; 1699.075;  176.125;    0.000
960.939; 1666.075;  201.125;    0.000
961.107; 1570.075;  183.125;    0.000
961.276; 1611.075;  199.125;    0.000
961.445; 1619.075;  205.125;    0.000
961.613; 1630.075;  183.125;    0.000
961.782; 1623.075;  216.125;    0.000
961.951; 1675.075;  169.125;    0.000
962.119; 1604.075;  211.125;    0.000
962.288; 1586.075;  204.125;    0.000
962.456; 1577.075;  187.125;    0.000
962.625; 1606.075;  223.125;    0.000
962.793; 1582.075;  200.125;    0.000
962.962; 1564.075;  185.125;    0.000
963.130; 1561.075;  195.125;    0.000
963.298; 1561.075;  187.125;    0.000
963.467; 1707.075;  247.125;    0.000
963.635; 1595.075;  165.125;    0.000
963.803; 1656.075;  192.125;    0.000
963.972; 1631.075;  191.125;    0.000
964.140; 1587.075;  163.125;    0.000
964.308; 1634.075;  161.125;    0.000
964.477; 1676.075;  182.125;    0.000
964.645; 1604.075;  195.125;    0.000
964.813; 1680.075;  165.125;    0.000
964.981; 1660.075;  193.125;    0.000
965.149; 1673.075;  174.125;    0.000
965.317; 1680.075;  194.125;    0.000
965.485; 1628.075;  209.125;    0.000
965.653; 1676.075;  210.125;    0.000
965.821; 1642.075;  194.125;    0.000
965.989; 1693.075;  182.125;    0.000
966.157; 1658.075;  180.125;    0.000
966.325; 1662.075;  198.125;    0.000
966.493; 1616.075;  182.125;    0.000
966.661; 1657.075;  200.125;    0.000
966.829; 1587.075;  190.125;    0.000
966.996; 1739.075;  221.125;    0.000
967.164; 1655.075;  176.125;    0.000
967.332; 1638.075;  228.125;    0.000
967.500; 1577.075;  177.125;    0.000
967.667; 1604.075;  202.125;    0.000
967.835; 1716.075;  220.125;    0.000
968.003; 1586.075;  183.125;    0.000
968.170; 1607.075;  163.125;    0.000
968.338; 1607.075;  162.125;    0.000
968.505; 1646.075;  198.125;    0.000
968.673; 1632.075;  213.125;    0.000
968.841; 1657.075;  131.125;    0.000
969.008; 1652.075;  225.125;    0.000
969.175; 1640.075;  202.125;    0.000
969.343; 1665.075;  222.125;    0.000
969.510; 1670.075;  230.125;    0.000
969.678; 1653.075;  161.125;    0.000
969.845; 1650.075;  208.125;    0.000
970.012; 1636.075;  186.125;    0.000
970.180; 1649.075;  226.125;    0.000
970.347; 1583.075;  222.125;    0.000
970.514; 1629.075;  206.125;    0.000
970.681; 1619.075;  173.125;    0.000
970.849; 1650.075;  190.125;    0.000
971.016; 1593.075;  220.125;    0.000
971.183; 1638.075;  202.125;    0.000
971.350; 1723.075;  196.125;    0.000
971.517; 1726.075;  218.125;    0.000
971.684; 1727.075;  228.125;    0.000
971.851; 1723.075;  235.125;    0.000
972.018; 1675.075;  200.125;    0.000
972.185; 1624.075;  183.125;    0.000
972.352; 1647.075;  216.125;    0.000
972.519; 1686.075;  227.125;    0.000
972.686; 1686.075;  209.125;    0.000
972.853; 1648.075;  157.125;    0.000
973.020; 1652.075;  179.125;    0.000
973.186; 1662.075;  173.125;    0.000
973.353; 1669.075;  189.125;    0.000
973.520; 1631.075;  228.125;    0.000
973.687; 1658.075;  190.125;    0.000
973.853; 1708.075;  197.125;    0.000
974.020; 1673.075;  208.125;    0.000
974.187; 1653.075;  158.125;    0.000
974.353; 1670.075;  201.125;    0.000
974.520; 1653.075;  158.125;    0.000
974.687; 1688.075;  192.125;    0.000
974.853; 1657.075;  177.125;    0.000
975.020; 1561.075;  212.125;    0.000
975.186; 1691.075;  200.125;    0.000
975.353; 1605.075;  208.125;    0.000
975.519; 1636.075;  169.125;    0.000
975.685; 1609.075;  176.125;    0.000
975.852; 1611.075;  201.125;    0.000
976.018; 1632.075;  209.125;    0.000
976.184; 1681.075;  197.125;    0.000
976.351; 1646.075;  196.125;    0.000
976.517; 1615.075;  243.125;    0.000
976.683; 1606.075;  210.125;    0.000
976.849; 1624.075;  226.125;    0.000
977.016; 1613.075;  218.125;    0.000
977.182; 1659.075;  213.125;    0.000
977.348; 1624.075;  205.125;    0.000
977.514; 1561.075;  210.125;    0.000
977.680; 1594.075;  226.125;    0.000
977.846; 1643.075;  206.125;    0.000
978.012; 1518.075;  222.125;    0.000
978.178; 1616.075;  216.125;    0.000
978.344; 1625.075;  172.125;    0.000
978.510; 1539.075;  210.125;    0.000
978.676; 1600.075;  184.125;    0.000
978.842; 1627.075;  190.125;    0.000
979.008; 1652.075;  203.125;    0.000
979.174; 1653.075;  211.125;    0.000
979.340; 1614.075;  190.125;    0.000
979.505; 1594.075;  235.125;    0.000
979.671; 1536.075;  182.125;    0.000
979.837; 1688.075;  235.125;    0.000
980.003; 1629.075;  183.125;    0.000
980.168; 1647.075;  220.125;    0.000
980.334; 1599.075;  161.125;    0.000
980.499; 1642.075;  212.125;    0.000
980.665; 1702.075;  219.125;    0.000
980.831; 1629.075;  201.125;    0.000
980.996; 1616.075;  189.125;    0.000
981.162; 1692.075;  222.125;    0.000
981.327; 1597.075;  173.125;    0.000
981.493; 1587.075;  197.125;    0.000
981.658; 1607.075;  178.125;    0.000
981.823; 1618.075;  196.125;    0.000
981.989; 1602.075;  248.125;    0.000
982.154; 1709.075;  222.125;    0.000
982.319; 1716.075;  226.125;    0.000
982.485; 1678.075;  188.125;    0.000
982.650; 1791.075;  203.125;    0.000
982.815; 1689.075;  237.125;    0.000
982.980; 1689.075;  210.125;    0.000
983.146; 1694.075;  202.125;    0.000
983.311; 1673.075;  195.125;    0.000
983.476; 1686.075;  207.125;    0.000
983.641; 1575.075;  198.125;    0.000
983.806; 1611.075;  136.125;    0.000
983.971; 1611.075;  248.125;    0.000
984.136; 1591.075;  213.125;    0.000
984.301; 1653.075;  181.125;    0.000
984.466; 1626.075;  210.125;    0.000
984.631; 1578.075;  219.125;    0.000
984.796; 1690.075;  207.125;    0.000
984.961; 1664.075;  214.125;    0.000
985.126; 1687.075;  218.125;    0.000
985.291; 1651.075;  214.125;    0.000
985.455; 1687.075;  187.125;    0.000
985.620; 1609.075;  191.125;    0.000
985.785; 1574.075;  190.125;    0.000
985.950; 1638.075;  184.125;    0.000
986.114; 1656.075;  242.125;    0.000
986.279; 1610.075;  251.125;    0.000
986.444; 1621.075;  177.125;    0.000
986.608; 1731.075;  216.125;    0.000
986.773; 1653.075;  211.125;    0.000
986.937; 1720.075;  244.125;    0.000
987.102; 1635.075;  187.125;    0.000
987.266; 1625.075;  178.125;    0.000
987.431; 1634.075;  205.125;    0.000
987.595; 1649.075;  221.125;    0.000
987.760; 1604.075;  205.125;    0.000
987.924; 1630.075;  195.125;    0.000
988.088; 1601.075;  184.125;    0.000
988.253; 1641.075;  188.125;    0.000
988.417; 1695.075;  196.125;    0.000
988.581; 1654.075;  218.125;    0.000
988.746; 1581.075;  203.125;    0.000
988.910; 1753.075;  195.125;    0.000
989.074; 1643.075;  187.125;    0.000
989.238; 1626.075;  243.125;    0.000
989.402; 1649.075;  242.125;    0.000
989.566; 1725.075;  205.125;    0.000
989.731; 1665.075;  195.125;    0.000
989.895; 1680.075;  211.125;    0.000
990.059; 1571.075;  175.125;    0.000
990.223; 1615.075;  176.125;    0.000
990.387; 1663.075;  234.125;    0.000
990.551; 1677.075;  231.125;    0.000
990.714; 1660.075;  209.125;    0.000
990.878; 1660.075;  187.125;    0.000
991.042; 1682.075;  183.125;    0.000
991.206; 1638.075;  216.125;    0.000
991.370; 1617.075;  257.125;    0.000
991.534; 1592.075;  188.125;    0.000
991.697; 1692.075;  203.125;    0.000
991.861; 1697.075;  219.125;    0.000
992.025; 1693.075;  221.125;    0.000
992.188; 1703.075;  188.125;    0.000
992.352; 1628.075;  205.125;    0.000
992.516; 1642.075;  189.125;    0.000
992.679; 1613.075;  207.125;    0.000
992.843; 1651.075;  210.125;    0.000
993.006; 1648.075;  191.125;    0.000
993.170; 1718.075;  228.125;    0.000
993.333; 1623.075;  142.125;    0.000
993.497; 1609.075;  175.125;    0.000
993.660; 1570.075;  220.125;    0.000
993.824; 1630.075;  193.125;    0.000
993.987; 1695.075;  219.125;    0.000
994.150; 1606.075;  166.125;    0.000
994.314; 1655.075;  207.125;    0.000
994.477; 1647.075;  227.125;    0.000
994.640; 1675.075;  210.125;    0.000
994.803; 1722.075;  219.125;    0.000
994.967; 1645.075;  192.125;    0.000
995.130; 1670.075;  197.125;    0.000
995.293; 1698.075;  189.125;    0.000
995.456; 1648.075;  180.125;    0.000
995.619; 1753.075;  239.125;    0.000
995.782; 1655.075;  209.125;    0.000
995.945; 1677.075;  216.125;    0.000
996.108; 1675.075;  198.125;    0.000
996.271; 1682.075;  205.125;    0.000
996.434; 1719.075;  205.125;    0.000
996.597; 1642.075;  208.125;    0.000
996.760; 1579.075;  205.125;    0.000
996.923; 1588.075;  174.125;    0.000
997.086; 1665.075;  198.125;    0.000
997.248; 1660.075;  214.125;    0.000
997.411; 1641.075;  237.125;    0.000
997.574; 1666.075;  182.125;    0.000
997.737; 1664.075;  188.125;    0.000
997.899; 1637.075;  216.125;    0.000
998.062; 1636.075;  210.125;    0.000
998.225; 1637.075;  202.125;    0.000
998.387; 1629.075;  202.125;    0.000
998.550; 1662.075;  193.125;    0.000
998.712; 1613.075;  225.125;    0.000
998.875; 1664.075;  228.125;    0.000
999.037; 1577.075;  186.125;    0.000
999.200; 1603.075;  212.125;    0.000
999.362; 1681.075;  234.125;    0.000
999.525; 1621.075;  170.125;    0.000
999.687; 1610.075;  191.125;    0.000
999.849; 1689.075;  218.125;    0.000
1000.012; 1686.075;  187.125;    0.000
1000.174; 1713.075;  216.125;    0.000
1000.336; 1721.075;  194.125;    0.000
1000.499; 1639.075;  209.125;    0.000
1000.661; 1755.075;  208.125;    0.000
1000.823; 1639.075;  197.125;    0.000
1000.985; 1705.075;  201.125;    0.000
1001.147; 1767.075;  234.125;    0.000
1001.309; 1756.075;  180.125;    0.000
1001.471; 1684.075;  223.125;    0.000
1001.633; 1798.075;  198.125;    0.000
1001.796; 1797.075;  200.125;    0.000
1001.958; 1824.075;  204.125;    0.000
1002.119; 1826.075;  193.125;    0.000
1002.281; 1852.075;  205.125;    0.000
1002.443; 1929.075;  236.125;    0.000
1002.605; 2043.075;  197.125;    0.000
1002.767; 2242.075;  223.125;    0.000
1002.929; 2321.075;  220.125;    0.000
1003.091; 2344.075;  214.125;    0.000
1003.252; 2525.075;  233.125;    0.000
1003.414; 2540.075;  230.125;    0.000
1003.576; 2755.075;  203.125;    0.000
1003.738; 2835.075;  201.125;    0.000
1003.899; 2956.075;  222.125;    0.000
1004.061; 3149.075;  208.125;    0.000
1004.222; 3238.075;  194.125;    0.000
1004.384; 3434.075;  205.125;    0.000
1004.546; 3566.075;  162.125;    0.000
1004.707; 3572.075;  232.125;    0.000
1004.869; 3567.075;  223.125;    0.000
1005.030; 3545.075;  204.125;    0.000
1005.191; 3489.075;  214.125;    0.000
1005.353; 3413.075;  226.125;    0.000
1005.514; 3144.075;  201.125;    0.000
1005.675; 2956.075;  205.125;    0.000
1005.837; 2865.075;  235.125;    0.000
1005.998; 2889.075;  210.125;    0.000
1006.159; 2781.075;  214.125;    0.000
1006.321; 2938.075;  236.125;    0.000
1006.482; 2944.075;  214.125;    0.000
1006.643; 3027.075;  213.125;    0.000
1006.804; 3235.075;  204.125;    0.000
1006.965; 3253.075;  212.125;    0.000
1007.126; 3267.075;  251.125;    0.000
1007.287; 3174.075;  238.125;    0.000
1007.448; 3236.075;  198.125;    0.000
1007.609; 3222.075;  241.125;    0.000
1007.770; 3093.075;  213.125;    0.000
1007.931; 3122.075;  225.125;    0.000
1008.092; 3043.075;  204.125;    0.000
1008.253; 3174.075;  220.125;    0.000
1008.414; 3229.075;  180.125;    0.000
1008.575; 3247.075;  224.125;    0.000
1008.736; 3233.075;  164.125;    0.000
1008.896; 3254.075;  247.125;    0.000
1009.057; 3173.075;  263.125;    0.000
1009.218; 3221.075;  233.125;    0.000
1009.379; 3220.075;  207.125;    0.000
1009.539; 3333.075;  221.125;    0.000
1009.700; 3393.075;  209.125;    0.000
1009.860; 3371.075;  217.125;    0.000
1010.021; 3345.075;  182.125;    0.000
1010.182; 3226.075;  233.125;    0.000
1010.342; 3145.075;  210.125;    0.000
1010.503; 3353.075;  232.125;    0.000
1010.663; 3476.075;  228.125;    0.000
1010.823; 3373.075;  212.125;    0.000
1010.984; 3381.075;  244.125;    0.000
1011.144; 3349.075;  200.125;    0.000
1011.305; 3423.075;  237.125;    0.000
1011.465; 3534.075;  225.125;    0.000
1011.625; 3689.075;  215.125;    0.000
1011.785; 3683.075;  235.125;    0.000
1011.946; 3683.075;  231.125;    0.000
1012.106; 3684.075;  206.125;    0.000
1012.266; 3671.075;  218.125;    0.000
1012.426; 3679.075;  249.125;    0.000
1012.586; 3754.075;  217.125;    0.000
1012.746; 3640.075;  231.125;    0.000
1012.906; 3642.075;  230.125;    0.000
1013.066; 3688.075;  260.125;    0.000
1013.226; 3740.075;  206.125;    0.000
1013.386; 3711.075;  220.125;    0.000
1013.546; 3572.075;  233.125;    0.000
1013.706; 3607.075;  194.125;    0.000
1013.866; 3810.075;  209.125;    0.000
1014.026; 3708.075;  204.125;    0.000
1014.186; 3670.075;  203.125;    0.000
1014.346; 3756.075;  244.125;    0.000
1014.505; 3936.075;  206.125;    0.000
1014.665; 3957.075;  210.125;    0.000
1014.825; 3830.075;  235.125;    0.000
1014.985; 4007.075;  227.125;    0.000
1015.144; 4200.075;  237.125;    0.000
1015.304; 4424.075;  196.125;    0.000
1015.464; 4281.075;  228.125;    0.000
1015.623; 4325.075;  235.125;    0.000
1015.783; 4672.075;  187.125;    0.000
1015.942; 5108.075;  184.125;    0.000
1016.102; 5114.075;  245.125;    0.000
1016.261; 4971.075;  203.125;    0.000
1016.420; 5773.075;  209.125;    0.000
1016.580; 6074.075;  235.125;    0.000
1016.739; 5924.075;  175.125;    0.000
1016.899; 5909.075;  220.125;    0.000
1017.058; 6284.075;  219.125;    0.000
1017.217; 6575.075;  238.125;    0.000
1017.376; 5957.075;  235.125;    0.000
1017.536; 5676.075;  195.125;    0.000
1017.695; 5821.075;  215.125;    0.000
1017.854; 5662.075;  231.125;    0.000
1018.013; 5416.075;  184.125;    0.000
1018.172; 5111.075;  179.125;    0.000
1018.331; 5506.075;  205.125;    0.000
1018.490; 5727.075;  203.125;    0.000
1018.649; 5805.075;  261.125;    0.000
1018.808; 6030.075;  253.125;    0.000
1018.967; 6318.075;  201.125;    0.000
1019.126; 6233.075;  216.125;    0.000
1019.285; 6192.075;  169.125;    0.000
1019.444; 6093.075;  226.125;    0.000
1019.603; 6139.075;  252.125;    0.000
1019.762; 5775.075;  206.125;    0.000
1019.921; 5757.075;  235.125;    0.000
1020.079; 6104.075;  192.125;    0.000
1020.238; 6839.075;  226.125;    0.000
1020.397; 6608.075;  231.125;    0.000
1020.555; 6034.075;  218.125;    0.000
1020.714; 6123.075;  235.125;    0.000
1020.873; 6584.075;  229.125;    0.000
1021.031; 6944.075;  234.125;    0.000
1021.190; 6410.075;  223.125;    0.000
1021.348; 6007.075;  186.125;    0.000
1021.507; 6700.075;  201.125;    0.000
1021.665; 7518.075;  222.125;    0.000
1021.824; 6988.075;  208.125;    0.000
1021.982; 6287.075;  209.125;    0.000
1022.141; 6130.075;  224.125;    0.000
1022.299; 7016.075;  214.125;    0.000
1022.457; 7657.075;  176.125;    0.000
1022.616; 6960.075;  211.125;    0.000
1022.774; 6106.075;  218.125;    0.000
1022.932; 6523.075;  205.125;    0.000
1023.090; 7750.075;  246.125;    0.000
1023.249; 7891.075;  249.125;    0.000
1023.407; 6964.075;  235.125;    0.000
1023.565; 5967.075;  202.125;    0.000
1023.723; 6476.075;  210.125;    0.000
1023.881; 7621.075;  206.125;    0.000
1024.039; 7822.075;  240.125;    0.000
1024.197; 6956.075;  275.125;    0.000
1024.355; 6384.075;  228.125;    0.000
1024.513; 6790.075;  234.125;    0.000
1024.671; 7773.075;  222.125;    0.000
1024.829; 7919.075;  241.125;    0.000
1024.987; 7212.075;  209.125;    0.000
1025.145; 6152.075;  227.125;    0.000
1025.302; 6807.075;  208.125;    0.000
1025.460; 7907.075;  210.125;    0.000
1025.618; 8272.075;  192.125;    0.000
1025.776; 7480.075;  220.125;    0.000
1025.933; 6514.075;  223.125;    0.000
1026.091; 6794.075;  189.125;    0.000
1026.249; 7694.075;  210.125;    0.000
1026.406; 8562.075;  231.125;    0.000
1026.564; 8050.075;  247.125;    0.000
1026.721; 7069.075;  213.125;    0.000
1026.879; 6775.075;  208.125;    0.000
1027.036; 7821.075;  222.125;    0.000
1027.194; 8359.075;  253.125;    0.000
1027.351; 8477.075;  239.125;    0.000
1027.509; 7449.075;  232.125;    0.000
1027.666; 6788.075;  251.125;    0.000
1027.823; 7905.075;  212.125;    0.000
1027.981; 8504.075;  260.125;    0.000
1028.138; 8993.075;  263.125;    0.000
1028.295; 7751.075;  251.125;    0.000
1028.452; 7190.075;  249.125;    0.000
1028.609; 7065.075;  259.125;    0.000
1028.767; 8236.075;  255.125;    0.000
1028.924; 8883.075;  201.125;    0.000
1029.081; 8492.075;  217.125;    0.000
1029.238; 8075.075;  230.125;    0.000
1029.395; 7169.075;  263.125;    0.000
1029.552; 7710.075;  207.125;    0.000
1029.709; 8566.075;  220.125;    0.000
1029.866; 8820.075;  214.125;    0.000
1030.023; 8628.075;  224.125;    0.000
1030.180; 7471.075;  209.125;    0.000
1030.337; 7457.075;  269.125;    0.000
1030.494; 8135.075;  207.125;    0.000
1030.650; 8642.075;  230.125;    0.000
1030.807; 9230.075;  217.125;    0.000
1030.964; 8456.075;  212.125;    0.000
1031.121; 7747.075;  220.125;    0.000
1031.277; 7324.075;  233.125;    0.000
1031.434; 8241.075;  266.125;    0.000
1031.591; 8953.075;  270.125;    0.000
1031.747; 9558.075;  229.125;    0.000
1031.904; 8966.075;  227.125;    0.000
1032.060; 8356.075;  210.125;    0.000
1032.217; 7907.075;  218.125;    0.000
1032.373; 9017.075;  190.125;    0.000
1032.530; 9633.075;  236.125;    0.000
1032.686;10915.075;  199.125;    0.000
1032.843;10574.075;  216.125;    0.000
1032.999; 9570.075;  204.125;    0.000
1033.155; 9621.075;  208.125;    0.000
1033.312; 9585.075;  231.125;    0.000
1033.468;11358.075;  213.125;    0.000
1033.624;12745.075;  235.125;    0.000
1033.780;13265.075;  233.125;    0.000
1033.937;13159.075;  201.125;    0.000
1034.093;11701.075;  233.125;    0.000
1034.249;11927.075;  214.125;    0.000
1034.405;11775.075;  245.125;    0.000
1034.561;12569.075;  228.125;    0.000
1034.717;14102.075;  234.125;    0.000
1034.873;13529.075;  248.125;    0.000
1035.029;13882.075;  220.125;    0.000
1035.185;12846.075;  294.125;    0.000
1035.341;11735.075;  231.125;    0.000
1035.497;13269.075;  254.125;    0.000
1035.653;13317.075;  225.125;    0.000
1035.809;15311.075;  243.125;    0.000
1035.964;16689.074;  216.125;    0.000
1036.120;15364.075;  199.125;    0.000
1036.276;15651.075;  220.125;    0.000
1036.432;15243.075;  210.125;    0.000
1036.587;14074.075;  225.125;    0.000
1036.743;15503.075;  245.125;    0.000
1036.899;16464.074;  219.125;    0.000
1037.054;16396.074;  157.125;    0.000
1037.210;18856.074;  208.125;    0.000
1037.365;17949.074;  230.125;    0.000
1037.521;17128.074;  236.125;    0.000
1037.676;16678.074;  193.125;    0.000
1037.832;14956.075;  246.125;    0.000
1037.987;15672.075;  231.125;    0.000
1038.143;16581.074;  234.125;    0.000
1038.298;18126.074;  219.125;    0.000
1038.453;18631.074;  230.125;    0.000
1038.609;20724.074;  254.125;    0.000
1038.764;21098.074;  249.125;    0.000
1038.919;19223.074;  224.125;    0.000
1039.074;19099.074;  209.125;    0.000
1039.229;17452.074;  214.125;    0.000
1039.385;17452.074;  268.125;    0.000
1039.540;18581.074;  268.125;    0.000
1039.695;19856.074;  229.125;    0.000
1039.850;22042.074;  252.125;    0.000
1040.005;22494.074;  248.125;    0.000
1040.160;24376.074;  215.125;    0.000
1040.315;23387.074;  239.125;    0.000
1040.470;22202.074;  210.125;    0.000
1040.625;20755.074;  239.125;    0.000
1040.780;20785.074;  251.125;    0.000
1040.935;20740.074;  247.125;    0.000
1041.089;21426.074;  215.125;    0.000
1041.244;23845.074;  210.125;    0.000
1041.399;25028.074;  237.125;    0.000
1041.554;27543.074;  253.125;    0.000
1041.708;29626.074;  227.125;    0.000
1041.863;28699.074;  219.125;    0.000
1042.018;27273.074;  246.125;    0.000
1042.172;27680.074;  236.125;    0.000
1042.327;24944.074;  272.125;    0.000
1042.481;24743.074;  197.125;    0.000
1042.636;25854.074;  213.125;    0.000
1042.791;26135.074;  250.125;    0.000
1042.945;30254.074;  267.125;    0.000
1043.099;33296.074;  257.125;    0.000
1043.254;32470.074;  206.125;    0.000
1043.408;34851.074;  266.125;    0.000
1043.563;37588.074;  232.125;    0.000
1043.717;34485.074;  241.125;    0.000
1043.871;33372.074;  248.125;    0.000
1044.025;33459.074;  234.125;    0.000
1044.180;31934.074;  222.125;    0.000
1044.334;32386.074;  235.125;    0.000
1044.488;34381.074;  270.125;    0.000
1044.642;36760.074;  215.125;    0.000
1044.796;41844.074;  212.125;    0.000
1044.950;44789.074;  228.125;    0.000
1045.104;48523.074;  223.125;    0.000
1045.258;49975.074;  236.125;    0.000
1045.412;45502.074;  225.125;    0.000
1045.566;44146.074;  245.125;    0.000
1045.720;43059.074;  201.125;    0.000
1045.874;41190.074;  229.125;    0.000
1046.028;39130.074;  243.125;    0.000
1046.182;38851.074;  212.125;    0.000
1046.336;39241.074;  256.125;    0.000
1046.489;39930.074;  234.125;    0.000
1046.643;42285.074;  246.125;    0.000
1046.797;46857.074;  219.125;    0.000
1046.951;47936.074;  231.125;    0.000
1047.104;48395.074;  285.125;    0.000
1047.258;50611.074;  256.125;    0.000
1047.411;53967.074;  232.125;    0.000
1047.565;52803.074;  269.125;    0.000
1047.719;49378.074;  213.125;    0.000
1047.872;47586.074;  210.125;    0.000
1048.026;44266.074;  251.125;    0.000
1048.179;43606.074;  213.125;    0.000
1048.332;43436.074;  212.125;    0.000
1048.486;43207.074;  218.125;    0.000
1048.639;44371.074;  218.125;    0.000
1048.792;46727.074;  247.125;    0.000
1048.946;51409.074;  208.125;    0.000
1049.099;55228.074;  247.125;    0.000
1049.252;56212.074;  274.125;    0.000
1049.406;51088.074;  232.125;    0.000
1049.559;53068.074;  251.125;    0.000
1049.712;59067.074;  243.125;    0.000
1049.865;63040.074;  219.125;    0.000
1050.018;62746.074;  216.125;    0.000
1050.171;54404.074;  237.125;    0.000
1050.324;51630.074;  291.125;    0.000
1050.477;53722.074;  241.125;    0.000
1050.630;57206.074;  245.125;    0.000
1050.783;58651.074;  213.125;    0.000
1050.936;54380.074;  246.125;    0.000
1051.089;53829.074;  255.125;    0.000
1051.242;56453.074;  228.125;    0.000
1051.394;64165.074;  276.125;    0.000
1051.547;64976.074;  246.125;    0.000
1051.700;58162.074;  252.125;    0.000
1051.853;56853.074;  267.125;    0.000
1052.005;61949.074;  261.125;    0.000
1052.158;65072.074;  313.125;    0.000
1052.311;65072.074;  264.125;    0.000
1052.463;65072.074;  271.125;    0.000
1052.616;65072.074;  291.125;    0.000
1052.768;57469.074;  298.125;    0.000
1052.921;55820.074;  262.125;    0.000
1053.073;62363.074;  307.125;    0.000
1053.226;65072.074;  301.125;    0.000
1053.378;65072.074;  309.125;    0.000
1053.531;65072.074;  280.125;    0.000
1053.683;65072.074;  258.125;    0.000
1053.835;64676.074;  267.125;    0.000
1053.988;51674.074;  294.125;    0.000
1054.140; 9025.075;  292.125;    0.000
1054.292; 2210.075;  249.125;    0.000
1054.444; 1663.075;  288.125;    0.000
1054.596; 1490.075;  275.125;    0.000
1054.749; 1321.075;  284.125;    0.000
1054.901; 1317.075;  291.125;    0.000
1055.053; 1199.075;  274.125;    0.000
1055.205; 1136.075;  313.125;    0.000
1055.357; 1041.075;  309.125;    0.000
1055.509; 1041.075;  283.125;    0.000
1055.661; 1055.075;  341.125;    0.000
1055.813;  914.075;  288.125;    0.000
1055.965;  968.075;  300.125;    0.000
1056.116;  895.075;  296.125;    0.000
1056.268;  919.075;  319.125;    0.000
1056.420;  908.075;  298.125;    0.000

