
Integration time [ms]:   1.000
Averaging Nr. [scans]: 1
Smoothing Nr. [pixels]: 0
Data measured with spectrometer [name]: VIS
Wave   ;Sample   ;Dark     ;Reference
[nm]   ;[counts] ;[counts] ;[counts] 

450.961;  203.375;  200.375;    0.000
451.100;  239.375;  241.375;    0.000
451.239;  217.375;  201.375;    0.000
451.377;  227.375;  262.375;    0.000
451.516;  206.375;  229.375;    0.000
451.655;  213.375;  211.375;    0.000
451.794;  217.375;  225.375;    0.000
451.932;  252.375;  247.375;    0.000
452.071;  239.375;  260.375;    0.000
452.210;  197.375;  235.375;    0.000
452.348;  202.375;  276.375;    0.000
452.487;  208.375;  259.375;    0.000
452.626;  198.375;  254.375;    0.000
452.764;  231.375;  233.375;    0.000
452.903;  212.375;  202.375;    0.000
453.042;  273.375;  211.375;    0.000
453.180; 2184.375;  240.375;    0.000
453.319; 2217.375;  238.375;    0.000
453.458; 2325.375;  215.375;    0.000
453.596; 2242.375;  252.375;    0.000
453.735; 2242.375;  240.375;    0.000
453.873; 2292.375;  257.375;    0.000
454.012; 2326.375;  228.375;    0.000
454.150; 2418.375;  270.375;    0.000
454.289; 2403.375;  233.375;    0.000
454.427; 2383.375;  243.375;    0.000
454.566; 2358.375;  257.375;    0.000
454.704; 2407.375;  243.375;    0.000
454.843; 2453.375;  190.375;    0.000
454.981; 2533.375;  271.375;    0.000
455.120; 2517.375;  210.375;    0.000
455.258; 2499.375;  235.375;    0.000
455.397; 2521.375;  214.375;    0.000
455.535; 2456.375;  214.375;    0.000
455.674; 2540.375;  184.375;    0.000
455.812; 2606.375;  228.375;    0.000
455.951; 2683.375;  204.375;    0.000
456.089; 2652.375;  220.375;    0.000
456.227; 2660.375;  196.375;    0.000
456.366; 2738.375;  261.375;    0.000
456.504; 2751.375;  249.375;    0.000
456.642; 2733.375;  245.375;    0.000
456.781; 2756.375;  183.375;    0.000
456.919; 2814.375;  203.375;    0.000
457.057; 2839.375;  177.375;    0.000
457.196; 2863.375;  191.375;    0.000
457.334; 2888.375;  233.375;    0.000
457.472; 2966.375;  214.375;    0.000
457.610; 2995.375;  230.375;    0.000
457.749; 2971.375;  247.375;    0.000
457.887; 3085.375;  220.375;    0.000
458.025; 2960.375;  195.375;    0.000
458.163; 3073.375;  224.375;    0.000
458.301; 3105.375;  228.375;    0.000
458.440; 3103.375;  200.375;    0.000
458.578; 3166.375;  233.375;    0.000
458.716; 3176.375;  182.375;    0.000
458.854; 3328.375;  251.375;    0.000
458.992; 3276.375;  187.375;    0.000
459.130; 3407.375;  229.375;    0.000
459.269; 3297.375;  237.375;    0.000
459.407; 3398.375;  228.375;    0.000
459.545; 3372.375;  216.375;    0.000
459.683; 3418.375;  204.375;    0.000
459.821; 3433.375;  191.375;    0.000
459.959; 3506.375;  227.375;    0.000
460.097; 3621.375;  221.375;    0.000
460.235; 3484.375;  241.375;    0.000
460.373; 3545.375;  231.375;    0.000
460.511; 3566.375;  214.375;    0.000
460.649; 3531.375;  172.375;    0.000
460.787; 3612.375;  275.375;    0.000
460.925; 3684.375;  175.375;    0.000
461.063; 3688.375;  252.375;    0.000
461.201; 3585.375;  210.375;    0.000
461.339; 3659.375;  237.375;    0.000
461.477; 3716.375;  210.375;    0.000
461.615; 3792.375;  236.375;    0.000
461.753; 3786.375;  215.375;    0.000
461.891; 3800.375;  222.375;    0.000
462.029; 3945.375;  227.375;    0.000
462.166; 4016.375;  202.375;    0.000
462.304; 4022.375;  191.375;    0.000
462.442; 4093.375;  210.375;    0.000
462.580; 4084.375;  184.375;    0.000
462.718; 4116.375;  220.375;    0.000
462.856; 3868.375;  226.375;    0.000
462.993; 4017.375;  254.375;    0.000
463.131; 3972.375;  200.375;    0.000
463.269; 4038.375;  215.375;    0.000
463.407; 3808.375;  213.375;    0.000
463.545; 3856.375;  242.375;    0.000
463.682; 3896.375;  212.375;    0.000
463.820; 3986.375;  185.375;    0.000
463.958; 4189.375;  212.375;    0.000
464.095; 4232.375;  181.375;    0.000
464.233; 4282.375;  192.375;    0.000
464.371; 4384.375;  247.375;    0.000
464.509; 4315.375;  151.375;    0.000
464.646; 4246.375;  207.375;    0.000
464.784; 4290.375;  199.375;    0.000
464.921; 4247.375;  253.375;    0.000
465.059; 4138.375;  214.375;    0.000
465.197; 4101.375;  200.375;    0.000
465.334; 3929.375;  180.375;    0.000
465.472; 4003.375;  204.375;    0.000
465.609; 4055.375;  203.375;    0.000
465.747; 4001.375;  214.375;    0.000
465.885; 3938.375;  233.375;    0.000
466.022; 3966.375;  215.375;    0.000
466.160; 4003.375;  201.375;    0.000
466.297; 3989.375;  196.375;    0.000
466.435; 3862.375;  230.375;    0.000
466.572; 3955.375;  227.375;    0.000
466.710; 3933.375;  218.375;    0.000
466.847; 3949.375;  245.375;    0.000
466.985; 3894.375;  223.375;    0.000
467.122; 3791.375;  168.375;    0.000
467.260; 3827.375;  196.375;    0.000
467.397; 3814.375;  198.375;    0.000
467.534; 3888.375;  219.375;    0.000
467.672; 3943.375;  214.375;    0.000
467.809; 3885.375;  185.375;    0.000
467.947; 4011.375;  247.375;    0.000
468.084; 3927.375;  196.375;    0.000
468.221; 4024.375;  238.375;    0.000
468.359; 3933.375;  236.375;    0.000
468.496; 3962.375;  235.375;    0.000
468.633; 3905.375;  218.375;    0.000
468.771; 4055.375;  223.375;    0.000
468.908; 3818.375;  208.375;    0.000
469.045; 3998.375;  249.375;    0.000
469.183; 4009.375;  222.375;    0.000
469.320; 4088.375;  216.375;    0.000
469.457; 4115.375;  224.375;    0.000
469.594; 3971.375;  259.375;    0.000
469.732; 4043.375;  223.375;    0.000
469.869; 4100.375;  234.375;    0.000
470.006; 4118.375;  225.375;    0.000
470.143; 4201.375;  243.375;    0.000
470.280; 4177.375;  208.375;    0.000
470.417; 4239.375;  232.375;    0.000
470.555; 4164.375;  218.375;    0.000
470.692; 4179.375;  223.375;    0.000
470.829; 4160.375;  238.375;    0.000
470.966; 4136.375;  205.375;    0.000
471.103; 4083.375;  259.375;    0.000
471.240; 4134.375;  214.375;    0.000
471.377; 4193.375;  226.375;    0.000
471.514; 4210.375;  250.375;    0.000
471.651; 4158.375;  221.375;    0.000
471.789; 4149.375;  242.375;    0.000
471.926; 4003.375;  190.375;    0.000
472.063; 4052.375;  234.375;    0.000
472.200; 4073.375;  252.375;    0.000
472.337; 4177.375;  241.375;    0.000
472.474; 4198.375;  244.375;    0.000
472.611; 4093.375;  268.375;    0.000
472.748; 4108.375;  222.375;    0.000
472.884; 4140.375;  271.375;    0.000
473.021; 4038.375;  195.375;    0.000
473.158; 4125.375;  205.375;    0.000
473.295; 4082.375;  223.375;    0.000
473.432; 4062.375;  216.375;    0.000
473.569; 4082.375;  196.375;    0.000
473.706; 4093.375;  190.375;    0.000
473.843; 4068.375;  211.375;    0.000
473.980; 4103.375;  254.375;    0.000
474.117; 4087.375;  185.375;    0.000
474.253; 4077.375;  229.375;    0.000
474.390; 4078.375;  238.375;    0.000
474.527; 3954.375;  220.375;    0.000
474.664; 4087.375;  242.375;    0.000
474.801; 4095.375;  229.375;    0.000
474.937; 4070.375;  229.375;    0.000
475.074; 4105.375;  210.375;    0.000
475.211; 4171.375;  219.375;    0.000
475.348; 4269.375;  226.375;    0.000
475.484; 4181.375;  207.375;    0.000
475.621; 4131.375;  233.375;    0.000
475.758; 4270.375;  230.375;    0.000
475.894; 4077.375;  234.375;    0.000
476.031; 4256.375;  202.375;    0.000
476.168; 4066.375;  222.375;    0.000
476.304; 4297.375;  237.375;    0.000
476.441; 4263.375;  238.375;    0.000
476.578; 4156.375;  216.375;    0.000
476.714; 4156.375;  212.375;    0.000
476.851; 4269.375;  210.375;    0.000
476.987; 4262.375;  239.375;    0.000
477.124; 4217.375;  250.375;    0.000
477.261; 4198.375;  227.375;    0.000
477.397; 4290.375;  189.375;    0.000
477.534; 4294.375;  204.375;    0.000
477.670; 4205.375;  190.375;    0.000
477.807; 4334.375;  198.375;    0.000
477.943; 4347.375;  216.375;    0.000
478.080; 4337.375;  213.375;    0.000
478.216; 4431.375;  239.375;    0.000
478.353; 4384.375;  218.375;    0.000
478.489; 4451.375;  184.375;    0.000
478.626; 4511.375;  223.375;    0.000
478.762; 4464.375;  213.375;    0.000
478.898; 4503.375;  216.375;    0.000
479.035; 4548.375;  250.375;    0.000
479.171; 4543.375;  201.375;    0.000
479.308; 4523.375;  242.375;    0.000
479.444; 4612.375;  205.375;    0.000
479.580; 4565.375;  203.375;    0.000
479.717; 4570.375;  260.375;    0.000
479.853; 4545.375;  225.375;    0.000
479.989; 4501.375;  226.375;    0.000
480.126; 4486.375;  211.375;    0.000
480.262; 4660.375;  220.375;    0.000
480.398; 4647.375;  207.375;    0.000
480.535; 4496.375;  179.375;    0.000
480.671; 4576.375;  200.375;    0.000
480.807; 4491.375;  190.375;    0.000
480.943; 4614.375;  165.375;    0.000
481.080; 4579.375;  210.375;    0.000
481.216; 4622.375;  232.375;    0.000
481.352; 4560.375;  235.375;    0.000
481.488; 4697.375;  208.375;    0.000
481.624; 4571.375;  245.375;    0.000
481.760; 4567.375;  210.375;    0.000
481.897; 4643.375;  189.375;    0.000
482.033; 4632.375;  256.375;    0.000
482.169; 4564.375;  257.375;    0.000
482.305; 4607.375;  199.375;    0.000
482.441; 4559.375;  182.375;    0.000
482.577; 4565.375;  223.375;    0.000
482.713; 4658.375;  243.375;    0.000
482.849; 4546.375;  197.375;    0.000
482.985; 4563.375;  240.375;    0.000
483.121; 4519.375;  210.375;    0.000
483.258; 4622.375;  248.375;    0.000
483.394; 4565.375;  224.375;    0.000
483.530; 4629.375;  209.375;    0.000
483.665; 4603.375;  225.375;    0.000
483.801; 4691.375;  216.375;    0.000
483.937; 4617.375;  211.375;    0.000
484.073; 4632.375;  259.375;    0.000
484.209; 4666.375;  191.375;    0.000
484.345; 4685.375;  239.375;    0.000
484.481; 4625.375;  231.375;    0.000
484.617; 4714.375;  216.375;    0.000
484.753; 4620.375;  180.375;    0.000
484.889; 4817.375;  252.375;    0.000
485.025; 4704.375;  244.375;    0.000
485.161; 4580.375;  242.375;    0.000
485.296; 4719.375;  235.375;    0.000
485.432; 4704.375;  247.375;    0.000
485.568; 4746.375;  203.375;    0.000
485.704; 4618.375;  229.375;    0.000
485.840; 4842.375;  230.375;    0.000
485.975; 4745.375;  266.375;    0.000
486.111; 4766.375;  220.375;    0.000
486.247; 4931.375;  264.375;    0.000
486.383; 4693.375;  213.375;    0.000
486.518; 4793.375;  222.375;    0.000
486.654; 4786.375;  244.375;    0.000
486.790; 4785.375;  273.375;    0.000
486.926; 4619.375;  203.375;    0.000
487.061; 4660.375;  227.375;    0.000
487.197; 4734.375;  210.375;    0.000
487.333; 4759.375;  209.375;    0.000
487.468; 4734.375;  197.375;    0.000
487.604; 4627.375;  230.375;    0.000
487.740; 4706.375;  254.375;    0.000
487.875; 4735.375;  286.375;    0.000
488.011; 4717.375;  225.375;    0.000
488.146; 4675.375;  251.375;    0.000
488.282; 4733.375;  242.375;    0.000
488.417; 4647.375;  230.375;    0.000
488.553; 4705.375;  260.375;    0.000
488.688; 4678.375;  207.375;    0.000
488.824; 4913.375;  204.375;    0.000
488.960; 4788.375;  248.375;    0.000
489.095; 4791.375;  204.375;    0.000
489.230; 4714.375;  227.375;    0.000
489.366; 4815.375;  226.375;    0.000
489.501; 4744.375;  199.375;    0.000
489.637; 4770.375;  233.375;    0.000
489.772; 4851.375;  249.375;    0.000
489.908; 4749.375;  200.375;    0.000
490.043; 4797.375;  246.375;    0.000
490.178; 4704.375;  222.375;    0.000
490.314; 4879.375;  219.375;    0.000
490.449; 4753.375;  227.375;    0.000
490.585; 4798.375;  209.375;    0.000
490.720; 4730.375;  238.375;    0.000
490.855; 4858.375;  222.375;    0.000
490.991; 4645.375;  202.375;    0.000
491.126; 4758.375;  272.375;    0.000
491.261; 4761.375;  261.375;    0.000
491.396; 4641.375;  190.375;    0.000
491.532; 4797.375;  202.375;    0.000
491.667; 4756.375;  208.375;    0.000
491.802; 4797.375;  203.375;    0.000
491.937; 4814.375;  253.375;    0.000
492.073; 4850.375;  242.375;    0.000
492.208; 4800.375;  230.375;    0.000
492.343; 4764.375;  183.375;    0.000
492.478; 4812.375;  246.375;    0.000
492.613; 4755.375;  223.375;    0.000
492.749; 4787.375;  230.375;    0.000
492.884; 4782.375;  190.375;    0.000
493.019; 4792.375;  234.375;    0.000
493.154; 4796.375;  218.375;    0.000
493.289; 4765.375;  222.375;    0.000
493.424; 4779.375;  196.375;    0.000
493.559; 4877.375;  202.375;    0.000
493.694; 4842.375;  180.375;    0.000
493.829; 4832.375;  224.375;    0.000
493.964; 4760.375;  218.375;    0.000
494.099; 4803.375;  275.375;    0.000
494.234; 4784.375;  226.375;    0.000
494.369; 4875.375;  225.375;    0.000
494.504; 4832.375;  219.375;    0.000
494.639; 4814.375;  296.375;    0.000
494.774; 4831.375;  228.375;    0.000
494.909; 4760.375;  222.375;    0.000
495.044; 4753.375;  215.375;    0.000
495.179; 4774.375;  200.375;    0.000
495.314; 4725.375;  235.375;    0.000
495.449; 4729.375;  249.375;    0.000
495.584; 4840.375;  228.375;    0.000
495.719; 4764.375;  212.375;    0.000
495.854; 4849.375;  201.375;    0.000
495.988; 4860.375;  248.375;    0.000
496.123; 4796.375;  209.375;    0.000
496.258; 4964.375;  249.375;    0.000
496.393; 4892.375;  223.375;    0.000
496.528; 4822.375;  209.375;    0.000
496.663; 4844.375;  207.375;    0.000
496.797; 5032.375;  229.375;    0.000
496.932; 4978.375;  225.375;    0.000
497.067; 5058.375;  218.375;    0.000
497.202; 5043.375;  163.375;    0.000
497.336; 5152.375;  246.375;    0.000
497.471; 5100.375;  229.375;    0.000
497.606; 5073.375;  251.375;    0.000
497.740; 5251.375;  220.375;    0.000
497.875; 5239.375;  216.375;    0.000
498.010; 5304.375;  226.375;    0.000
498.144; 5338.375;  237.375;    0.000
498.279; 5398.375;  196.375;    0.000
498.414; 5611.375;  219.375;    0.000
498.548; 5601.375;  205.375;    0.000
498.683; 5614.375;  206.375;    0.000
498.817; 5547.375;  225.375;    0.000
498.952; 5695.375;  221.375;    0.000
499.087; 5947.375;  220.375;    0.000
499.221; 6022.375;  233.375;    0.000
499.356; 6007.375;  230.375;    0.000
499.490; 6093.375;  229.375;    0.000
499.625; 6311.375;  231.375;    0.000
499.759; 6219.375;  243.375;    0.000
499.894; 6567.375;  241.375;    0.000
500.028; 6697.375;  264.375;    0.000
500.162; 6808.375;  287.375;    0.000
500.297; 6717.375;  234.375;    0.000
500.431; 6829.375;  230.375;    0.000
500.566; 6913.375;  213.375;    0.000
500.700; 6864.375;  243.375;    0.000
500.835; 6848.375;  272.375;    0.000
500.969; 6506.375;  188.375;    0.000
501.103; 6482.375;  200.375;    0.000
501.238; 6470.375;  257.375;    0.000
501.372; 6280.375;  224.375;    0.000
501.506; 6136.375;  225.375;    0.000
501.641; 5871.375;  271.375;    0.000
501.775; 5815.375;  199.375;    0.000
501.909; 5741.375;  249.375;    0.000
502.043; 5622.375;  211.375;    0.000
502.178; 5626.375;  269.375;    0.000
502.312; 5463.375;  198.375;    0.000
502.446; 5577.375;  256.375;    0.000
502.580; 5306.375;  195.375;    0.000
502.715; 5227.375;  224.375;    0.000
502.849; 5197.375;  245.375;    0.000
502.983; 5189.375;  250.375;    0.000
503.117; 5168.375;  193.375;    0.000
503.251; 5125.375;  242.375;    0.000
503.385; 5067.375;  227.375;    0.000
503.520; 4998.375;  235.375;    0.000
503.654; 4842.375;  220.375;    0.000
503.788; 4798.375;  267.375;    0.000
503.922; 4744.375;  220.375;    0.000
504.056; 4729.375;  238.375;    0.000
504.190; 4753.375;  212.375;    0.000
504.324; 4729.375;  265.375;    0.000
504.458; 4693.375;  228.375;    0.000
504.592; 4686.375;  231.375;    0.000
504.726; 4572.375;  218.375;    0.000
504.860; 4594.375;  253.375;    0.000
504.994; 4498.375;  217.375;    0.000
505.128; 4538.375;  243.375;    0.000
505.262; 4413.375;  194.375;    0.000
505.396; 4284.375;  210.375;    0.000
505.530; 4383.375;  211.375;    0.000
505.664; 4247.375;  219.375;    0.000
505.798; 4247.375;  240.375;    0.000
505.932; 4152.375;  240.375;    0.000
506.066; 4220.375;  252.375;    0.000
506.199; 4115.375;  242.375;    0.000
506.333; 4201.375;  244.375;    0.000
506.467; 4077.375;  223.375;    0.000
506.601; 4012.375;  183.375;    0.000
506.735; 4070.375;  249.375;    0.000
506.869; 4017.375;  270.375;    0.000
507.002; 3976.375;  207.375;    0.000
507.136; 3940.375;  242.375;    0.000
507.270; 3986.375;  232.375;    0.000
507.404; 3907.375;  195.375;    0.000
507.537; 3900.375;  218.375;    0.000
507.671; 3982.375;  246.375;    0.000
507.805; 3952.375;  244.375;    0.000
507.939; 3835.375;  251.375;    0.000
508.072; 3833.375;  212.375;    0.000
508.206; 3812.375;  198.375;    0.000
508.340; 3797.375;  234.375;    0.000
508.473; 3878.375;  217.375;    0.000
508.607; 3809.375;  224.375;    0.000
508.740; 3744.375;  207.375;    0.000
508.874; 3784.375;  230.375;    0.000
509.008; 3760.375;  246.375;    0.000
509.141; 3799.375;  239.375;    0.000
509.275; 3758.375;  229.375;    0.000
509.408; 3826.375;  234.375;    0.000
509.542; 3636.375;  212.375;    0.000
509.675; 3756.375;  256.375;    0.000
509.809; 3655.375;  232.375;    0.000
509.942; 3619.375;  237.375;    0.000
510.076; 3613.375;  226.375;    0.000
510.209; 3624.375;  251.375;    0.000
510.343; 3636.375;  229.375;    0.000
510.476; 3675.375;  285.375;    0.000
510.610; 3663.375;  211.375;    0.000
510.743; 3756.375;  258.375;    0.000
510.877; 3660.375;  244.375;    0.000
511.010; 3512.375;  235.375;    0.000
511.143; 3459.375;  251.375;    0.000
511.277; 3733.375;  228.375;    0.000
511.410; 3636.375;  216.375;    0.000
511.543; 3618.375;  231.375;    0.000
511.677; 3614.375;  244.375;    0.000
511.810; 3585.375;  186.375;    0.000
511.943; 3618.375;  211.375;    0.000
512.077; 3568.375;  201.375;    0.000
512.210; 3577.375;  194.375;    0.000
512.343; 3589.375;  233.375;    0.000
512.476; 3556.375;  234.375;    0.000
512.610; 3549.375;  224.375;    0.000
512.743; 3574.375;  255.375;    0.000
512.876; 3548.375;  264.375;    0.000
513.009; 3590.375;  283.375;    0.000
513.142; 3524.375;  246.375;    0.000
513.276; 3476.375;  217.375;    0.000
513.409; 3545.375;  222.375;    0.000
513.542; 3620.375;  237.375;    0.000
513.675; 3559.375;  238.375;    0.000
513.808; 3492.375;  220.375;    0.000
513.941; 3560.375;  233.375;    0.000
514.074; 3572.375;  248.375;    0.000
514.207; 3602.375;  233.375;    0.000
514.340; 3635.375;  190.375;    0.000
514.474; 3554.375;  221.375;    0.000
514.607; 3596.375;  213.375;    0.000
514.740; 3634.375;  251.375;    0.000
514.873; 3587.375;  257.375;    0.000
515.006; 3633.375;  268.375;    0.000
515.139; 3623.375;  257.375;    0.000
515.272; 3544.375;  227.375;    0.000
515.404; 3579.375;  238.375;    0.000
515.537; 3683.375;  275.375;    0.000
515.670; 3656.375;  239.375;    0.000
515.803; 3763.375;  223.375;    0.000
515.936; 3696.375;  202.375;    0.000
516.069; 3645.375;  188.375;    0.000
516.202; 3843.375;  240.375;    0.000
516.335; 3924.375;  252.375;    0.000
516.468; 4095.375;  254.375;    0.000
516.600; 4692.375;  254.375;    0.000
516.733; 5678.375;  255.375;    0.000
516.866; 5647.375;  265.375;    0.000
516.999; 5104.375;  251.375;    0.000
517.132; 6317.375;  256.375;    0.000
517.264; 8532.375;  202.375;    0.000
517.397; 8237.375;  248.375;    0.000
517.530; 6365.375;  221.375;    0.000
517.663; 5446.375;  244.375;    0.000
517.795; 4970.375;  245.375;    0.000
517.928; 4810.375;  236.375;    0.000
518.061; 4942.375;  219.375;    0.000
518.193; 6244.375;  251.375;    0.000
518.326; 9709.375;  271.375;    0.000
518.459;10211.375;  207.375;    0.000
518.591; 7807.375;  217.375;    0.000
518.724; 6063.375;  200.375;    0.000
518.857; 5360.375;  204.375;    0.000
518.989; 4930.375;  242.375;    0.000
519.122; 4567.375;  254.375;    0.000
519.254; 4359.375;  239.375;    0.000
519.387; 4177.375;  235.375;    0.000
519.519; 4020.375;  227.375;    0.000
519.652; 4045.375;  178.375;    0.000
519.784; 3887.375;  226.375;    0.000
519.917; 3815.375;  256.375;    0.000
520.049; 3816.375;  234.375;    0.000
520.182; 3692.375;  258.375;    0.000
520.314; 3754.375;  298.375;    0.000
520.447; 3623.375;  204.375;    0.000
520.579; 3629.375;  235.375;    0.000
520.712; 3552.375;  208.375;    0.000
520.844; 3596.375;  272.375;    0.000
520.976; 3519.375;  234.375;    0.000
521.109; 3485.375;  235.375;    0.000
521.241; 3400.375;  250.375;    0.000
521.373; 3430.375;  233.375;    0.000
521.506; 3408.375;  231.375;    0.000
521.638; 3473.375;  258.375;    0.000
521.770; 3364.375;  226.375;    0.000
521.903; 3334.375;  258.375;    0.000
522.035; 3319.375;  263.375;    0.000
522.167; 3288.375;  214.375;    0.000
522.300; 3324.375;  212.375;    0.000
522.432; 3280.375;  220.375;    0.000
522.564; 3217.375;  228.375;    0.000
522.696; 3237.375;  272.375;    0.000
522.828; 3200.375;  222.375;    0.000
522.961; 3222.375;  205.375;    0.000
523.093; 3236.375;  253.375;    0.000
523.225; 3174.375;  239.375;    0.000
523.357; 3252.375;  263.375;    0.000
523.489; 3178.375;  264.375;    0.000
523.621; 3085.375;  259.375;    0.000
523.753; 3132.375;  233.375;    0.000
523.885; 3101.375;  232.375;    0.000
524.018; 3046.375;  214.375;    0.000
524.150; 3131.375;  235.375;    0.000
524.282; 3186.375;  242.375;    0.000
524.414; 3154.375;  261.375;    0.000
524.546; 3046.375;  233.375;    0.000
524.678; 2997.375;  242.375;    0.000
524.810; 3109.375;  216.375;    0.000
524.942; 3045.375;  220.375;    0.000
525.074; 3107.375;  249.375;    0.000
525.206; 3005.375;  227.375;    0.000
525.338; 3048.375;  250.375;    0.000
525.469; 3042.375;  231.375;    0.000
525.601; 3022.375;  245.375;    0.000
525.733; 2907.375;  187.375;    0.000
525.865; 3088.375;  280.375;    0.000
525.997; 2962.375;  216.375;    0.000
526.129; 2945.375;  228.375;    0.000
526.261; 3053.375;  187.375;    0.000
526.393; 2973.375;  228.375;    0.000
526.524; 2888.375;  201.375;    0.000
526.656; 2947.375;  199.375;    0.000
526.788; 3000.375;  233.375;    0.000
526.920; 2964.375;  256.375;    0.000
527.052; 2848.375;  219.375;    0.000
527.183; 2924.375;  227.375;    0.000
527.315; 2923.375;  266.375;    0.000
527.447; 2854.375;  239.375;    0.000
527.578; 2824.375;  213.375;    0.000
527.710; 2908.375;  216.375;    0.000
527.842; 2944.375;  240.375;    0.000
527.973; 2997.375;  286.375;    0.000
528.105; 2831.375;  222.375;    0.000
528.237; 2858.375;  223.375;    0.000
528.368; 2902.375;  211.375;    0.000
528.500; 2872.375;  215.375;    0.000
528.632; 2852.375;  216.375;    0.000
528.763; 2837.375;  234.375;    0.000
528.895; 2739.375;  196.375;    0.000
529.026; 2809.375;  202.375;    0.000
529.158; 2870.375;  226.375;    0.000
529.289; 2864.375;  229.375;    0.000
529.421; 2858.375;  264.375;    0.000
529.552; 2909.375;  265.375;    0.000
529.684; 2890.375;  260.375;    0.000
529.815; 2911.375;  284.375;    0.000
529.947; 2900.375;  237.375;    0.000
530.078; 2887.375;  223.375;    0.000
530.210; 2860.375;  223.375;    0.000
530.341; 2769.375;  209.375;    0.000
530.472; 2799.375;  203.375;    0.000
530.604; 2856.375;  223.375;    0.000
530.735; 2845.375;  218.375;    0.000
530.867; 2926.375;  222.375;    0.000
530.998; 2892.375;  239.375;    0.000
531.129; 2937.375;  250.375;    0.000
531.260; 2860.375;  224.375;    0.000
531.392; 2864.375;  216.375;    0.000
531.523; 2897.375;  234.375;    0.000
531.654; 2896.375;  256.375;    0.000
531.786; 2916.375;  226.375;    0.000
531.917; 2914.375;  239.375;    0.000
532.048; 2876.375;  205.375;    0.000
532.179; 2856.375;  244.375;    0.000
532.311; 2908.375;  235.375;    0.000
532.442; 2804.375;  258.375;    0.000
532.573; 2897.375;  220.375;    0.000
532.704; 2838.375;  213.375;    0.000
532.835; 2870.375;  249.375;    0.000
532.966; 2866.375;  226.375;    0.000
533.097; 2848.375;  246.375;    0.000
533.229; 2862.375;  237.375;    0.000
533.360; 2907.375;  225.375;    0.000
533.491; 2807.375;  241.375;    0.000
533.622; 2831.375;  242.375;    0.000
533.753; 2874.375;  264.375;    0.000
533.884; 2803.375;  245.375;    0.000
534.015; 2899.375;  269.375;    0.000
534.146; 2893.375;  267.375;    0.000
534.277; 2955.375;  282.375;    0.000
534.408; 2859.375;  229.375;    0.000
534.539; 2991.375;  269.375;    0.000
534.670; 2847.375;  231.375;    0.000
534.801; 2932.375;  260.375;    0.000
534.932; 2767.375;  232.375;    0.000
535.063; 2823.375;  227.375;    0.000
535.194; 2865.375;  281.375;    0.000
535.324; 2775.375;  206.375;    0.000
535.455; 2862.375;  257.375;    0.000
535.586; 2841.375;  275.375;    0.000
535.717; 2785.375;  206.375;    0.000
535.848; 2860.375;  271.375;    0.000
535.979; 2909.375;  250.375;    0.000
536.109; 2891.375;  253.375;    0.000
536.240; 2810.375;  234.375;    0.000
536.371; 2780.375;  230.375;    0.000
536.502; 2738.375;  270.375;    0.000
536.632; 2850.375;  228.375;    0.000
536.763; 2815.375;  249.375;    0.000
536.894; 2859.375;  262.375;    0.000
537.025; 2824.375;  258.375;    0.000
537.155; 2763.375;  278.375;    0.000
537.286; 2795.375;  209.375;    0.000
537.417; 2801.375;  255.375;    0.000
537.547; 2739.375;  208.375;    0.000
537.678; 2724.375;  224.375;    0.000
537.808; 2731.375;  224.375;    0.000
537.939; 2779.375;  257.375;    0.000
538.070; 2782.375;  240.375;    0.000
538.200; 2787.375;  259.375;    0.000
538.331; 2778.375;  235.375;    0.000
538.461; 2779.375;  251.375;    0.000
538.592; 2665.375;  245.375;    0.000
538.722; 2781.375;  239.375;    0.000
538.853; 2803.375;  216.375;    0.000
538.983; 2757.375;  226.375;    0.000
539.114; 2769.375;  240.375;    0.000
539.244; 2802.375;  237.375;    0.000
539.375; 2730.375;  198.375;    0.000
539.505; 2651.375;  263.375;    0.000
539.636; 2712.375;  226.375;    0.000
539.766; 2798.375;  229.375;    0.000
539.896; 2625.375;  219.375;    0.000
540.027; 2767.375;  246.375;    0.000
540.157; 2683.375;  218.375;    0.000
540.287; 2754.375;  216.375;    0.000
540.418; 2703.375;  267.375;    0.000
540.548; 2840.375;  260.375;    0.000
540.678; 2717.375;  242.375;    0.000
540.809; 2739.375;  260.375;    0.000
540.939; 2769.375;  257.375;    0.000
541.069; 2755.375;  226.375;    0.000
541.200; 2750.375;  227.375;    0.000
541.330; 2786.375;  218.375;    0.000
541.460; 2757.375;  223.375;    0.000
541.590; 2732.375;  237.375;    0.000
541.720; 2695.375;  222.375;    0.000
541.851; 2675.375;  250.375;    0.000
541.981; 2723.375;  222.375;    0.000
542.111; 2762.375;  212.375;    0.000
542.241; 2756.375;  205.375;    0.000
542.371; 2833.375;  202.375;    0.000
542.501; 2809.375;  218.375;    0.000
542.631; 2819.375;  222.375;    0.000
542.761; 2825.375;  249.375;    0.000
542.891; 2840.375;  173.375;    0.000
543.021; 2842.375;  218.375;    0.000
543.151; 2884.375;  222.375;    0.000
543.281; 2803.375;  188.375;    0.000
543.411; 2808.375;  239.375;    0.000
543.542; 2840.375;  215.375;    0.000
543.671; 2907.375;  250.375;    0.000
543.801; 2778.375;  212.375;    0.000
543.931; 2789.375;  233.375;    0.000
544.061; 2790.375;  194.375;    0.000
544.191; 2808.375;  218.375;    0.000
544.321; 2809.375;  220.375;    0.000
544.451; 2741.375;  183.375;    0.000
544.581; 2790.375;  221.375;    0.000
544.711; 2857.375;  224.375;    0.000
544.841; 2844.375;  214.375;    0.000
544.970; 2802.375;  227.375;    0.000
545.100; 2952.375;  186.375;    0.000
545.230; 2933.375;  205.375;    0.000
545.360; 2880.375;  211.375;    0.000
545.490; 2876.375;  202.375;    0.000
545.619; 2855.375;  182.375;    0.000
545.749; 2766.375;  174.375;    0.000
545.879; 2770.375;  169.375;    0.000
546.009; 2794.375;  182.375;    0.000
546.138; 2816.375;  200.375;    0.000
546.268; 2769.375;  204.375;    0.000
546.398; 2851.375;  200.375;    0.000
546.527; 2731.375;  179.375;    0.000
546.657; 2785.375;  162.375;    0.000
546.786; 2886.375;  179.375;    0.000
546.916; 2806.375;  221.375;    0.000
547.046; 2813.375;  179.375;    0.000
547.175; 2807.375;  168.375;    0.000
547.305; 2764.375;  200.375;    0.000
547.434; 2797.375;  166.375;    0.000
547.564; 2839.375;  177.375;    0.000
547.693; 2706.375;  152.375;    0.000
547.823; 2823.375;  171.375;    0.000
547.953; 2846.375;  195.375;    0.000
548.082; 2754.375;  214.375;    0.000
548.211; 2745.375;  177.375;    0.000
548.341; 2795.375;  189.375;    0.000
548.470; 2701.375;  194.375;    0.000
548.600; 2741.375;  172.375;    0.000
548.729; 2841.375;  158.375;    0.000
548.859; 2722.375;  193.375;    0.000
548.988; 2741.375;  131.375;    0.000
549.117; 2728.375;  204.375;    0.000
549.247; 2798.375;  191.375;    0.000
549.376; 2796.375;  202.375;    0.000
549.505; 2767.375;  187.375;    0.000
549.635; 2806.375;  198.375;    0.000
549.764; 2774.375;  155.375;    0.000
549.893; 2779.375;  176.375;    0.000
550.023; 2902.375;  202.375;    0.000
550.152; 2801.375;  168.375;    0.000
550.281; 2847.375;  180.375;    0.000
550.410; 2819.375;  180.375;    0.000
550.539; 2921.375;  181.375;    0.000
550.669; 2865.375;  168.375;    0.000
550.798; 2898.375;  223.375;    0.000
550.927; 2831.375;  179.375;    0.000
551.056; 2785.375;  159.375;    0.000
551.185; 2822.375;  199.375;    0.000
551.314; 2824.375;  185.375;    0.000
551.443; 2795.375;  172.375;    0.000
551.573; 2725.375;  158.375;    0.000
551.702; 2864.375;  210.375;    0.000
551.831; 2879.375;  238.375;    0.000
551.960; 2846.375;  191.375;    0.000
552.089; 2907.375;  195.375;    0.000
552.218; 2854.375;  196.375;    0.000
552.347; 2856.375;  194.375;    0.000
552.476; 2903.375;  192.375;    0.000
552.605; 2973.375;  172.375;    0.000
552.734; 3047.375;  214.375;    0.000
552.863; 3035.375;  177.375;    0.000
552.992; 3092.375;  190.375;    0.000
553.121; 3075.375;  185.375;    0.000
553.249; 2974.375;  175.375;    0.000
553.378; 2935.375;  192.375;    0.000
553.507; 2957.375;  193.375;    0.000
553.636; 2874.375;  182.375;    0.000
553.765; 2853.375;  187.375;    0.000
553.894; 2899.375;  214.375;    0.000
554.023; 2967.375;  217.375;    0.000
554.151; 2928.375;  223.375;    0.000
554.280; 2909.375;  170.375;    0.000
554.409; 2868.375;  172.375;    0.000
554.538; 2831.375;  182.375;    0.000
554.666; 2891.375;  195.375;    0.000
554.795; 3000.375;  176.375;    0.000
554.924; 2832.375;  164.375;    0.000
555.052; 2782.375;  171.375;    0.000
555.181; 2877.375;  208.375;    0.000
555.310; 2903.375;  214.375;    0.000
555.439; 2948.375;  193.375;    0.000
555.567; 2788.375;  189.375;    0.000
555.696; 2911.375;  196.375;    0.000
555.824; 2746.375;  183.375;    0.000
555.953; 2915.375;  234.375;    0.000
556.082; 2926.375;  183.375;    0.000
556.210; 2836.375;  199.375;    0.000
556.339; 2885.375;  201.375;    0.000
556.467; 2815.375;  208.375;    0.000
556.596; 2773.375;  194.375;    0.000
556.724; 2769.375;  170.375;    0.000
556.853; 2774.375;  166.375;    0.000
556.981; 2862.375;  185.375;    0.000
557.110; 2833.375;  213.375;    0.000
557.238; 2768.375;  188.375;    0.000
557.367; 2740.375;  176.375;    0.000
557.495; 2829.375;  180.375;    0.000
557.623; 2663.375;  193.375;    0.000
557.752; 2736.375;  207.375;    0.000
557.880; 2746.375;  189.375;    0.000
558.008; 2714.375;  169.375;    0.000
558.137; 2784.375;  203.375;    0.000
558.265; 2769.375;  167.375;    0.000
558.393; 2814.375;  204.375;    0.000
558.522; 2743.375;  203.375;    0.000
558.650; 2849.375;  215.375;    0.000
558.778; 2804.375;  190.375;    0.000
558.906; 2778.375;  186.375;    0.000
559.035; 2813.375;  193.375;    0.000
559.163; 2789.375;  198.375;    0.000
559.291; 2830.375;  222.375;    0.000
559.419; 2790.375;  192.375;    0.000
559.548; 2799.375;  186.375;    0.000
559.676; 2782.375;  199.375;    0.000
559.804; 2792.375;  186.375;    0.000
559.932; 2831.375;  202.375;    0.000
560.060; 2909.375;  183.375;    0.000
560.188; 2925.375;  212.375;    0.000
560.316; 2959.375;  192.375;    0.000
560.444; 2820.375;  180.375;    0.000
560.572; 2911.375;  206.375;    0.000
560.700; 2932.375;  184.375;    0.000
560.828; 2962.375;  177.375;    0.000
560.956; 2883.375;  221.375;    0.000
561.085; 2780.375;  227.375;    0.000
561.212; 2875.375;  208.375;    0.000
561.340; 2844.375;  189.375;    0.000
561.468; 2971.375;  189.375;    0.000
561.596; 2925.375;  183.375;    0.000
561.724; 2918.375;  188.375;    0.000
561.852; 2919.375;  183.375;    0.000
561.980; 2922.375;  209.375;    0.000
562.108; 2895.375;  165.375;    0.000
562.236; 3028.375;  188.375;    0.000
562.364; 2973.375;  177.375;    0.000
562.492; 2975.375;  192.375;    0.000
562.619; 2925.375;  187.375;    0.000
562.747; 2947.375;  217.375;    0.000
562.875; 2984.375;  221.375;    0.000
563.003; 2962.375;  199.375;    0.000
563.130; 3027.375;  191.375;    0.000
563.258; 2954.375;  186.375;    0.000
563.386; 3085.375;  191.375;    0.000
563.514; 3148.375;  217.375;    0.000
563.641; 3045.375;  220.375;    0.000
563.769; 3059.375;  186.375;    0.000
563.897; 3215.375;  158.375;    0.000
564.024; 3194.375;  192.375;    0.000
564.152; 3152.375;  217.375;    0.000
564.280; 3188.375;  203.375;    0.000
564.407; 3173.375;  190.375;    0.000
564.535; 3109.375;  188.375;    0.000
564.662; 3287.375;  199.375;    0.000
564.790; 3128.375;  227.375;    0.000
564.917; 3242.375;  160.375;    0.000
565.045; 3308.375;  222.375;    0.000
565.173; 3256.375;  169.375;    0.000
565.300; 3403.375;  208.375;    0.000
565.428; 3278.375;  174.375;    0.000
565.555; 3301.375;  201.375;    0.000
565.682; 3444.375;  180.375;    0.000
565.810; 3412.375;  165.375;    0.000
565.937; 3391.375;  167.375;    0.000
566.065; 3473.375;  190.375;    0.000
566.192; 3532.375;  169.375;    0.000
566.320; 3652.375;  167.375;    0.000
566.447; 3580.375;  151.375;    0.000
566.574; 3489.375;  176.375;    0.000
566.702; 3656.375;  198.375;    0.000
566.829; 3680.375;  209.375;    0.000
566.956; 3688.375;  186.375;    0.000
567.083; 3744.375;  188.375;    0.000
567.211; 3704.375;  159.375;    0.000
567.338; 3742.375;  204.375;    0.000
567.465; 3772.375;  141.375;    0.000
567.593; 3726.375;  168.375;    0.000
567.720; 3688.375;  177.375;    0.000
567.847; 3736.375;  160.375;    0.000
567.974; 3747.375;  139.375;    0.000
568.101; 3690.375;  153.375;    0.000
568.228; 4081.375;  173.375;    0.000
568.356; 3938.375;  149.375;    0.000
568.483; 3908.375;  185.375;    0.000
568.610; 3877.375;  170.375;    0.000
568.737; 4093.375;  223.375;    0.000
568.864; 4298.375;  167.375;    0.000
568.991; 4183.375;  177.375;    0.000
569.118; 3808.375;  169.375;    0.000
569.245; 3614.375;  128.375;    0.000
569.372; 3542.375;  160.375;    0.000
569.499; 3479.375;  156.375;    0.000
569.626; 3475.375;  191.375;    0.000
569.753; 3438.375;  163.375;    0.000
569.880; 3351.375;  167.375;    0.000
570.007; 3247.375;  143.375;    0.000
570.134; 3249.375;  191.375;    0.000
570.261; 3227.375;  164.375;    0.000
570.388; 3333.375;  162.375;    0.000
570.515; 3185.375;  220.375;    0.000
570.642; 3235.375;  184.375;    0.000
570.768; 3266.375;  174.375;    0.000
570.895; 3085.375;  177.375;    0.000
571.022; 3162.375;  152.375;    0.000
571.149; 3234.375;  183.375;    0.000
571.276; 3105.375;  153.375;    0.000
571.402; 3071.375;  190.375;    0.000
571.529; 3048.375;  187.375;    0.000
571.656; 2973.375;  167.375;    0.000
571.783; 3021.375;  186.375;    0.000
571.909; 3062.375;  183.375;    0.000
572.036; 3015.375;  162.375;    0.000
572.163; 2930.375;  196.375;    0.000
572.289; 3016.375;  180.375;    0.000
572.416; 2950.375;  190.375;    0.000
572.543; 2967.375;  174.375;    0.000
572.669; 3027.375;  186.375;    0.000
572.796; 3019.375;  205.375;    0.000
572.922; 2944.375;  185.375;    0.000
573.049; 2895.375;  178.375;    0.000
573.176; 2965.375;  196.375;    0.000
573.302; 2955.375;  202.375;    0.000
573.429; 2915.375;  189.375;    0.000
573.555; 2920.375;  145.375;    0.000
573.682; 2915.375;  228.375;    0.000
573.808; 2918.375;  197.375;    0.000
573.935; 3031.375;  216.375;    0.000
574.061; 2931.375;  173.375;    0.000
574.188; 2898.375;  151.375;    0.000
574.314; 2989.375;  181.375;    0.000
574.440; 2955.375;  167.375;    0.000
574.567; 2825.375;  185.375;    0.000
574.693; 2833.375;  173.375;    0.000
574.820; 2869.375;  164.375;    0.000
574.946; 2872.375;  199.375;    0.000
575.072; 2953.375;  162.375;    0.000
575.198; 2998.375;  225.375;    0.000
575.325; 2830.375;  171.375;    0.000
575.451; 2868.375;  183.375;    0.000
575.577; 2874.375;  190.375;    0.000
575.704; 2896.375;  210.375;    0.000
575.830; 2899.375;  185.375;    0.000
575.956; 2869.375;  168.375;    0.000
576.082; 2872.375;  158.375;    0.000
576.208; 2815.375;  158.375;    0.000
576.335; 2922.375;  196.375;    0.000
576.461; 2891.375;  187.375;    0.000
576.587; 2758.375;  157.375;    0.000
576.713; 2888.375;  156.375;    0.000
576.839; 2871.375;  196.375;    0.000
576.965; 2847.375;  187.375;    0.000
577.091; 2925.375;  204.375;    0.000
577.217; 2799.375;  207.375;    0.000
577.343; 2828.375;  175.375;    0.000
577.469; 2959.375;  197.375;    0.000
577.596; 2817.375;  182.375;    0.000
577.722; 2878.375;  159.375;    0.000
577.848; 2867.375;  162.375;    0.000
577.974; 2816.375;  180.375;    0.000
578.099; 2813.375;  161.375;    0.000
578.225; 2838.375;  180.375;    0.000
578.351; 2887.375;  190.375;    0.000
578.477; 2905.375;  212.375;    0.000
578.603; 2948.375;  179.375;    0.000
578.729; 2868.375;  195.375;    0.000
578.855; 2883.375;  153.375;    0.000
578.981; 2771.375;  162.375;    0.000
579.107; 2852.375;  149.375;    0.000
579.232; 2912.375;  164.375;    0.000
579.358; 2842.375;  162.375;    0.000
579.484; 2821.375;  181.375;    0.000
579.610; 2767.375;  190.375;    0.000
579.735; 2882.375;  191.375;    0.000
579.861; 2854.375;  189.375;    0.000
579.987; 2923.375;  202.375;    0.000
580.113; 2872.375;  197.375;    0.000
580.238; 2885.375;  228.375;    0.000
580.364; 2925.375;  212.375;    0.000
580.490; 2929.375;  225.375;    0.000
580.615; 2967.375;  218.375;    0.000
580.741; 2814.375;  167.375;    0.000
580.867; 2884.375;  215.375;    0.000
580.992; 2950.375;  191.375;    0.000
581.118; 2856.375;  171.375;    0.000
581.243; 3003.375;  204.375;    0.000
581.369; 2849.375;  186.375;    0.000
581.494; 2804.375;  184.375;    0.000
581.620; 2901.375;  212.375;    0.000
581.745; 2832.375;  192.375;    0.000
581.871; 2991.375;  195.375;    0.000
581.996; 3028.375;  160.375;    0.000
582.122; 2994.375;  217.375;    0.000
582.247; 2926.375;  213.375;    0.000
582.373; 2964.375;  187.375;    0.000
582.498; 2943.375;  208.375;    0.000
582.624; 3084.375;  189.375;    0.000
582.749; 3027.375;  185.375;    0.000
582.874; 2993.375;  195.375;    0.000
583.000; 2972.375;  208.375;    0.000
583.125; 2993.375;  147.375;    0.000
583.250; 3062.375;  201.375;    0.000
583.376; 3037.375;  191.375;    0.000
583.501; 3032.375;  206.375;    0.000
583.626; 3006.375;  167.375;    0.000
583.751; 3018.375;  180.375;    0.000
583.877; 3065.375;  185.375;    0.000
584.002; 3068.375;  186.375;    0.000
584.127; 3064.375;  176.375;    0.000
584.252; 3103.375;  214.375;    0.000
584.377; 3145.375;  225.375;    0.000
584.503; 3054.375;  195.375;    0.000
584.628; 3116.375;  206.375;    0.000
584.753; 3170.375;  181.375;    0.000
584.878; 3093.375;  136.375;    0.000
585.003; 3206.375;  215.375;    0.000
585.128; 3307.375;  206.375;    0.000
585.253; 3374.375;  200.375;    0.000
585.378; 3321.375;  169.375;    0.000
585.503; 3396.375;  191.375;    0.000
585.628; 3393.375;  182.375;    0.000
585.753; 3371.375;  164.375;    0.000
585.878; 3321.375;  123.375;    0.000
586.003; 3508.375;  187.375;    0.000
586.128; 3494.375;  198.375;    0.000
586.253; 3438.375;  172.375;    0.000
586.378; 3559.375;  191.375;    0.000
586.503; 3588.375;  190.375;    0.000
586.628; 3758.375;  178.375;    0.000
586.753; 3881.375;  184.375;    0.000
586.878; 3841.375;  169.375;    0.000
587.003; 3981.375;  186.375;    0.000
587.127; 4030.375;  170.375;    0.000
587.252; 4061.375;  170.375;    0.000
587.377; 4360.375;  181.375;    0.000
587.502; 4416.375;  209.375;    0.000
587.627; 4672.375;  210.375;    0.000
587.751; 4869.375;  212.375;    0.000
587.876; 5110.375;  198.375;    0.000
588.001; 5312.375;  161.375;    0.000
588.125; 5716.375;  191.375;    0.000
588.250; 6224.375;  132.375;    0.000
588.375; 7164.375;  183.375;    0.000
588.499; 7949.375;  176.375;    0.000
588.624; 9514.375;  173.375;    0.000
588.749;11814.375;  204.375;    0.000
588.873;15326.375;  179.375;    0.000
588.998;18960.375;  182.375;    0.000
589.122;18868.375;  165.375;    0.000
589.247;16509.375;  185.375;    0.000
589.372;14695.375;  199.375;    0.000
589.496;16077.375;  182.375;    0.000
589.621;17726.375;  158.375;    0.000
589.745;16092.375;  213.375;    0.000
589.870;12664.375;  175.375;    0.000
589.994;10419.375;  194.375;    0.000
590.118; 8854.375;  218.375;    0.000
590.243; 7933.375;  170.375;    0.000
590.367; 7142.375;  189.375;    0.000
590.492; 6478.375;  196.375;    0.000
590.616; 6021.375;  182.375;    0.000
590.740; 5611.375;  210.375;    0.000
590.865; 5250.375;  242.375;    0.000
590.989; 5093.375;  191.375;    0.000
591.114; 4907.375;  167.375;    0.000
591.238; 4746.375;  194.375;    0.000
591.362; 4609.375;  236.375;    0.000
591.486; 4537.375;  194.375;    0.000
591.611; 4376.375;  154.375;    0.000
591.735; 4249.375;  186.375;    0.000
591.859; 4181.375;  148.375;    0.000
591.983; 4236.375;  211.375;    0.000
592.107; 4056.375;  204.375;    0.000
592.232; 3934.375;  194.375;    0.000
592.356; 4028.375;  238.375;    0.000
592.480; 3924.375;  179.375;    0.000
592.604; 3830.375;  192.375;    0.000
592.728; 3950.375;  201.375;    0.000
592.852; 3733.375;  158.375;    0.000
592.976; 3606.375;  152.375;    0.000
593.100; 3646.375;  194.375;    0.000
593.224; 3679.375;  235.375;    0.000
593.349; 3623.375;  233.375;    0.000
593.473; 3530.375;  194.375;    0.000
593.597; 3591.375;  215.375;    0.000
593.721; 3535.375;  212.375;    0.000
593.844; 3555.375;  220.375;    0.000
593.968; 3507.375;  221.375;    0.000
594.092; 3459.375;  150.375;    0.000
594.216; 3453.375;  212.375;    0.000
594.340; 3457.375;  209.375;    0.000
594.464; 3435.375;  207.375;    0.000
594.588; 3395.375;  195.375;    0.000
594.712; 3395.375;  176.375;    0.000
594.836; 3362.375;  219.375;    0.000
594.959; 3336.375;  215.375;    0.000
595.083; 3283.375;  200.375;    0.000
595.207; 3299.375;  206.375;    0.000
595.331; 3163.375;  207.375;    0.000
595.455; 3185.375;  206.375;    0.000
595.578; 3162.375;  204.375;    0.000
595.702; 3239.375;  225.375;    0.000
595.826; 3127.375;  186.375;    0.000
595.949; 3141.375;  196.375;    0.000
596.073; 3062.375;  188.375;    0.000
596.197; 3095.375;  217.375;    0.000
596.320; 3099.375;  225.375;    0.000
596.444; 3059.375;  220.375;    0.000
596.568; 2966.375;  155.375;    0.000
596.691; 2983.375;  195.375;    0.000
596.815; 2935.375;  163.375;    0.000
596.938; 2997.375;  181.375;    0.000
597.062; 3053.375;  201.375;    0.000
597.186; 2911.375;  200.375;    0.000
597.309; 2949.375;  214.375;    0.000
597.433; 2929.375;  176.375;    0.000
597.556; 2922.375;  193.375;    0.000
597.680; 3000.375;  241.375;    0.000
597.803; 2867.375;  185.375;    0.000
597.926; 2890.375;  200.375;    0.000
598.050; 2732.375;  193.375;    0.000
598.173; 2861.375;  219.375;    0.000
598.297; 2838.375;  223.375;    0.000
598.420; 2875.375;  187.375;    0.000
598.543; 2813.375;  205.375;    0.000
598.667; 2852.375;  177.375;    0.000
598.790; 2886.375;  208.375;    0.000
598.913; 2779.375;  170.375;    0.000
599.037; 2801.375;  212.375;    0.000
599.160; 2734.375;  165.375;    0.000
599.283; 2842.375;  211.375;    0.000
599.406; 2791.375;  207.375;    0.000
599.530; 2723.375;  182.375;    0.000
599.653; 2768.375;  215.375;    0.000
599.776; 2793.375;  167.375;    0.000
599.899; 2783.375;  190.375;    0.000
600.022; 2751.375;  182.375;    0.000
600.145; 2827.375;  180.375;    0.000
600.269; 2686.375;  208.375;    0.000
600.392; 2658.375;  214.375;    0.000
600.515; 2701.375;  196.375;    0.000
600.638; 2807.375;  204.375;    0.000
600.761; 2747.375;  209.375;    0.000
600.884; 2741.375;  207.375;    0.000
601.007; 2687.375;  234.375;    0.000
601.130; 2652.375;  183.375;    0.000
601.253; 2719.375;  211.375;    0.000
601.376; 2733.375;  199.375;    0.000
601.499; 2726.375;  190.375;    0.000
601.622; 2641.375;  210.375;    0.000
601.745; 2606.375;  180.375;    0.000
601.868; 2683.375;  204.375;    0.000
601.991; 2634.375;  188.375;    0.000
602.113; 2653.375;  210.375;    0.000
602.236; 2714.375;  194.375;    0.000
602.359; 2597.375;  213.375;    0.000
602.482; 2641.375;  169.375;    0.000
602.605; 2651.375;  189.375;    0.000
602.728; 2644.375;  236.375;    0.000
602.850; 2649.375;  230.375;    0.000
602.973; 2650.375;  187.375;    0.000
603.096; 2642.375;  201.375;    0.000
603.219; 2701.375;  209.375;    0.000
603.341; 2594.375;  209.375;    0.000
603.464; 2594.375;  194.375;    0.000
603.587; 2639.375;  166.375;    0.000
603.709; 2591.375;  175.375;    0.000
603.832; 2732.375;  239.375;    0.000
603.955; 2649.375;  205.375;    0.000
604.077; 2529.375;  196.375;    0.000
604.200; 2609.375;  188.375;    0.000
604.323; 2577.375;  224.375;    0.000
604.445; 2576.375;  182.375;    0.000
604.568; 2594.375;  199.375;    0.000
604.690; 2612.375;  175.375;    0.000
604.813; 2628.375;  211.375;    0.000
604.935; 2562.375;  171.375;    0.000
605.058; 2536.375;  196.375;    0.000
605.180; 2547.375;  194.375;    0.000
605.303; 2498.375;  198.375;    0.000
605.425; 2658.375;  212.375;    0.000
605.547; 2547.375;  238.375;    0.000
605.670; 2566.375;  207.375;    0.000
605.792; 2521.375;  204.375;    0.000
605.915; 2587.375;  198.375;    0.000
606.037; 2519.375;  215.375;    0.000
606.159; 2607.375;  170.375;    0.000
606.282; 2577.375;  194.375;    0.000
606.404; 2530.375;  207.375;    0.000
606.526; 2489.375;  208.375;    0.000
606.648; 2561.375;  174.375;    0.000
606.771; 2581.375;  170.375;    0.000
606.893; 2530.375;  182.375;    0.000
607.015; 2515.375;  180.375;    0.000
607.137; 2566.375;  187.375;    0.000
607.260; 2484.375;  202.375;    0.000
607.382; 2578.375;  226.375;    0.000
607.504; 2495.375;  208.375;    0.000
607.626; 2531.375;  229.375;    0.000
607.748; 2563.375;  170.375;    0.000
607.870; 2552.375;  208.375;    0.000
607.992; 2479.375;  184.375;    0.000
608.114; 2565.375;  213.375;    0.000
608.237; 2543.375;  237.375;    0.000
608.359; 2443.375;  176.375;    0.000
608.481; 2428.375;  173.375;    0.000
608.603; 2455.375;  189.375;    0.000
608.725; 2518.375;  185.375;    0.000
608.847; 2469.375;  239.375;    0.000
608.969; 2517.375;  237.375;    0.000
609.090; 2506.375;  189.375;    0.000
609.212; 2445.375;  147.375;    0.000
609.334; 2463.375;  177.375;    0.000
609.456; 2488.375;  196.375;    0.000
609.578; 2476.375;  199.375;    0.000
609.700; 2413.375;  167.375;    0.000
609.822; 2452.375;  140.375;    0.000
609.944; 2533.375;  225.375;    0.000
610.065; 2482.375;  183.375;    0.000
610.187; 2470.375;  170.375;    0.000
610.309; 2420.375;  210.375;    0.000
610.431; 2478.375;  185.375;    0.000
610.552; 2496.375;  197.375;    0.000
610.674; 2487.375;  188.375;    0.000
610.796; 2501.375;  162.375;    0.000
610.918; 2444.375;  200.375;    0.000
611.039; 2455.375;  209.375;    0.000
611.161; 2474.375;  201.375;    0.000
611.282; 2487.375;  197.375;    0.000
611.404; 2546.375;  220.375;    0.000
611.526; 2410.375;  159.375;    0.000
611.647; 2457.375;  205.375;    0.000
611.769; 2387.375;  161.375;    0.000
611.890; 2455.375;  173.375;    0.000
612.012; 2445.375;  225.375;    0.000
612.133; 2473.375;  188.375;    0.000
612.255; 2462.375;  217.375;    0.000
612.377; 2385.375;  219.375;    0.000
612.498; 2431.375;  177.375;    0.000
612.619; 2414.375;  211.375;    0.000
612.741; 2428.375;  185.375;    0.000
612.862; 2497.375;  191.375;    0.000
612.984; 2450.375;  190.375;    0.000
613.105; 2463.375;  211.375;    0.000
613.226; 2413.375;  174.375;    0.000
613.348; 2412.375;  235.375;    0.000
613.469; 2488.375;  230.375;    0.000
613.590; 2415.375;  208.375;    0.000
613.712; 2407.375;  244.375;    0.000
613.833; 2448.375;  202.375;    0.000
613.954; 2396.375;  228.375;    0.000
614.076; 2450.375;  220.375;    0.000
614.197; 2479.375;  191.375;    0.000
614.318; 2369.375;  201.375;    0.000
614.439; 2438.375;  212.375;    0.000
614.560; 2474.375;  219.375;    0.000
614.682; 2423.375;  189.375;    0.000
614.803; 2445.375;  188.375;    0.000
614.924; 2426.375;  225.375;    0.000
615.045; 2419.375;  227.375;    0.000
615.166; 2461.375;  200.375;    0.000
615.287; 2487.375;  195.375;    0.000
615.408; 2506.375;  199.375;    0.000
615.529; 2537.375;  227.375;    0.000
615.650; 2491.375;  176.375;    0.000
615.771; 2416.375;  211.375;    0.000
615.892; 2551.375;  212.375;    0.000
616.013; 2581.375;  172.375;    0.000
616.134; 2676.375;  220.375;    0.000
616.255; 2705.375;  251.375;    0.000
616.376; 2544.375;  186.375;    0.000
616.497; 2495.375;  201.375;    0.000
616.618; 2448.375;  149.375;    0.000
616.739; 2442.375;  213.375;    0.000
616.860; 2412.375;  224.375;    0.000
616.981; 2394.375;  224.375;    0.000
617.102; 2375.375;  217.375;    0.000
617.222; 2454.375;  237.375;    0.000
617.343; 2365.375;  205.375;    0.000
617.464; 2424.375;  229.375;    0.000
617.585; 2319.375;  227.375;    0.000
617.705; 2431.375;  191.375;    0.000
617.826; 2443.375;  237.375;    0.000
617.947; 2358.375;  223.375;    0.000
618.068; 2350.375;  189.375;    0.000
618.188; 2391.375;  194.375;    0.000
618.309; 2391.375;  206.375;    0.000
618.430; 2357.375;  229.375;    0.000
618.550; 2445.375;  250.375;    0.000
618.671; 2329.375;  201.375;    0.000
618.791; 2323.375;  226.375;    0.000
618.912; 2293.375;  246.375;    0.000
619.033; 2426.375;  243.375;    0.000
619.153; 2424.375;  208.375;    0.000
619.274; 2370.375;  223.375;    0.000
619.394; 2437.375;  226.375;    0.000
619.515; 2228.375;  188.375;    0.000
619.635; 2353.375;  216.375;    0.000
619.756; 2318.375;  229.375;    0.000
619.876; 2337.375;  216.375;    0.000
619.996; 2364.375;  244.375;    0.000
620.117; 2280.375;  225.375;    0.000
620.237; 2338.375;  207.375;    0.000
620.358; 2361.375;  239.375;    0.000
620.478; 2332.375;  237.375;    0.000
620.598; 2326.375;  237.375;    0.000
620.719; 2426.375;  223.375;    0.000
620.839; 2351.375;  254.375;    0.000
620.959; 2370.375;  244.375;    0.000
621.079; 2400.375;  193.375;    0.000
621.200; 2301.375;  233.375;    0.000
621.320; 2329.375;  270.375;    0.000
621.440; 2381.375;  206.375;    0.000
621.560; 2287.375;  241.375;    0.000
621.681; 2392.375;  231.375;    0.000
621.801; 2256.375;  235.375;    0.000
621.921; 2324.375;  240.375;    0.000
622.041; 2356.375;  244.375;    0.000
622.161; 2323.375;  225.375;    0.000
622.281; 2284.375;  222.375;    0.000
622.401; 2280.375;  238.375;    0.000
622.521; 2318.375;  233.375;    0.000
622.641; 2242.375;  241.375;    0.000
622.761; 2317.375;  233.375;    0.000
622.882; 2328.375;  230.375;    0.000
623.002; 2270.375;  206.375;    0.000
623.121; 2279.375;  217.375;    0.000
623.241; 2399.375;  263.375;    0.000
623.361; 2220.375;  245.375;    0.000
623.481; 2232.375;  194.375;    0.000
623.601; 2295.375;  228.375;    0.000
623.721; 2337.375;  219.375;    0.000
623.841; 2281.375;  234.375;    0.000
623.961; 2252.375;  235.375;    0.000
624.081; 2214.375;  166.375;    0.000
624.201; 2229.375;  229.375;    0.000
624.320; 2202.375;  224.375;    0.000
624.440; 2238.375;  200.375;    0.000
624.560; 2316.375;  220.375;    0.000
624.680; 2183.375;  214.375;    0.000
624.799; 2184.375;  179.375;    0.000
624.919; 2263.375;  199.375;    0.000
625.039; 2299.375;  211.375;    0.000
625.159; 2194.375;  213.375;    0.000
625.278; 2309.375;  178.375;    0.000
625.398; 2238.375;  206.375;    0.000
625.518; 2197.375;  182.375;    0.000
625.637; 2331.375;  206.375;    0.000
625.757; 2269.375;  197.375;    0.000
625.876; 2156.375;  204.375;    0.000
625.996; 2309.375;  222.375;    0.000
626.115; 2220.375;  222.375;    0.000
626.235; 2235.375;  222.375;    0.000
626.354; 2270.375;  211.375;    0.000
626.474; 2274.375;  217.375;    0.000
626.594; 2148.375;  190.375;    0.000
626.713; 2192.375;  200.375;    0.000
626.832; 2271.375;  234.375;    0.000
626.952; 2273.375;  214.375;    0.000
627.071; 2163.375;  243.375;    0.000
627.191; 2230.375;  192.375;    0.000
627.310; 2222.375;  211.375;    0.000
627.429; 2205.375;  218.375;    0.000
627.549; 2220.375;  214.375;    0.000
627.668; 2211.375;  208.375;    0.000
627.787; 2217.375;  199.375;    0.000
627.907; 2177.375;  208.375;    0.000
628.026; 2246.375;  216.375;    0.000
628.145; 2216.375;  170.375;    0.000
628.264; 2161.375;  217.375;    0.000
628.384; 2160.375;  190.375;    0.000
628.503; 2202.375;  203.375;    0.000
628.622; 2205.375;  197.375;    0.000
628.741; 2190.375;  186.375;    0.000
628.860; 2200.375;  191.375;    0.000
628.980; 2244.375;  196.375;    0.000
629.099; 2153.375;  190.375;    0.000
629.218; 2148.375;  165.375;    0.000
629.337; 2225.375;  190.375;    0.000
629.456; 2158.375;  222.375;    0.000
629.575; 2210.375;  197.375;    0.000
629.694; 2188.375;  210.375;    0.000
629.813; 2194.375;  187.375;    0.000
629.932; 2212.375;  224.375;    0.000
630.051; 2213.375;  216.375;    0.000
630.170; 2129.375;  203.375;    0.000
630.289; 2126.375;  178.375;    0.000
630.408; 2143.375;  192.375;    0.000
630.527; 2230.375;  223.375;    0.000
630.646; 2066.375;  177.375;    0.000
630.764; 2130.375;  224.375;    0.000
630.883; 2167.375;  220.375;    0.000
631.002; 2125.375;  187.375;    0.000
631.121; 2097.375;  208.375;    0.000
631.240; 2263.375;  217.375;    0.000
631.359; 2309.375;  241.375;    0.000
631.477; 2181.375;  189.375;    0.000
631.596; 2134.375;  244.375;    0.000
631.715; 2192.375;  241.375;    0.000
631.834; 2215.375;  219.375;    0.000
631.952; 2194.375;  231.375;    0.000
632.071; 2176.375;  197.375;    0.000
632.190; 2085.375;  193.375;    0.000
632.308; 2174.375;  185.375;    0.000
632.427; 2167.375;  188.375;    0.000
632.546; 2141.375;  208.375;    0.000
632.664; 2042.375;  191.375;    0.000
632.783; 2140.375;  201.375;    0.000
632.901; 2093.375;  239.375;    0.000
633.020; 2081.375;  197.375;    0.000
633.138; 2120.375;  189.375;    0.000
633.257; 2155.375;  210.375;    0.000
633.375; 2210.375;  213.375;    0.000
633.494; 2086.375;  206.375;    0.000
633.612; 2184.375;  231.375;    0.000
633.731; 2076.375;  213.375;    0.000
633.849; 2147.375;  244.375;    0.000
633.968; 2151.375;  251.375;    0.000
634.086; 2183.375;  224.375;    0.000
634.204; 2138.375;  212.375;    0.000
634.323; 2166.375;  213.375;    0.000
634.441; 2205.375;  219.375;    0.000
634.559; 2167.375;  198.375;    0.000
634.678; 2119.375;  201.375;    0.000
634.796; 2077.375;  179.375;    0.000
634.914; 2071.375;  255.375;    0.000
635.032; 2148.375;  264.375;    0.000
635.151; 2135.375;  228.375;    0.000
635.269; 2075.375;  223.375;    0.000
635.387; 2136.375;  228.375;    0.000
635.505; 2155.375;  214.375;    0.000
635.623; 2116.375;  279.375;    0.000
635.742; 2123.375;  237.375;    0.000
635.860; 2101.375;  244.375;    0.000
635.978; 2064.375;  213.375;    0.000
636.096; 2113.375;  230.375;    0.000
636.214; 2124.375;  252.375;    0.000
636.332; 2081.375;  221.375;    0.000
636.450; 2126.375;  227.375;    0.000
636.568; 2068.375;  193.375;    0.000
636.686; 2100.375;  208.375;    0.000
636.804; 2118.375;  213.375;    0.000
636.922; 2050.375;  199.375;    0.000
637.040; 2117.375;  202.375;    0.000
637.158; 2090.375;  239.375;    0.000
637.276; 2178.375;  225.375;    0.000
637.394; 2135.375;  217.375;    0.000
637.512; 2083.375;  192.375;    0.000
637.629; 2140.375;  216.375;    0.000
637.747; 2109.375;  198.375;    0.000
637.865; 2119.375;  265.375;    0.000
637.983; 2163.375;  245.375;    0.000
638.101; 2051.375;  199.375;    0.000
638.218; 2112.375;  197.375;    0.000
638.336; 2132.375;  212.375;    0.000
638.454; 2097.375;  227.375;    0.000
638.572; 2127.375;  215.375;    0.000
638.689; 2093.375;  214.375;    0.000
638.807; 2042.375;  233.375;    0.000
638.925; 2058.375;  217.375;    0.000
639.042; 2104.375;  180.375;    0.000
639.160; 2047.375;  220.375;    0.000
639.278; 2050.375;  180.375;    0.000
639.395; 2131.375;  243.375;    0.000
639.513; 2125.375;  207.375;    0.000
639.630; 2130.375;  183.375;    0.000
639.748; 2111.375;  231.375;    0.000
639.865; 2131.375;  215.375;    0.000
639.983; 2041.375;  182.375;    0.000
640.100; 2042.375;  190.375;    0.000
640.218; 2069.375;  224.375;    0.000
640.335; 2093.375;  214.375;    0.000
640.453; 2139.375;  212.375;    0.000
640.570; 2164.375;  224.375;    0.000
640.688; 2037.375;  220.375;    0.000
640.805; 2036.375;  189.375;    0.000
640.922; 2108.375;  256.375;    0.000
641.040; 2081.375;  209.375;    0.000
641.157; 1988.375;  195.375;    0.000
641.274; 2114.375;  195.375;    0.000
641.391; 2168.375;  231.375;    0.000
641.509; 2074.375;  207.375;    0.000
641.626; 2182.375;  227.375;    0.000
641.743; 2018.375;  188.375;    0.000
641.860; 2091.375;  208.375;    0.000
641.978; 2084.375;  222.375;    0.000
642.095; 2133.375;  194.375;    0.000
642.212; 2067.375;  202.375;    0.000
642.329; 2147.375;  241.375;    0.000
642.446; 2013.375;  261.375;    0.000
642.563; 2068.375;  236.375;    0.000
642.681; 2042.375;  228.375;    0.000
642.798; 2117.375;  242.375;    0.000
642.915; 2107.375;  197.375;    0.000
643.032; 2142.375;  239.375;    0.000
643.149; 2114.375;  241.375;    0.000
643.266; 2055.375;  199.375;    0.000
643.383; 2096.375;  200.375;    0.000
643.500; 2035.375;  221.375;    0.000
643.617; 2083.375;  196.375;    0.000
643.734; 2147.375;  207.375;    0.000
643.850; 2137.375;  222.375;    0.000
643.967; 2086.375;  235.375;    0.000
644.084; 2213.375;  233.375;    0.000
644.201; 2019.375;  229.375;    0.000
644.318; 2165.375;  210.375;    0.000
644.435; 2150.375;  234.375;    0.000
644.552; 2209.375;  220.375;    0.000
644.668; 2168.375;  231.375;    0.000
644.785; 2215.375;  231.375;    0.000
644.902; 2120.375;  238.375;    0.000
645.019; 2095.375;  226.375;    0.000
645.135; 2092.375;  179.375;    0.000
645.252; 2146.375;  224.375;    0.000
645.369; 2167.375;  206.375;    0.000
645.485; 2156.375;  200.375;    0.000
645.602; 2183.375;  210.375;    0.000
645.719; 2140.375;  206.375;    0.000
645.835; 2235.375;  247.375;    0.000
645.952; 2153.375;  222.375;    0.000
646.068; 2250.375;  205.375;    0.000
646.185; 2171.375;  230.375;    0.000
646.302; 2188.375;  254.375;    0.000
646.418; 2253.375;  230.375;    0.000
646.535; 2258.375;  214.375;    0.000
646.651; 2185.375;  179.375;    0.000
646.768; 2189.375;  190.375;    0.000
646.884; 2288.375;  208.375;    0.000
647.000; 2280.375;  262.375;    0.000
647.117; 2241.375;  212.375;    0.000
647.233; 2238.375;  228.375;    0.000
647.350; 2262.375;  208.375;    0.000
647.466; 2222.375;  211.375;    0.000
647.582; 2268.375;  196.375;    0.000
647.699; 2264.375;  217.375;    0.000
647.815; 2293.375;  203.375;    0.000
647.931; 2259.375;  201.375;    0.000
648.047; 2331.375;  182.375;    0.000
648.164; 2306.375;  219.375;    0.000
648.280; 2336.375;  213.375;    0.000
648.396; 2356.375;  202.375;    0.000
648.512; 2293.375;  233.375;    0.000
648.629; 2285.375;  206.375;    0.000
648.745; 2311.375;  188.375;    0.000
648.861; 2270.375;  209.375;    0.000
648.977; 2260.375;  218.375;    0.000
649.093; 2238.375;  225.375;    0.000
649.209; 2282.375;  240.375;    0.000
649.325; 2391.375;  253.375;    0.000
649.441; 2361.375;  263.375;    0.000
649.557; 2422.375;  256.375;    0.000
649.673; 2387.375;  211.375;    0.000
649.789; 2349.375;  237.375;    0.000
649.905; 2437.375;  183.375;    0.000
650.021; 2420.375;  238.375;    0.000
650.137; 2285.375;  241.375;    0.000
650.253; 2409.375;  228.375;    0.000
650.369; 2380.375;  221.375;    0.000
650.485; 2464.375;  240.375;    0.000
650.601; 2332.375;  254.375;    0.000
650.717; 2432.375;  201.375;    0.000
650.833; 2316.375;  257.375;    0.000
650.948; 2460.375;  213.375;    0.000
651.064; 2432.375;  223.375;    0.000
651.180; 2462.375;  230.375;    0.000
651.296; 2444.375;  235.375;    0.000
651.411; 2532.375;  221.375;    0.000
651.527; 2450.375;  233.375;    0.000
651.643; 2522.375;  236.375;    0.000
651.759; 2579.375;  268.375;    0.000
651.874; 2532.375;  214.375;    0.000
651.990; 2572.375;  251.375;    0.000
652.105; 2583.375;  217.375;    0.000
652.221; 2507.375;  243.375;    0.000
652.337; 2563.375;  231.375;    0.000
652.452; 2580.375;  238.375;    0.000
652.568; 2684.375;  188.375;    0.000
652.683; 2595.375;  197.375;    0.000
652.799; 2643.375;  194.375;    0.000
652.914; 2663.375;  222.375;    0.000
653.030; 2658.375;  200.375;    0.000
653.145; 2738.375;  235.375;    0.000
653.261; 2775.375;  261.375;    0.000
653.376; 2771.375;  228.375;    0.000
653.492; 2899.375;  222.375;    0.000
653.607; 2855.375;  227.375;    0.000
653.722; 2917.375;  250.375;    0.000
653.838; 2971.375;  255.375;    0.000
653.953; 2999.375;  235.375;    0.000
654.068; 3043.375;  266.375;    0.000
654.184; 3097.375;  210.375;    0.000
654.299; 3096.375;  240.375;    0.000
654.414; 3113.375;  222.375;    0.000
654.530; 3241.375;  222.375;    0.000
654.645; 3307.375;  256.375;    0.000
654.760; 3352.375;  244.375;    0.000
654.875; 3300.375;  229.375;    0.000
654.990; 3500.375;  226.375;    0.000
655.106; 3528.375;  254.375;    0.000
655.221; 3627.375;  251.375;    0.000
655.336; 3672.375;  245.375;    0.000
655.451; 3788.375;  199.375;    0.000
655.566; 3890.375;  228.375;    0.000
655.681; 3882.375;  208.375;    0.000
655.796; 4131.375;  218.375;    0.000
655.911; 4270.375;  233.375;    0.000
656.026; 4382.375;  232.375;    0.000
656.141; 4487.375;  223.375;    0.000
656.256; 4637.375;  247.375;    0.000
656.371; 4607.375;  220.375;    0.000
656.486; 4659.375;  225.375;    0.000
656.601; 4617.375;  257.375;    0.000
656.716; 4545.375;  248.375;    0.000
656.831; 4488.375;  262.375;    0.000
656.946; 4289.375;  249.375;    0.000
657.060; 4263.375;  245.375;    0.000
657.175; 4144.375;  245.375;    0.000
657.290; 4130.375;  219.375;    0.000
657.405; 4042.375;  286.375;    0.000
657.520; 3916.375;  259.375;    0.000
657.634; 3863.375;  239.375;    0.000
657.749; 3760.375;  227.375;    0.000
657.864; 3711.375;  210.375;    0.000
657.979; 3615.375;  236.375;    0.000
658.093; 3594.375;  210.375;    0.000
658.208; 3613.375;  248.375;    0.000
658.323; 3436.375;  216.375;    0.000
658.437; 3331.375;  248.375;    0.000
658.552; 3363.375;  249.375;    0.000
658.666; 3399.375;  256.375;    0.000
658.781; 3244.375;  247.375;    0.000
658.895; 3154.375;  209.375;    0.000
659.010; 3203.375;  219.375;    0.000
659.125; 3151.375;  215.375;    0.000
659.239; 3129.375;  205.375;    0.000
659.353; 3076.375;  246.375;    0.000
659.468; 3039.375;  245.375;    0.000
659.582; 3053.375;  244.375;    0.000
659.697; 2975.375;  242.375;    0.000
659.811; 2892.375;  239.375;    0.000
659.926; 2966.375;  226.375;    0.000
660.040; 2967.375;  255.375;    0.000
660.154; 2894.375;  225.375;    0.000
660.269; 2841.375;  200.375;    0.000
660.383; 2756.375;  192.375;    0.000
660.497; 2807.375;  218.375;    0.000
660.612; 2705.375;  236.375;    0.000
660.726; 2689.375;  263.375;    0.000
660.840; 2712.375;  205.375;    0.000
660.954; 2670.375;  219.375;    0.000
661.068; 2681.375;  240.375;    0.000
661.183; 2632.375;  221.375;    0.000
661.297; 2536.375;  194.375;    0.000
661.411; 2526.375;  253.375;    0.000
661.525; 2595.375;  246.375;    0.000
661.639; 2592.375;  217.375;    0.000
661.753; 2440.375;  241.375;    0.000
661.867; 2472.375;  276.375;    0.000
661.981; 2411.375;  203.375;    0.000
662.095; 2419.375;  224.375;    0.000
662.209; 2464.375;  217.375;    0.000
662.323; 2308.375;  251.375;    0.000
662.437; 2396.375;  243.375;    0.000
662.551; 2371.375;  244.375;    0.000
662.665; 2365.375;  247.375;    0.000
662.779; 2328.375;  251.375;    0.000
662.893; 2372.375;  254.375;    0.000
663.007; 2302.375;  222.375;    0.000
663.121; 2379.375;  253.375;    0.000
663.235; 2238.375;  270.375;    0.000
663.349; 2240.375;  242.375;    0.000
663.462; 2216.375;  230.375;    0.000
663.576; 2207.375;  230.375;    0.000
663.690; 2235.375;  249.375;    0.000
663.804; 2161.375;  200.375;    0.000
663.917; 2144.375;  204.375;    0.000
664.031; 2176.375;  206.375;    0.000
664.145; 2171.375;  202.375;    0.000
664.258; 2185.375;  221.375;    0.000
664.372; 2100.375;  215.375;    0.000
664.486; 2108.375;  179.375;    0.000
664.599; 2108.375;  208.375;    0.000
664.713; 2167.375;  268.375;    0.000
664.827; 2100.375;  225.375;    0.000
664.940; 2152.375;  222.375;    0.000
665.054; 2076.375;  208.375;    0.000
665.167; 2086.375;  253.375;    0.000
665.281; 2139.375;  237.375;    0.000
665.394; 2056.375;  227.375;    0.000
665.508; 1976.375;  192.375;    0.000
665.621; 2104.375;  175.375;    0.000
665.735; 2065.375;  249.375;    0.000
665.848; 2057.375;  197.375;    0.000
665.961; 2064.375;  206.375;    0.000
666.075; 2046.375;  245.375;    0.000
666.188; 1996.375;  230.375;    0.000
666.301; 2006.375;  219.375;    0.000
666.415; 1996.375;  231.375;    0.000
666.528; 1940.375;  258.375;    0.000
666.641; 1961.375;  243.375;    0.000
666.755; 1918.375;  208.375;    0.000
666.868; 1963.375;  228.375;    0.000
666.981; 1948.375;  244.375;    0.000
667.094; 1942.375;  244.375;    0.000
667.207; 1884.375;  226.375;    0.000
667.321; 1923.375;  175.375;    0.000
667.434; 1863.375;  211.375;    0.000
667.547; 1996.375;  249.375;    0.000
667.660; 1833.375;  225.375;    0.000
667.773; 1876.375;  242.375;    0.000
667.886; 1895.375;  246.375;    0.000
667.999; 1897.375;  244.375;    0.000
668.112; 1888.375;  227.375;    0.000
668.225; 1854.375;  231.375;    0.000
668.338; 1862.375;  256.375;    0.000
668.451; 1827.375;  216.375;    0.000
668.564; 1896.375;  261.375;    0.000
668.677; 1878.375;  230.375;    0.000
668.790; 1881.375;  192.375;    0.000
668.903; 1781.375;  243.375;    0.000
669.016; 1779.375;  201.375;    0.000
669.129; 1852.375;  249.375;    0.000
669.242; 1845.375;  190.375;    0.000
669.354; 1836.375;  219.375;    0.000
669.467; 1838.375;  242.375;    0.000
669.580; 1871.375;  237.375;    0.000
669.693; 1720.375;  243.375;    0.000
669.806; 1756.375;  234.375;    0.000
669.918; 1758.375;  206.375;    0.000
670.031; 1763.375;  258.375;    0.000
670.144; 1741.375;  231.375;    0.000
670.256; 1744.375;  244.375;    0.000
670.369; 1780.375;  262.375;    0.000
670.482; 1831.375;  264.375;    0.000
670.594; 1799.375;  256.375;    0.000
670.707; 1754.375;  224.375;    0.000
670.820; 1736.375;  261.375;    0.000
670.932; 1708.375;  226.375;    0.000
671.045; 1797.375;  243.375;    0.000
671.157; 1723.375;  235.375;    0.000
671.270; 1753.375;  217.375;    0.000
671.382; 1726.375;  267.375;    0.000
671.495; 1754.375;  258.375;    0.000
671.607; 1702.375;  236.375;    0.000
671.720; 1719.375;  200.375;    0.000
671.832; 1692.375;  219.375;    0.000
671.944; 1717.375;  234.375;    0.000
672.057; 1717.375;  226.375;    0.000
672.169; 1671.375;  225.375;    0.000
672.281; 1741.375;  253.375;    0.000
672.394; 1786.375;  238.375;    0.000
672.506; 1708.375;  244.375;    0.000
672.618; 1670.375;  272.375;    0.000
672.731; 1757.375;  247.375;    0.000
672.843; 1652.375;  261.375;    0.000
672.955; 1765.375;  262.375;    0.000
673.067; 1704.375;  253.375;    0.000
673.180; 1713.375;  239.375;    0.000
673.292; 1696.375;  240.375;    0.000
673.404; 1684.375;  243.375;    0.000
673.516; 1668.375;  258.375;    0.000
673.628; 1692.375;  263.375;    0.000
673.740; 1618.375;  250.375;    0.000
673.852; 1684.375;  285.375;    0.000
673.964; 1754.375;  264.375;    0.000
674.076; 1640.375;  260.375;    0.000
674.188; 1662.375;  226.375;    0.000
674.300; 1681.375;  272.375;    0.000
674.412; 1692.375;  259.375;    0.000
674.524; 1741.375;  283.375;    0.000
674.636; 1632.375;  259.375;    0.000
674.748; 1643.375;  238.375;    0.000
674.860; 1636.375;  277.375;    0.000
674.972; 1660.375;  272.375;    0.000
675.084; 1636.375;  244.375;    0.000
675.196; 1620.375;  272.375;    0.000
675.307; 1675.375;  244.375;    0.000
675.419; 1596.375;  219.375;    0.000
675.531; 1698.375;  275.375;    0.000
675.643; 1606.375;  215.375;    0.000
675.755; 1638.375;  243.375;    0.000
675.866; 1575.375;  223.375;    0.000
675.978; 1594.375;  216.375;    0.000
676.090; 1619.375;  242.375;    0.000
676.201; 1649.375;  276.375;    0.000
676.313; 1615.375;  226.375;    0.000
676.425; 1561.375;  234.375;    0.000
676.536; 1581.375;  231.375;    0.000
676.648; 1613.375;  254.375;    0.000
676.759; 1552.375;  273.375;    0.000
676.871; 1579.375;  250.375;    0.000
676.983; 1648.375;  256.375;    0.000
677.094; 1542.375;  210.375;    0.000
677.206; 1592.375;  248.375;    0.000
677.317; 1638.375;  263.375;    0.000
677.429; 1563.375;  238.375;    0.000
677.540; 1620.375;  247.375;    0.000
677.651; 1555.375;  224.375;    0.000
677.763; 1604.375;  217.375;    0.000
677.874; 1599.375;  234.375;    0.000
677.986; 1577.375;  238.375;    0.000
678.097; 1586.375;  226.375;    0.000
678.208; 1585.375;  253.375;    0.000
678.320; 1498.375;  217.375;    0.000
678.431; 1551.375;  238.375;    0.000
678.542; 1518.375;  236.375;    0.000
678.653; 1509.375;  218.375;    0.000
678.765; 1562.375;  275.375;    0.000
678.876; 1549.375;  213.375;    0.000
678.987; 1491.375;  182.375;    0.000
679.098; 1481.375;  221.375;    0.000
679.209; 1522.375;  238.375;    0.000
679.320; 1469.375;  212.375;    0.000
679.432; 1474.375;  231.375;    0.000
679.543; 1521.375;  198.375;    0.000
679.654; 1548.375;  191.375;    0.000
679.765; 1481.375;  214.375;    0.000
679.876; 1558.375;  221.375;    0.000
679.987; 1467.375;  162.375;    0.000
680.098; 1542.375;  230.375;    0.000
680.209; 1524.375;  206.375;    0.000
680.320; 1472.375;  196.375;    0.000
680.431; 1441.375;  191.375;    0.000
680.542; 1421.375;  214.375;    0.000
680.653; 1533.375;  238.375;    0.000
680.763; 1392.375;  182.375;    0.000
680.874; 1534.375;  213.375;    0.000
680.985; 1420.375;  224.375;    0.000
681.096; 1528.375;  222.375;    0.000
681.207; 1490.375;  220.375;    0.000
681.318; 1468.375;  216.375;    0.000
681.428; 1465.375;  229.375;    0.000
681.539; 1424.375;  183.375;    0.000
681.650; 1472.375;  202.375;    0.000
681.760; 1493.375;  223.375;    0.000
681.871; 1516.375;  211.375;    0.000
681.982; 1424.375;  189.375;    0.000
682.093; 1442.375;  222.375;    0.000
682.203; 1504.375;  220.375;    0.000
682.314; 1468.375;  214.375;    0.000
682.424; 1500.375;  208.375;    0.000
682.535; 1528.375;  213.375;    0.000
682.646; 1493.375;  302.375;    0.000
682.756; 1516.375;  255.375;    0.000
682.867; 1492.375;  244.375;    0.000
682.977; 1470.375;  221.375;    0.000
683.088; 1430.375;  259.375;    0.000
683.198; 1450.375;  212.375;    0.000
683.308; 1452.375;  202.375;    0.000
683.419; 1550.375;  255.375;    0.000
683.529; 1483.375;  217.375;    0.000
683.640; 1463.375;  240.375;    0.000
683.750; 1455.375;  181.375;    0.000
683.860; 1526.375;  246.375;    0.000
683.971; 1577.375;  254.375;    0.000
684.081; 1463.375;  235.375;    0.000
684.191; 1455.375;  251.375;    0.000
684.301; 1447.375;  233.375;    0.000
684.412; 1455.375;  202.375;    0.000
684.522; 1428.375;  232.375;    0.000
684.632; 1467.375;  202.375;    0.000
684.742; 1467.375;  254.375;    0.000
684.852; 1461.375;  219.375;    0.000
684.963; 1427.375;  256.375;    0.000
685.073; 1422.375;  253.375;    0.000
685.183; 1507.375;  254.375;    0.000
685.293; 1427.375;  232.375;    0.000
685.403; 1480.375;  242.375;    0.000
685.513; 1497.375;  261.375;    0.000
685.623; 1465.375;  245.375;    0.000
685.733; 1425.375;  254.375;    0.000
685.843; 1455.375;  249.375;    0.000
685.953; 1490.375;  252.375;    0.000
686.063; 1500.375;  227.375;    0.000
686.173; 1494.375;  223.375;    0.000
686.283; 1438.375;  234.375;    0.000
686.393; 1417.375;  239.375;    0.000
686.503; 1435.375;  231.375;    0.000
686.612; 1434.375;  232.375;    0.000
686.722; 1461.375;  258.375;    0.000
686.832; 1431.375;  256.375;    0.000
686.942; 1480.375;  230.375;    0.000
687.052; 1511.375;  274.375;    0.000
687.161; 1463.375;  269.375;    0.000
687.271; 1426.375;  218.375;    0.000
687.381; 1415.375;  235.375;    0.000
687.491; 1438.375;  262.375;    0.000
687.600; 1449.375;  256.375;    0.000
687.710; 1383.375;  225.375;    0.000
687.820; 1481.375;  230.375;    0.000
687.929; 1445.375;  226.375;    0.000
688.039; 1429.375;  228.375;    0.000
688.148; 1430.375;  249.375;    0.000
688.258; 1397.375;  237.375;    0.000
688.367; 1364.375;  260.375;    0.000
688.477; 1418.375;  200.375;    0.000
688.586; 1406.375;  223.375;    0.000
688.696; 1407.375;  223.375;    0.000
688.805; 1422.375;  257.375;    0.000
688.915; 1410.375;  185.375;    0.000
689.024; 1483.375;  227.375;    0.000
689.134; 1483.375;  224.375;    0.000
689.243; 1387.375;  206.375;    0.000
689.352; 1425.375;  275.375;    0.000
689.462; 1405.375;  233.375;    0.000
689.571; 1351.375;  244.375;    0.000
689.680; 1421.375;  261.375;    0.000
689.790; 1335.375;  192.375;    0.000
689.899; 1426.375;  214.375;    0.000
690.008; 1396.375;  255.375;    0.000
690.117; 1371.375;  219.375;    0.000
690.227; 1436.375;  241.375;    0.000
690.336; 1447.375;  231.375;    0.000
690.445; 1325.375;  212.375;    0.000
690.554; 1400.375;  234.375;    0.000
690.663; 1387.375;  210.375;    0.000
690.772; 1438.375;  221.375;    0.000
690.881; 1395.375;  244.375;    0.000
690.990; 1356.375;  247.375;    0.000
691.099; 1384.375;  222.375;    0.000
691.209; 1367.375;  240.375;    0.000
691.318; 1423.375;  223.375;    0.000
691.427; 1355.375;  217.375;    0.000
691.536; 1358.375;  216.375;    0.000
691.644; 1366.375;  194.375;    0.000
691.753; 1385.375;  221.375;    0.000
691.862; 1381.375;  224.375;    0.000
691.971; 1371.375;  191.375;    0.000
692.080; 1367.375;  247.375;    0.000
692.189; 1369.375;  208.375;    0.000
692.298; 1366.375;  203.375;    0.000
692.406; 1394.375;  239.375;    0.000
692.515; 1415.375;  250.375;    0.000
692.624; 1361.375;  226.375;    0.000
692.733; 1348.375;  229.375;    0.000
692.842; 1381.375;  254.375;    0.000
692.950; 1367.375;  242.375;    0.000
693.059; 1331.375;  204.375;    0.000
693.168; 1376.375;  252.375;    0.000
693.276; 1344.375;  195.375;    0.000
693.385; 1316.375;  228.375;    0.000
693.494; 1361.375;  282.375;    0.000
693.602; 1355.375;  221.375;    0.000
693.711; 1368.375;  225.375;    0.000
693.819; 1412.375;  234.375;    0.000
693.928; 1382.375;  229.375;    0.000
694.036; 1322.375;  192.375;    0.000
694.145; 1349.375;  233.375;    0.000
694.253; 1384.375;  277.375;    0.000
694.362; 1378.375;  188.375;    0.000
694.470; 1413.375;  263.375;    0.000
694.579; 1371.375;  253.375;    0.000
694.687; 1446.375;  281.375;    0.000
694.795; 1342.375;  233.375;    0.000
694.904; 1333.375;  223.375;    0.000
695.012; 1392.375;  296.375;    0.000
695.120; 1353.375;  227.375;    0.000
695.229; 1445.375;  269.375;    0.000
695.337; 1365.375;  229.375;    0.000
695.445; 1416.375;  244.375;    0.000
695.553; 1418.375;  259.375;    0.000
695.662; 1384.375;  208.375;    0.000
695.770; 1396.375;  241.375;    0.000
695.878; 1426.375;  239.375;    0.000
695.986; 1420.375;  247.375;    0.000
696.094; 1359.375;  224.375;    0.000
696.202; 1358.375;  205.375;    0.000
696.310; 1406.375;  217.375;    0.000
696.419; 1369.375;  228.375;    0.000
696.527; 1346.375;  246.375;    0.000
696.635; 1421.375;  245.375;    0.000
696.743; 1375.375;  233.375;    0.000
696.851; 1351.375;  251.375;    0.000
696.959; 1428.375;  257.375;    0.000
697.067; 1411.375;  260.375;    0.000
697.174; 1404.375;  223.375;    0.000
697.282; 1341.375;  239.375;    0.000
697.390; 1369.375;  264.375;    0.000
697.498; 1360.375;  227.375;    0.000
697.606; 1375.375;  243.375;    0.000
697.714; 1394.375;  256.375;    0.000
697.822; 1346.375;  278.375;    0.000
697.929; 1320.375;  227.375;    0.000
698.037; 1330.375;  232.375;    0.000
698.145; 1387.375;  256.375;    0.000
698.253; 1383.375;  245.375;    0.000
698.360; 1507.375;  282.375;    0.000
698.468; 1388.375;  244.375;    0.000
698.576; 1359.375;  279.375;    0.000
698.683; 1389.375;  259.375;    0.000
698.791; 1389.375;  265.375;    0.000
698.899; 1443.375;  250.375;    0.000
699.006; 1404.375;  245.375;    0.000
699.114; 1437.375;  280.375;    0.000
699.221; 1386.375;  240.375;    0.000
699.329; 1414.375;  293.375;    0.000
699.436; 1323.375;  216.375;    0.000
699.544; 1372.375;  269.375;    0.000
699.651; 1390.375;  219.375;    0.000
699.759; 1377.375;  245.375;    0.000
699.866; 1327.375;  261.375;    0.000
699.974; 1345.375;  245.375;    0.000
700.081; 1376.375;  257.375;    0.000
700.188; 1385.375;  268.375;    0.000
700.296; 1312.375;  225.375;    0.000
700.403; 1347.375;  257.375;    0.000
700.510; 1430.375;  267.375;    0.000
700.618; 1340.375;  299.375;    0.000
700.725; 1322.375;  223.375;    0.000
700.832; 1340.375;  233.375;    0.000
700.940; 1351.375;  255.375;    0.000
701.047; 1353.375;  244.375;    0.000
701.154; 1386.375;  248.375;    0.000
701.261; 1319.375;  264.375;    0.000
701.368; 1322.375;  299.375;    0.000
701.475; 1343.375;  264.375;    0.000
701.582; 1390.375;  275.375;    0.000
701.690; 1385.375;  261.375;    0.000
701.797; 1369.375;  273.375;    0.000
701.904; 1429.375;  320.375;    0.000
702.011; 1443.375;  299.375;    0.000
702.118; 1445.375;  292.375;    0.000
702.225; 1364.375;  317.375;    0.000
702.332; 1364.375;  307.375;    0.000
702.439; 1366.375;  313.375;    0.000
702.546; 1409.375;  312.375;    0.000
702.652; 1390.375;  297.375;    0.000
702.759; 1452.375;  345.375;    0.000
702.866; 1388.375;  330.375;    0.000
702.973; 1415.375;  303.375;    0.000
703.080; 1390.375;  303.375;    0.000
703.187; 1401.375;  327.375;    0.000
703.294; 1420.375;  325.375;    0.000
703.400; 1304.375;  302.375;    0.000
703.507;  473.375;  344.375;    0.000
703.614;  315.375;  294.375;    0.000
703.720;  300.375;  322.375;    0.000
703.827;  314.375;  329.375;    0.000
703.934;  326.375;  318.375;    0.000
704.040;  284.375;  299.375;    0.000
704.147;  333.375;  352.375;    0.000
704.254;  312.375;  350.375;    0.000
704.360;  321.375;  347.375;    0.000
704.467;  339.375;  336.375;    0.000
704.573;  330.375;  344.375;    0.000
704.680;  308.375;  365.375;    0.000
704.786;  340.375;  332.375;    0.000
704.893;  330.375;  304.375;    0.000
704.999;  265.375;  299.375;    0.000
705.106;  337.375;  365.375;    0.000

