
Integration time [ms]:   1.000
Averaging Nr. [scans]: 1
Smoothing Nr. [pixels]: 0
Data measured with spectrometer [name]: UV2
Wave   ;Sample   ;Dark     ;Reference
[nm]   ;[counts] ;[counts] ;[counts] 

353.533;  230.375;  216.475;    0.000
353.597;  228.375;  244.475;    0.000
353.660;  197.375;  181.475;    0.000
353.723;  215.375;  203.475;    0.000
353.786;  203.375;  180.475;    0.000
353.850;  224.375;  213.475;    0.000
353.913;  163.375;  191.475;    0.000
353.976;  198.375;  195.475;    0.000
354.039;  191.375;  158.475;    0.000
354.102;  221.375;  199.475;    0.000
354.166;  197.375;  185.475;    0.000
354.229;  197.375;  188.475;    0.000
354.292;  198.375;  188.475;    0.000
354.355;  195.375;  226.475;    0.000
354.418;  194.375;  158.475;    0.000
354.481;  220.375;  185.475;    0.000
354.545;  562.375;  191.475;    0.000
354.608;  620.375;  247.475;    0.000
354.671;  589.375;  176.475;    0.000
354.734;  640.375;  198.475;    0.000
354.797;  599.375;  195.475;    0.000
354.860;  616.375;  212.475;    0.000
354.923;  639.375;  184.475;    0.000
354.986;  642.375;  169.475;    0.000
355.050;  627.375;  206.475;    0.000
355.113;  639.375;  210.475;    0.000
355.176;  669.375;  217.475;    0.000
355.239;  683.375;  201.475;    0.000
355.302;  594.375;  193.475;    0.000
355.365;  703.375;  234.475;    0.000
355.428;  685.375;  182.475;    0.000
355.491;  688.375;  233.475;    0.000
355.554;  645.375;  167.475;    0.000
355.617;  720.375;  195.475;    0.000
355.680;  725.375;  198.475;    0.000
355.743;  728.375;  186.475;    0.000
355.806;  697.375;  171.475;    0.000
355.869;  788.375;  244.475;    0.000
355.932;  731.375;  164.475;    0.000
355.995;  756.375;  220.475;    0.000
356.058;  719.375;  172.475;    0.000
356.121;  780.375;  228.475;    0.000
356.184;  785.375;  225.475;    0.000
356.247;  783.375;  161.475;    0.000
356.310;  721.375;  195.475;    0.000
356.373;  787.375;  191.475;    0.000
356.436;  733.375;  147.475;    0.000
356.498;  782.375;  183.475;    0.000
356.561;  753.375;  137.475;    0.000
356.624;  802.375;  186.475;    0.000
356.687;  771.375;  158.475;    0.000
356.750;  788.375;  194.475;    0.000
356.813;  740.375;  186.475;    0.000
356.876;  792.375;  161.475;    0.000
356.939;  840.375;  188.475;    0.000
357.001;  771.375;  200.475;    0.000
357.064;  787.375;  182.475;    0.000
357.127;  783.375;  168.475;    0.000
357.190;  819.375;  157.475;    0.000
357.253;  831.375;  199.475;    0.000
357.316;  817.375;  187.475;    0.000
357.378;  855.375;  174.475;    0.000
357.441;  789.375;  165.475;    0.000
357.504;  809.375;  189.475;    0.000
357.567;  795.375;  116.475;    0.000
357.629;  854.375;  176.475;    0.000
357.692;  787.375;  134.475;    0.000
357.755;  836.375;  175.475;    0.000
357.818;  784.375;  159.475;    0.000
357.880;  793.375;  185.475;    0.000
357.943;  824.375;  159.475;    0.000
358.006;  789.375;  176.475;    0.000
358.069;  799.375;  156.475;    0.000
358.131;  779.375;  170.475;    0.000
358.194;  788.375;  125.475;    0.000
358.257;  821.375;  186.475;    0.000
358.319;  806.375;  139.475;    0.000
358.382;  833.375;  175.475;    0.000
358.445;  853.375;  170.475;    0.000
358.507;  833.375;  129.475;    0.000
358.570;  814.375;  168.475;    0.000
358.633;  798.375;  152.475;    0.000
358.695;  856.375;  194.475;    0.000
358.758;  794.375;  154.475;    0.000
358.821;  780.375;  147.475;    0.000
358.883;  778.375;  163.475;    0.000
358.946;  810.375;  155.475;    0.000
359.008;  857.375;  208.475;    0.000
359.071;  816.375;  182.475;    0.000
359.134;  817.375;  126.475;    0.000
359.196;  856.375;  142.475;    0.000
359.259;  888.375;  138.475;    0.000
359.321;  818.375;  153.475;    0.000
359.384;  871.375;  186.475;    0.000
359.446;  880.375;  152.475;    0.000
359.509;  857.375;  144.475;    0.000
359.571;  847.375;  164.475;    0.000
359.634;  768.375;  171.475;    0.000
359.696;  843.375;  144.475;    0.000
359.759;  895.375;  171.475;    0.000
359.821;  842.375;  161.475;    0.000
359.884;  813.375;  159.475;    0.000
359.946;  881.375;  186.475;    0.000
360.009;  881.375;  171.475;    0.000
360.071;  847.375;  166.475;    0.000
360.134;  922.375;  215.475;    0.000
360.196;  880.375;  138.475;    0.000
360.259;  920.375;  196.475;    0.000
360.321;  902.375;  148.475;    0.000
360.384;  859.375;  150.475;    0.000
360.446;  884.375;  148.475;    0.000
360.508;  897.375;  172.475;    0.000
360.571;  927.375;  155.475;    0.000
360.633;  838.375;  153.475;    0.000
360.696;  785.375;  142.475;    0.000
360.758;  881.375;  165.475;    0.000
360.820;  874.375;  155.475;    0.000
360.883;  845.375;  156.475;    0.000
360.945;  926.375;  171.475;    0.000
361.007;  862.375;  138.475;    0.000
361.070;  912.375;  129.475;    0.000
361.132;  922.375;  166.475;    0.000
361.194;  904.375;  143.475;    0.000
361.257;  896.375;  154.475;    0.000
361.319;  920.375;  176.475;    0.000
361.381;  889.375;  143.475;    0.000
361.443;  880.375;  136.475;    0.000
361.506;  897.375;  160.475;    0.000
361.568;  903.375;  140.475;    0.000
361.630;  961.375;  159.475;    0.000
361.693;  934.375;  162.475;    0.000
361.755;  969.375;  185.475;    0.000
361.817;  930.375;  209.475;    0.000
361.879;  905.375;  161.475;    0.000
361.941;  922.375;  152.475;    0.000
362.004;  900.375;  132.475;    0.000
362.066;  902.375;  159.475;    0.000
362.128;  956.375;  143.475;    0.000
362.190;  918.375;  131.475;    0.000
362.252;  926.375;  131.475;    0.000
362.315;  917.375;  175.475;    0.000
362.377;  926.375;  140.475;    0.000
362.439;  931.375;  140.475;    0.000
362.501;  974.375;  140.475;    0.000
362.563;  908.375;  152.475;    0.000
362.625;  958.375;  174.475;    0.000
362.688;  936.375;  195.475;    0.000
362.750;  979.375;  221.475;    0.000
362.812;  922.375;  171.475;    0.000
362.874;  959.375;  117.475;    0.000
362.936;  992.375;  162.475;    0.000
362.998;  955.375;  142.475;    0.000
363.060;  965.375;  143.475;    0.000
363.122; 1004.375;  148.475;    0.000
363.184;  965.375;  179.475;    0.000
363.246; 1001.375;  186.475;    0.000
363.308;  969.375;  180.475;    0.000
363.370;  960.375;  200.475;    0.000
363.432;  925.375;  139.475;    0.000
363.494; 1012.375;  138.475;    0.000
363.556;  980.375;  114.475;    0.000
363.618;  978.375;  153.475;    0.000
363.680;  987.375;  153.475;    0.000
363.742; 1014.375;  178.475;    0.000
363.804;  979.375;  214.475;    0.000
363.866;  973.375;  170.475;    0.000
363.928;  948.375;  145.475;    0.000
363.990; 1015.375;  215.475;    0.000
364.052;  976.375;  166.475;    0.000
364.114;  961.375;  168.475;    0.000
364.176; 1066.375;  176.475;    0.000
364.238; 1021.375;  203.475;    0.000
364.300;  989.375;  158.475;    0.000
364.362;  983.375;  152.475;    0.000
364.424;  968.375;  119.475;    0.000
364.486; 1018.375;  187.475;    0.000
364.548;  992.375;  180.475;    0.000
364.609; 1030.375;  212.475;    0.000
364.671;  959.375;  165.475;    0.000
364.733; 1047.375;  190.475;    0.000
364.795;  970.375;  148.475;    0.000
364.857;  955.375;  159.475;    0.000
364.919; 1006.375;  159.475;    0.000
364.981;  977.375;  191.475;    0.000
365.042; 1001.375;  170.475;    0.000
365.104;  968.375;  145.475;    0.000
365.166;  955.375;  134.475;    0.000
365.228; 1036.375;  150.475;    0.000
365.290;  960.375;  158.475;    0.000
365.351;  930.375;  168.475;    0.000
365.413;  971.375;  173.475;    0.000
365.475; 1039.375;  172.475;    0.000
365.537; 1027.375;  126.475;    0.000
365.598; 1031.375;  160.475;    0.000
365.660;  946.375;  127.475;    0.000
365.722; 1043.375;  189.475;    0.000
365.784;  943.375;  161.475;    0.000
365.845; 1005.375;  152.475;    0.000
365.907;  989.375;  117.475;    0.000
365.969; 1008.375;  146.475;    0.000
366.030; 1031.375;  171.475;    0.000
366.092; 1021.375;  155.475;    0.000
366.154; 1030.375;  137.475;    0.000
366.215; 1090.375;  147.475;    0.000
366.277;  991.375;  148.475;    0.000
366.339;  997.375;  158.475;    0.000
366.400;  992.375;  140.475;    0.000
366.462; 1032.375;  159.475;    0.000
366.524; 1056.375;  160.475;    0.000
366.585; 1035.375;  157.475;    0.000
366.647; 1018.375;  170.475;    0.000
366.708;  987.375;  123.475;    0.000
366.770; 1029.375;  194.475;    0.000
366.832; 1049.375;  191.475;    0.000
366.893; 1003.375;  155.475;    0.000
366.955; 1042.375;  132.475;    0.000
367.016; 1039.375;  126.475;    0.000
367.078; 1054.375;  202.475;    0.000
367.139; 1010.375;  116.475;    0.000
367.201; 1041.375;  134.475;    0.000
367.262; 1080.375;  157.475;    0.000
367.324; 1041.375;  202.475;    0.000
367.385; 1000.375;  118.475;    0.000
367.447; 1054.375;  155.475;    0.000
367.508; 1048.375;  134.475;    0.000
367.570; 1011.375;  165.475;    0.000
367.631;  992.375;  118.475;    0.000
367.693; 1069.375;  170.475;    0.000
367.754; 1016.375;  154.475;    0.000
367.816; 1049.375;  146.475;    0.000
367.877; 1095.375;  175.475;    0.000
367.939; 1073.375;  200.475;    0.000
368.000; 1076.375;  168.475;    0.000
368.062; 1017.375;  138.475;    0.000
368.123; 1068.375;  170.475;    0.000
368.184; 1121.375;  188.475;    0.000
368.246; 1014.375;  145.475;    0.000
368.307; 1021.375;  163.475;    0.000
368.369; 1020.375;  144.475;    0.000
368.430; 1055.375;  140.475;    0.000
368.491; 1086.375;  133.475;    0.000
368.553; 1044.375;  145.475;    0.000
368.614; 1048.375;  158.475;    0.000
368.675; 1017.375;  147.475;    0.000
368.737; 1115.375;  157.475;    0.000
368.798; 1016.375;  163.475;    0.000
368.859; 1143.375;  173.475;    0.000
368.921; 1149.375;  122.475;    0.000
368.982; 1056.375;  184.475;    0.000
369.043; 1083.375;  169.475;    0.000
369.104; 1105.375;  142.475;    0.000
369.166; 1043.375;  169.475;    0.000
369.227; 1068.375;  156.475;    0.000
369.288; 1047.375;  151.475;    0.000
369.349; 1047.375;  191.475;    0.000
369.411; 1124.375;  168.475;    0.000
369.472; 1111.375;  155.475;    0.000
369.533; 1051.375;  149.475;    0.000
369.594; 1125.375;  174.475;    0.000
369.656; 1071.375;  188.475;    0.000
369.717; 1015.375;  113.475;    0.000
369.778; 1111.375;  184.475;    0.000
369.839; 1081.375;  151.475;    0.000
369.900; 1142.375;  180.475;    0.000
369.961; 1069.375;  171.475;    0.000
370.023; 1113.375;  143.475;    0.000
370.084; 1089.375;  137.475;    0.000
370.145; 1074.375;  152.475;    0.000
370.206; 1064.375;  151.475;    0.000
370.267; 1108.375;  134.475;    0.000
370.328; 1074.375;  178.475;    0.000
370.389; 1154.375;  181.475;    0.000
370.451; 1090.375;  169.475;    0.000
370.512; 1137.375;  172.475;    0.000
370.573; 1093.375;  148.475;    0.000
370.634; 1144.375;  156.475;    0.000
370.695; 1094.375;  151.475;    0.000
370.756; 1074.375;  185.475;    0.000
370.817; 1122.375;  185.475;    0.000
370.878; 1122.375;  191.475;    0.000
370.939; 1135.375;  147.475;    0.000
371.000; 1174.375;  162.475;    0.000
371.061; 1106.375;  145.475;    0.000
371.122; 1084.375;  179.475;    0.000
371.183; 1024.375;  114.475;    0.000
371.244; 1135.375;  180.475;    0.000
371.305; 1092.375;  138.475;    0.000
371.366; 1142.375;  157.475;    0.000
371.427; 1105.375;  148.475;    0.000
371.488; 1129.375;  138.475;    0.000
371.549; 1179.375;  193.475;    0.000
371.610; 1119.375;  158.475;    0.000
371.671; 1046.375;  119.475;    0.000
371.732; 1056.375;  159.475;    0.000
371.793; 1104.375;  178.475;    0.000
371.853; 1089.375;  155.475;    0.000
371.914; 1089.375;  148.475;    0.000
371.975; 1080.375;  124.475;    0.000
372.036; 1113.375;  158.475;    0.000
372.097; 1085.375;  136.475;    0.000
372.158; 1064.375;  116.475;    0.000
372.219; 1182.375;  157.475;    0.000
372.280; 1147.375;  151.475;    0.000
372.340; 1194.375;  190.475;    0.000
372.401; 1138.375;  151.475;    0.000
372.462; 1117.375;  129.475;    0.000
372.523; 1112.375;  121.475;    0.000
372.584; 1127.375;  152.475;    0.000
372.645; 1094.375;  132.475;    0.000
372.705; 1184.375;  190.475;    0.000
372.766; 1148.375;  153.475;    0.000
372.827; 1131.375;  133.475;    0.000
372.888; 1179.375;  161.475;    0.000
372.948; 1164.375;  159.475;    0.000
373.009; 1121.375;  164.475;    0.000
373.070; 1169.375;  139.475;    0.000
373.131; 1201.375;  137.475;    0.000
373.191; 1181.375;  181.475;    0.000
373.252; 1103.375;  154.475;    0.000
373.313; 1090.375;  179.475;    0.000
373.373; 1130.375;  136.475;    0.000
373.434; 1270.375;  169.475;    0.000
373.495; 1114.375;   97.475;    0.000
373.555; 1141.375;  142.475;    0.000
373.616; 1092.375;  178.475;    0.000
373.677; 1176.375;  167.475;    0.000
373.737; 1178.375;  139.475;    0.000
373.798; 1136.375;  155.475;    0.000
373.859; 1208.375;  162.475;    0.000
373.919; 1155.375;  174.475;    0.000
373.980; 1105.375;  172.475;    0.000
374.041; 1134.375;  166.475;    0.000
374.101; 1133.375;  172.475;    0.000
374.162; 1195.375;  188.475;    0.000
374.222; 1205.375;  186.475;    0.000
374.283; 1134.375;  195.475;    0.000
374.343; 1236.375;  204.475;    0.000
374.404; 1156.375;  187.475;    0.000
374.465; 1207.375;  183.475;    0.000
374.525; 1138.375;  136.475;    0.000
374.586; 1148.375;  140.475;    0.000
374.646; 1213.375;  191.475;    0.000
374.707; 1309.375;  208.475;    0.000
374.767; 1263.375;  178.475;    0.000
374.828; 1198.375;  159.475;    0.000
374.888; 1221.375;  143.475;    0.000
374.949; 1168.375;  202.475;    0.000
375.009; 1232.375;  151.475;    0.000
375.070; 1189.375;  160.475;    0.000
375.130; 1226.375;  160.475;    0.000
375.190; 1190.375;  164.475;    0.000
375.251; 1211.375;  196.475;    0.000
375.311; 1263.375;  154.475;    0.000
375.372; 1200.375;  197.475;    0.000
375.432; 1176.375;  159.475;    0.000
375.493; 1252.375;  197.475;    0.000
375.553; 1225.375;  165.475;    0.000
375.613; 1221.375;  174.475;    0.000
375.674; 1265.375;  165.475;    0.000
375.734; 1191.375;  128.475;    0.000
375.794; 1207.375;  169.475;    0.000
375.855; 1216.375;  193.475;    0.000
375.915; 1206.375;  162.475;    0.000
375.975; 1228.375;  181.475;    0.000
376.036; 1241.375;  161.475;    0.000
376.096; 1205.375;  131.475;    0.000
376.156; 1193.375;  165.475;    0.000
376.217; 1226.375;  182.475;    0.000
376.277; 1217.375;  185.475;    0.000
376.337; 1192.375;  177.475;    0.000
376.398; 1194.375;  162.475;    0.000
376.458; 1252.375;  179.475;    0.000
376.518; 1264.375;  150.475;    0.000
376.578; 1208.375;  165.475;    0.000
376.639; 1215.375;  159.475;    0.000
376.699; 1220.375;  180.475;    0.000
376.759; 1257.375;  206.475;    0.000
376.819; 1265.375;  146.475;    0.000
376.880; 1303.375;  177.475;    0.000
376.940; 1251.375;  160.475;    0.000
377.000; 1175.375;  149.475;    0.000
377.060; 1268.375;  180.475;    0.000
377.120; 1208.375;  146.475;    0.000
377.180; 1255.375;  137.475;    0.000
377.241; 1227.375;  163.475;    0.000
377.301; 1305.375;  169.475;    0.000
377.361; 1231.375;  137.475;    0.000
377.421; 1217.375;  184.475;    0.000
377.481; 1247.375;  185.475;    0.000
377.541; 1273.375;  146.475;    0.000
377.601; 1274.375;  179.475;    0.000
377.661; 1251.375;  181.475;    0.000
377.722; 1274.375;  185.475;    0.000
377.782; 1243.375;  147.475;    0.000
377.842; 1338.375;  190.475;    0.000
377.902; 1260.375;  166.475;    0.000
377.962; 1241.375;  153.475;    0.000
378.022; 1298.375;  163.475;    0.000
378.082; 1275.375;  146.475;    0.000
378.142; 1280.375;  152.475;    0.000
378.202; 1317.375;  164.475;    0.000
378.262; 1328.375;  195.475;    0.000
378.322; 1368.375;  190.475;    0.000
378.382; 1289.375;  152.475;    0.000
378.442; 1341.375;  175.475;    0.000
378.502; 1306.375;  153.475;    0.000
378.562; 1341.375;  142.475;    0.000
378.622; 1335.375;  166.475;    0.000
378.682; 1286.375;  173.475;    0.000
378.742; 1300.375;  182.475;    0.000
378.802; 1300.375;  145.475;    0.000
378.862; 1424.375;  210.475;    0.000
378.921; 1361.375;  182.475;    0.000
378.981; 1346.375;  185.475;    0.000
379.041; 1321.375;  130.475;    0.000
379.101; 1355.375;  177.475;    0.000
379.161; 1327.375;  166.475;    0.000
379.221; 1336.375;  162.475;    0.000
379.281; 1372.375;  167.475;    0.000
379.341; 1322.375;  136.475;    0.000
379.401; 1337.375;  145.475;    0.000
379.460; 1355.375;  176.475;    0.000
379.520; 1353.375;  162.475;    0.000
379.580; 1349.375;  144.475;    0.000
379.640; 1414.375;  163.475;    0.000
379.700; 1370.375;  157.475;    0.000
379.759; 1435.375;  165.475;    0.000
379.819; 1364.375;  190.475;    0.000
379.879; 1362.375;  143.475;    0.000
379.939; 1420.375;  188.475;    0.000
379.999; 1454.375;  141.475;    0.000
380.058; 1399.375;  169.475;    0.000
380.118; 1425.375;  158.475;    0.000
380.178; 1428.375;  114.475;    0.000
380.237; 1439.375;  157.475;    0.000
380.297; 1368.375;  177.475;    0.000
380.357; 1467.375;  189.475;    0.000
380.417; 1476.375;  182.475;    0.000
380.476; 1495.375;  178.475;    0.000
380.536; 1419.375;  189.475;    0.000
380.596; 1413.375;  183.475;    0.000
380.655; 1467.375;  195.475;    0.000
380.715; 1503.375;  170.475;    0.000
380.775; 1441.375;  170.475;    0.000
380.834; 1465.375;  179.475;    0.000
380.894; 1418.375;  188.475;    0.000
380.954; 1455.375;  142.475;    0.000
381.013; 1481.375;  178.475;    0.000
381.073; 1512.375;  164.475;    0.000
381.132; 1496.375;  192.475;    0.000
381.192; 1510.375;  187.475;    0.000
381.252; 1473.375;  176.475;    0.000
381.311; 1552.375;  206.475;    0.000
381.371; 1523.375;  167.475;    0.000
381.430; 1543.375;  131.475;    0.000
381.490; 1508.375;  150.475;    0.000
381.549; 1470.375;  129.475;    0.000
381.609; 1523.375;  178.475;    0.000
381.668; 1593.375;  194.475;    0.000
381.728; 1589.375;  210.475;    0.000
381.787; 1597.375;  190.475;    0.000
381.847; 1582.375;  181.475;    0.000
381.906; 1619.375;  156.475;    0.000
381.966; 1686.375;  176.475;    0.000
382.025; 1666.375;  186.475;    0.000
382.085; 1642.375;  192.475;    0.000
382.144; 1720.375;  173.475;    0.000
382.204; 1703.375;  207.475;    0.000
382.263; 1740.375;  193.475;    0.000
382.323; 1726.375;  164.475;    0.000
382.382; 1712.375;  161.475;    0.000
382.441; 1757.375;  199.475;    0.000
382.501; 1889.375;  208.475;    0.000
382.560; 1851.375;  173.475;    0.000
382.619; 1994.375;  179.475;    0.000
382.679; 1967.375;  177.475;    0.000
382.738; 2100.375;  190.475;    0.000
382.798; 2198.375;  213.475;    0.000
382.857; 2459.375;  195.475;    0.000
382.916; 2670.375;  184.475;    0.000
382.976; 2639.375;  169.475;    0.000
383.035; 2517.375;  194.475;    0.000
383.094; 2668.375;  185.475;    0.000
383.154; 2881.375;  198.475;    0.000
383.213; 3304.375;  147.475;    0.000
383.272; 3197.375;  175.475;    0.000
383.331; 2566.375;  122.475;    0.000
383.391; 2419.375;  185.475;    0.000
383.450; 2408.375;  160.475;    0.000
383.509; 2379.375;  168.475;    0.000
383.568; 2480.375;  196.475;    0.000
383.628; 2544.375;  156.475;    0.000
383.687; 2829.375;  171.475;    0.000
383.746; 3179.375;  155.475;    0.000
383.805; 3609.375;  201.475;    0.000
383.864; 3633.375;  125.475;    0.000
383.924; 2869.375;  213.475;    0.000
383.983; 2456.375;  188.475;    0.000
384.042; 2361.375;  162.475;    0.000
384.101; 2198.375;  183.475;    0.000
384.160; 1946.375;  155.475;    0.000
384.219; 2012.375;  155.475;    0.000
384.279; 1963.375;  189.475;    0.000
384.338; 1868.375;  156.475;    0.000
384.397; 1824.375;  148.475;    0.000
384.456; 1780.375;  154.475;    0.000
384.515; 1823.375;  160.475;    0.000
384.574; 1755.375;  223.475;    0.000
384.633; 1757.375;  133.475;    0.000
384.692; 1681.375;  163.475;    0.000
384.751; 1747.375;  186.475;    0.000
384.810; 1783.375;  187.475;    0.000
384.869; 1661.375;  172.475;    0.000
384.929; 1730.375;  153.475;    0.000
384.988; 1708.375;  174.475;    0.000
385.047; 1749.375;  154.475;    0.000
385.106; 1603.375;  164.475;    0.000
385.165; 1650.375;  151.475;    0.000
385.224; 1704.375;  147.475;    0.000
385.283; 1635.375;  176.475;    0.000
385.342; 1666.375;  142.475;    0.000
385.401; 1653.375;  175.475;    0.000
385.459; 1632.375;  150.475;    0.000
385.518; 1675.375;  124.475;    0.000
385.577; 1699.375;  115.475;    0.000
385.636; 1684.375;  174.475;    0.000
385.695; 1662.375;  158.475;    0.000
385.754; 1633.375;  150.475;    0.000
385.813; 1669.375;  129.475;    0.000
385.872; 1629.375;  146.475;    0.000
385.931; 1639.375;  194.475;    0.000
385.990; 1760.375;  174.475;    0.000
386.049; 1722.375;  176.475;    0.000
386.107; 1652.375;  151.475;    0.000
386.166; 1638.375;  178.475;    0.000
386.225; 1683.375;  162.475;    0.000
386.284; 1653.375;  180.475;    0.000
386.343; 1658.375;  171.475;    0.000
386.402; 1627.375;  176.475;    0.000
386.460; 1628.375;  144.475;    0.000
386.519; 1715.375;  140.475;    0.000
386.578; 1598.375;  145.475;    0.000
386.637; 1610.375;  164.475;    0.000
386.696; 1651.375;  189.475;    0.000
386.754; 1569.375;  135.475;    0.000
386.813; 1631.375;  139.475;    0.000
386.872; 1596.375;  121.475;    0.000
386.931; 1646.375;  153.475;    0.000
386.989; 1635.375;  211.475;    0.000
387.048; 1580.375;  156.475;    0.000
387.107; 1723.375;  210.475;    0.000
387.165; 1617.375;  129.475;    0.000
387.224; 1644.375;  205.475;    0.000
387.283; 1623.375;  130.475;    0.000
387.342; 1625.375;  171.475;    0.000
387.400; 1605.375;  156.475;    0.000
387.459; 1624.375;  141.475;    0.000
387.517; 1639.375;  219.475;    0.000
387.576; 1611.375;  166.475;    0.000
387.635; 1610.375;  136.475;    0.000
387.693; 1682.375;  191.475;    0.000
387.752; 1679.375;  165.475;    0.000
387.811; 1647.375;  158.475;    0.000
387.869; 1715.375;  204.475;    0.000
387.928; 1604.375;  149.475;    0.000
387.986; 1654.375;  156.475;    0.000
388.045; 1593.375;  123.475;    0.000
388.103; 1599.375;  150.475;    0.000
388.162; 1661.375;  173.475;    0.000
388.221; 1617.375;  143.475;    0.000
388.279; 1538.375;  129.475;    0.000
388.338; 1586.375;  212.475;    0.000
388.396; 1579.375;  150.475;    0.000
388.455; 1668.375;  167.475;    0.000
388.513; 1590.375;  116.475;    0.000
388.572; 1642.375;  181.475;    0.000
388.630; 1598.375;  187.475;    0.000
388.689; 1603.375;  180.475;    0.000
388.747; 1553.375;  154.475;    0.000
388.806; 1636.375;  161.475;    0.000
388.864; 1576.375;  167.475;    0.000
388.922; 1612.375;  184.475;    0.000
388.981; 1571.375;  169.475;    0.000
389.039; 1606.375;  102.475;    0.000
389.098; 1563.375;  183.475;    0.000
389.156; 1611.375;  182.475;    0.000
389.214; 1685.375;  173.475;    0.000
389.273; 1543.375;  167.475;    0.000
389.331; 1612.375;  170.475;    0.000
389.390; 1565.375;  150.475;    0.000
389.448; 1521.375;  156.475;    0.000
389.506; 1650.375;  149.475;    0.000
389.565; 1595.375;  162.475;    0.000
389.623; 1613.375;  188.475;    0.000
389.681; 1584.375;  204.475;    0.000
389.740; 1648.375;  187.475;    0.000
389.798; 1570.375;  153.475;    0.000
389.856; 1543.375;  214.475;    0.000
389.914; 1580.375;  177.475;    0.000
389.973; 1591.375;  189.475;    0.000
390.031; 1617.375;  178.475;    0.000
390.089; 1688.375;  163.475;    0.000
390.147; 1613.375;  170.475;    0.000
390.206; 1559.375;  183.475;    0.000
390.264; 1609.375;  161.475;    0.000
390.322; 1596.375;  148.475;    0.000
390.380; 1625.375;  138.475;    0.000
390.439; 1550.375;  194.475;    0.000
390.497; 1597.375;  170.475;    0.000
390.555; 1602.375;  165.475;    0.000
390.613; 1609.375;  177.475;    0.000
390.671; 1618.375;  170.475;    0.000
390.729; 1628.375;  158.475;    0.000
390.788; 1600.375;  162.475;    0.000
390.846; 1656.375;  161.475;    0.000
390.904; 1626.375;  197.475;    0.000
390.962; 1584.375;  212.475;    0.000
391.020; 1605.375;  224.475;    0.000
391.078; 1641.375;  184.475;    0.000
391.136; 1633.375;  191.475;    0.000
391.194; 1630.375;  187.475;    0.000
391.253; 1603.375;  197.475;    0.000
391.311; 1612.375;  185.475;    0.000
391.369; 1626.375;  207.475;    0.000
391.427; 1688.375;  222.475;    0.000
391.485; 1588.375;  184.475;    0.000
391.543; 1667.375;  203.475;    0.000
391.601; 1575.375;  151.475;    0.000
391.659; 1596.375;  176.475;    0.000
391.717; 1573.375;  190.475;    0.000
391.775; 1623.375;  159.475;    0.000
391.833; 1657.375;  186.475;    0.000
391.891; 1701.375;  154.475;    0.000
391.949; 1661.375;  181.475;    0.000
392.007; 1628.375;  190.475;    0.000
392.065; 1623.375;  182.475;    0.000
392.123; 1604.375;  158.475;    0.000
392.180; 1620.375;  198.475;    0.000
392.238; 1698.375;  191.475;    0.000
392.296; 1695.375;  164.475;    0.000
392.354; 1657.375;  172.475;    0.000
392.412; 1643.375;  194.475;    0.000
392.470; 1665.375;  154.475;    0.000
392.528; 1676.375;  172.475;    0.000
392.586; 1595.375;  179.475;    0.000
392.644; 1622.375;  173.475;    0.000
392.701; 1693.375;  202.475;    0.000
392.759; 1726.375;  180.475;    0.000
392.817; 1699.375;  181.475;    0.000
392.875; 1645.375;  168.475;    0.000
392.933; 1714.375;  161.475;    0.000
392.991; 1648.375;  216.475;    0.000
393.048; 1694.375;  197.475;    0.000
393.106; 1655.375;  199.475;    0.000
393.164; 1654.375;  173.475;    0.000
393.222; 1620.375;  179.475;    0.000
393.279; 1651.375;  209.475;    0.000
393.337; 1848.375;  185.475;    0.000
393.395; 1823.375;  174.475;    0.000
393.453; 1766.375;  181.475;    0.000
393.510; 1631.375;  188.475;    0.000
393.568; 1697.375;  191.475;    0.000
393.626; 1755.375;  151.475;    0.000
393.684; 1607.375;  208.475;    0.000
393.741; 1680.375;  179.475;    0.000
393.799; 1631.375;  149.475;    0.000
393.857; 1694.375;  136.475;    0.000
393.914; 1653.375;  190.475;    0.000
393.972; 1715.375;  155.475;    0.000
394.030; 1671.375;  170.475;    0.000
394.087; 1719.375;  213.475;    0.000
394.145; 1722.375;  191.475;    0.000
394.202; 1762.375;  188.475;    0.000
394.260; 1729.375;  168.475;    0.000
394.318; 1729.375;  176.475;    0.000
394.375; 1751.375;  159.475;    0.000
394.433; 1768.375;  168.475;    0.000
394.490; 1608.375;  163.475;    0.000
394.548; 1674.375;  163.475;    0.000
394.605; 1760.375;  181.475;    0.000
394.663; 1721.375;  180.475;    0.000
394.720; 1739.375;  193.475;    0.000
394.778; 1669.375;  168.475;    0.000
394.836; 1692.375;  128.475;    0.000
394.893; 1671.375;  151.475;    0.000
394.951; 1722.375;  173.475;    0.000
395.008; 1763.375;  201.475;    0.000
395.065; 1674.375;  139.475;    0.000
395.123; 1731.375;  173.475;    0.000
395.180; 1775.375;  144.475;    0.000
395.238; 1770.375;  135.475;    0.000
395.295; 1759.375;  167.475;    0.000
395.353; 1820.375;  150.475;    0.000
395.410; 1791.375;  165.475;    0.000
395.468; 1747.375;  223.475;    0.000
395.525; 1788.375;  156.475;    0.000
395.582; 1765.375;  178.475;    0.000
395.640; 1775.375;  178.475;    0.000
395.697; 1759.375;  173.475;    0.000
395.754; 1743.375;  154.475;    0.000
395.812; 1787.375;  169.475;    0.000
395.869; 1802.375;  196.475;    0.000
395.927; 1847.375;  190.475;    0.000
395.984; 1795.375;  195.475;    0.000
396.041; 1735.375;  160.475;    0.000
396.098; 1811.375;  161.475;    0.000
396.156; 1762.375;  187.475;    0.000
396.213; 1849.375;  200.475;    0.000
396.270; 1873.375;  160.475;    0.000
396.328; 1783.375;  113.475;    0.000
396.385; 1723.375;  165.475;    0.000
396.442; 1834.375;  168.475;    0.000
396.499; 1766.375;  117.475;    0.000
396.557; 1846.375;  203.475;    0.000
396.614; 1801.375;  155.475;    0.000
396.671; 1831.375;  187.475;    0.000
396.728; 1874.375;  169.475;    0.000
396.785; 1846.375;  167.475;    0.000
396.843; 1880.375;  154.475;    0.000
396.900; 1882.375;  172.475;    0.000
396.957; 1849.375;  176.475;    0.000
397.014; 1812.375;  193.475;    0.000
397.071; 1874.375;  170.475;    0.000
397.128; 1955.375;  172.475;    0.000
397.186; 1906.375;  205.475;    0.000
397.243; 1902.375;  163.475;    0.000
397.300; 1923.375;  193.475;    0.000
397.357; 1826.375;  166.475;    0.000
397.414; 1891.375;  149.475;    0.000
397.471; 1796.375;  157.475;    0.000
397.528; 1820.375;  180.475;    0.000
397.585; 1891.375;  203.475;    0.000
397.642; 1868.375;  156.475;    0.000
397.699; 1913.375;  229.475;    0.000
397.756; 1879.375;  185.475;    0.000
397.814; 1875.375;  191.475;    0.000
397.871; 1853.375;  170.475;    0.000
397.928; 1967.375;  191.475;    0.000
397.985; 1862.375;  183.475;    0.000
398.042; 1917.375;  161.475;    0.000
398.099; 2005.375;  192.475;    0.000
398.156; 1918.375;  176.475;    0.000
398.212; 2005.375;  170.475;    0.000
398.269; 2022.375;  158.475;    0.000
398.326; 1982.375;  175.475;    0.000
398.383; 1908.375;  177.475;    0.000
398.440; 1896.375;  169.475;    0.000
398.497; 2014.375;  184.475;    0.000
398.554; 1866.375;  196.475;    0.000
398.611; 1870.375;  198.475;    0.000
398.668; 1935.375;  135.475;    0.000
398.725; 1949.375;  181.475;    0.000
398.782; 1972.375;  195.475;    0.000
398.839; 2070.375;  179.475;    0.000
398.895; 2006.375;  188.475;    0.000
398.952; 1971.375;  176.475;    0.000
399.009; 2050.375;  183.475;    0.000
399.066; 2061.375;  190.475;    0.000
399.123; 2046.375;  174.475;    0.000
399.180; 2022.375;  191.475;    0.000
399.236; 2047.375;  217.475;    0.000
399.293; 2062.375;  154.475;    0.000
399.350; 2100.375;  210.475;    0.000
399.407; 2146.375;  202.475;    0.000
399.463; 2050.375;  162.475;    0.000
399.520; 2029.375;  207.475;    0.000
399.577; 2102.375;  174.475;    0.000
399.634; 2147.375;  170.475;    0.000
399.690; 2072.375;  186.475;    0.000
399.747; 2206.375;  218.475;    0.000
399.804; 2160.375;  200.475;    0.000
399.861; 2116.375;  190.475;    0.000
399.917; 2243.375;  218.475;    0.000
399.974; 2089.375;  200.475;    0.000
400.031; 2196.375;  200.475;    0.000
400.087; 2083.375;  153.475;    0.000
400.144; 2141.375;  188.475;    0.000
400.201; 2157.375;  198.475;    0.000
400.257; 2110.375;  205.475;    0.000
400.314; 2137.375;  183.475;    0.000
400.370; 2175.375;  227.475;    0.000
400.427; 2122.375;  177.475;    0.000
400.484; 2104.375;  202.475;    0.000
400.540; 2106.375;  173.475;    0.000
400.597; 2012.375;  212.475;    0.000
400.653; 2063.375;  182.475;    0.000
400.710; 2094.375;  201.475;    0.000
400.766; 2119.375;  188.475;    0.000
400.823; 2094.375;  205.475;    0.000
400.879; 2063.375;  165.475;    0.000
400.936; 2015.375;  180.475;    0.000
400.993; 2054.375;  181.475;    0.000
401.049; 2025.375;  147.475;    0.000
401.105; 2066.375;  205.475;    0.000
401.162; 2047.375;  197.475;    0.000
401.218; 2107.375;  177.475;    0.000
401.275; 2054.375;  183.475;    0.000
401.331; 2150.375;  198.475;    0.000
401.388; 2078.375;  209.475;    0.000
401.444; 2123.375;  211.475;    0.000
401.501; 2079.375;  185.475;    0.000
401.557; 2062.375;  190.475;    0.000
401.614; 2072.375;  172.475;    0.000
401.670; 1986.375;  185.475;    0.000
401.726; 2083.375;  196.475;    0.000
401.783; 2043.375;  187.475;    0.000
401.839; 2140.375;  192.475;    0.000
401.895; 2081.375;  173.475;    0.000
401.952; 2066.375;  145.475;    0.000
402.008; 2073.375;  197.475;    0.000
402.064; 2019.375;  146.475;    0.000
402.121; 2083.375;  197.475;    0.000
402.177; 2026.375;  173.475;    0.000
402.233; 2058.375;  185.475;    0.000
402.290; 2104.375;  175.475;    0.000
402.346; 2063.375;  164.475;    0.000
402.402; 2151.375;  173.475;    0.000
402.458; 2124.375;  183.475;    0.000
402.515; 2154.375;  147.475;    0.000
402.571; 2083.375;  210.475;    0.000
402.627; 2067.375;  181.475;    0.000
402.683; 2127.375;  177.475;    0.000
402.740; 2071.375;  162.475;    0.000
402.796; 2118.375;  178.475;    0.000
402.852; 2133.375;  138.475;    0.000
402.908; 2103.375;  181.475;    0.000
402.964; 2091.375;  151.475;    0.000
403.021; 2069.375;  170.475;    0.000
403.077; 2136.375;  204.475;    0.000
403.133; 2036.375;  144.475;    0.000
403.189; 2183.375;  207.475;    0.000
403.245; 2111.375;  184.475;    0.000
403.301; 2136.375;  170.475;    0.000
403.357; 2163.375;  201.475;    0.000
403.414; 2117.375;  205.475;    0.000
403.470; 2215.375;  170.475;    0.000
403.526; 2137.375;  135.475;    0.000
403.582; 2119.375;  180.475;    0.000
403.638; 2239.375;  185.475;    0.000
403.694; 2174.375;  169.475;    0.000
403.750; 2179.375;  210.475;    0.000
403.806; 2166.375;  210.475;    0.000
403.862; 2237.375;  219.475;    0.000
403.918; 2159.375;  191.475;    0.000
403.974; 2122.375;  193.475;    0.000
404.030; 2191.375;  154.475;    0.000
404.086; 2152.375;  170.475;    0.000
404.142; 2206.375;  194.475;    0.000
404.198; 2175.375;  224.475;    0.000
404.254; 2082.375;  177.475;    0.000
404.310; 2209.375;  204.475;    0.000
404.366; 2233.375;  170.475;    0.000
404.422; 2264.375;  172.475;    0.000
404.478; 2173.375;  153.475;    0.000
404.534; 2194.375;  159.475;    0.000
404.590; 2186.375;  203.475;    0.000
404.646; 2164.375;  164.475;    0.000
404.701; 2209.375;  141.475;    0.000
404.757; 2188.375;  195.475;    0.000
404.813; 2168.375;  152.475;    0.000
404.869; 2286.375;  174.475;    0.000
404.925; 2205.375;  167.475;    0.000
404.981; 2142.375;  175.475;    0.000
405.037; 2187.375;  170.475;    0.000
405.092; 2173.375;  155.475;    0.000
405.148; 2202.375;  160.475;    0.000
405.204; 2234.375;  158.475;    0.000
405.260; 2192.375;  128.475;    0.000
405.316; 2241.375;  168.475;    0.000
405.371; 2242.375;  162.475;    0.000
405.427; 2162.375;  187.475;    0.000
405.483; 2268.375;  214.475;    0.000
405.539; 2317.375;  163.475;    0.000
405.594; 2180.375;  191.475;    0.000
405.650; 2216.375;  124.475;    0.000
405.706; 2230.375;  188.475;    0.000
405.761; 2265.375;  204.475;    0.000
405.817; 2236.375;  150.475;    0.000
405.873; 2207.375;  152.475;    0.000
405.928; 2213.375;  135.475;    0.000
405.984; 2296.375;  209.475;    0.000
406.040; 2270.375;  165.475;    0.000
406.095; 2249.375;  146.475;    0.000
406.151; 2271.375;  169.475;    0.000
406.207; 2296.375;  174.475;    0.000
406.262; 2259.375;  189.475;    0.000
406.318; 2330.375;  141.475;    0.000
406.374; 2246.375;  178.475;    0.000
406.429; 2303.375;  197.475;    0.000
406.485; 2423.375;  194.475;    0.000
406.540; 2305.375;  149.475;    0.000
406.596; 2318.375;  173.475;    0.000
406.651; 2344.375;  154.475;    0.000
406.707; 2411.375;  183.475;    0.000
406.763; 2313.375;  156.475;    0.000
406.818; 2280.375;  181.475;    0.000
406.874; 2266.375;  135.475;    0.000
406.929; 2357.375;  194.475;    0.000
406.985; 2411.375;  166.475;    0.000
407.040; 2418.375;  207.475;    0.000
407.095; 2379.375;  213.475;    0.000
407.151; 2398.375;  198.475;    0.000
407.206; 2482.375;  186.475;    0.000
407.262; 2475.375;  148.475;    0.000
407.317; 2494.375;  212.475;    0.000
407.373; 2509.375;  209.475;    0.000
407.428; 2492.375;  218.475;    0.000
407.484; 2416.375;  158.475;    0.000
407.539; 2491.375;  165.475;    0.000
407.594; 2492.375;  197.475;    0.000
407.650; 2466.375;  177.475;    0.000
407.705; 2415.375;  154.475;    0.000
407.760; 2401.375;  198.475;    0.000
407.816; 2487.375;  181.475;    0.000
407.871; 2537.375;  185.475;    0.000
407.926; 2460.375;  167.475;    0.000
407.982; 2445.375;  172.475;    0.000
408.037; 2494.375;  202.475;    0.000
408.092; 2419.375;  201.475;    0.000
408.148; 2418.375;  199.475;    0.000
408.203; 2533.375;  174.475;    0.000
408.258; 2474.375;  157.475;    0.000
408.314; 2496.375;  194.475;    0.000
408.369; 2495.375;  189.475;    0.000
408.424; 2430.375;  204.475;    0.000
408.479; 2390.375;  192.475;    0.000
408.534; 2458.375;  215.475;    0.000
408.590; 2373.375;  190.475;    0.000
408.645; 2425.375;  159.475;    0.000
408.700; 2432.375;  191.475;    0.000
408.755; 2384.375;  217.475;    0.000
408.810; 2418.375;  158.475;    0.000
408.866; 2436.375;  166.475;    0.000
408.921; 2474.375;  214.475;    0.000
408.976; 2427.375;  158.475;    0.000
409.031; 2443.375;  185.475;    0.000
409.086; 2504.375;  158.475;    0.000
409.141; 2471.375;  180.475;    0.000
409.196; 2388.375;  188.475;    0.000
409.252; 2477.375;  186.475;    0.000
409.307; 2381.375;  135.475;    0.000
409.362; 2473.375;  162.475;    0.000
409.417; 2497.375;  149.475;    0.000
409.472; 2447.375;  205.475;    0.000
409.527; 2552.375;  184.475;    0.000
409.582; 2484.375;  174.475;    0.000
409.637; 2490.375;  188.475;    0.000
409.692; 2488.375;  211.475;    0.000
409.747; 2471.375;  159.475;    0.000
409.802; 2377.375;  199.475;    0.000
409.857; 2469.375;  118.475;    0.000
409.912; 2448.375;  177.475;    0.000
409.967; 2403.375;  182.475;    0.000
410.022; 2553.375;  188.475;    0.000
410.077; 2450.375;  204.475;    0.000
410.132; 2432.375;  174.475;    0.000
410.187; 2403.375;  169.475;    0.000
410.242; 2441.375;  178.475;    0.000
410.297; 2448.375;  185.475;    0.000
410.351; 2354.375;  203.475;    0.000
410.406; 2401.375;  180.475;    0.000
410.461; 2443.375;  213.475;    0.000
410.516; 2424.375;  198.475;    0.000
410.571; 2375.375;  171.475;    0.000
410.626; 2494.375;  186.475;    0.000
410.681; 2432.375;  187.475;    0.000
410.736; 2463.375;  147.475;    0.000
410.790; 2391.375;  186.475;    0.000
410.845; 2483.375;  152.475;    0.000
410.900; 2522.375;  202.475;    0.000
410.955; 2377.375;  196.475;    0.000
411.010; 2441.375;  150.475;    0.000
411.064; 2443.375;  200.475;    0.000
411.119; 2561.375;  203.475;    0.000
411.174; 2492.375;  176.475;    0.000
411.229; 2418.375;  203.475;    0.000
411.283; 2420.375;  176.475;    0.000
411.338; 2465.375;  153.475;    0.000
411.393; 2496.375;  168.475;    0.000
411.447; 2465.375;  223.475;    0.000
411.502; 2502.375;  238.475;    0.000
411.557; 2467.375;  179.475;    0.000
411.612; 2402.375;  159.475;    0.000
411.666; 2433.375;  189.475;    0.000
411.721; 2464.375;  212.475;    0.000
411.776; 2532.375;  242.475;    0.000
411.830; 2467.375;  194.475;    0.000
411.885; 2530.375;  188.475;    0.000
411.939; 2546.375;  245.475;    0.000
411.994; 2531.375;  177.475;    0.000
412.049; 2553.375;  170.475;    0.000
412.103; 2411.375;  196.475;    0.000
412.158; 2508.375;  215.475;    0.000
412.212; 2456.375;  199.475;    0.000
412.267; 2523.375;  191.475;    0.000
412.322; 2494.375;  238.475;    0.000
412.376; 2515.375;  243.475;    0.000
412.431; 2503.375;  214.475;    0.000
412.485; 2407.375;  210.475;    0.000
412.540; 2431.375;  200.475;    0.000
412.594; 2412.375;  174.475;    0.000
412.649; 2511.375;  246.475;    0.000
412.703; 2365.375;  182.475;    0.000
412.758; 2565.375;  222.475;    0.000
412.812; 2461.375;  201.475;    0.000
412.866; 2521.375;  162.475;    0.000
412.921; 2449.375;  202.475;    0.000
412.975; 2412.375;  212.475;    0.000
413.030; 2420.375;  238.475;    0.000
413.084; 2444.375;  201.475;    0.000
413.139; 2464.375;  210.475;    0.000
413.193; 2490.375;  218.475;    0.000
413.247; 2473.375;  203.475;    0.000
413.302; 2455.375;  176.475;    0.000
413.356; 2469.375;  215.475;    0.000
413.410; 2499.375;  204.475;    0.000
413.465; 2510.375;  186.475;    0.000
413.519; 2408.375;  196.475;    0.000
413.573; 2461.375;  181.475;    0.000
413.628; 2506.375;  200.475;    0.000
413.682; 2463.375;  157.475;    0.000
413.736; 2474.375;  194.475;    0.000
413.791; 2445.375;  193.475;    0.000
413.845; 2502.375;  225.475;    0.000
413.899; 2500.375;  195.475;    0.000
413.953; 2463.375;  173.475;    0.000
414.008; 2480.375;  186.475;    0.000
414.062; 2342.375;  217.475;    0.000
414.116; 2378.375;  169.475;    0.000
414.170; 2443.375;  228.475;    0.000
414.225; 2451.375;  177.475;    0.000
414.279; 2499.375;  210.475;    0.000
414.333; 2474.375;  207.475;    0.000
414.387; 2372.375;  217.475;    0.000
414.441; 2467.375;  187.475;    0.000
414.496; 2493.375;  215.475;    0.000
414.550; 2465.375;  204.475;    0.000
414.604; 2484.375;  206.475;    0.000
414.658; 2423.375;  139.475;    0.000
414.712; 2499.375;  198.475;    0.000
414.766; 2412.375;  208.475;    0.000
414.820; 2490.375;  199.475;    0.000
414.874; 2529.375;  216.475;    0.000
414.928; 2465.375;  186.475;    0.000
414.982; 2381.375;  176.475;    0.000
415.037; 2483.375;  181.475;    0.000
415.091; 2504.375;  208.475;    0.000
415.145; 2476.375;  209.475;    0.000
415.199; 2460.375;  186.475;    0.000
415.253; 2456.375;  203.475;    0.000
415.307; 2491.375;  197.475;    0.000
415.361; 2497.375;  223.475;    0.000
415.415; 2351.375;  213.475;    0.000
415.469; 2507.375;  226.475;    0.000
415.523; 2531.375;  222.475;    0.000
415.577; 2449.375;  205.475;    0.000
415.631; 2458.375;  224.475;    0.000
415.684; 2421.375;  193.475;    0.000
415.738; 2411.375;  224.475;    0.000
415.792; 2457.375;  204.475;    0.000
415.846; 2464.375;  189.475;    0.000
415.900; 2528.375;  223.475;    0.000
415.954; 2414.375;  187.475;    0.000
416.008; 2491.375;  237.475;    0.000
416.062; 2408.375;  195.475;    0.000
416.116; 2403.375;  223.475;    0.000
416.169; 2453.375;  210.475;    0.000
416.223; 2512.375;  232.475;    0.000
416.277; 2399.375;  227.475;    0.000
416.331; 2395.375;  216.475;    0.000
416.385; 2389.375;  186.475;    0.000
416.439; 2474.375;  226.475;    0.000
416.492; 2417.375;  229.475;    0.000
416.546; 2399.375;  216.475;    0.000
416.600; 2413.375;  211.475;    0.000
416.654; 2458.375;  226.475;    0.000
416.707; 2396.375;  248.475;    0.000
416.761; 2392.375;  217.475;    0.000
416.815; 2447.375;  207.475;    0.000
416.869; 2492.375;  226.475;    0.000
416.922; 2412.375;  192.475;    0.000
416.976; 2425.375;  205.475;    0.000
417.030; 2467.375;  233.475;    0.000
417.083; 2433.375;  226.475;    0.000
417.137; 2449.375;  222.475;    0.000
417.191; 2405.375;  217.475;    0.000
417.244; 2454.375;  221.475;    0.000
417.298; 2463.375;  201.475;    0.000
417.352; 2436.375;  170.475;    0.000
417.405; 2438.375;  234.475;    0.000
417.459; 2578.375;  241.475;    0.000
417.512; 2496.375;  247.475;    0.000
417.566; 2463.375;  219.475;    0.000
417.620; 2459.375;  228.475;    0.000
417.673; 2388.375;  192.475;    0.000
417.727; 2432.375;  203.475;    0.000
417.780; 2489.375;  204.475;    0.000
417.834; 2481.375;  234.475;    0.000
417.887; 2377.375;  245.475;    0.000
417.941; 2427.375;  211.475;    0.000
417.994; 2375.375;  244.475;    0.000
418.048; 2430.375;  203.475;    0.000
418.101; 2398.375;  212.475;    0.000
418.155; 2496.375;  251.475;    0.000
418.208; 2497.375;  286.475;    0.000
418.262; 2455.375;  243.475;    0.000
418.315; 2426.375;  214.475;    0.000
418.369; 2400.375;  269.475;    0.000
418.422; 2461.375;  222.475;    0.000
418.476; 2384.375;  226.475;    0.000
418.529; 2443.375;  238.475;    0.000
418.582; 2394.375;  210.475;    0.000
418.636; 2355.375;  221.475;    0.000
418.689; 2358.375;  224.475;    0.000
418.743; 2479.375;  228.475;    0.000
418.796; 2439.375;  192.475;    0.000
418.849; 2422.375;  230.475;    0.000
418.903; 2409.375;  257.475;    0.000
418.956; 2364.375;  241.475;    0.000
419.009; 2515.375;  247.475;    0.000
419.063; 2399.375;  235.475;    0.000
419.116; 2436.375;  218.475;    0.000
419.169; 2420.375;  219.475;    0.000
419.222; 2429.375;  215.475;    0.000
419.276; 2391.375;  202.475;    0.000
419.329; 2477.375;  210.475;    0.000
419.382; 2445.375;  188.475;    0.000
419.435; 2427.375;  222.475;    0.000
419.489; 2388.375;  232.475;    0.000
419.542; 2395.375;  250.475;    0.000
419.595; 2412.375;  240.475;    0.000
419.648; 2380.375;  261.475;    0.000
419.701; 2409.375;  222.475;    0.000
419.755; 2377.375;  233.475;    0.000
419.808; 2437.375;  178.475;    0.000
419.861; 2383.375;  207.475;    0.000
419.914; 2431.375;  223.475;    0.000
419.967; 2422.375;  216.475;    0.000
420.020; 2362.375;  211.475;    0.000
420.073; 2360.375;  200.475;    0.000
420.127; 2357.375;  248.475;    0.000
420.180; 2311.375;  220.475;    0.000
420.233; 2372.375;  215.475;    0.000
420.286; 2434.375;  222.475;    0.000
420.339; 2293.375;  229.475;    0.000
420.392; 2404.375;  245.475;    0.000
420.445; 2341.375;  221.475;    0.000
420.498; 2419.375;  224.475;    0.000
420.551; 2390.375;  170.475;    0.000
420.604; 2370.375;  237.475;    0.000
420.657; 2351.375;  235.475;    0.000
420.710; 2376.375;  223.475;    0.000
420.763; 2361.375;  219.475;    0.000
420.816; 2322.375;  200.475;    0.000
420.869; 2404.375;  197.475;    0.000
420.922; 2331.375;  212.475;    0.000
420.975; 2375.375;  274.475;    0.000
421.028; 2288.375;  228.475;    0.000
421.081; 2388.375;  243.475;    0.000
421.134; 2421.375;  227.475;    0.000
421.187; 2359.375;  245.475;    0.000
421.239; 2357.375;  210.475;    0.000
421.292; 2321.375;  193.475;    0.000
421.345; 2279.375;  226.475;    0.000
421.398; 2342.375;  226.475;    0.000
421.451; 2377.375;  259.475;    0.000
421.504; 2372.375;  204.475;    0.000
421.557; 2262.375;  215.475;    0.000
421.609; 2321.375;  194.475;    0.000
421.662; 2336.375;  216.475;    0.000
421.715; 2312.375;  226.475;    0.000
421.768; 2369.375;  177.475;    0.000
421.821; 2338.375;  210.475;    0.000
421.873; 2300.375;  208.475;    0.000
421.926; 2249.375;  223.475;    0.000
421.979; 2303.375;  230.475;    0.000
422.032; 2270.375;  227.475;    0.000
422.084; 2344.375;  234.475;    0.000
422.137; 2343.375;  207.475;    0.000
422.190; 2178.375;  228.475;    0.000
422.243; 2277.375;  206.475;    0.000
422.295; 2332.375;  236.475;    0.000
422.348; 2305.375;  232.475;    0.000
422.401; 2323.375;  228.475;    0.000
422.453; 2326.375;  239.475;    0.000
422.506; 2314.375;  226.475;    0.000
422.559; 2265.375;  205.475;    0.000
422.611; 2306.375;  235.475;    0.000
422.664; 2317.375;  231.475;    0.000
422.716; 2382.375;  228.475;    0.000
422.769; 2310.375;  204.475;    0.000
422.822; 2274.375;  205.475;    0.000
422.874; 2264.375;  228.475;    0.000
422.927; 2290.375;  266.475;    0.000
422.979; 2228.375;  223.475;    0.000
423.032; 2270.375;  207.475;    0.000
423.084; 2178.375;  211.475;    0.000
423.137; 2279.375;  205.475;    0.000
423.189; 2300.375;  254.475;    0.000
423.242; 2219.375;  208.475;    0.000
423.294; 2278.375;  240.475;    0.000
423.347; 2262.375;  218.475;    0.000
423.399; 2231.375;  237.475;    0.000
423.452; 2269.375;  242.475;    0.000
423.504; 2273.375;  225.475;    0.000
423.557; 2308.375;  195.475;    0.000
423.609; 2252.375;  206.475;    0.000
423.662; 2285.375;  211.475;    0.000
423.714; 2200.375;  252.475;    0.000
423.766; 2178.375;  181.475;    0.000
423.819; 2217.375;  216.475;    0.000
423.871; 2185.375;  216.475;    0.000
423.923; 2206.375;  222.475;    0.000
423.976; 2197.375;  223.475;    0.000
424.028; 2196.375;  229.475;    0.000
424.081; 2198.375;  267.475;    0.000
424.133; 2196.375;  251.475;    0.000
424.185; 2232.375;  238.475;    0.000
424.238; 2274.375;  220.475;    0.000
424.290; 2285.375;  259.475;    0.000
424.342; 2248.375;  248.475;    0.000
424.394; 2235.375;  234.475;    0.000
424.447; 2347.375;  248.475;    0.000
424.499; 2228.375;  233.475;    0.000
424.551; 2294.375;  236.475;    0.000
424.603; 2193.375;  207.475;    0.000
424.656; 2185.375;  210.475;    0.000
424.708; 2181.375;  251.475;    0.000
424.760; 2199.375;  221.475;    0.000
424.812; 2282.375;  275.475;    0.000
424.864; 2234.375;  206.475;    0.000
424.917; 2216.375;  198.475;    0.000
424.969; 2218.375;  246.475;    0.000
425.021; 2239.375;  209.475;    0.000
425.073; 2238.375;  242.475;    0.000
425.125; 2266.375;  254.475;    0.000
425.177; 2231.375;  224.475;    0.000
425.229; 2218.375;  256.475;    0.000
425.282; 2239.375;  265.475;    0.000
425.334; 2238.375;  266.475;    0.000
425.386; 2282.375;  242.475;    0.000
425.438; 2111.375;  205.475;    0.000
425.490; 2258.375;  227.475;    0.000
425.542; 2139.375;  235.475;    0.000
425.594; 2204.375;  210.475;    0.000
425.646; 2142.375;  232.475;    0.000
425.698; 2191.375;  243.475;    0.000
425.750; 2132.375;  230.475;    0.000
425.802; 2187.375;  218.475;    0.000
425.854; 2173.375;  222.475;    0.000
425.906; 2260.375;  235.475;    0.000
425.958; 2197.375;  220.475;    0.000
426.010; 2101.375;  236.475;    0.000
426.062; 2169.375;  230.475;    0.000
426.114; 2190.375;  216.475;    0.000
426.166; 2175.375;  230.475;    0.000
426.218; 2240.375;  237.475;    0.000
426.270; 2210.375;  217.475;    0.000
426.321; 2042.375;  224.475;    0.000
426.373; 2178.375;  207.475;    0.000
426.425; 2271.375;  278.475;    0.000
426.477; 2159.375;  243.475;    0.000
426.529; 2162.375;  247.475;    0.000
426.581; 2166.375;  229.475;    0.000
426.633; 2126.375;  212.475;    0.000
426.684; 2119.375;  244.475;    0.000
426.736; 2185.375;  250.475;    0.000
426.788; 2102.375;  210.475;    0.000
426.840; 2110.375;  201.475;    0.000
426.892; 2102.375;  225.475;    0.000
426.943; 2071.375;  215.475;    0.000
426.995; 2104.375;  216.475;    0.000
427.047; 2102.375;  216.475;    0.000
427.099; 2080.375;  203.475;    0.000
427.150; 2110.375;  195.475;    0.000
427.202; 2135.375;  212.475;    0.000
427.254; 2069.375;  233.475;    0.000
427.306; 2132.375;  211.475;    0.000
427.357; 2195.375;  210.475;    0.000
427.409; 2186.375;  244.475;    0.000
427.461; 2087.375;  187.475;    0.000
427.512; 2160.375;  227.475;    0.000
427.564; 2095.375;  210.475;    0.000
427.616; 2135.375;  202.475;    0.000
427.667; 2062.375;  185.475;    0.000
427.719; 2091.375;  222.475;    0.000
427.770; 2091.375;  230.475;    0.000
427.822; 2143.375;  254.475;    0.000
427.874; 2029.375;  222.475;    0.000
427.925; 2102.375;  199.475;    0.000
427.977; 2107.375;  228.475;    0.000
428.028; 2033.375;  226.475;    0.000
428.080; 2107.375;  236.475;    0.000
428.131; 2152.375;  220.475;    0.000
428.183; 2078.375;  256.475;    0.000
428.234; 2025.375;  217.475;    0.000
428.286; 2144.375;  234.475;    0.000
428.337; 2123.375;  209.475;    0.000
428.389; 2063.375;  219.475;    0.000
428.440; 2016.375;  249.475;    0.000
428.492; 2174.375;  255.475;    0.000
428.543; 2021.375;  224.475;    0.000
428.595; 2021.375;  225.475;    0.000
428.646; 2017.375;  240.475;    0.000
428.697; 2019.375;  211.475;    0.000
428.749; 2070.375;  200.475;    0.000
428.800; 2068.375;  235.475;    0.000
428.852; 2082.375;  265.475;    0.000
428.903; 2114.375;  201.475;    0.000
428.954; 2067.375;  242.475;    0.000
429.006; 2084.375;  245.475;    0.000
429.057; 2067.375;  252.475;    0.000
429.108; 2086.375;  211.475;    0.000
429.160; 2066.375;  217.475;    0.000
429.211; 2051.375;  234.475;    0.000
429.262; 2045.375;  205.475;    0.000
429.314; 2045.375;  211.475;    0.000
429.365; 1952.375;  240.475;    0.000
429.416; 2098.375;  263.475;    0.000
429.467; 2023.375;  244.475;    0.000
429.519; 2072.375;  223.475;    0.000
429.570; 2102.375;  214.475;    0.000
429.621; 2031.375;  235.475;    0.000
429.672; 2008.375;  202.475;    0.000
429.724; 1959.375;  189.475;    0.000
429.775; 2025.375;  214.475;    0.000
429.826; 2008.375;  178.475;    0.000
429.877; 1961.375;  224.475;    0.000
429.928; 2071.375;  230.475;    0.000
429.980; 1983.375;  199.475;    0.000
430.031; 2062.375;  208.475;    0.000
430.082; 1989.375;  224.475;    0.000
430.133; 2036.375;  193.475;    0.000
430.184; 2103.375;  220.475;    0.000
430.235; 1995.375;  184.475;    0.000
430.286; 1992.375;  197.475;    0.000
430.337; 2022.375;  199.475;    0.000
430.388; 2001.375;  207.475;    0.000
430.439; 2053.375;  227.475;    0.000
430.490; 1965.375;  215.475;    0.000
430.542; 1981.375;  211.475;    0.000
430.593; 2032.375;  230.475;    0.000
430.644; 1990.375;  186.475;    0.000
430.695; 1930.375;  232.475;    0.000
430.746; 2018.375;  214.475;    0.000
430.797; 1958.375;  260.475;    0.000
430.848; 1951.375;  214.475;    0.000
430.898; 1976.375;  204.475;    0.000
430.949; 2014.375;  189.475;    0.000
431.000; 2040.375;  240.475;    0.000
431.051; 2004.375;  201.475;    0.000
431.102; 1993.375;  188.475;    0.000
431.153; 2005.375;  209.475;    0.000
431.204; 2012.375;  187.475;    0.000
431.255; 1969.375;  171.475;    0.000
431.306; 2027.375;  181.475;    0.000
431.357; 1952.375;  221.475;    0.000
431.408; 2034.375;  217.475;    0.000
431.458; 2019.375;  206.475;    0.000
431.509; 1992.375;  194.475;    0.000
431.560; 2039.375;  235.475;    0.000
431.611; 1977.375;  213.475;    0.000
431.662; 2026.375;  237.475;    0.000
431.713; 1975.375;  220.475;    0.000
431.763; 2013.375;  212.475;    0.000
431.814; 1985.375;  238.475;    0.000
431.865; 1956.375;  213.475;    0.000
431.916; 2014.375;  191.475;    0.000
431.966; 2003.375;  171.475;    0.000
432.017; 2016.375;  263.475;    0.000
432.068; 2058.375;  240.475;    0.000
432.118; 2045.375;  235.475;    0.000
432.169; 1986.375;  212.475;    0.000
432.220; 1997.375;  188.475;    0.000
432.271; 1995.375;  216.475;    0.000
432.321; 1962.375;  223.475;    0.000
432.372; 1970.375;  254.475;    0.000
432.423; 1956.375;  193.475;    0.000
432.473; 1990.375;  219.475;    0.000
432.524; 1933.375;  215.475;    0.000
432.574; 2002.375;  234.475;    0.000
432.625; 1910.375;  226.475;    0.000
432.676; 1999.375;  219.475;    0.000
432.726; 1972.375;  254.475;    0.000
432.777; 1956.375;  210.475;    0.000
432.827; 2058.375;  234.475;    0.000
432.878; 1986.375;  212.475;    0.000
432.928; 1953.375;  238.475;    0.000
432.979; 1993.375;  252.475;    0.000
433.029; 1953.375;  222.475;    0.000
433.080; 1992.375;  188.475;    0.000
433.130; 2002.375;  223.475;    0.000
433.181; 1974.375;  254.475;    0.000
433.231; 2048.375;  237.475;    0.000
433.282; 1924.375;  242.475;    0.000
433.332; 2005.375;  261.475;    0.000
433.383; 2004.375;  266.475;    0.000
433.433; 2002.375;  286.475;    0.000
433.484; 2009.375;  231.475;    0.000
433.534; 1965.375;  256.475;    0.000
433.585; 2034.375;  253.475;    0.000
433.635; 1941.375;  228.475;    0.000
433.685; 1948.375;  226.475;    0.000
433.736; 1990.375;  276.475;    0.000
433.786; 2044.375;  253.475;    0.000
433.836; 2020.375;  289.475;    0.000
433.887; 1972.375;  241.475;    0.000
433.937; 2027.375;  252.475;    0.000
433.987; 1928.375;  223.475;    0.000
434.038; 1971.375;  241.475;    0.000
434.088; 2013.375;  231.475;    0.000
434.138; 1993.375;  259.475;    0.000
434.189; 2051.375;  263.475;    0.000
434.239; 2045.375;  194.475;    0.000
434.289; 1985.375;  273.475;    0.000
434.339; 2022.375;  212.475;    0.000
434.389; 2000.375;  248.475;    0.000
434.440; 2025.375;  250.475;    0.000
434.490; 1978.375;  278.475;    0.000
434.540; 2008.375;  241.475;    0.000
434.590; 2058.375;  251.475;    0.000
434.640; 1919.375;  207.475;    0.000
434.691; 1966.375;  242.475;    0.000
434.741; 2030.375;  218.475;    0.000
434.791; 2031.375;  267.475;    0.000
434.841; 1958.375;  272.475;    0.000
434.891; 2043.375;  260.475;    0.000
434.941; 2018.375;  258.475;    0.000
434.991; 2088.375;  264.475;    0.000
435.042; 2005.375;  264.475;    0.000
435.092; 2054.375;  271.475;    0.000
435.142; 2001.375;  229.475;    0.000
435.192; 1992.375;  226.475;    0.000
435.242; 2023.375;  253.475;    0.000
435.292; 1926.375;  215.475;    0.000
435.342; 1986.375;  240.475;    0.000
435.392; 1998.375;  235.475;    0.000
435.442; 1959.375;  230.475;    0.000
435.492; 1975.375;  235.475;    0.000
435.542; 1966.375;  230.475;    0.000
435.592; 1894.375;  239.475;    0.000
435.642; 1990.375;  244.475;    0.000
435.692; 1885.375;  236.475;    0.000
435.742; 1923.375;  236.475;    0.000
435.792; 1940.375;  230.475;    0.000
435.842; 1930.375;  248.475;    0.000
435.891; 1830.375;  233.475;    0.000
435.941; 1942.375;  243.475;    0.000
435.991; 1939.375;  279.475;    0.000
436.041; 1923.375;  204.475;    0.000
436.091; 1936.375;  217.475;    0.000
436.141; 1888.375;  205.475;    0.000
436.191; 1930.375;  220.475;    0.000
436.241; 1923.375;  248.475;    0.000
436.290; 1983.375;  255.475;    0.000
436.340; 1939.375;  235.475;    0.000
436.390; 1941.375;  207.475;    0.000
436.440; 1920.375;  207.475;    0.000
436.490; 1951.375;  251.475;    0.000
436.539; 1979.375;  240.475;    0.000
436.589; 1871.375;  198.475;    0.000
436.639; 1866.375;  240.475;    0.000
436.689; 1907.375;  216.475;    0.000
436.738; 1891.375;  246.475;    0.000
436.788; 1889.375;  203.475;    0.000
436.838; 1951.375;  230.475;    0.000
436.887; 1872.375;  235.475;    0.000
436.937; 1909.375;  249.475;    0.000
436.987; 1843.375;  208.475;    0.000
437.036; 1900.375;  232.475;    0.000
437.086; 1923.375;  238.475;    0.000
437.136; 1927.375;  228.475;    0.000
437.185; 1852.375;  219.475;    0.000
437.235; 1905.375;  227.475;    0.000
437.285; 1927.375;  241.475;    0.000
437.334; 1889.375;  216.475;    0.000
437.384; 1845.375;  243.475;    0.000
437.433; 1859.375;  214.475;    0.000
437.483; 1880.375;  246.475;    0.000
437.532; 1893.375;  261.475;    0.000
437.582; 1886.375;  205.475;    0.000
437.631; 1836.375;  218.475;    0.000
437.681; 1773.375;  240.475;    0.000
437.730; 1863.375;  258.475;    0.000
437.780; 1822.375;  237.475;    0.000
437.829; 1866.375;  209.475;    0.000
437.879; 1933.375;  214.475;    0.000
437.928; 1818.375;  223.475;    0.000
437.978; 1841.375;  220.475;    0.000
438.027; 1854.375;  239.475;    0.000
438.077; 1810.375;  231.475;    0.000
438.126; 1850.375;  266.475;    0.000
438.176; 1872.375;  234.475;    0.000
438.225; 1830.375;  237.475;    0.000
438.274; 1786.375;  234.475;    0.000
438.324; 1840.375;  244.475;    0.000
438.373; 1858.375;  232.475;    0.000
438.422; 1895.375;  218.475;    0.000
438.472; 1782.375;  221.475;    0.000
438.521; 1826.375;  190.475;    0.000
438.570; 1907.375;  243.475;    0.000
438.620; 1898.375;  255.475;    0.000
438.669; 1783.375;  210.475;    0.000
438.718; 1846.375;  237.475;    0.000
438.768; 1802.375;  220.475;    0.000
438.817; 1775.375;  218.475;    0.000
438.866; 1776.375;  198.475;    0.000
438.915; 1897.375;  256.475;    0.000
438.965; 1804.375;  221.475;    0.000
439.014; 1818.375;  255.475;    0.000
439.063; 1841.375;  276.475;    0.000
439.112; 1833.375;  220.475;    0.000
439.162; 1858.375;  253.475;    0.000
439.211; 1821.375;  247.475;    0.000
439.260; 1828.375;  220.475;    0.000
439.309; 1810.375;  235.475;    0.000
439.358; 1850.375;  205.475;    0.000
439.407; 1838.375;  207.475;    0.000
439.456; 1834.375;  216.475;    0.000
439.506; 1879.375;  245.475;    0.000
439.555; 1836.375;  264.475;    0.000
439.604; 1862.375;  227.475;    0.000
439.653; 1914.375;  220.475;    0.000
439.702; 1806.375;  223.475;    0.000
439.751; 1815.375;  197.475;    0.000
439.800; 1779.375;  207.475;    0.000
439.849; 1890.375;  238.475;    0.000
439.898; 1822.375;  209.475;    0.000
439.947; 1820.375;  170.475;    0.000
439.996; 1929.375;  233.475;    0.000
440.045; 1853.375;  222.475;    0.000
440.094; 1828.375;  240.475;    0.000
440.143; 1850.375;  249.475;    0.000
440.192; 1823.375;  252.475;    0.000
440.241; 1882.375;  239.475;    0.000
440.290; 1882.375;  234.475;    0.000
440.339; 1767.375;  241.475;    0.000
440.388; 1882.375;  239.475;    0.000
440.437; 1865.375;  231.475;    0.000
440.486; 1808.375;  254.475;    0.000
440.535; 1874.375;  266.475;    0.000
440.583; 1903.375;  205.475;    0.000
440.632; 1760.375;  234.475;    0.000
440.681; 1790.375;  218.475;    0.000
440.730; 1863.375;  248.475;    0.000
440.779; 1888.375;  246.475;    0.000
440.828; 1867.375;  235.475;    0.000
440.876; 1835.375;  218.475;    0.000
440.925; 1830.375;  228.475;    0.000
440.974; 1827.375;  249.475;    0.000
441.023; 1853.375;  192.475;    0.000
441.072; 1869.375;  226.475;    0.000
441.120; 1957.375;  238.475;    0.000
441.169; 1994.375;  255.475;    0.000
441.218; 1841.375;  233.475;    0.000
441.267; 1896.375;  231.475;    0.000
441.315; 1844.375;  214.475;    0.000
441.364; 1962.375;  250.475;    0.000
441.413; 1942.375;  228.475;    0.000
441.461; 1902.375;  209.475;    0.000
441.510; 1949.375;  260.475;    0.000
441.559; 1969.375;  230.475;    0.000
441.607; 1858.375;  220.475;    0.000
441.656; 1896.375;  251.475;    0.000
441.705; 1862.375;  237.475;    0.000
441.753; 1958.375;  257.475;    0.000
441.802; 1890.375;  256.475;    0.000
441.850; 1910.375;  253.475;    0.000
441.899; 1975.375;  212.475;    0.000
441.948; 1898.375;  251.475;    0.000
441.996; 1924.375;  239.475;    0.000
442.045; 1898.375;  223.475;    0.000
442.093; 1900.375;  211.475;    0.000
442.142; 1917.375;  235.475;    0.000
442.190; 1856.375;  254.475;    0.000
442.239; 1933.375;  226.475;    0.000
442.287; 1906.375;  242.475;    0.000
442.336; 1951.375;  256.475;    0.000
442.384; 1956.375;  252.475;    0.000
442.433; 1929.375;  262.475;    0.000
442.481; 1944.375;  246.475;    0.000
442.529; 1976.375;  290.475;    0.000
442.578; 1893.375;  247.475;    0.000
442.626; 1881.375;  247.475;    0.000
442.675; 1958.375;  272.475;    0.000
442.723; 1911.375;  230.475;    0.000
442.771; 1861.375;  234.475;    0.000
442.820; 1910.375;  224.475;    0.000
442.868; 1900.375;  246.475;    0.000
442.917; 1846.375;  249.475;    0.000
442.965; 1903.375;  260.475;    0.000
443.013; 1910.375;  258.475;    0.000
443.062; 1956.375;  259.475;    0.000
443.110; 1971.375;  226.475;    0.000
443.158; 1900.375;  213.475;    0.000
443.206; 1911.375;  201.475;    0.000
443.255; 1968.375;  280.475;    0.000
443.303; 1955.375;  292.475;    0.000
443.351; 1929.375;  256.475;    0.000
443.399; 1873.375;  215.475;    0.000
443.448; 1975.375;  243.475;    0.000
443.496; 1885.375;  249.475;    0.000
443.544; 1881.375;  231.475;    0.000
443.592; 1966.375;  243.475;    0.000
443.640; 2010.375;  252.475;    0.000
443.689; 1927.375;  220.475;    0.000
443.737; 1984.375;  231.475;    0.000
443.785; 1948.375;  256.475;    0.000
443.833; 1986.375;  268.475;    0.000
443.881; 1990.375;  181.475;    0.000
443.929; 1989.375;  245.475;    0.000
443.977; 1933.375;  278.475;    0.000
444.025; 1979.375;  245.475;    0.000
444.074; 1976.375;  233.475;    0.000
444.122; 2024.375;  267.475;    0.000
444.170; 1954.375;  247.475;    0.000
444.218; 2016.375;  246.475;    0.000
444.266; 2033.375;  275.475;    0.000
444.314; 2089.375;  263.475;    0.000
444.362; 1989.375;  240.475;    0.000
444.410; 2012.375;  220.475;    0.000
444.458; 1987.375;  258.475;    0.000
444.506; 2026.375;  258.475;    0.000
444.554; 2094.375;  224.475;    0.000
444.602; 2006.375;  245.475;    0.000
444.650; 2063.375;  261.475;    0.000
444.698; 1997.375;  232.475;    0.000
444.746; 2000.375;  206.475;    0.000
444.793; 1912.375;  249.475;    0.000
444.841; 2040.375;  261.475;    0.000
444.889; 1927.375;  221.475;    0.000
444.937; 1932.375;  215.475;    0.000
444.985; 2043.375;  244.475;    0.000
445.033; 2077.375;  211.475;    0.000
445.081; 2059.375;  225.475;    0.000
445.129; 2023.375;  217.475;    0.000
445.176; 2067.375;  196.475;    0.000
445.224; 1995.375;  211.475;    0.000
445.272; 1974.375;  242.475;    0.000
445.320; 2007.375;  225.475;    0.000
445.368; 2001.375;  249.475;    0.000
445.415; 2043.375;  243.475;    0.000
445.463; 2055.375;  242.475;    0.000
445.511; 2028.375;  248.475;    0.000
445.559; 2093.375;  219.475;    0.000
445.606; 2032.375;  221.475;    0.000
445.654; 2051.375;  202.475;    0.000
445.702; 2123.375;  210.475;    0.000
445.749; 2057.375;  249.475;    0.000
445.797; 2040.375;  206.475;    0.000
445.845; 1953.375;  213.475;    0.000
445.892; 2027.375;  224.475;    0.000
445.940; 2029.375;  214.475;    0.000
445.988; 2006.375;  247.475;    0.000
446.035; 1965.375;  204.475;    0.000
446.083; 2064.375;  235.475;    0.000
446.130; 2037.375;  195.475;    0.000
446.178; 2026.375;  236.475;    0.000
446.226; 2032.375;  218.475;    0.000
446.273; 2038.375;  215.475;    0.000
446.321; 2079.375;  222.475;    0.000
446.368; 2058.375;  228.475;    0.000
446.416; 2100.375;  223.475;    0.000
446.463; 2003.375;  220.475;    0.000
446.511; 2106.375;  198.475;    0.000
446.558; 2067.375;  208.475;    0.000
446.606; 2076.375;  253.475;    0.000
446.653; 2161.375;  198.475;    0.000
446.701; 2121.375;  231.475;    0.000
446.748; 2140.375;  224.475;    0.000
446.796; 2063.375;  201.475;    0.000
446.843; 2165.375;  257.475;    0.000
446.891; 2188.375;  218.475;    0.000
446.938; 2124.375;  232.475;    0.000
446.985; 2199.375;  229.475;    0.000
447.033; 2185.375;  251.475;    0.000
447.080; 2204.375;  257.475;    0.000
447.128; 2243.375;  232.475;    0.000
447.175; 2217.375;  269.475;    0.000
447.222; 2137.375;  185.475;    0.000
447.270; 2250.375;  264.475;    0.000
447.317; 2233.375;  225.475;    0.000
447.364; 2263.375;  243.475;    0.000
447.411; 2260.375;  263.475;    0.000
447.459; 2304.375;  257.475;    0.000
447.506; 2186.375;  175.475;    0.000
447.553; 2250.375;  203.475;    0.000
447.601; 2329.375;  238.475;    0.000
447.648; 2285.375;  244.475;    0.000
447.695; 2317.375;  249.475;    0.000
447.742; 2416.375;  234.475;    0.000
447.789; 2438.375;  228.475;    0.000
447.837; 2460.375;  258.475;    0.000
447.884; 2402.375;  243.475;    0.000
447.931; 2550.375;  235.475;    0.000
447.978; 2521.375;  224.475;    0.000
448.025; 2592.375;  245.475;    0.000
448.072; 2591.375;  212.475;    0.000
448.120; 2522.375;  256.475;    0.000
448.167; 2606.375;  240.475;    0.000
448.214; 2566.375;  247.475;    0.000
448.261; 2483.375;  245.475;    0.000
448.308; 2495.375;  273.475;    0.000
448.355; 2490.375;  257.475;    0.000
448.402; 2392.375;  259.475;    0.000
448.449; 2384.375;  238.475;    0.000
448.496; 2347.375;  245.475;    0.000
448.543; 2267.375;  217.475;    0.000
448.590; 2312.375;  269.475;    0.000
448.637; 2371.375;  250.475;    0.000
448.684; 2257.375;  250.475;    0.000
448.731; 2301.375;  235.475;    0.000
448.778; 2223.375;  265.475;    0.000
448.825; 2257.375;  257.475;    0.000
448.872; 2079.375;  234.475;    0.000
448.919; 2148.375;  216.475;    0.000
448.966; 2234.375;  274.475;    0.000
449.013; 2207.375;  263.475;    0.000
449.060; 2160.375;  247.475;    0.000
449.107; 2215.375;  218.475;    0.000
449.154; 2177.375;  225.475;    0.000
449.200; 2144.375;  212.475;    0.000
449.247; 2191.375;  242.475;    0.000
449.294; 2075.375;  228.475;    0.000
449.341; 2091.375;  232.475;    0.000
449.388; 2046.375;  247.475;    0.000
449.435; 2033.375;  227.475;    0.000
449.481; 2117.375;  270.475;    0.000
449.528; 2087.375;  265.475;    0.000
449.575; 2089.375;  255.475;    0.000
449.622; 2066.375;  210.475;    0.000
449.668; 1994.375;  234.475;    0.000
449.715; 2016.375;  262.475;    0.000
449.762; 1951.375;  247.475;    0.000
449.809; 2018.375;  286.475;    0.000
449.855; 2010.375;  246.475;    0.000
449.902; 2004.375;  224.475;    0.000
449.949; 1993.375;  244.475;    0.000
449.995; 2017.375;  274.475;    0.000
450.042; 2018.375;  272.475;    0.000
450.089; 2070.375;  274.475;    0.000
450.135; 1971.375;  285.475;    0.000
450.182; 2068.375;  251.475;    0.000
450.229; 1934.375;  242.475;    0.000
450.275; 2006.375;  277.475;    0.000
450.322; 1916.375;  260.475;    0.000
450.368; 1901.375;  257.475;    0.000
450.415; 1967.375;  276.475;    0.000
450.462; 2016.375;  298.475;    0.000
450.508; 1968.375;  255.475;    0.000
450.555; 2019.375;  271.475;    0.000
450.601; 1934.375;  281.475;    0.000
450.648; 1893.375;  249.475;    0.000
450.694; 1843.375;  270.475;    0.000
450.741; 1943.375;  256.475;    0.000
450.787; 1915.375;  292.475;    0.000
450.834; 1990.375;  221.475;    0.000
450.880; 1996.375;  265.475;    0.000
450.927; 1901.375;  242.475;    0.000
450.973; 1925.375;  259.475;    0.000
451.019; 1873.375;  221.475;    0.000
451.066; 1936.375;  257.475;    0.000
451.112; 1897.375;  251.475;    0.000
451.159; 1840.375;  278.475;    0.000
451.205; 1924.375;  274.475;    0.000
451.251; 1934.375;  281.475;    0.000
451.298; 1899.375;  273.475;    0.000
451.344; 1930.375;  246.475;    0.000
451.390; 1929.375;  286.475;    0.000
451.437; 1931.375;  268.475;    0.000
451.483; 1910.375;  315.475;    0.000
451.529; 1831.375;  251.475;    0.000
451.576; 1926.375;  306.475;    0.000
451.622; 1856.375;  234.475;    0.000
451.668; 1871.375;  243.475;    0.000
451.714; 1870.375;  256.475;    0.000
451.761; 1879.375;  264.475;    0.000
451.807; 1888.375;  284.475;    0.000
451.853; 1807.375;  282.475;    0.000
451.899; 1877.375;  240.475;    0.000
451.945; 1856.375;  263.475;    0.000
451.992; 1905.375;  255.475;    0.000
452.038; 1851.375;  273.475;    0.000
452.084; 1915.375;  274.475;    0.000
452.130; 1822.375;  261.475;    0.000
452.176; 1871.375;  246.475;    0.000
452.222; 1854.375;  238.475;    0.000
452.268; 1797.375;  267.475;    0.000
452.315; 1801.375;  274.475;    0.000
452.361; 1860.375;  241.475;    0.000
452.407; 1857.375;  274.475;    0.000
452.453; 1770.375;  260.475;    0.000
452.499; 1850.375;  232.475;    0.000
452.545; 1796.375;  252.475;    0.000
452.591; 1895.375;  263.475;    0.000
452.637; 1736.375;  208.475;    0.000
452.683; 1854.375;  237.475;    0.000
452.729; 1858.375;  263.475;    0.000
452.775; 1785.375;  291.475;    0.000
452.821; 1725.375;  238.475;    0.000
452.867; 1771.375;  223.475;    0.000
452.913; 1776.375;  257.475;    0.000
452.959; 1778.375;  238.475;    0.000
453.005; 1760.375;  252.475;    0.000
453.051; 1784.375;  260.475;    0.000
453.097; 1829.375;  268.475;    0.000
453.142; 1745.375;  231.475;    0.000
453.188; 1846.375;  266.475;    0.000
453.234; 1763.375;  233.475;    0.000
453.280; 1701.375;  219.475;    0.000
453.326; 1804.375;  265.475;    0.000
453.372; 1680.375;  238.475;    0.000
453.418; 1882.375;  240.475;    0.000
453.463; 1761.375;  219.475;    0.000
453.509; 1852.375;  264.475;    0.000
453.555; 1719.375;  247.475;    0.000
453.601; 1719.375;  230.475;    0.000
453.647; 1760.375;  285.475;    0.000
453.692; 1780.375;  240.475;    0.000
453.738; 1815.375;  233.475;    0.000
453.784; 1751.375;  230.475;    0.000
453.829; 1777.375;  246.475;    0.000
453.875; 1759.375;  261.475;    0.000
453.921; 1731.375;  203.475;    0.000
453.967; 1781.375;  241.475;    0.000
454.012; 1785.375;  250.475;    0.000
454.058; 1770.375;  252.475;    0.000
454.104; 1785.375;  239.475;    0.000
454.149; 1795.375;  250.475;    0.000
454.195; 1716.375;  243.475;    0.000
454.240; 1748.375;  252.475;    0.000
454.286; 1778.375;  245.475;    0.000
454.332; 1760.375;  286.475;    0.000
454.377; 1801.375;  254.475;    0.000
454.423; 1705.375;  246.475;    0.000
454.468; 1799.375;  235.475;    0.000
454.514; 1722.375;  231.475;    0.000
454.559; 1783.375;  246.475;    0.000
454.605; 1740.375;  204.475;    0.000
454.650; 1758.375;  272.475;    0.000
454.696; 1737.375;  222.475;    0.000
454.741; 1766.375;  290.475;    0.000
454.787; 1805.375;  262.475;    0.000
454.832; 1755.375;  227.475;    0.000
454.878; 1742.375;  241.475;    0.000
454.923; 1742.375;  272.475;    0.000
454.969; 1814.375;  290.475;    0.000
455.014; 1824.375;  278.475;    0.000
455.060; 1711.375;  246.475;    0.000
455.105; 1798.375;  231.475;    0.000
455.150; 1852.375;  265.475;    0.000
455.196; 1700.375;  266.475;    0.000
455.241; 1787.375;  258.475;    0.000
455.286; 1787.375;  266.475;    0.000
455.332; 1714.375;  252.475;    0.000
455.377; 1675.375;  219.475;    0.000
455.422; 1713.375;  262.475;    0.000
455.468; 1789.375;  260.475;    0.000
455.513; 1793.375;  212.475;    0.000
455.558; 1668.375;  197.475;    0.000
455.604; 1805.375;  262.475;    0.000
455.649; 1734.375;  238.475;    0.000
455.694; 1688.375;  221.475;    0.000
455.739; 1756.375;  251.475;    0.000
455.785; 1753.375;  287.475;    0.000
455.830; 1752.375;  284.475;    0.000
455.875; 1758.375;  234.475;    0.000
455.920; 1733.375;  215.475;    0.000
455.965; 1815.375;  256.475;    0.000
456.010; 1864.375;  266.475;    0.000
456.056; 1731.375;  263.475;    0.000
456.101; 1746.375;  240.475;    0.000
456.146; 1738.375;  258.475;    0.000
456.191; 1725.375;  241.475;    0.000
456.236; 1819.375;  252.475;    0.000
456.281; 1701.375;  218.475;    0.000
456.326; 1736.375;  251.475;    0.000
456.371; 1766.375;  256.475;    0.000
456.416; 1900.375;  301.475;    0.000
456.461; 1701.375;  233.475;    0.000
456.507; 1744.375;  218.475;    0.000
456.552; 1747.375;  278.475;    0.000
456.597; 1742.375;  223.475;    0.000
456.642; 1769.375;  203.475;    0.000
456.687; 1778.375;  245.475;    0.000
456.732; 1783.375;  256.475;    0.000
456.776; 1757.375;  244.475;    0.000
456.821; 1802.375;  276.475;    0.000
456.866; 1712.375;  232.475;    0.000
456.911; 1702.375;  225.475;    0.000
456.956; 1757.375;  237.475;    0.000
457.001; 1784.375;  261.475;    0.000
457.046; 1748.375;  205.475;    0.000
457.091; 1751.375;  241.475;    0.000
457.136; 1724.375;  217.475;    0.000
457.181; 1720.375;  251.475;    0.000
457.225; 1787.375;  241.475;    0.000
457.270; 1741.375;  237.475;    0.000
457.315; 1819.375;  279.475;    0.000
457.360; 1735.375;  245.475;    0.000
457.405; 1795.375;  202.475;    0.000
457.450; 1755.375;  247.475;    0.000
457.494; 1768.375;  243.475;    0.000
457.539; 1749.375;  222.475;    0.000
457.584; 1777.375;  239.475;    0.000
457.629; 1787.375;  236.475;    0.000
457.673; 1763.375;  234.475;    0.000
457.718; 1815.375;  202.475;    0.000
457.763; 1706.375;  274.475;    0.000
457.807; 1798.375;  236.475;    0.000
457.852; 1765.375;  265.475;    0.000
457.897; 1825.375;  252.475;    0.000
457.941; 1757.375;  264.475;    0.000
457.986; 1806.375;  280.475;    0.000
458.031; 1748.375;  217.475;    0.000
458.075; 1836.375;  249.475;    0.000
458.120; 1798.375;  257.475;    0.000
458.165; 1810.375;  183.475;    0.000
458.209; 1802.375;  245.475;    0.000
458.254; 1751.375;  245.475;    0.000
458.298; 1713.375;  265.475;    0.000
458.343; 1822.375;  241.475;    0.000
458.387; 1784.375;  262.475;    0.000
458.432; 1822.375;  245.475;    0.000
458.476; 1841.375;  255.475;    0.000
458.521; 1792.375;  269.475;    0.000
458.565; 1848.375;  265.475;    0.000
458.610; 1765.375;  222.475;    0.000
458.654; 1836.375;  257.475;    0.000
458.699; 1864.375;  296.475;    0.000
458.743; 1863.375;  203.475;    0.000
458.788; 1923.375;  267.475;    0.000
458.832; 1872.375;  274.475;    0.000
458.877; 1929.375;  251.475;    0.000
458.921; 1785.375;  237.475;    0.000
458.965; 1913.375;  264.475;    0.000
459.010; 1947.375;  256.475;    0.000
459.054; 1935.375;  280.475;    0.000
459.099; 1918.375;  240.475;    0.000
459.143; 1884.375;  287.475;    0.000
459.187; 1936.375;  257.475;    0.000
459.231; 1923.375;  273.475;    0.000
459.276; 1889.375;  231.475;    0.000
459.320; 1886.375;  261.475;    0.000
459.364; 1949.375;  278.475;    0.000
459.409; 1937.375;  249.475;    0.000
459.453; 1877.375;  235.475;    0.000
459.497; 1942.375;  262.475;    0.000
459.541; 1984.375;  269.475;    0.000
459.586; 1954.375;  240.475;    0.000
459.630; 1958.375;  261.475;    0.000
459.674; 1910.375;  276.475;    0.000
459.718; 1828.375;  236.475;    0.000
459.762; 1989.375;  263.475;    0.000
459.807; 1914.375;  263.475;    0.000
459.851; 1904.375;  225.475;    0.000
459.895; 1904.375;  247.475;    0.000
459.939; 1955.375;  231.475;    0.000
459.983; 1960.375;  242.475;    0.000
460.027; 1856.375;  248.475;    0.000
460.071; 1949.375;  273.475;    0.000
460.115; 1941.375;  282.475;    0.000
460.159; 1993.375;  264.475;    0.000
460.204; 1983.375;  288.475;    0.000
460.248; 1967.375;  293.475;    0.000
460.292; 1928.375;  277.475;    0.000
460.336; 2028.375;  250.475;    0.000
460.380; 1966.375;  275.475;    0.000
460.424; 1945.375;  243.475;    0.000
460.468; 2005.375;  277.475;    0.000
460.512; 1899.375;  261.475;    0.000
460.556; 2041.375;  266.475;    0.000
460.599; 1994.375;  246.475;    0.000
460.643; 1940.375;  256.475;    0.000
460.687; 1988.375;  257.475;    0.000
460.731; 1933.375;  235.475;    0.000
460.775; 2010.375;  278.475;    0.000
460.819; 1982.375;  268.475;    0.000
460.863; 1931.375;  257.475;    0.000
460.907; 1967.375;  213.475;    0.000
460.951; 1990.375;  274.475;    0.000
460.995; 1954.375;  258.475;    0.000
461.038; 1964.375;  219.475;    0.000
461.082; 2091.375;  253.475;    0.000
461.126; 1951.375;  281.475;    0.000
461.170; 2032.375;  244.475;    0.000
461.214; 2048.375;  262.475;    0.000
461.257; 2023.375;  284.475;    0.000
461.301; 1957.375;  275.475;    0.000
461.345; 1983.375;  267.475;    0.000
461.389; 1979.375;  255.475;    0.000
461.432; 1939.375;  282.475;    0.000
461.476; 2027.375;  263.475;    0.000
461.520; 1986.375;  260.475;    0.000
461.563; 1973.375;  278.475;    0.000
461.607; 1993.375;  236.475;    0.000
461.651; 1983.375;  262.475;    0.000
461.694; 1985.375;  236.475;    0.000
461.738; 2016.375;  295.475;    0.000
461.782; 1980.375;  252.475;    0.000
461.825; 2032.375;  271.475;    0.000
461.869; 2067.375;  278.475;    0.000
461.913; 2030.375;  255.475;    0.000
461.956; 2019.375;  254.475;    0.000
462.000; 2025.375;  299.475;    0.000
462.043; 2047.375;  282.475;    0.000
462.087; 2003.375;  274.475;    0.000
462.130; 1978.375;  270.475;    0.000
462.174; 2089.375;  274.475;    0.000
462.217; 2106.375;  272.475;    0.000
462.261; 2115.375;  286.475;    0.000
462.304; 2005.375;  236.475;    0.000
462.348; 1998.375;  262.475;    0.000
462.391; 2072.375;  244.475;    0.000
462.435; 2106.375;  321.475;    0.000
462.478; 2059.375;  230.475;    0.000
462.522; 2084.375;  245.475;    0.000
462.565; 2104.375;  278.475;    0.000
462.608; 2139.375;  303.475;    0.000
462.652; 2134.375;  275.475;    0.000
462.695; 2119.375;  314.475;    0.000
462.739; 2085.375;  307.475;    0.000
462.782; 2119.375;  286.475;    0.000
462.825; 2065.375;  312.475;    0.000
462.869; 2144.375;  338.475;    0.000
462.912; 2165.375;  304.475;    0.000
462.955; 2136.375;  288.475;    0.000
462.998; 2183.375;  292.475;    0.000
463.042; 2158.375;  309.475;    0.000
463.085; 2181.375;  292.475;    0.000
463.128; 2108.375;  317.475;    0.000
463.172; 2111.375;  287.475;    0.000
463.215;  367.375;  313.475;    0.000
463.258;  350.375;  295.475;    0.000
463.301;  302.375;  275.475;    0.000
463.344;  321.375;  311.475;    0.000
463.388;  325.375;  296.475;    0.000
463.431;  279.375;  277.475;    0.000
463.474;  358.375;  364.475;    0.000
463.517;  312.375;  306.475;    0.000
463.560;  330.375;  308.475;    0.000
463.603;  344.375;  343.475;    0.000
463.646;  309.375;  309.475;    0.000
463.690;  316.375;  309.475;    0.000
463.733;  331.375;  320.475;    0.000
463.776;  300.375;  299.475;    0.000
463.819;  323.375;  320.475;    0.000
463.862;  292.375;  283.475;    0.000

