
Integration time [ms]:   1.000
Averaging Nr. [scans]: 1
Smoothing Nr. [pixels]: 0
Data measured with spectrometer [name]: UV2
Wave   ;Sample   ;Dark     ;Reference
[nm]   ;[counts] ;[counts] ;[counts] 

353.533;  223.650;  216.475;    0.000
353.597;  253.650;  244.475;    0.000
353.660;  202.650;  181.475;    0.000
353.723;  188.650;  203.475;    0.000
353.786;  173.650;  180.475;    0.000
353.850;  201.650;  213.475;    0.000
353.913;  188.650;  191.475;    0.000
353.976;  184.650;  195.475;    0.000
354.039;  193.650;  158.475;    0.000
354.102;  232.650;  199.475;    0.000
354.166;  196.650;  185.475;    0.000
354.229;  203.650;  188.475;    0.000
354.292;  227.650;  188.475;    0.000
354.355;  216.650;  226.475;    0.000
354.418;  197.650;  158.475;    0.000
354.481;  217.650;  185.475;    0.000
354.545;  513.650;  191.475;    0.000
354.608;  557.650;  247.475;    0.000
354.671;  555.650;  176.475;    0.000
354.734;  592.650;  198.475;    0.000
354.797;  568.650;  195.475;    0.000
354.860;  558.650;  212.475;    0.000
354.923;  572.650;  184.475;    0.000
354.986;  613.650;  169.475;    0.000
355.050;  643.650;  206.475;    0.000
355.113;  629.650;  210.475;    0.000
355.176;  646.650;  217.475;    0.000
355.239;  585.650;  201.475;    0.000
355.302;  646.650;  193.475;    0.000
355.365;  655.650;  234.475;    0.000
355.428;  646.650;  182.475;    0.000
355.491;  706.650;  233.475;    0.000
355.554;  598.650;  167.475;    0.000
355.617;  668.650;  195.475;    0.000
355.680;  645.650;  198.475;    0.000
355.743;  666.650;  186.475;    0.000
355.806;  652.650;  171.475;    0.000
355.869;  716.650;  244.475;    0.000
355.932;  687.650;  164.475;    0.000
355.995;  742.650;  220.475;    0.000
356.058;  692.650;  172.475;    0.000
356.121;  703.650;  228.475;    0.000
356.184;  755.650;  225.475;    0.000
356.247;  699.650;  161.475;    0.000
356.310;  674.650;  195.475;    0.000
356.373;  719.650;  191.475;    0.000
356.436;  711.650;  147.475;    0.000
356.498;  719.650;  183.475;    0.000
356.561;  749.650;  137.475;    0.000
356.624;  728.650;  186.475;    0.000
356.687;  733.650;  158.475;    0.000
356.750;  763.650;  194.475;    0.000
356.813;  693.650;  186.475;    0.000
356.876;  746.650;  161.475;    0.000
356.939;  719.650;  188.475;    0.000
357.001;  772.650;  200.475;    0.000
357.064;  745.650;  182.475;    0.000
357.127;  718.650;  168.475;    0.000
357.190;  726.650;  157.475;    0.000
357.253;  775.650;  199.475;    0.000
357.316;  731.650;  187.475;    0.000
357.378;  720.650;  174.475;    0.000
357.441;  694.650;  165.475;    0.000
357.504;  758.650;  189.475;    0.000
357.567;  711.650;  116.475;    0.000
357.629;  769.650;  176.475;    0.000
357.692;  775.650;  134.475;    0.000
357.755;  738.650;  175.475;    0.000
357.818;  682.650;  159.475;    0.000
357.880;  823.650;  185.475;    0.000
357.943;  776.650;  159.475;    0.000
358.006;  773.650;  176.475;    0.000
358.069;  744.650;  156.475;    0.000
358.131;  748.650;  170.475;    0.000
358.194;  719.650;  125.475;    0.000
358.257;  697.650;  186.475;    0.000
358.319;  826.650;  139.475;    0.000
358.382;  723.650;  175.475;    0.000
358.445;  785.650;  170.475;    0.000
358.507;  711.650;  129.475;    0.000
358.570;  784.650;  168.475;    0.000
358.633;  780.650;  152.475;    0.000
358.695;  735.650;  194.475;    0.000
358.758;  708.650;  154.475;    0.000
358.821;  767.650;  147.475;    0.000
358.883;  795.650;  163.475;    0.000
358.946;  781.650;  155.475;    0.000
359.008;  801.650;  208.475;    0.000
359.071;  739.650;  182.475;    0.000
359.134;  755.650;  126.475;    0.000
359.196;  801.650;  142.475;    0.000
359.259;  798.650;  138.475;    0.000
359.321;  828.650;  153.475;    0.000
359.384;  777.650;  186.475;    0.000
359.446;  777.650;  152.475;    0.000
359.509;  802.650;  144.475;    0.000
359.571;  780.650;  164.475;    0.000
359.634;  739.650;  171.475;    0.000
359.696;  836.650;  144.475;    0.000
359.759;  798.650;  171.475;    0.000
359.821;  774.650;  161.475;    0.000
359.884;  807.650;  159.475;    0.000
359.946;  861.650;  186.475;    0.000
360.009;  819.650;  171.475;    0.000
360.071;  718.650;  166.475;    0.000
360.134;  878.650;  215.475;    0.000
360.196;  817.650;  138.475;    0.000
360.259;  834.650;  196.475;    0.000
360.321;  775.650;  148.475;    0.000
360.384;  804.650;  150.475;    0.000
360.446;  838.650;  148.475;    0.000
360.508;  868.650;  172.475;    0.000
360.571;  858.650;  155.475;    0.000
360.633;  819.650;  153.475;    0.000
360.696;  781.650;  142.475;    0.000
360.758;  834.650;  165.475;    0.000
360.820;  837.650;  155.475;    0.000
360.883;  832.650;  156.475;    0.000
360.945;  859.650;  171.475;    0.000
361.007;  836.650;  138.475;    0.000
361.070;  856.650;  129.475;    0.000
361.132;  872.650;  166.475;    0.000
361.194;  851.650;  143.475;    0.000
361.257;  809.650;  154.475;    0.000
361.319;  825.650;  176.475;    0.000
361.381;  823.650;  143.475;    0.000
361.443;  843.650;  136.475;    0.000
361.506;  833.650;  160.475;    0.000
361.568;  844.650;  140.475;    0.000
361.630;  834.650;  159.475;    0.000
361.693;  871.650;  162.475;    0.000
361.755;  919.650;  185.475;    0.000
361.817;  862.650;  209.475;    0.000
361.879;  873.650;  161.475;    0.000
361.941;  784.650;  152.475;    0.000
362.004;  891.650;  132.475;    0.000
362.066;  871.650;  159.475;    0.000
362.128;  838.650;  143.475;    0.000
362.190;  864.650;  131.475;    0.000
362.252;  879.650;  131.475;    0.000
362.315;  879.650;  175.475;    0.000
362.377;  871.650;  140.475;    0.000
362.439;  890.650;  140.475;    0.000
362.501;  885.650;  140.475;    0.000
362.563;  933.650;  152.475;    0.000
362.625;  855.650;  174.475;    0.000
362.688;  883.650;  195.475;    0.000
362.750;  926.650;  221.475;    0.000
362.812;  856.650;  171.475;    0.000
362.874;  950.650;  117.475;    0.000
362.936;  921.650;  162.475;    0.000
362.998;  847.650;  142.475;    0.000
363.060;  920.650;  143.475;    0.000
363.122;  877.650;  148.475;    0.000
363.184;  914.650;  179.475;    0.000
363.246;  936.650;  186.475;    0.000
363.308;  861.650;  180.475;    0.000
363.370;  863.650;  200.475;    0.000
363.432;  824.650;  139.475;    0.000
363.494;  816.650;  138.475;    0.000
363.556;  873.650;  114.475;    0.000
363.618;  874.650;  153.475;    0.000
363.680;  915.650;  153.475;    0.000
363.742;  905.650;  178.475;    0.000
363.804;  863.650;  214.475;    0.000
363.866;  964.650;  170.475;    0.000
363.928;  896.650;  145.475;    0.000
363.990;  927.650;  215.475;    0.000
364.052;  900.650;  166.475;    0.000
364.114;  945.650;  168.475;    0.000
364.176;  961.650;  176.475;    0.000
364.238;  879.650;  203.475;    0.000
364.300;  885.650;  158.475;    0.000
364.362;  901.650;  152.475;    0.000
364.424;  852.650;  119.475;    0.000
364.486;  886.650;  187.475;    0.000
364.548;  923.650;  180.475;    0.000
364.609;  990.650;  212.475;    0.000
364.671;  958.650;  165.475;    0.000
364.733;  891.650;  190.475;    0.000
364.795;  890.650;  148.475;    0.000
364.857;  907.650;  159.475;    0.000
364.919;  912.650;  159.475;    0.000
364.981;  932.650;  191.475;    0.000
365.042;  953.650;  170.475;    0.000
365.104;  898.650;  145.475;    0.000
365.166;  875.650;  134.475;    0.000
365.228;  961.650;  150.475;    0.000
365.290;  891.650;  158.475;    0.000
365.351;  934.650;  168.475;    0.000
365.413; 1006.650;  173.475;    0.000
365.475;  887.650;  172.475;    0.000
365.537;  960.650;  126.475;    0.000
365.598;  965.650;  160.475;    0.000
365.660;  934.650;  127.475;    0.000
365.722;  890.650;  189.475;    0.000
365.784;  909.650;  161.475;    0.000
365.845;  913.650;  152.475;    0.000
365.907;  944.650;  117.475;    0.000
365.969;  908.650;  146.475;    0.000
366.030;  970.650;  171.475;    0.000
366.092;  898.650;  155.475;    0.000
366.154;  942.650;  137.475;    0.000
366.215;  951.650;  147.475;    0.000
366.277;  945.650;  148.475;    0.000
366.339;  916.650;  158.475;    0.000
366.400;  940.650;  140.475;    0.000
366.462;  928.650;  159.475;    0.000
366.524;  905.650;  160.475;    0.000
366.585;  946.650;  157.475;    0.000
366.647;  971.650;  170.475;    0.000
366.708;  903.650;  123.475;    0.000
366.770;  957.650;  194.475;    0.000
366.832;  970.650;  191.475;    0.000
366.893;  960.650;  155.475;    0.000
366.955;  941.650;  132.475;    0.000
367.016; 1015.650;  126.475;    0.000
367.078;  980.650;  202.475;    0.000
367.139;  946.650;  116.475;    0.000
367.201;  993.650;  134.475;    0.000
367.262;  884.650;  157.475;    0.000
367.324;  919.650;  202.475;    0.000
367.385;  845.650;  118.475;    0.000
367.447;  964.650;  155.475;    0.000
367.508;  972.650;  134.475;    0.000
367.570;  955.650;  165.475;    0.000
367.631;  965.650;  118.475;    0.000
367.693;  964.650;  170.475;    0.000
367.754;  969.650;  154.475;    0.000
367.816;  979.650;  146.475;    0.000
367.877; 1011.650;  175.475;    0.000
367.939;  984.650;  200.475;    0.000
368.000;  941.650;  168.475;    0.000
368.062;  992.650;  138.475;    0.000
368.123; 1029.650;  170.475;    0.000
368.184;  971.650;  188.475;    0.000
368.246; 1021.650;  145.475;    0.000
368.307;  982.650;  163.475;    0.000
368.369;  955.650;  144.475;    0.000
368.430;  962.650;  140.475;    0.000
368.491;  909.650;  133.475;    0.000
368.553;  984.650;  145.475;    0.000
368.614; 1014.650;  158.475;    0.000
368.675;  975.650;  147.475;    0.000
368.737;  970.650;  157.475;    0.000
368.798;  974.650;  163.475;    0.000
368.859; 1045.650;  173.475;    0.000
368.921;  980.650;  122.475;    0.000
368.982;  967.650;  184.475;    0.000
369.043; 1002.650;  169.475;    0.000
369.104; 1028.650;  142.475;    0.000
369.166; 1020.650;  169.475;    0.000
369.227;  953.650;  156.475;    0.000
369.288;  955.650;  151.475;    0.000
369.349; 1000.650;  191.475;    0.000
369.411;  985.650;  168.475;    0.000
369.472; 1011.650;  155.475;    0.000
369.533;  968.650;  149.475;    0.000
369.594;  959.650;  174.475;    0.000
369.656;  969.650;  188.475;    0.000
369.717;  966.650;  113.475;    0.000
369.778; 1001.650;  184.475;    0.000
369.839;  981.650;  151.475;    0.000
369.900; 1037.650;  180.475;    0.000
369.961; 1006.650;  171.475;    0.000
370.023; 1004.650;  143.475;    0.000
370.084;  972.650;  137.475;    0.000
370.145;  962.650;  152.475;    0.000
370.206;  988.650;  151.475;    0.000
370.267; 1004.650;  134.475;    0.000
370.328; 1039.650;  178.475;    0.000
370.389;  997.650;  181.475;    0.000
370.451; 1050.650;  169.475;    0.000
370.512; 1017.650;  172.475;    0.000
370.573;  973.650;  148.475;    0.000
370.634;  989.650;  156.475;    0.000
370.695;  994.650;  151.475;    0.000
370.756; 1042.650;  185.475;    0.000
370.817;  990.650;  185.475;    0.000
370.878; 1058.650;  191.475;    0.000
370.939; 1024.650;  147.475;    0.000
371.000;  996.650;  162.475;    0.000
371.061; 1072.650;  145.475;    0.000
371.122; 1048.650;  179.475;    0.000
371.183;  966.650;  114.475;    0.000
371.244;  973.650;  180.475;    0.000
371.305; 1037.650;  138.475;    0.000
371.366; 1047.650;  157.475;    0.000
371.427; 1023.650;  148.475;    0.000
371.488; 1058.650;  138.475;    0.000
371.549; 1078.650;  193.475;    0.000
371.610; 1026.650;  158.475;    0.000
371.671; 1047.650;  119.475;    0.000
371.732; 1075.650;  159.475;    0.000
371.793; 1060.650;  178.475;    0.000
371.853; 1040.650;  155.475;    0.000
371.914; 1046.650;  148.475;    0.000
371.975; 1009.650;  124.475;    0.000
372.036; 1029.650;  158.475;    0.000
372.097; 1001.650;  136.475;    0.000
372.158; 1009.650;  116.475;    0.000
372.219; 1074.650;  157.475;    0.000
372.280; 1020.650;  151.475;    0.000
372.340; 1096.650;  190.475;    0.000
372.401; 1064.650;  151.475;    0.000
372.462; 1066.650;  129.475;    0.000
372.523; 1016.650;  121.475;    0.000
372.584; 1051.650;  152.475;    0.000
372.645; 1023.650;  132.475;    0.000
372.705; 1087.650;  190.475;    0.000
372.766; 1016.650;  153.475;    0.000
372.827; 1025.650;  133.475;    0.000
372.888; 1099.650;  161.475;    0.000
372.948; 1011.650;  159.475;    0.000
373.009; 1043.650;  164.475;    0.000
373.070; 1071.650;  139.475;    0.000
373.131; 1020.650;  137.475;    0.000
373.191; 1121.650;  181.475;    0.000
373.252; 1063.650;  154.475;    0.000
373.313; 1047.650;  179.475;    0.000
373.373; 1059.650;  136.475;    0.000
373.434; 1105.650;  169.475;    0.000
373.495; 1050.650;   97.475;    0.000
373.555;  977.650;  142.475;    0.000
373.616; 1071.650;  178.475;    0.000
373.677; 1091.650;  167.475;    0.000
373.737; 1060.650;  139.475;    0.000
373.798; 1076.650;  155.475;    0.000
373.859; 1038.650;  162.475;    0.000
373.919; 1101.650;  174.475;    0.000
373.980; 1071.650;  172.475;    0.000
374.041; 1069.650;  166.475;    0.000
374.101; 1077.650;  172.475;    0.000
374.162; 1144.650;  188.475;    0.000
374.222; 1082.650;  186.475;    0.000
374.283; 1037.650;  195.475;    0.000
374.343; 1120.650;  204.475;    0.000
374.404; 1090.650;  187.475;    0.000
374.465; 1125.650;  183.475;    0.000
374.525; 1048.650;  136.475;    0.000
374.586; 1090.650;  140.475;    0.000
374.646; 1113.650;  191.475;    0.000
374.707; 1100.650;  208.475;    0.000
374.767; 1108.650;  178.475;    0.000
374.828; 1059.650;  159.475;    0.000
374.888; 1096.650;  143.475;    0.000
374.949; 1112.650;  202.475;    0.000
375.009; 1127.650;  151.475;    0.000
375.070; 1099.650;  160.475;    0.000
375.130; 1141.650;  160.475;    0.000
375.190; 1139.650;  164.475;    0.000
375.251; 1151.650;  196.475;    0.000
375.311; 1105.650;  154.475;    0.000
375.372; 1145.650;  197.475;    0.000
375.432; 1046.650;  159.475;    0.000
375.493; 1137.650;  197.475;    0.000
375.553; 1113.650;  165.475;    0.000
375.613; 1134.650;  174.475;    0.000
375.674; 1174.650;  165.475;    0.000
375.734; 1142.650;  128.475;    0.000
375.794; 1106.650;  169.475;    0.000
375.855; 1114.650;  193.475;    0.000
375.915; 1130.650;  162.475;    0.000
375.975; 1138.650;  181.475;    0.000
376.036; 1126.650;  161.475;    0.000
376.096; 1092.650;  131.475;    0.000
376.156; 1152.650;  165.475;    0.000
376.217; 1126.650;  182.475;    0.000
376.277; 1150.650;  185.475;    0.000
376.337; 1142.650;  177.475;    0.000
376.398; 1133.650;  162.475;    0.000
376.458; 1131.650;  179.475;    0.000
376.518; 1094.650;  150.475;    0.000
376.578; 1114.650;  165.475;    0.000
376.639; 1114.650;  159.475;    0.000
376.699; 1164.650;  180.475;    0.000
376.759; 1135.650;  206.475;    0.000
376.819; 1150.650;  146.475;    0.000
376.880; 1158.650;  177.475;    0.000
376.940; 1182.650;  160.475;    0.000
377.000; 1085.650;  149.475;    0.000
377.060; 1197.650;  180.475;    0.000
377.120; 1066.650;  146.475;    0.000
377.180; 1202.650;  137.475;    0.000
377.241; 1126.650;  163.475;    0.000
377.301; 1182.650;  169.475;    0.000
377.361; 1118.650;  137.475;    0.000
377.421; 1172.650;  184.475;    0.000
377.481; 1124.650;  185.475;    0.000
377.541; 1194.650;  146.475;    0.000
377.601; 1136.650;  179.475;    0.000
377.661; 1180.650;  181.475;    0.000
377.722; 1137.650;  185.475;    0.000
377.782; 1183.650;  147.475;    0.000
377.842; 1194.650;  190.475;    0.000
377.902; 1197.650;  166.475;    0.000
377.962; 1179.650;  153.475;    0.000
378.022; 1200.650;  163.475;    0.000
378.082; 1199.650;  146.475;    0.000
378.142; 1218.650;  152.475;    0.000
378.202; 1180.650;  164.475;    0.000
378.262; 1211.650;  195.475;    0.000
378.322; 1253.650;  190.475;    0.000
378.382; 1209.650;  152.475;    0.000
378.442; 1254.650;  175.475;    0.000
378.502; 1133.650;  153.475;    0.000
378.562; 1185.650;  142.475;    0.000
378.622; 1254.650;  166.475;    0.000
378.682; 1250.650;  173.475;    0.000
378.742; 1272.650;  182.475;    0.000
378.802; 1224.650;  145.475;    0.000
378.862; 1294.650;  210.475;    0.000
378.921; 1246.650;  182.475;    0.000
378.981; 1242.650;  185.475;    0.000
379.041; 1209.650;  130.475;    0.000
379.101; 1229.650;  177.475;    0.000
379.161; 1240.650;  166.475;    0.000
379.221; 1198.650;  162.475;    0.000
379.281; 1270.650;  167.475;    0.000
379.341; 1224.650;  136.475;    0.000
379.401; 1264.650;  145.475;    0.000
379.460; 1287.650;  176.475;    0.000
379.520; 1262.650;  162.475;    0.000
379.580; 1202.650;  144.475;    0.000
379.640; 1229.650;  163.475;    0.000
379.700; 1295.650;  157.475;    0.000
379.759; 1283.650;  165.475;    0.000
379.819; 1290.650;  190.475;    0.000
379.879; 1270.650;  143.475;    0.000
379.939; 1306.650;  188.475;    0.000
379.999; 1285.650;  141.475;    0.000
380.058; 1271.650;  169.475;    0.000
380.118; 1372.650;  158.475;    0.000
380.178; 1354.650;  114.475;    0.000
380.237; 1352.650;  157.475;    0.000
380.297; 1416.650;  177.475;    0.000
380.357; 1361.650;  189.475;    0.000
380.417; 1333.650;  182.475;    0.000
380.476; 1356.650;  178.475;    0.000
380.536; 1321.650;  189.475;    0.000
380.596; 1317.650;  183.475;    0.000
380.655; 1414.650;  195.475;    0.000
380.715; 1368.650;  170.475;    0.000
380.775; 1391.650;  170.475;    0.000
380.834; 1412.650;  179.475;    0.000
380.894; 1344.650;  188.475;    0.000
380.954; 1320.650;  142.475;    0.000
381.013; 1363.650;  178.475;    0.000
381.073; 1411.650;  164.475;    0.000
381.132; 1425.650;  192.475;    0.000
381.192; 1383.650;  187.475;    0.000
381.252; 1379.650;  176.475;    0.000
381.311; 1417.650;  206.475;    0.000
381.371; 1355.650;  167.475;    0.000
381.430; 1420.650;  131.475;    0.000
381.490; 1429.650;  150.475;    0.000
381.549; 1401.650;  129.475;    0.000
381.609; 1442.650;  178.475;    0.000
381.668; 1477.650;  194.475;    0.000
381.728; 1515.650;  210.475;    0.000
381.787; 1418.650;  190.475;    0.000
381.847; 1490.650;  181.475;    0.000
381.906; 1466.650;  156.475;    0.000
381.966; 1504.650;  176.475;    0.000
382.025; 1583.650;  186.475;    0.000
382.085; 1604.650;  192.475;    0.000
382.144; 1572.650;  173.475;    0.000
382.204; 1598.650;  207.475;    0.000
382.263; 1577.650;  193.475;    0.000
382.323; 1617.650;  164.475;    0.000
382.382; 1685.650;  161.475;    0.000
382.441; 1611.650;  199.475;    0.000
382.501; 1646.650;  208.475;    0.000
382.560; 1750.650;  173.475;    0.000
382.619; 1782.650;  179.475;    0.000
382.679; 1858.650;  177.475;    0.000
382.738; 1873.650;  190.475;    0.000
382.798; 2062.650;  213.475;    0.000
382.857; 2192.650;  195.475;    0.000
382.916; 2324.650;  184.475;    0.000
382.976; 2398.650;  169.475;    0.000
383.035; 2244.650;  194.475;    0.000
383.094; 2330.650;  185.475;    0.000
383.154; 2597.650;  198.475;    0.000
383.213; 2851.650;  147.475;    0.000
383.272; 2768.650;  175.475;    0.000
383.331; 2471.650;  122.475;    0.000
383.391; 2252.650;  185.475;    0.000
383.450; 2086.650;  160.475;    0.000
383.509; 2179.650;  168.475;    0.000
383.568; 2287.650;  196.475;    0.000
383.628; 2283.650;  156.475;    0.000
383.687; 2541.650;  171.475;    0.000
383.746; 2720.650;  155.475;    0.000
383.805; 3161.650;  201.475;    0.000
383.864; 3121.650;  125.475;    0.000
383.924; 2547.650;  213.475;    0.000
383.983; 2194.650;  188.475;    0.000
384.042; 2037.650;  162.475;    0.000
384.101; 1890.650;  183.475;    0.000
384.160; 1856.650;  155.475;    0.000
384.219; 1831.650;  155.475;    0.000
384.279; 1738.650;  189.475;    0.000
384.338; 1682.650;  156.475;    0.000
384.397; 1656.650;  148.475;    0.000
384.456; 1613.650;  154.475;    0.000
384.515; 1637.650;  160.475;    0.000
384.574; 1668.650;  223.475;    0.000
384.633; 1560.650;  133.475;    0.000
384.692; 1581.650;  163.475;    0.000
384.751; 1604.650;  186.475;    0.000
384.810; 1534.650;  187.475;    0.000
384.869; 1545.650;  172.475;    0.000
384.929; 1543.650;  153.475;    0.000
384.988; 1592.650;  174.475;    0.000
385.047; 1585.650;  154.475;    0.000
385.106; 1572.650;  164.475;    0.000
385.165; 1566.650;  151.475;    0.000
385.224; 1561.650;  147.475;    0.000
385.283; 1421.650;  176.475;    0.000
385.342; 1530.650;  142.475;    0.000
385.401; 1547.650;  175.475;    0.000
385.459; 1500.650;  150.475;    0.000
385.518; 1428.650;  124.475;    0.000
385.577; 1446.650;  115.475;    0.000
385.636; 1520.650;  174.475;    0.000
385.695; 1581.650;  158.475;    0.000
385.754; 1529.650;  150.475;    0.000
385.813; 1585.650;  129.475;    0.000
385.872; 1486.650;  146.475;    0.000
385.931; 1583.650;  194.475;    0.000
385.990; 1578.650;  174.475;    0.000
386.049; 1558.650;  176.475;    0.000
386.107; 1508.650;  151.475;    0.000
386.166; 1546.650;  178.475;    0.000
386.225; 1573.650;  162.475;    0.000
386.284; 1524.650;  180.475;    0.000
386.343; 1594.650;  171.475;    0.000
386.402; 1569.650;  176.475;    0.000
386.460; 1484.650;  144.475;    0.000
386.519; 1514.650;  140.475;    0.000
386.578; 1483.650;  145.475;    0.000
386.637; 1570.650;  164.475;    0.000
386.696; 1544.650;  189.475;    0.000
386.754; 1427.650;  135.475;    0.000
386.813; 1500.650;  139.475;    0.000
386.872; 1507.650;  121.475;    0.000
386.931; 1578.650;  153.475;    0.000
386.989; 1539.650;  211.475;    0.000
387.048; 1505.650;  156.475;    0.000
387.107; 1539.650;  210.475;    0.000
387.165; 1509.650;  129.475;    0.000
387.224; 1476.650;  205.475;    0.000
387.283; 1493.650;  130.475;    0.000
387.342; 1526.650;  171.475;    0.000
387.400; 1549.650;  156.475;    0.000
387.459; 1462.650;  141.475;    0.000
387.517; 1513.650;  219.475;    0.000
387.576; 1494.650;  166.475;    0.000
387.635; 1490.650;  136.475;    0.000
387.693; 1522.650;  191.475;    0.000
387.752; 1462.650;  165.475;    0.000
387.811; 1370.650;  158.475;    0.000
387.869; 1500.650;  204.475;    0.000
387.928; 1424.650;  149.475;    0.000
387.986; 1472.650;  156.475;    0.000
388.045; 1446.650;  123.475;    0.000
388.103; 1480.650;  150.475;    0.000
388.162; 1481.650;  173.475;    0.000
388.221; 1427.650;  143.475;    0.000
388.279; 1381.650;  129.475;    0.000
388.338; 1556.650;  212.475;    0.000
388.396; 1419.650;  150.475;    0.000
388.455; 1472.650;  167.475;    0.000
388.513; 1515.650;  116.475;    0.000
388.572; 1440.650;  181.475;    0.000
388.630; 1473.650;  187.475;    0.000
388.689; 1415.650;  180.475;    0.000
388.747; 1493.650;  154.475;    0.000
388.806; 1433.650;  161.475;    0.000
388.864; 1477.650;  167.475;    0.000
388.922; 1482.650;  184.475;    0.000
388.981; 1465.650;  169.475;    0.000
389.039; 1482.650;  102.475;    0.000
389.098; 1510.650;  183.475;    0.000
389.156; 1488.650;  182.475;    0.000
389.214; 1476.650;  173.475;    0.000
389.273; 1488.650;  167.475;    0.000
389.331; 1512.650;  170.475;    0.000
389.390; 1494.650;  150.475;    0.000
389.448; 1431.650;  156.475;    0.000
389.506; 1475.650;  149.475;    0.000
389.565; 1487.650;  162.475;    0.000
389.623; 1519.650;  188.475;    0.000
389.681; 1454.650;  204.475;    0.000
389.740; 1519.650;  187.475;    0.000
389.798; 1481.650;  153.475;    0.000
389.856; 1465.650;  214.475;    0.000
389.914; 1483.650;  177.475;    0.000
389.973; 1458.650;  189.475;    0.000
390.031; 1467.650;  178.475;    0.000
390.089; 1478.650;  163.475;    0.000
390.147; 1472.650;  170.475;    0.000
390.206; 1473.650;  183.475;    0.000
390.264; 1470.650;  161.475;    0.000
390.322; 1417.650;  148.475;    0.000
390.380; 1458.650;  138.475;    0.000
390.439; 1515.650;  194.475;    0.000
390.497; 1564.650;  170.475;    0.000
390.555; 1464.650;  165.475;    0.000
390.613; 1458.650;  177.475;    0.000
390.671; 1476.650;  170.475;    0.000
390.729; 1473.650;  158.475;    0.000
390.788; 1513.650;  162.475;    0.000
390.846; 1475.650;  161.475;    0.000
390.904; 1494.650;  197.475;    0.000
390.962; 1471.650;  212.475;    0.000
391.020; 1502.650;  224.475;    0.000
391.078; 1496.650;  184.475;    0.000
391.136; 1549.650;  191.475;    0.000
391.194; 1514.650;  187.475;    0.000
391.253; 1525.650;  197.475;    0.000
391.311; 1492.650;  185.475;    0.000
391.369; 1563.650;  207.475;    0.000
391.427; 1576.650;  222.475;    0.000
391.485; 1564.650;  184.475;    0.000
391.543; 1490.650;  203.475;    0.000
391.601; 1511.650;  151.475;    0.000
391.659; 1525.650;  176.475;    0.000
391.717; 1539.650;  190.475;    0.000
391.775; 1467.650;  159.475;    0.000
391.833; 1576.650;  186.475;    0.000
391.891; 1511.650;  154.475;    0.000
391.949; 1490.650;  181.475;    0.000
392.007; 1523.650;  190.475;    0.000
392.065; 1617.650;  182.475;    0.000
392.123; 1509.650;  158.475;    0.000
392.180; 1497.650;  198.475;    0.000
392.238; 1552.650;  191.475;    0.000
392.296; 1523.650;  164.475;    0.000
392.354; 1496.650;  172.475;    0.000
392.412; 1572.650;  194.475;    0.000
392.470; 1530.650;  154.475;    0.000
392.528; 1587.650;  172.475;    0.000
392.586; 1475.650;  179.475;    0.000
392.644; 1575.650;  173.475;    0.000
392.701; 1515.650;  202.475;    0.000
392.759; 1538.650;  180.475;    0.000
392.817; 1539.650;  181.475;    0.000
392.875; 1477.650;  168.475;    0.000
392.933; 1471.650;  161.475;    0.000
392.991; 1543.650;  216.475;    0.000
393.048; 1570.650;  197.475;    0.000
393.106; 1591.650;  199.475;    0.000
393.164; 1590.650;  173.475;    0.000
393.222; 1571.650;  179.475;    0.000
393.279; 1605.650;  209.475;    0.000
393.337; 1588.650;  185.475;    0.000
393.395; 1565.650;  174.475;    0.000
393.453; 1600.650;  181.475;    0.000
393.510; 1595.650;  188.475;    0.000
393.568; 1516.650;  191.475;    0.000
393.626; 1563.650;  151.475;    0.000
393.684; 1558.650;  208.475;    0.000
393.741; 1579.650;  179.475;    0.000
393.799; 1549.650;  149.475;    0.000
393.857; 1537.650;  136.475;    0.000
393.914; 1535.650;  190.475;    0.000
393.972; 1522.650;  155.475;    0.000
394.030; 1607.650;  170.475;    0.000
394.087; 1542.650;  213.475;    0.000
394.145; 1560.650;  191.475;    0.000
394.202; 1475.650;  188.475;    0.000
394.260; 1598.650;  168.475;    0.000
394.318; 1565.650;  176.475;    0.000
394.375; 1562.650;  159.475;    0.000
394.433; 1571.650;  168.475;    0.000
394.490; 1507.650;  163.475;    0.000
394.548; 1556.650;  163.475;    0.000
394.605; 1584.650;  181.475;    0.000
394.663; 1564.650;  180.475;    0.000
394.720; 1563.650;  193.475;    0.000
394.778; 1605.650;  168.475;    0.000
394.836; 1583.650;  128.475;    0.000
394.893; 1529.650;  151.475;    0.000
394.951; 1611.650;  173.475;    0.000
395.008; 1581.650;  201.475;    0.000
395.065; 1572.650;  139.475;    0.000
395.123; 1601.650;  173.475;    0.000
395.180; 1582.650;  144.475;    0.000
395.238; 1545.650;  135.475;    0.000
395.295; 1620.650;  167.475;    0.000
395.353; 1627.650;  150.475;    0.000
395.410; 1668.650;  165.475;    0.000
395.468; 1650.650;  223.475;    0.000
395.525; 1602.650;  156.475;    0.000
395.582; 1623.650;  178.475;    0.000
395.640; 1615.650;  178.475;    0.000
395.697; 1607.650;  173.475;    0.000
395.754; 1612.650;  154.475;    0.000
395.812; 1688.650;  169.475;    0.000
395.869; 1673.650;  196.475;    0.000
395.927; 1729.650;  190.475;    0.000
395.984; 1685.650;  195.475;    0.000
396.041; 1631.650;  160.475;    0.000
396.098; 1617.650;  161.475;    0.000
396.156; 1640.650;  187.475;    0.000
396.213; 1688.650;  200.475;    0.000
396.270; 1636.650;  160.475;    0.000
396.328; 1699.650;  113.475;    0.000
396.385; 1664.650;  165.475;    0.000
396.442; 1613.650;  168.475;    0.000
396.499; 1711.650;  117.475;    0.000
396.557; 1563.650;  203.475;    0.000
396.614; 1623.650;  155.475;    0.000
396.671; 1679.650;  187.475;    0.000
396.728; 1716.650;  169.475;    0.000
396.785; 1683.650;  167.475;    0.000
396.843; 1657.650;  154.475;    0.000
396.900; 1739.650;  172.475;    0.000
396.957; 1703.650;  176.475;    0.000
397.014; 1697.650;  193.475;    0.000
397.071; 1701.650;  170.475;    0.000
397.128; 1708.650;  172.475;    0.000
397.186; 1711.650;  205.475;    0.000
397.243; 1711.650;  163.475;    0.000
397.300; 1684.650;  193.475;    0.000
397.357; 1726.650;  166.475;    0.000
397.414; 1711.650;  149.475;    0.000
397.471; 1705.650;  157.475;    0.000
397.528; 1707.650;  180.475;    0.000
397.585; 1741.650;  203.475;    0.000
397.642; 1718.650;  156.475;    0.000
397.699; 1719.650;  229.475;    0.000
397.756; 1706.650;  185.475;    0.000
397.814; 1701.650;  191.475;    0.000
397.871; 1692.650;  170.475;    0.000
397.928; 1694.650;  191.475;    0.000
397.985; 1709.650;  183.475;    0.000
398.042; 1758.650;  161.475;    0.000
398.099; 1696.650;  192.475;    0.000
398.156; 1729.650;  176.475;    0.000
398.212; 1794.650;  170.475;    0.000
398.269; 1802.650;  158.475;    0.000
398.326; 1764.650;  175.475;    0.000
398.383; 1789.650;  177.475;    0.000
398.440; 1768.650;  169.475;    0.000
398.497; 1820.650;  184.475;    0.000
398.554; 1774.650;  196.475;    0.000
398.611; 1831.650;  198.475;    0.000
398.668; 1786.650;  135.475;    0.000
398.725; 1727.650;  181.475;    0.000
398.782; 1847.650;  195.475;    0.000
398.839; 1804.650;  179.475;    0.000
398.895; 1865.650;  188.475;    0.000
398.952; 1798.650;  176.475;    0.000
399.009; 1777.650;  183.475;    0.000
399.066; 1797.650;  190.475;    0.000
399.123; 1785.650;  174.475;    0.000
399.180; 1938.650;  191.475;    0.000
399.236; 1958.650;  217.475;    0.000
399.293; 1920.650;  154.475;    0.000
399.350; 1976.650;  210.475;    0.000
399.407; 1966.650;  202.475;    0.000
399.463; 1898.650;  162.475;    0.000
399.520; 1912.650;  207.475;    0.000
399.577; 1915.650;  174.475;    0.000
399.634; 2001.650;  170.475;    0.000
399.690; 2000.650;  186.475;    0.000
399.747; 1994.650;  218.475;    0.000
399.804; 1957.650;  200.475;    0.000
399.861; 2001.650;  190.475;    0.000
399.917; 1912.650;  218.475;    0.000
399.974; 1899.650;  200.475;    0.000
400.031; 1958.650;  200.475;    0.000
400.087; 1996.650;  153.475;    0.000
400.144; 2000.650;  188.475;    0.000
400.201; 1983.650;  198.475;    0.000
400.257; 1927.650;  205.475;    0.000
400.314; 1974.650;  183.475;    0.000
400.370; 1889.650;  227.475;    0.000
400.427; 1857.650;  177.475;    0.000
400.484; 1889.650;  202.475;    0.000
400.540; 1899.650;  173.475;    0.000
400.597; 1976.650;  212.475;    0.000
400.653; 1934.650;  182.475;    0.000
400.710; 1916.650;  201.475;    0.000
400.766; 1930.650;  188.475;    0.000
400.823; 1887.650;  205.475;    0.000
400.879; 1909.650;  165.475;    0.000
400.936; 1882.650;  180.475;    0.000
400.993; 1927.650;  181.475;    0.000
401.049; 1938.650;  147.475;    0.000
401.105; 2007.650;  205.475;    0.000
401.162; 1936.650;  197.475;    0.000
401.218; 1856.650;  177.475;    0.000
401.275; 1881.650;  183.475;    0.000
401.331; 1934.650;  198.475;    0.000
401.388; 1921.650;  209.475;    0.000
401.444; 1891.650;  211.475;    0.000
401.501; 1901.650;  185.475;    0.000
401.557; 1908.650;  190.475;    0.000
401.614; 1908.650;  172.475;    0.000
401.670; 1880.650;  185.475;    0.000
401.726; 1873.650;  196.475;    0.000
401.783; 1852.650;  187.475;    0.000
401.839; 1903.650;  192.475;    0.000
401.895; 1877.650;  173.475;    0.000
401.952; 1857.650;  145.475;    0.000
402.008; 1928.650;  197.475;    0.000
402.064; 1855.650;  146.475;    0.000
402.121; 1883.650;  197.475;    0.000
402.177; 1894.650;  173.475;    0.000
402.233; 1938.650;  185.475;    0.000
402.290; 1893.650;  175.475;    0.000
402.346; 1963.650;  164.475;    0.000
402.402; 1941.650;  173.475;    0.000
402.458; 1992.650;  183.475;    0.000
402.515; 1908.650;  147.475;    0.000
402.571; 1920.650;  210.475;    0.000
402.627; 1903.650;  181.475;    0.000
402.683; 1976.650;  177.475;    0.000
402.740; 1869.650;  162.475;    0.000
402.796; 1967.650;  178.475;    0.000
402.852; 1945.650;  138.475;    0.000
402.908; 1927.650;  181.475;    0.000
402.964; 1959.650;  151.475;    0.000
403.021; 1922.650;  170.475;    0.000
403.077; 1845.650;  204.475;    0.000
403.133; 1878.650;  144.475;    0.000
403.189; 1963.650;  207.475;    0.000
403.245; 1909.650;  184.475;    0.000
403.301; 1984.650;  170.475;    0.000
403.357; 1920.650;  201.475;    0.000
403.414; 1980.650;  205.475;    0.000
403.470; 1959.650;  170.475;    0.000
403.526; 2012.650;  135.475;    0.000
403.582; 1959.650;  180.475;    0.000
403.638; 2025.650;  185.475;    0.000
403.694; 2023.650;  169.475;    0.000
403.750; 1989.650;  210.475;    0.000
403.806; 2063.650;  210.475;    0.000
403.862; 1981.650;  219.475;    0.000
403.918; 1946.650;  191.475;    0.000
403.974; 1971.650;  193.475;    0.000
404.030; 1954.650;  154.475;    0.000
404.086; 1963.650;  170.475;    0.000
404.142; 2004.650;  194.475;    0.000
404.198; 2002.650;  224.475;    0.000
404.254; 1985.650;  177.475;    0.000
404.310; 1996.650;  204.475;    0.000
404.366; 2015.650;  170.475;    0.000
404.422; 2031.650;  172.475;    0.000
404.478; 2050.650;  153.475;    0.000
404.534; 1984.650;  159.475;    0.000
404.590; 1965.650;  203.475;    0.000
404.646; 1923.650;  164.475;    0.000
404.701; 2029.650;  141.475;    0.000
404.757; 2014.650;  195.475;    0.000
404.813; 1973.650;  152.475;    0.000
404.869; 1992.650;  174.475;    0.000
404.925; 1949.650;  167.475;    0.000
404.981; 2084.650;  175.475;    0.000
405.037; 1960.650;  170.475;    0.000
405.092; 2020.650;  155.475;    0.000
405.148; 2061.650;  160.475;    0.000
405.204; 1950.650;  158.475;    0.000
405.260; 2005.650;  128.475;    0.000
405.316; 1975.650;  168.475;    0.000
405.371; 2093.650;  162.475;    0.000
405.427; 2046.650;  187.475;    0.000
405.483; 2048.650;  214.475;    0.000
405.539; 2010.650;  163.475;    0.000
405.594; 2091.650;  191.475;    0.000
405.650; 2024.650;  124.475;    0.000
405.706; 1944.650;  188.475;    0.000
405.761; 2033.650;  204.475;    0.000
405.817; 2112.650;  150.475;    0.000
405.873; 2119.650;  152.475;    0.000
405.928; 2023.650;  135.475;    0.000
405.984; 2025.650;  209.475;    0.000
406.040; 2152.650;  165.475;    0.000
406.095; 2015.650;  146.475;    0.000
406.151; 2025.650;  169.475;    0.000
406.207; 2047.650;  174.475;    0.000
406.262; 2078.650;  189.475;    0.000
406.318; 2183.650;  141.475;    0.000
406.374; 2131.650;  178.475;    0.000
406.429; 2180.650;  197.475;    0.000
406.485; 2211.650;  194.475;    0.000
406.540; 2188.650;  149.475;    0.000
406.596; 2205.650;  173.475;    0.000
406.651; 2141.650;  154.475;    0.000
406.707; 2101.650;  183.475;    0.000
406.763; 2109.650;  156.475;    0.000
406.818; 2143.650;  181.475;    0.000
406.874; 2074.650;  135.475;    0.000
406.929; 2184.650;  194.475;    0.000
406.985; 2276.650;  166.475;    0.000
407.040; 2142.650;  207.475;    0.000
407.095; 2173.650;  213.475;    0.000
407.151; 2212.650;  198.475;    0.000
407.206; 2167.650;  186.475;    0.000
407.262; 2313.650;  148.475;    0.000
407.317; 2262.650;  212.475;    0.000
407.373; 2286.650;  209.475;    0.000
407.428; 2261.650;  218.475;    0.000
407.484; 2239.650;  158.475;    0.000
407.539; 2272.650;  165.475;    0.000
407.594; 2314.650;  197.475;    0.000
407.650; 2320.650;  177.475;    0.000
407.705; 2254.650;  154.475;    0.000
407.760; 2341.650;  198.475;    0.000
407.816; 2311.650;  181.475;    0.000
407.871; 2276.650;  185.475;    0.000
407.926; 2263.650;  167.475;    0.000
407.982; 2298.650;  172.475;    0.000
408.037; 2272.650;  202.475;    0.000
408.092; 2249.650;  201.475;    0.000
408.148; 2319.650;  199.475;    0.000
408.203; 2237.650;  174.475;    0.000
408.258; 2206.650;  157.475;    0.000
408.314; 2263.650;  194.475;    0.000
408.369; 2166.650;  189.475;    0.000
408.424; 2123.650;  204.475;    0.000
408.479; 2278.650;  192.475;    0.000
408.534; 2252.650;  215.475;    0.000
408.590; 2255.650;  190.475;    0.000
408.645; 2302.650;  159.475;    0.000
408.700; 2207.650;  191.475;    0.000
408.755; 2180.650;  217.475;    0.000
408.810; 2265.650;  158.475;    0.000
408.866; 2313.650;  166.475;    0.000
408.921; 2248.650;  214.475;    0.000
408.976; 2245.650;  158.475;    0.000
409.031; 2177.650;  185.475;    0.000
409.086; 2160.650;  158.475;    0.000
409.141; 2200.650;  180.475;    0.000
409.196; 2251.650;  188.475;    0.000
409.252; 2122.650;  186.475;    0.000
409.307; 2224.650;  135.475;    0.000
409.362; 2251.650;  162.475;    0.000
409.417; 2215.650;  149.475;    0.000
409.472; 2241.650;  205.475;    0.000
409.527; 2186.650;  184.475;    0.000
409.582; 2281.650;  174.475;    0.000
409.637; 2215.650;  188.475;    0.000
409.692; 2239.650;  211.475;    0.000
409.747; 2180.650;  159.475;    0.000
409.802; 2266.650;  199.475;    0.000
409.857; 2318.650;  118.475;    0.000
409.912; 2269.650;  177.475;    0.000
409.967; 2265.650;  182.475;    0.000
410.022; 2245.650;  188.475;    0.000
410.077; 2260.650;  204.475;    0.000
410.132; 2178.650;  174.475;    0.000
410.187; 2322.650;  169.475;    0.000
410.242; 2214.650;  178.475;    0.000
410.297; 2294.650;  185.475;    0.000
410.351; 2299.650;  203.475;    0.000
410.406; 2304.650;  180.475;    0.000
410.461; 2280.650;  213.475;    0.000
410.516; 2286.650;  198.475;    0.000
410.571; 2218.650;  171.475;    0.000
410.626; 2307.650;  186.475;    0.000
410.681; 2311.650;  187.475;    0.000
410.736; 2267.650;  147.475;    0.000
410.790; 2296.650;  186.475;    0.000
410.845; 2220.650;  152.475;    0.000
410.900; 2331.650;  202.475;    0.000
410.955; 2287.650;  196.475;    0.000
411.010; 2283.650;  150.475;    0.000
411.064; 2291.650;  200.475;    0.000
411.119; 2267.650;  203.475;    0.000
411.174; 2233.650;  176.475;    0.000
411.229; 2237.650;  203.475;    0.000
411.283; 2191.650;  176.475;    0.000
411.338; 2289.650;  153.475;    0.000
411.393; 2185.650;  168.475;    0.000
411.447; 2244.650;  223.475;    0.000
411.502; 2370.650;  238.475;    0.000
411.557; 2227.650;  179.475;    0.000
411.612; 2256.650;  159.475;    0.000
411.666; 2336.650;  189.475;    0.000
411.721; 2267.650;  212.475;    0.000
411.776; 2244.650;  242.475;    0.000
411.830; 2221.650;  194.475;    0.000
411.885; 2199.650;  188.475;    0.000
411.939; 2267.650;  245.475;    0.000
411.994; 2329.650;  177.475;    0.000
412.049; 2205.650;  170.475;    0.000
412.103; 2350.650;  196.475;    0.000
412.158; 2305.650;  215.475;    0.000
412.212; 2257.650;  199.475;    0.000
412.267; 2254.650;  191.475;    0.000
412.322; 2334.650;  238.475;    0.000
412.376; 2288.650;  243.475;    0.000
412.431; 2320.650;  214.475;    0.000
412.485; 2306.650;  210.475;    0.000
412.540; 2290.650;  200.475;    0.000
412.594; 2234.650;  174.475;    0.000
412.649; 2313.650;  246.475;    0.000
412.703; 2273.650;  182.475;    0.000
412.758; 2252.650;  222.475;    0.000
412.812; 2286.650;  201.475;    0.000
412.866; 2132.650;  162.475;    0.000
412.921; 2262.650;  202.475;    0.000
412.975; 2190.650;  212.475;    0.000
413.030; 2287.650;  238.475;    0.000
413.084; 2218.650;  201.475;    0.000
413.139; 2325.650;  210.475;    0.000
413.193; 2262.650;  218.475;    0.000
413.247; 2232.650;  203.475;    0.000
413.302; 2291.650;  176.475;    0.000
413.356; 2214.650;  215.475;    0.000
413.410; 2218.650;  204.475;    0.000
413.465; 2246.650;  186.475;    0.000
413.519; 2181.650;  196.475;    0.000
413.573; 2199.650;  181.475;    0.000
413.628; 2320.650;  200.475;    0.000
413.682; 2214.650;  157.475;    0.000
413.736; 2264.650;  194.475;    0.000
413.791; 2296.650;  193.475;    0.000
413.845; 2213.650;  225.475;    0.000
413.899; 2269.650;  195.475;    0.000
413.953; 2236.650;  173.475;    0.000
414.008; 2153.650;  186.475;    0.000
414.062; 2207.650;  217.475;    0.000
414.116; 2256.650;  169.475;    0.000
414.170; 2258.650;  228.475;    0.000
414.225; 2217.650;  177.475;    0.000
414.279; 2250.650;  210.475;    0.000
414.333; 2313.650;  207.475;    0.000
414.387; 2323.650;  217.475;    0.000
414.441; 2152.650;  187.475;    0.000
414.496; 2232.650;  215.475;    0.000
414.550; 2246.650;  204.475;    0.000
414.604; 2300.650;  206.475;    0.000
414.658; 2183.650;  139.475;    0.000
414.712; 2281.650;  198.475;    0.000
414.766; 2227.650;  208.475;    0.000
414.820; 2220.650;  199.475;    0.000
414.874; 2261.650;  216.475;    0.000
414.928; 2341.650;  186.475;    0.000
414.982; 2322.650;  176.475;    0.000
415.037; 2165.650;  181.475;    0.000
415.091; 2207.650;  208.475;    0.000
415.145; 2250.650;  209.475;    0.000
415.199; 2250.650;  186.475;    0.000
415.253; 2236.650;  203.475;    0.000
415.307; 2242.650;  197.475;    0.000
415.361; 2185.650;  223.475;    0.000
415.415; 2272.650;  213.475;    0.000
415.469; 2240.650;  226.475;    0.000
415.523; 2321.650;  222.475;    0.000
415.577; 2240.650;  205.475;    0.000
415.631; 2224.650;  224.475;    0.000
415.684; 2323.650;  193.475;    0.000
415.738; 2255.650;  224.475;    0.000
415.792; 2286.650;  204.475;    0.000
415.846; 2233.650;  189.475;    0.000
415.900; 2269.650;  223.475;    0.000
415.954; 2181.650;  187.475;    0.000
416.008; 2229.650;  237.475;    0.000
416.062; 2214.650;  195.475;    0.000
416.116; 2264.650;  223.475;    0.000
416.169; 2156.650;  210.475;    0.000
416.223; 2226.650;  232.475;    0.000
416.277; 2224.650;  227.475;    0.000
416.331; 2190.650;  216.475;    0.000
416.385; 2249.650;  186.475;    0.000
416.439; 2269.650;  226.475;    0.000
416.492; 2210.650;  229.475;    0.000
416.546; 2337.650;  216.475;    0.000
416.600; 2254.650;  211.475;    0.000
416.654; 2216.650;  226.475;    0.000
416.707; 2274.650;  248.475;    0.000
416.761; 2282.650;  217.475;    0.000
416.815; 2218.650;  207.475;    0.000
416.869; 2244.650;  226.475;    0.000
416.922; 2201.650;  192.475;    0.000
416.976; 2260.650;  205.475;    0.000
417.030; 2212.650;  233.475;    0.000
417.083; 2296.650;  226.475;    0.000
417.137; 2249.650;  222.475;    0.000
417.191; 2202.650;  217.475;    0.000
417.244; 2241.650;  221.475;    0.000
417.298; 2235.650;  201.475;    0.000
417.352; 2243.650;  170.475;    0.000
417.405; 2286.650;  234.475;    0.000
417.459; 2258.650;  241.475;    0.000
417.512; 2300.650;  247.475;    0.000
417.566; 2281.650;  219.475;    0.000
417.620; 2207.650;  228.475;    0.000
417.673; 2294.650;  192.475;    0.000
417.727; 2302.650;  203.475;    0.000
417.780; 2169.650;  204.475;    0.000
417.834; 2212.650;  234.475;    0.000
417.887; 2297.650;  245.475;    0.000
417.941; 2306.650;  211.475;    0.000
417.994; 2224.650;  244.475;    0.000
418.048; 2292.650;  203.475;    0.000
418.101; 2189.650;  212.475;    0.000
418.155; 2252.650;  251.475;    0.000
418.208; 2338.650;  286.475;    0.000
418.262; 2263.650;  243.475;    0.000
418.315; 2291.650;  214.475;    0.000
418.369; 2252.650;  269.475;    0.000
418.422; 2187.650;  222.475;    0.000
418.476; 2228.650;  226.475;    0.000
418.529; 2239.650;  238.475;    0.000
418.582; 2293.650;  210.475;    0.000
418.636; 2255.650;  221.475;    0.000
418.689; 2205.650;  224.475;    0.000
418.743; 2233.650;  228.475;    0.000
418.796; 2211.650;  192.475;    0.000
418.849; 2280.650;  230.475;    0.000
418.903; 2273.650;  257.475;    0.000
418.956; 2248.650;  241.475;    0.000
419.009; 2268.650;  247.475;    0.000
419.063; 2277.650;  235.475;    0.000
419.116; 2173.650;  218.475;    0.000
419.169; 2238.650;  219.475;    0.000
419.222; 2279.650;  215.475;    0.000
419.276; 2309.650;  202.475;    0.000
419.329; 2242.650;  210.475;    0.000
419.382; 2244.650;  188.475;    0.000
419.435; 2240.650;  222.475;    0.000
419.489; 2261.650;  232.475;    0.000
419.542; 2216.650;  250.475;    0.000
419.595; 2174.650;  240.475;    0.000
419.648; 2293.650;  261.475;    0.000
419.701; 2177.650;  222.475;    0.000
419.755; 2252.650;  233.475;    0.000
419.808; 2269.650;  178.475;    0.000
419.861; 2236.650;  207.475;    0.000
419.914; 2234.650;  223.475;    0.000
419.967; 2302.650;  216.475;    0.000
420.020; 2263.650;  211.475;    0.000
420.073; 2158.650;  200.475;    0.000
420.127; 2277.650;  248.475;    0.000
420.180; 2250.650;  220.475;    0.000
420.233; 2198.650;  215.475;    0.000
420.286; 2251.650;  222.475;    0.000
420.339; 2212.650;  229.475;    0.000
420.392; 2216.650;  245.475;    0.000
420.445; 2242.650;  221.475;    0.000
420.498; 2254.650;  224.475;    0.000
420.551; 2141.650;  170.475;    0.000
420.604; 2191.650;  237.475;    0.000
420.657; 2233.650;  235.475;    0.000
420.710; 2090.650;  223.475;    0.000
420.763; 2156.650;  219.475;    0.000
420.816; 2170.650;  200.475;    0.000
420.869; 2167.650;  197.475;    0.000
420.922; 2188.650;  212.475;    0.000
420.975; 2194.650;  274.475;    0.000
421.028; 2179.650;  228.475;    0.000
421.081; 2176.650;  243.475;    0.000
421.134; 2205.650;  227.475;    0.000
421.187; 2125.650;  245.475;    0.000
421.239; 2102.650;  210.475;    0.000
421.292; 2129.650;  193.475;    0.000
421.345; 2163.650;  226.475;    0.000
421.398; 2142.650;  226.475;    0.000
421.451; 2148.650;  259.475;    0.000
421.504; 2116.650;  204.475;    0.000
421.557; 2128.650;  215.475;    0.000
421.609; 2067.650;  194.475;    0.000
421.662; 2184.650;  216.475;    0.000
421.715; 2103.650;  226.475;    0.000
421.768; 2119.650;  177.475;    0.000
421.821; 2165.650;  210.475;    0.000
421.873; 2141.650;  208.475;    0.000
421.926; 2153.650;  223.475;    0.000
421.979; 2153.650;  230.475;    0.000
422.032; 2147.650;  227.475;    0.000
422.084; 2138.650;  234.475;    0.000
422.137; 2070.650;  207.475;    0.000
422.190; 2118.650;  228.475;    0.000
422.243; 2102.650;  206.475;    0.000
422.295; 2141.650;  236.475;    0.000
422.348; 2072.650;  232.475;    0.000
422.401; 2136.650;  228.475;    0.000
422.453; 2142.650;  239.475;    0.000
422.506; 2188.650;  226.475;    0.000
422.559; 2070.650;  205.475;    0.000
422.611; 2139.650;  235.475;    0.000
422.664; 2089.650;  231.475;    0.000
422.716; 2112.650;  228.475;    0.000
422.769; 2085.650;  204.475;    0.000
422.822; 2114.650;  205.475;    0.000
422.874; 2057.650;  228.475;    0.000
422.927; 2082.650;  266.475;    0.000
422.979; 2071.650;  223.475;    0.000
423.032; 2084.650;  207.475;    0.000
423.084; 2044.650;  211.475;    0.000
423.137; 2106.650;  205.475;    0.000
423.189; 2164.650;  254.475;    0.000
423.242; 2037.650;  208.475;    0.000
423.294; 2125.650;  240.475;    0.000
423.347; 2067.650;  218.475;    0.000
423.399; 2102.650;  237.475;    0.000
423.452; 2137.650;  242.475;    0.000
423.504; 2048.650;  225.475;    0.000
423.557; 2060.650;  195.475;    0.000
423.609; 2121.650;  206.475;    0.000
423.662; 2046.650;  211.475;    0.000
423.714; 2140.650;  252.475;    0.000
423.766; 2151.650;  181.475;    0.000
423.819; 2135.650;  216.475;    0.000
423.871; 2032.650;  216.475;    0.000
423.923; 2032.650;  222.475;    0.000
423.976; 2057.650;  223.475;    0.000
424.028; 1995.650;  229.475;    0.000
424.081; 2133.650;  267.475;    0.000
424.133; 1999.650;  251.475;    0.000
424.185; 2055.650;  238.475;    0.000
424.238; 2044.650;  220.475;    0.000
424.290; 2103.650;  259.475;    0.000
424.342; 2018.650;  248.475;    0.000
424.394; 2023.650;  234.475;    0.000
424.447; 2113.650;  248.475;    0.000
424.499; 2109.650;  233.475;    0.000
424.551; 2069.650;  236.475;    0.000
424.603; 2074.650;  207.475;    0.000
424.656; 2085.650;  210.475;    0.000
424.708; 2012.650;  251.475;    0.000
424.760; 2062.650;  221.475;    0.000
424.812; 2092.650;  275.475;    0.000
424.864; 2026.650;  206.475;    0.000
424.917; 1968.650;  198.475;    0.000
424.969; 1991.650;  246.475;    0.000
425.021; 1982.650;  209.475;    0.000
425.073; 2057.650;  242.475;    0.000
425.125; 2040.650;  254.475;    0.000
425.177; 2029.650;  224.475;    0.000
425.229; 2127.650;  256.475;    0.000
425.282; 2020.650;  265.475;    0.000
425.334; 2026.650;  266.475;    0.000
425.386; 2059.650;  242.475;    0.000
425.438; 2130.650;  205.475;    0.000
425.490; 2047.650;  227.475;    0.000
425.542; 2037.650;  235.475;    0.000
425.594; 2012.650;  210.475;    0.000
425.646; 2033.650;  232.475;    0.000
425.698; 2000.650;  243.475;    0.000
425.750; 1969.650;  230.475;    0.000
425.802; 2018.650;  218.475;    0.000
425.854; 2035.650;  222.475;    0.000
425.906; 1978.650;  235.475;    0.000
425.958; 1923.650;  220.475;    0.000
426.010; 2004.650;  236.475;    0.000
426.062; 2076.650;  230.475;    0.000
426.114; 2049.650;  216.475;    0.000
426.166; 1998.650;  230.475;    0.000
426.218; 2015.650;  237.475;    0.000
426.270; 1909.650;  217.475;    0.000
426.321; 1969.650;  224.475;    0.000
426.373; 1916.650;  207.475;    0.000
426.425; 1938.650;  278.475;    0.000
426.477; 2021.650;  243.475;    0.000
426.529; 2006.650;  247.475;    0.000
426.581; 1976.650;  229.475;    0.000
426.633; 2043.650;  212.475;    0.000
426.684; 1960.650;  244.475;    0.000
426.736; 1932.650;  250.475;    0.000
426.788; 1888.650;  210.475;    0.000
426.840; 1943.650;  201.475;    0.000
426.892; 1939.650;  225.475;    0.000
426.943; 1941.650;  215.475;    0.000
426.995; 1969.650;  216.475;    0.000
427.047; 2021.650;  216.475;    0.000
427.099; 1979.650;  203.475;    0.000
427.150; 1981.650;  195.475;    0.000
427.202; 1932.650;  212.475;    0.000
427.254; 1880.650;  233.475;    0.000
427.306; 1896.650;  211.475;    0.000
427.357; 1973.650;  210.475;    0.000
427.409; 1862.650;  244.475;    0.000
427.461; 1901.650;  187.475;    0.000
427.512; 1933.650;  227.475;    0.000
427.564; 1905.650;  210.475;    0.000
427.616; 1926.650;  202.475;    0.000
427.667; 1872.650;  185.475;    0.000
427.719; 1916.650;  222.475;    0.000
427.770; 1920.650;  230.475;    0.000
427.822; 1868.650;  254.475;    0.000
427.874; 1910.650;  222.475;    0.000
427.925; 1881.650;  199.475;    0.000
427.977; 1921.650;  228.475;    0.000
428.028; 1941.650;  226.475;    0.000
428.080; 1931.650;  236.475;    0.000
428.131; 1904.650;  220.475;    0.000
428.183; 1908.650;  256.475;    0.000
428.234; 1912.650;  217.475;    0.000
428.286; 1914.650;  234.475;    0.000
428.337; 1875.650;  209.475;    0.000
428.389; 2017.650;  219.475;    0.000
428.440; 1863.650;  249.475;    0.000
428.492; 1979.650;  255.475;    0.000
428.543; 1908.650;  224.475;    0.000
428.595; 1899.650;  225.475;    0.000
428.646; 1890.650;  240.475;    0.000
428.697; 1901.650;  211.475;    0.000
428.749; 1869.650;  200.475;    0.000
428.800; 1959.650;  235.475;    0.000
428.852; 1911.650;  265.475;    0.000
428.903; 1940.650;  201.475;    0.000
428.954; 1962.650;  242.475;    0.000
429.006; 1900.650;  245.475;    0.000
429.057; 1875.650;  252.475;    0.000
429.108; 1859.650;  211.475;    0.000
429.160; 1889.650;  217.475;    0.000
429.211; 1928.650;  234.475;    0.000
429.262; 1879.650;  205.475;    0.000
429.314; 1907.650;  211.475;    0.000
429.365; 1909.650;  240.475;    0.000
429.416; 1960.650;  263.475;    0.000
429.467; 1821.650;  244.475;    0.000
429.519; 1887.650;  223.475;    0.000
429.570; 1815.650;  214.475;    0.000
429.621; 1862.650;  235.475;    0.000
429.672; 1871.650;  202.475;    0.000
429.724; 1862.650;  189.475;    0.000
429.775; 1875.650;  214.475;    0.000
429.826; 1915.650;  178.475;    0.000
429.877; 1908.650;  224.475;    0.000
429.928; 1935.650;  230.475;    0.000
429.980; 1848.650;  199.475;    0.000
430.031; 1951.650;  208.475;    0.000
430.082; 1903.650;  224.475;    0.000
430.133; 1897.650;  193.475;    0.000
430.184; 1841.650;  220.475;    0.000
430.235; 1887.650;  184.475;    0.000
430.286; 1819.650;  197.475;    0.000
430.337; 1909.650;  199.475;    0.000
430.388; 1814.650;  207.475;    0.000
430.439; 1856.650;  227.475;    0.000
430.490; 1827.650;  215.475;    0.000
430.542; 1845.650;  211.475;    0.000
430.593; 1852.650;  230.475;    0.000
430.644; 1820.650;  186.475;    0.000
430.695; 1833.650;  232.475;    0.000
430.746; 1833.650;  214.475;    0.000
430.797; 1826.650;  260.475;    0.000
430.848; 1819.650;  214.475;    0.000
430.898; 1827.650;  204.475;    0.000
430.949; 1838.650;  189.475;    0.000
431.000; 1836.650;  240.475;    0.000
431.051; 1858.650;  201.475;    0.000
431.102; 1821.650;  188.475;    0.000
431.153; 1813.650;  209.475;    0.000
431.204; 1858.650;  187.475;    0.000
431.255; 1839.650;  171.475;    0.000
431.306; 1828.650;  181.475;    0.000
431.357; 1858.650;  221.475;    0.000
431.408; 1836.650;  217.475;    0.000
431.458; 1834.650;  206.475;    0.000
431.509; 1807.650;  194.475;    0.000
431.560; 1877.650;  235.475;    0.000
431.611; 1812.650;  213.475;    0.000
431.662; 1913.650;  237.475;    0.000
431.713; 1786.650;  220.475;    0.000
431.763; 1845.650;  212.475;    0.000
431.814; 1890.650;  238.475;    0.000
431.865; 1791.650;  213.475;    0.000
431.916; 1796.650;  191.475;    0.000
431.966; 1820.650;  171.475;    0.000
432.017; 1872.650;  263.475;    0.000
432.068; 1878.650;  240.475;    0.000
432.118; 1829.650;  235.475;    0.000
432.169; 1879.650;  212.475;    0.000
432.220; 1865.650;  188.475;    0.000
432.271; 1827.650;  216.475;    0.000
432.321; 1866.650;  223.475;    0.000
432.372; 1860.650;  254.475;    0.000
432.423; 1843.650;  193.475;    0.000
432.473; 1862.650;  219.475;    0.000
432.524; 1745.650;  215.475;    0.000
432.574; 1840.650;  234.475;    0.000
432.625; 1779.650;  226.475;    0.000
432.676; 1855.650;  219.475;    0.000
432.726; 1904.650;  254.475;    0.000
432.777; 1836.650;  210.475;    0.000
432.827; 1845.650;  234.475;    0.000
432.878; 1799.650;  212.475;    0.000
432.928; 1777.650;  238.475;    0.000
432.979; 1879.650;  252.475;    0.000
433.029; 1823.650;  222.475;    0.000
433.080; 1816.650;  188.475;    0.000
433.130; 1809.650;  223.475;    0.000
433.181; 1872.650;  254.475;    0.000
433.231; 1879.650;  237.475;    0.000
433.282; 1845.650;  242.475;    0.000
433.332; 1885.650;  261.475;    0.000
433.383; 1872.650;  266.475;    0.000
433.433; 1911.650;  286.475;    0.000
433.484; 1855.650;  231.475;    0.000
433.534; 1834.650;  256.475;    0.000
433.585; 1810.650;  253.475;    0.000
433.635; 1911.650;  228.475;    0.000
433.685; 1841.650;  226.475;    0.000
433.736; 1835.650;  276.475;    0.000
433.786; 1848.650;  253.475;    0.000
433.836; 1862.650;  289.475;    0.000
433.887; 1865.650;  241.475;    0.000
433.937; 1908.650;  252.475;    0.000
433.987; 1741.650;  223.475;    0.000
434.038; 1823.650;  241.475;    0.000
434.088; 1768.650;  231.475;    0.000
434.138; 1758.650;  259.475;    0.000
434.189; 1839.650;  263.475;    0.000
434.239; 1800.650;  194.475;    0.000
434.289; 1841.650;  273.475;    0.000
434.339; 1849.650;  212.475;    0.000
434.389; 1866.650;  248.475;    0.000
434.440; 1819.650;  250.475;    0.000
434.490; 1861.650;  278.475;    0.000
434.540; 1848.650;  241.475;    0.000
434.590; 1828.650;  251.475;    0.000
434.640; 1816.650;  207.475;    0.000
434.691; 1819.650;  242.475;    0.000
434.741; 1862.650;  218.475;    0.000
434.791; 1869.650;  267.475;    0.000
434.841; 1927.650;  272.475;    0.000
434.891; 1933.650;  260.475;    0.000
434.941; 1889.650;  258.475;    0.000
434.991; 1892.650;  264.475;    0.000
435.042; 1870.650;  264.475;    0.000
435.092; 1825.650;  271.475;    0.000
435.142; 1852.650;  229.475;    0.000
435.192; 1890.650;  226.475;    0.000
435.242; 1885.650;  253.475;    0.000
435.292; 1870.650;  215.475;    0.000
435.342; 1850.650;  240.475;    0.000
435.392; 1881.650;  235.475;    0.000
435.442; 1804.650;  230.475;    0.000
435.492; 1896.650;  235.475;    0.000
435.542; 1816.650;  230.475;    0.000
435.592; 1726.650;  239.475;    0.000
435.642; 1808.650;  244.475;    0.000
435.692; 1821.650;  236.475;    0.000
435.742; 1815.650;  236.475;    0.000
435.792; 1849.650;  230.475;    0.000
435.842; 1760.650;  248.475;    0.000
435.891; 1795.650;  233.475;    0.000
435.941; 1758.650;  243.475;    0.000
435.991; 1789.650;  279.475;    0.000
436.041; 1782.650;  204.475;    0.000
436.091; 1821.650;  217.475;    0.000
436.141; 1745.650;  205.475;    0.000
436.191; 1830.650;  220.475;    0.000
436.241; 1814.650;  248.475;    0.000
436.290; 1786.650;  255.475;    0.000
436.340; 1754.650;  235.475;    0.000
436.390; 1856.650;  207.475;    0.000
436.440; 1734.650;  207.475;    0.000
436.490; 1726.650;  251.475;    0.000
436.539; 1796.650;  240.475;    0.000
436.589; 1720.650;  198.475;    0.000
436.639; 1755.650;  240.475;    0.000
436.689; 1776.650;  216.475;    0.000
436.738; 1818.650;  246.475;    0.000
436.788; 1743.650;  203.475;    0.000
436.838; 1747.650;  230.475;    0.000
436.887; 1723.650;  235.475;    0.000
436.937; 1695.650;  249.475;    0.000
436.987; 1714.650;  208.475;    0.000
437.036; 1793.650;  232.475;    0.000
437.086; 1691.650;  238.475;    0.000
437.136; 1803.650;  228.475;    0.000
437.185; 1701.650;  219.475;    0.000
437.235; 1746.650;  227.475;    0.000
437.285; 1730.650;  241.475;    0.000
437.334; 1705.650;  216.475;    0.000
437.384; 1737.650;  243.475;    0.000
437.433; 1678.650;  214.475;    0.000
437.483; 1788.650;  246.475;    0.000
437.532; 1734.650;  261.475;    0.000
437.582; 1770.650;  205.475;    0.000
437.631; 1758.650;  218.475;    0.000
437.681; 1748.650;  240.475;    0.000
437.730; 1699.650;  258.475;    0.000
437.780; 1650.650;  237.475;    0.000
437.829; 1768.650;  209.475;    0.000
437.879; 1706.650;  214.475;    0.000
437.928; 1733.650;  223.475;    0.000
437.978; 1735.650;  220.475;    0.000
438.027; 1770.650;  239.475;    0.000
438.077; 1671.650;  231.475;    0.000
438.126; 1716.650;  266.475;    0.000
438.176; 1654.650;  234.475;    0.000
438.225; 1695.650;  237.475;    0.000
438.274; 1718.650;  234.475;    0.000
438.324; 1755.650;  244.475;    0.000
438.373; 1723.650;  232.475;    0.000
438.422; 1754.650;  218.475;    0.000
438.472; 1669.650;  221.475;    0.000
438.521; 1718.650;  190.475;    0.000
438.570; 1739.650;  243.475;    0.000
438.620; 1745.650;  255.475;    0.000
438.669; 1698.650;  210.475;    0.000
438.718; 1724.650;  237.475;    0.000
438.768; 1692.650;  220.475;    0.000
438.817; 1711.650;  218.475;    0.000
438.866; 1662.650;  198.475;    0.000
438.915; 1726.650;  256.475;    0.000
438.965; 1715.650;  221.475;    0.000
439.014; 1737.650;  255.475;    0.000
439.063; 1769.650;  276.475;    0.000
439.112; 1698.650;  220.475;    0.000
439.162; 1760.650;  253.475;    0.000
439.211; 1713.650;  247.475;    0.000
439.260; 1626.650;  220.475;    0.000
439.309; 1738.650;  235.475;    0.000
439.358; 1716.650;  205.475;    0.000
439.407; 1707.650;  207.475;    0.000
439.456; 1682.650;  216.475;    0.000
439.506; 1766.650;  245.475;    0.000
439.555; 1712.650;  264.475;    0.000
439.604; 1691.650;  227.475;    0.000
439.653; 1743.650;  220.475;    0.000
439.702; 1698.650;  223.475;    0.000
439.751; 1718.650;  197.475;    0.000
439.800; 1741.650;  207.475;    0.000
439.849; 1711.650;  238.475;    0.000
439.898; 1671.650;  209.475;    0.000
439.947; 1648.650;  170.475;    0.000
439.996; 1752.650;  233.475;    0.000
440.045; 1746.650;  222.475;    0.000
440.094; 1765.650;  240.475;    0.000
440.143; 1649.650;  249.475;    0.000
440.192; 1703.650;  252.475;    0.000
440.241; 1735.650;  239.475;    0.000
440.290; 1666.650;  234.475;    0.000
440.339; 1698.650;  241.475;    0.000
440.388; 1704.650;  239.475;    0.000
440.437; 1811.650;  231.475;    0.000
440.486; 1747.650;  254.475;    0.000
440.535; 1778.650;  266.475;    0.000
440.583; 1740.650;  205.475;    0.000
440.632; 1709.650;  234.475;    0.000
440.681; 1703.650;  218.475;    0.000
440.730; 1747.650;  248.475;    0.000
440.779; 1720.650;  246.475;    0.000
440.828; 1755.650;  235.475;    0.000
440.876; 1720.650;  218.475;    0.000
440.925; 1679.650;  228.475;    0.000
440.974; 1783.650;  249.475;    0.000
441.023; 1727.650;  192.475;    0.000
441.072; 1693.650;  226.475;    0.000
441.120; 1759.650;  238.475;    0.000
441.169; 1803.650;  255.475;    0.000
441.218; 1775.650;  233.475;    0.000
441.267; 1875.650;  231.475;    0.000
441.315; 1736.650;  214.475;    0.000
441.364; 1749.650;  250.475;    0.000
441.413; 1811.650;  228.475;    0.000
441.461; 1765.650;  209.475;    0.000
441.510; 1735.650;  260.475;    0.000
441.559; 1771.650;  230.475;    0.000
441.607; 1792.650;  220.475;    0.000
441.656; 1829.650;  251.475;    0.000
441.705; 1772.650;  237.475;    0.000
441.753; 1799.650;  257.475;    0.000
441.802; 1757.650;  256.475;    0.000
441.850; 1787.650;  253.475;    0.000
441.899; 1814.650;  212.475;    0.000
441.948; 1761.650;  251.475;    0.000
441.996; 1737.650;  239.475;    0.000
442.045; 1730.650;  223.475;    0.000
442.093; 1809.650;  211.475;    0.000
442.142; 1852.650;  235.475;    0.000
442.190; 1798.650;  254.475;    0.000
442.239; 1778.650;  226.475;    0.000
442.287; 1820.650;  242.475;    0.000
442.336; 1846.650;  256.475;    0.000
442.384; 1801.650;  252.475;    0.000
442.433; 1788.650;  262.475;    0.000
442.481; 1842.650;  246.475;    0.000
442.529; 1751.650;  290.475;    0.000
442.578; 1784.650;  247.475;    0.000
442.626; 1798.650;  247.475;    0.000
442.675; 1811.650;  272.475;    0.000
442.723; 1748.650;  230.475;    0.000
442.771; 1785.650;  234.475;    0.000
442.820; 1789.650;  224.475;    0.000
442.868; 1722.650;  246.475;    0.000
442.917; 1801.650;  249.475;    0.000
442.965; 1763.650;  260.475;    0.000
443.013; 1770.650;  258.475;    0.000
443.062; 1752.650;  259.475;    0.000
443.110; 1794.650;  226.475;    0.000
443.158; 1762.650;  213.475;    0.000
443.206; 1783.650;  201.475;    0.000
443.255; 1834.650;  280.475;    0.000
443.303; 1825.650;  292.475;    0.000
443.351; 1778.650;  256.475;    0.000
443.399; 1838.650;  215.475;    0.000
443.448; 1769.650;  243.475;    0.000
443.496; 1850.650;  249.475;    0.000
443.544; 1814.650;  231.475;    0.000
443.592; 1824.650;  243.475;    0.000
443.640; 1890.650;  252.475;    0.000
443.689; 1790.650;  220.475;    0.000
443.737; 1862.650;  231.475;    0.000
443.785; 1862.650;  256.475;    0.000
443.833; 1821.650;  268.475;    0.000
443.881; 1864.650;  181.475;    0.000
443.929; 1872.650;  245.475;    0.000
443.977; 1762.650;  278.475;    0.000
444.025; 1792.650;  245.475;    0.000
444.074; 1914.650;  233.475;    0.000
444.122; 1875.650;  267.475;    0.000
444.170; 1859.650;  247.475;    0.000
444.218; 1838.650;  246.475;    0.000
444.266; 1837.650;  275.475;    0.000
444.314; 1878.650;  263.475;    0.000
444.362; 1877.650;  240.475;    0.000
444.410; 1855.650;  220.475;    0.000
444.458; 1946.650;  258.475;    0.000
444.506; 1898.650;  258.475;    0.000
444.554; 1906.650;  224.475;    0.000
444.602; 1942.650;  245.475;    0.000
444.650; 1843.650;  261.475;    0.000
444.698; 1886.650;  232.475;    0.000
444.746; 1890.650;  206.475;    0.000
444.793; 1876.650;  249.475;    0.000
444.841; 1986.650;  261.475;    0.000
444.889; 1913.650;  221.475;    0.000
444.937; 1896.650;  215.475;    0.000
444.985; 1848.650;  244.475;    0.000
445.033; 1913.650;  211.475;    0.000
445.081; 1898.650;  225.475;    0.000
445.129; 1756.650;  217.475;    0.000
445.176; 1871.650;  196.475;    0.000
445.224; 1917.650;  211.475;    0.000
445.272; 1926.650;  242.475;    0.000
445.320; 1856.650;  225.475;    0.000
445.368; 1915.650;  249.475;    0.000
445.415; 1869.650;  243.475;    0.000
445.463; 1908.650;  242.475;    0.000
445.511; 1870.650;  248.475;    0.000
445.559; 1945.650;  219.475;    0.000
445.606; 1803.650;  221.475;    0.000
445.654; 1870.650;  202.475;    0.000
445.702; 1927.650;  210.475;    0.000
445.749; 1938.650;  249.475;    0.000
445.797; 1822.650;  206.475;    0.000
445.845; 1889.650;  213.475;    0.000
445.892; 1830.650;  224.475;    0.000
445.940; 1877.650;  214.475;    0.000
445.988; 1874.650;  247.475;    0.000
446.035; 1904.650;  204.475;    0.000
446.083; 1870.650;  235.475;    0.000
446.130; 1924.650;  195.475;    0.000
446.178; 1974.650;  236.475;    0.000
446.226; 1920.650;  218.475;    0.000
446.273; 1865.650;  215.475;    0.000
446.321; 1848.650;  222.475;    0.000
446.368; 1949.650;  228.475;    0.000
446.416; 1928.650;  223.475;    0.000
446.463; 1893.650;  220.475;    0.000
446.511; 1894.650;  198.475;    0.000
446.558; 1983.650;  208.475;    0.000
446.606; 1982.650;  253.475;    0.000
446.653; 1973.650;  198.475;    0.000
446.701; 2050.650;  231.475;    0.000
446.748; 1984.650;  224.475;    0.000
446.796; 1999.650;  201.475;    0.000
446.843; 1998.650;  257.475;    0.000
446.891; 1948.650;  218.475;    0.000
446.938; 1910.650;  232.475;    0.000
446.985; 1945.650;  229.475;    0.000
447.033; 2017.650;  251.475;    0.000
447.080; 2000.650;  257.475;    0.000
447.128; 1985.650;  232.475;    0.000
447.175; 2036.650;  269.475;    0.000
447.222; 1992.650;  185.475;    0.000
447.270; 2104.650;  264.475;    0.000
447.317; 2059.650;  225.475;    0.000
447.364; 2040.650;  243.475;    0.000
447.411; 2095.650;  263.475;    0.000
447.459; 2143.650;  257.475;    0.000
447.506; 2151.650;  175.475;    0.000
447.553; 2157.650;  203.475;    0.000
447.601; 2173.650;  238.475;    0.000
447.648; 2201.650;  244.475;    0.000
447.695; 2225.650;  249.475;    0.000
447.742; 2195.650;  234.475;    0.000
447.789; 2212.650;  228.475;    0.000
447.837; 2336.650;  258.475;    0.000
447.884; 2234.650;  243.475;    0.000
447.931; 2318.650;  235.475;    0.000
447.978; 2287.650;  224.475;    0.000
448.025; 2341.650;  245.475;    0.000
448.072; 2327.650;  212.475;    0.000
448.120; 2280.650;  256.475;    0.000
448.167; 2350.650;  240.475;    0.000
448.214; 2311.650;  247.475;    0.000
448.261; 2374.650;  245.475;    0.000
448.308; 2199.650;  273.475;    0.000
448.355; 2273.650;  257.475;    0.000
448.402; 2210.650;  259.475;    0.000
448.449; 2169.650;  238.475;    0.000
448.496; 2230.650;  245.475;    0.000
448.543; 2145.650;  217.475;    0.000
448.590; 2184.650;  269.475;    0.000
448.637; 2072.650;  250.475;    0.000
448.684; 2112.650;  250.475;    0.000
448.731; 2070.650;  235.475;    0.000
448.778; 2084.650;  265.475;    0.000
448.825; 2063.650;  257.475;    0.000
448.872; 2071.650;  234.475;    0.000
448.919; 2035.650;  216.475;    0.000
448.966; 1976.650;  274.475;    0.000
449.013; 2033.650;  263.475;    0.000
449.060; 2025.650;  247.475;    0.000
449.107; 1887.650;  218.475;    0.000
449.154; 1985.650;  225.475;    0.000
449.200; 1949.650;  212.475;    0.000
449.247; 1962.650;  242.475;    0.000
449.294; 1940.650;  228.475;    0.000
449.341; 1895.650;  232.475;    0.000
449.388; 1864.650;  247.475;    0.000
449.435; 1990.650;  227.475;    0.000
449.481; 1964.650;  270.475;    0.000
449.528; 1861.650;  265.475;    0.000
449.575; 1881.650;  255.475;    0.000
449.622; 1911.650;  210.475;    0.000
449.668; 1944.650;  234.475;    0.000
449.715; 1927.650;  262.475;    0.000
449.762; 1852.650;  247.475;    0.000
449.809; 1886.650;  286.475;    0.000
449.855; 1917.650;  246.475;    0.000
449.902; 1883.650;  224.475;    0.000
449.949; 1913.650;  244.475;    0.000
449.995; 1917.650;  274.475;    0.000
450.042; 1812.650;  272.475;    0.000
450.089; 1960.650;  274.475;    0.000
450.135; 1877.650;  285.475;    0.000
450.182; 1878.650;  251.475;    0.000
450.229; 1758.650;  242.475;    0.000
450.275; 1855.650;  277.475;    0.000
450.322; 1819.650;  260.475;    0.000
450.368; 1820.650;  257.475;    0.000
450.415; 1848.650;  276.475;    0.000
450.462; 1836.650;  298.475;    0.000
450.508; 1905.650;  255.475;    0.000
450.555; 1827.650;  271.475;    0.000
450.601; 1837.650;  281.475;    0.000
450.648; 1849.650;  249.475;    0.000
450.694; 1787.650;  270.475;    0.000
450.741; 1884.650;  256.475;    0.000
450.787; 1801.650;  292.475;    0.000
450.834; 1844.650;  221.475;    0.000
450.880; 1760.650;  265.475;    0.000
450.927; 1833.650;  242.475;    0.000
450.973; 1817.650;  259.475;    0.000
451.019; 1766.650;  221.475;    0.000
451.066; 1749.650;  257.475;    0.000
451.112; 1759.650;  251.475;    0.000
451.159; 1782.650;  278.475;    0.000
451.205; 1740.650;  274.475;    0.000
451.251; 1796.650;  281.475;    0.000
451.298; 1732.650;  273.475;    0.000
451.344; 1735.650;  246.475;    0.000
451.390; 1736.650;  286.475;    0.000
451.437; 1729.650;  268.475;    0.000
451.483; 1853.650;  315.475;    0.000
451.529; 1731.650;  251.475;    0.000
451.576; 1697.650;  306.475;    0.000
451.622; 1763.650;  234.475;    0.000
451.668; 1782.650;  243.475;    0.000
451.714; 1718.650;  256.475;    0.000
451.761; 1723.650;  264.475;    0.000
451.807; 1818.650;  284.475;    0.000
451.853; 1773.650;  282.475;    0.000
451.899; 1742.650;  240.475;    0.000
451.945; 1674.650;  263.475;    0.000
451.992; 1711.650;  255.475;    0.000
452.038; 1716.650;  273.475;    0.000
452.084; 1690.650;  274.475;    0.000
452.130; 1672.650;  261.475;    0.000
452.176; 1678.650;  246.475;    0.000
452.222; 1663.650;  238.475;    0.000
452.268; 1765.650;  267.475;    0.000
452.315; 1708.650;  274.475;    0.000
452.361; 1693.650;  241.475;    0.000
452.407; 1730.650;  274.475;    0.000
452.453; 1679.650;  260.475;    0.000
452.499; 1708.650;  232.475;    0.000
452.545; 1677.650;  252.475;    0.000
452.591; 1742.650;  263.475;    0.000
452.637; 1700.650;  208.475;    0.000
452.683; 1739.650;  237.475;    0.000
452.729; 1725.650;  263.475;    0.000
452.775; 1718.650;  291.475;    0.000
452.821; 1674.650;  238.475;    0.000
452.867; 1641.650;  223.475;    0.000
452.913; 1655.650;  257.475;    0.000
452.959; 1686.650;  238.475;    0.000
453.005; 1704.650;  252.475;    0.000
453.051; 1692.650;  260.475;    0.000
453.097; 1762.650;  268.475;    0.000
453.142; 1669.650;  231.475;    0.000
453.188; 1712.650;  266.475;    0.000
453.234; 1695.650;  233.475;    0.000
453.280; 1583.650;  219.475;    0.000
453.326; 1668.650;  265.475;    0.000
453.372; 1684.650;  238.475;    0.000
453.418; 1693.650;  240.475;    0.000
453.463; 1637.650;  219.475;    0.000
453.509; 1715.650;  264.475;    0.000
453.555; 1745.650;  247.475;    0.000
453.601; 1619.650;  230.475;    0.000
453.647; 1698.650;  285.475;    0.000
453.692; 1688.650;  240.475;    0.000
453.738; 1733.650;  233.475;    0.000
453.784; 1724.650;  230.475;    0.000
453.829; 1707.650;  246.475;    0.000
453.875; 1634.650;  261.475;    0.000
453.921; 1607.650;  203.475;    0.000
453.967; 1634.650;  241.475;    0.000
454.012; 1703.650;  250.475;    0.000
454.058; 1713.650;  252.475;    0.000
454.104; 1738.650;  239.475;    0.000
454.149; 1691.650;  250.475;    0.000
454.195; 1598.650;  243.475;    0.000
454.240; 1671.650;  252.475;    0.000
454.286; 1692.650;  245.475;    0.000
454.332; 1642.650;  286.475;    0.000
454.377; 1609.650;  254.475;    0.000
454.423; 1640.650;  246.475;    0.000
454.468; 1667.650;  235.475;    0.000
454.514; 1633.650;  231.475;    0.000
454.559; 1598.650;  246.475;    0.000
454.605; 1660.650;  204.475;    0.000
454.650; 1619.650;  272.475;    0.000
454.696; 1619.650;  222.475;    0.000
454.741; 1604.650;  290.475;    0.000
454.787; 1712.650;  262.475;    0.000
454.832; 1669.650;  227.475;    0.000
454.878; 1733.650;  241.475;    0.000
454.923; 1605.650;  272.475;    0.000
454.969; 1663.650;  290.475;    0.000
455.014; 1687.650;  278.475;    0.000
455.060; 1632.650;  246.475;    0.000
455.105; 1650.650;  231.475;    0.000
455.150; 1670.650;  265.475;    0.000
455.196; 1637.650;  266.475;    0.000
455.241; 1659.650;  258.475;    0.000
455.286; 1661.650;  266.475;    0.000
455.332; 1570.650;  252.475;    0.000
455.377; 1544.650;  219.475;    0.000
455.422; 1638.650;  262.475;    0.000
455.468; 1591.650;  260.475;    0.000
455.513; 1694.650;  212.475;    0.000
455.558; 1616.650;  197.475;    0.000
455.604; 1645.650;  262.475;    0.000
455.649; 1652.650;  238.475;    0.000
455.694; 1719.650;  221.475;    0.000
455.739; 1642.650;  251.475;    0.000
455.785; 1693.650;  287.475;    0.000
455.830; 1628.650;  284.475;    0.000
455.875; 1655.650;  234.475;    0.000
455.920; 1647.650;  215.475;    0.000
455.965; 1652.650;  256.475;    0.000
456.010; 1680.650;  266.475;    0.000
456.056; 1611.650;  263.475;    0.000
456.101; 1679.650;  240.475;    0.000
456.146; 1651.650;  258.475;    0.000
456.191; 1699.650;  241.475;    0.000
456.236; 1635.650;  252.475;    0.000
456.281; 1621.650;  218.475;    0.000
456.326; 1633.650;  251.475;    0.000
456.371; 1645.650;  256.475;    0.000
456.416; 1761.650;  301.475;    0.000
456.461; 1639.650;  233.475;    0.000
456.507; 1640.650;  218.475;    0.000
456.552; 1688.650;  278.475;    0.000
456.597; 1588.650;  223.475;    0.000
456.642; 1580.650;  203.475;    0.000
456.687; 1621.650;  245.475;    0.000
456.732; 1673.650;  256.475;    0.000
456.776; 1635.650;  244.475;    0.000
456.821; 1653.650;  276.475;    0.000
456.866; 1755.650;  232.475;    0.000
456.911; 1536.650;  225.475;    0.000
456.956; 1638.650;  237.475;    0.000
457.001; 1685.650;  261.475;    0.000
457.046; 1674.650;  205.475;    0.000
457.091; 1609.650;  241.475;    0.000
457.136; 1625.650;  217.475;    0.000
457.181; 1714.650;  251.475;    0.000
457.225; 1690.650;  241.475;    0.000
457.270; 1664.650;  237.475;    0.000
457.315; 1636.650;  279.475;    0.000
457.360; 1604.650;  245.475;    0.000
457.405; 1618.650;  202.475;    0.000
457.450; 1628.650;  247.475;    0.000
457.494; 1563.650;  243.475;    0.000
457.539; 1611.650;  222.475;    0.000
457.584; 1665.650;  239.475;    0.000
457.629; 1558.650;  236.475;    0.000
457.673; 1739.650;  234.475;    0.000
457.718; 1611.650;  202.475;    0.000
457.763; 1709.650;  274.475;    0.000
457.807; 1686.650;  236.475;    0.000
457.852; 1640.650;  265.475;    0.000
457.897; 1705.650;  252.475;    0.000
457.941; 1697.650;  264.475;    0.000
457.986; 1680.650;  280.475;    0.000
458.031; 1676.650;  217.475;    0.000
458.075; 1653.650;  249.475;    0.000
458.120; 1778.650;  257.475;    0.000
458.165; 1642.650;  183.475;    0.000
458.209; 1777.650;  245.475;    0.000
458.254; 1663.650;  245.475;    0.000
458.298; 1700.650;  265.475;    0.000
458.343; 1656.650;  241.475;    0.000
458.387; 1672.650;  262.475;    0.000
458.432; 1710.650;  245.475;    0.000
458.476; 1717.650;  255.475;    0.000
458.521; 1699.650;  269.475;    0.000
458.565; 1747.650;  265.475;    0.000
458.610; 1687.650;  222.475;    0.000
458.654; 1670.650;  257.475;    0.000
458.699; 1692.650;  296.475;    0.000
458.743; 1681.650;  203.475;    0.000
458.788; 1695.650;  267.475;    0.000
458.832; 1753.650;  274.475;    0.000
458.877; 1690.650;  251.475;    0.000
458.921; 1669.650;  237.475;    0.000
458.965; 1722.650;  264.475;    0.000
459.010; 1731.650;  256.475;    0.000
459.054; 1730.650;  280.475;    0.000
459.099; 1692.650;  240.475;    0.000
459.143; 1756.650;  287.475;    0.000
459.187; 1770.650;  257.475;    0.000
459.231; 1719.650;  273.475;    0.000
459.276; 1748.650;  231.475;    0.000
459.320; 1783.650;  261.475;    0.000
459.364; 1789.650;  278.475;    0.000
459.409; 1792.650;  249.475;    0.000
459.453; 1747.650;  235.475;    0.000
459.497; 1825.650;  262.475;    0.000
459.541; 1735.650;  269.475;    0.000
459.586; 1788.650;  240.475;    0.000
459.630; 1803.650;  261.475;    0.000
459.674; 1761.650;  276.475;    0.000
459.718; 1768.650;  236.475;    0.000
459.762; 1795.650;  263.475;    0.000
459.807; 1763.650;  263.475;    0.000
459.851; 1869.650;  225.475;    0.000
459.895; 1736.650;  247.475;    0.000
459.939; 1765.650;  231.475;    0.000
459.983; 1739.650;  242.475;    0.000
460.027; 1789.650;  248.475;    0.000
460.071; 1800.650;  273.475;    0.000
460.115; 1729.650;  282.475;    0.000
460.159; 1830.650;  264.475;    0.000
460.204; 1837.650;  288.475;    0.000
460.248; 1866.650;  293.475;    0.000
460.292; 1887.650;  277.475;    0.000
460.336; 1836.650;  250.475;    0.000
460.380; 1846.650;  275.475;    0.000
460.424; 1802.650;  243.475;    0.000
460.468; 1798.650;  277.475;    0.000
460.512; 1789.650;  261.475;    0.000
460.556; 1901.650;  266.475;    0.000
460.599; 1892.650;  246.475;    0.000
460.643; 1820.650;  256.475;    0.000
460.687; 1834.650;  257.475;    0.000
460.731; 1834.650;  235.475;    0.000
460.775; 1808.650;  278.475;    0.000
460.819; 1799.650;  268.475;    0.000
460.863; 1861.650;  257.475;    0.000
460.907; 1812.650;  213.475;    0.000
460.951; 1740.650;  274.475;    0.000
460.995; 1823.650;  258.475;    0.000
461.038; 1759.650;  219.475;    0.000
461.082; 1864.650;  253.475;    0.000
461.126; 1889.650;  281.475;    0.000
461.170; 1819.650;  244.475;    0.000
461.214; 1845.650;  262.475;    0.000
461.257; 1795.650;  284.475;    0.000
461.301; 1903.650;  275.475;    0.000
461.345; 1838.650;  267.475;    0.000
461.389; 1811.650;  255.475;    0.000
461.432; 1864.650;  282.475;    0.000
461.476; 1841.650;  263.475;    0.000
461.520; 1925.650;  260.475;    0.000
461.563; 1832.650;  278.475;    0.000
461.607; 1879.650;  236.475;    0.000
461.651; 1825.650;  262.475;    0.000
461.694; 1840.650;  236.475;    0.000
461.738; 1866.650;  295.475;    0.000
461.782; 1811.650;  252.475;    0.000
461.825; 1833.650;  271.475;    0.000
461.869; 1870.650;  278.475;    0.000
461.913; 1897.650;  255.475;    0.000
461.956; 1932.650;  254.475;    0.000
462.000; 1897.650;  299.475;    0.000
462.043; 1906.650;  282.475;    0.000
462.087; 1868.650;  274.475;    0.000
462.130; 1946.650;  270.475;    0.000
462.174; 1843.650;  274.475;    0.000
462.217; 1924.650;  272.475;    0.000
462.261; 1930.650;  286.475;    0.000
462.304; 1857.650;  236.475;    0.000
462.348; 1898.650;  262.475;    0.000
462.391; 1957.650;  244.475;    0.000
462.435; 1909.650;  321.475;    0.000
462.478; 1896.650;  230.475;    0.000
462.522; 1954.650;  245.475;    0.000
462.565; 1920.650;  278.475;    0.000
462.608; 1962.650;  303.475;    0.000
462.652; 1942.650;  275.475;    0.000
462.695; 1959.650;  314.475;    0.000
462.739; 2012.650;  307.475;    0.000
462.782; 1915.650;  286.475;    0.000
462.825; 2006.650;  312.475;    0.000
462.869; 1976.650;  338.475;    0.000
462.912; 1963.650;  304.475;    0.000
462.955; 1989.650;  288.475;    0.000
462.998; 2017.650;  292.475;    0.000
463.042; 1958.650;  309.475;    0.000
463.085; 1969.650;  292.475;    0.000
463.128; 2091.650;  317.475;    0.000
463.172; 1946.650;  287.475;    0.000
463.215;  394.650;  313.475;    0.000
463.258;  344.650;  295.475;    0.000
463.301;  316.650;  275.475;    0.000
463.344;  337.650;  311.475;    0.000
463.388;  358.650;  296.475;    0.000
463.431;  296.650;  277.475;    0.000
463.474;  349.650;  364.475;    0.000
463.517;  339.650;  306.475;    0.000
463.560;  344.650;  308.475;    0.000
463.603;  334.650;  343.475;    0.000
463.646;  321.650;  309.475;    0.000
463.690;  324.650;  309.475;    0.000
463.733;  367.650;  320.475;    0.000
463.776;  287.650;  299.475;    0.000
463.819;  330.650;  320.475;    0.000
463.862;  322.650;  283.475;    0.000

