0 417.0
1 432.0
2 433.0
3 451.0
4 442.0
5 462.0
6 448.0
7 418.0
8 425.0
9 445.0
10 421.0
11 408.0
12 435.0
13 406.0
14 420.0
15 438.0
16 448.0
17 417.0
18 393.0
19 424.0
20 407.0
21 418.0
22 400.0
23 452.0
24 402.0
25 461.0
26 405.0
27 436.0
28 412.0
29 439.0
30 404.0
31 418.0
32 420.0
33 410.0
34 397.0
35 400.0
36 427.0
37 382.0
38 413.0
39 422.0
40 424.0
41 443.0
42 393.0
43 440.0
44 427.0
45 392.0
46 423.0
47 426.0
48 414.0
49 437.0
50 402.0
51 361.0
52 427.0
53 425.0
54 432.0
55 409.0
56 408.0
57 399.0
58 378.0
59 416.0
60 426.0
61 414.0
62 437.0
63 413.0
64 440.0
65 435.0
66 415.0
67 426.0
68 424.0
69 434.0
70 377.0
71 417.0
72 435.0
73 460.0
74 425.0
75 432.0
76 414.0
77 421.0
78 414.0
79 364.0
80 424.0
81 475.0
82 406.0
83 427.0
84 398.0
85 404.0
86 401.0
87 445.0
88 385.0
89 413.0
90 412.0
91 410.0
92 432.0
93 418.0
94 430.0
95 446.0
96 383.0
97 428.0
98 385.0
99 443.0
100 373.0
101 417.0
102 378.0
103 402.0
104 397.0
105 420.0
106 406.0
107 373.0
108 393.0
109 412.0
110 430.0
111 411.0
112 434.0
113 392.0
114 418.0
115 397.0
116 363.0
117 421.0
118 346.0
119 361.0
120 424.0
121 403.0
122 382.0
123 407.0
124 394.0
125 412.0
126 403.0
127 373.0
128 419.0
129 455.0
130 382.0
131 421.0
132 408.0
133 417.0
134 421.0
135 433.0
136 398.0
137 444.0
138 408.0
139 412.0
140 428.0
141 397.0
142 418.0
143 426.0
144 396.0
145 432.0
146 382.0
147 429.0
148 439.0
149 412.0
150 404.0
151 399.0
152 380.0
153 429.0
154 392.0
155 372.0
156 419.0
157 362.0
158 464.0
159 430.0
160 382.0
161 449.0
162 447.0
163 418.0
164 385.0
165 397.0
166 414.0
167 425.0
168 391.0
169 426.0
170 420.0
171 433.0
172 406.0
173 423.0
174 395.0
175 390.0
176 408.0
177 443.0
178 397.0
179 433.0
180 431.0
181 402.0
182 411.0
183 426.0
184 422.0
185 435.0
186 359.0
187 429.0
188 395.0
189 435.0
190 393.0
191 431.0
192 394.0
193 437.0
194 439.0
195 408.0
196 377.0
197 435.0
198 468.0
199 415.0
200 424.0
201 402.0
202 379.0
203 392.0
204 421.0
205 390.0
206 395.0
207 383.0
208 442.0
209 448.0
210 387.0
211 419.0
212 399.0
213 423.0
214 418.0
215 359.0
216 423.0
217 421.0
218 387.0
219 411.0
220 415.0
221 377.0
222 428.0
223 445.0
224 419.0
225 399.0
226 428.0
227 418.0
228 440.0
229 429.0
230 407.0
231 428.0
232 419.0
233 410.0
234 424.0
235 407.0
236 378.0
237 423.0
238 415.0
239 348.0
240 383.0
241 411.0
242 381.0
243 381.0
244 392.0
245 389.0
246 429.0
247 436.0
248 406.0
249 366.0
250 384.0
251 406.0
252 414.0
253 415.0
254 413.0
255 398.0
256 395.0
257 399.0
258 407.0
259 384.0
260 411.0
261 377.0
262 371.0
263 419.0
264 378.0
265 421.0
266 412.0
267 399.0
268 411.0
269 423.0
270 384.0
271 396.0
272 399.0
273 399.0
274 371.0
275 404.0
276 360.0
277 427.0
278 387.0
279 453.0
280 390.0
281 404.0
282 395.0
283 441.0
284 408.0
285 419.0
286 372.0
287 373.0
288 360.0
289 406.0
290 393.0
291 388.0
292 376.0
293 416.0
294 427.0
295 372.0
296 392.0
297 420.0
298 388.0
299 355.0
300 380.0
301 446.0
302 350.0
303 364.0
304 421.0
305 400.0
306 383.0
307 375.0
308 382.0
309 438.0
310 384.0
311 389.0
312 395.0
313 399.0
314 377.0
315 390.0
316 364.0
317 403.0
318 399.0
319 428.0
320 415.0
321 388.0
322 407.0
323 381.0
324 358.0
325 411.0
326 380.0
327 421.0
328 436.0
329 413.0
330 373.0
331 418.0
332 404.0
333 420.0
334 386.0
335 420.0
336 359.0
337 370.0
338 400.0
339 381.0
340 382.0
341 407.0
342 423.0
343 412.0
344 416.0
345 433.0
346 377.0
347 375.0
348 378.0
349 380.0
350 396.0
351 410.0
352 411.0
353 397.0
354 386.0
355 410.0
356 395.0
357 387.0
358 416.0
359 379.0
360 371.0
361 373.0
362 411.0
363 408.0
364 357.0
365 381.0
366 360.0
367 381.0
368 438.0
369 400.0
370 436.0
371 414.0
372 400.0
373 387.0
374 420.0
375 378.0
376 363.0
377 378.0
378 389.0
379 402.0
380 401.0
381 391.0
382 371.0
383 382.0
384 427.0
385 392.0
386 383.0
387 421.0
388 395.0
389 383.0
390 388.0
391 375.0
392 406.0
393 399.0
394 347.0
395 412.0
396 373.0
397 401.0
398 383.0
399 393.0
400 376.0
401 394.0
402 440.0
403 365.0
404 374.0
405 392.0
406 391.0
407 440.0
408 382.0
409 409.0
410 428.0
411 419.0
412 362.0
413 379.0
414 358.0
415 380.0
416 383.0
417 393.0
418 405.0
419 377.0
420 380.0
421 415.0
422 378.0
423 386.0
424 382.0
425 414.0
426 371.0
427 411.0
428 397.0
429 401.0
430 397.0
431 437.0
432 387.0
433 402.0
434 352.0
435 416.0
436 374.0
437 397.0
438 403.0
439 400.0
440 398.0
441 377.0
442 358.0
443 413.0
444 408.0
445 405.0
446 438.0
447 411.0
448 422.0
449 418.0
450 408.0
451 389.0
452 409.0
453 407.0
454 393.0
455 396.0
456 410.0
457 424.0
458 391.0
459 446.0
460 404.0
461 397.0
462 372.0
463 381.0
464 413.0
465 400.0
466 402.0
467 372.0
468 396.0
469 412.0
470 396.0
471 383.0
472 420.0
473 388.0
474 420.0
475 388.0
476 415.0
477 418.0
478 358.0
479 414.0
480 392.0
481 403.0
482 403.0
483 417.0
484 353.0
485 422.0
486 419.0
487 383.0
488 412.0
489 410.0
490 387.0
491 389.0
492 431.0
493 424.0
494 391.0
495 387.0
496 388.0
497 419.0
498 404.0
499 409.0
500 385.0
501 402.0
502 441.0
503 394.0
504 398.0
505 366.0
506 373.0
507 370.0
508 377.0
509 385.0
510 409.0
511 386.0
512 367.0
513 406.0
514 398.0
515 376.0
516 385.0
517 367.0
518 351.0
519 423.0
520 404.0
521 418.0
522 417.0
523 417.0
524 367.0
525 396.0
526 363.0
527 416.0
528 400.0
529 411.0
530 360.0
531 395.0
532 372.0
533 396.0
534 385.0
535 388.0
536 403.0
537 384.0
538 360.0
539 418.0
540 392.0
541 405.0
542 420.0
543 438.0
544 341.0
545 418.0
546 414.0
547 422.0
548 437.0
549 396.0
550 343.0
551 379.0
552 407.0
553 392.0
554 388.0
555 399.0
556 357.0
557 439.0
558 400.0
559 410.0
560 435.0
561 386.0
562 391.0
563 366.0
564 377.0
565 381.0
566 415.0
567 361.0
568 403.0
569 384.0
570 384.0
571 413.0
572 422.0
573 381.0
574 412.0
575 412.0
576 368.0
577 367.0
578 362.0
579 384.0
580 360.0
581 364.0
582 403.0
583 421.0
584 378.0
585 422.0
586 376.0
587 397.0
588 374.0
589 371.0
590 397.0
591 344.0
592 406.0
593 357.0
594 401.0
595 406.0
596 370.0
597 393.0
598 406.0
599 416.0
600 369.0
601 403.0
602 376.0
603 353.0
604 444.0
605 422.0
606 385.0
607 410.0
608 378.0
609 404.0
610 391.0
611 440.0
612 411.0
613 421.0
614 426.0
615 419.0
616 414.0
617 427.0
618 388.0
619 447.0
620 415.0
621 413.0
622 371.0
623 406.0
624 455.0
625 419.0
626 424.0
627 437.0
628 383.0
629 433.0
630 419.0
631 418.0
632 386.0
633 401.0
634 404.0
635 433.0
636 433.0
637 419.0
638 440.0
639 430.0
640 436.0
641 414.0
642 367.0
643 446.0
644 403.0
645 438.0
646 413.0
647 411.0
648 397.0
649 433.0
650 411.0
651 442.0
652 417.0
653 390.0
654 380.0
655 421.0
656 425.0
657 436.0
658 407.0
659 392.0
660 430.0
661 364.0
662 392.0
663 421.0
664 406.0
665 401.0
666 434.0
667 390.0
668 428.0
669 411.0
670 424.0
671 423.0
672 379.0
673 416.0
674 419.0
675 378.0
676 421.0
677 391.0
678 400.0
679 403.0
680 401.0
681 394.0
682 401.0
683 400.0
684 419.0
685 384.0
686 369.0
687 410.0
688 404.0
689 439.0
690 422.0
691 382.0
692 417.0
693 408.0
694 411.0
695 403.0
696 435.0
697 426.0
698 358.0
699 427.0
700 393.0
701 405.0
702 369.0
703 377.0
704 401.0
705 394.0
706 390.0
707 430.0
708 382.0
709 358.0
710 419.0
711 421.0
712 391.0
713 417.0
714 409.0
715 369.0
716 406.0
717 409.0
718 396.0
719 414.0
720 394.0
721 435.0
722 436.0
723 404.0
724 401.0
725 419.0
726 347.0
727 392.0
728 388.0
729 408.0
730 351.0
731 379.0
732 398.0
733 412.0
734 398.0
735 445.0
736 383.0
737 421.0
738 408.0
739 419.0
740 390.0
741 431.0
742 408.0
743 400.0
744 401.0
745 421.0
746 401.0
747 412.0
748 408.0
749 430.0
750 392.0
751 400.0
752 432.0
753 408.0
754 421.0
755 396.0
756 398.0
757 400.0
758 404.0
759 384.0
760 438.0
761 355.0
762 424.0
763 408.0
764 448.0
765 461.0
766 389.0
767 406.0
768 378.0
769 398.0
770 454.0
771 420.0
772 391.0
773 403.0
774 413.0
775 407.0
776 446.0
777 439.0
778 441.0
779 410.0
780 379.0
781 441.0
782 421.0
783 428.0
784 387.0
785 385.0
786 436.0
787 402.0
788 442.0
789 397.0
790 400.0
791 424.0
792 391.0
793 413.0
794 398.0
795 402.0
796 430.0
797 435.0
798 418.0
799 441.0
800 377.0
801 419.0
802 411.0
803 447.0
804 392.0
805 404.0
806 365.0
807 415.0
808 423.0
809 378.0
810 392.0
811 410.0
812 425.0
813 417.0
814 405.0
815 390.0
816 409.0
817 422.0
818 412.0
819 402.0
820 375.0
821 392.0
822 413.0
823 382.0
824 417.0
825 417.0
826 412.0
827 380.0
828 421.0
829 448.0
830 444.0
831 400.0
832 360.0
833 418.0
834 396.0
835 370.0
836 388.0
837 396.0
838 391.0
839 412.0
840 397.0
841 396.0
842 394.0
843 407.0
844 432.0
845 418.0
846 370.0
847 383.0
848 365.0
849 418.0
850 375.0
851 427.0
852 427.0
853 426.0
854 403.0
855 405.0
856 403.0
857 401.0
858 429.0
859 395.0
860 390.0
861 407.0
862 394.0
863 428.0
864 429.0
865 413.0
866 363.0
867 391.0
868 382.0
869 412.0
870 404.0
871 387.0
872 427.0
873 433.0
874 390.0
875 366.0
876 371.0
877 417.0
878 410.0
879 369.0
880 415.0
881 399.0
882 408.0
883 389.0
884 406.0
885 401.0
886 417.0
887 416.0
888 372.0
889 405.0
890 384.0
891 388.0
892 432.0
893 378.0
894 372.0
895 402.0
896 406.0
897 390.0
898 361.0
899 408.0
900 387.0
901 397.0
902 381.0
903 414.0
904 378.0
905 421.0
906 410.0
907 430.0
908 427.0
909 437.0
910 418.0
911 407.0
912 403.0
913 427.0
914 394.0
915 401.0
916 427.0
917 429.0
918 375.0
919 421.0
920 392.0
921 417.0
922 402.0
923 411.0
924 418.0
925 442.0
926 420.0
927 403.0
928 387.0
929 423.0
930 441.0
931 360.0
932 419.0
933 427.0
934 433.0
935 422.0
936 394.0
937 389.0
938 379.0
939 448.0
940 437.0
941 417.0
942 426.0
943 405.0
944 388.0
945 364.0
946 392.0
947 403.0
948 428.0
949 418.0
950 406.0
951 400.0
952 449.0
953 428.0
954 395.0
955 441.0
956 446.0
957 430.0
958 394.0
959 427.0
960 418.0
961 409.0
962 399.0
963 421.0
964 429.0
965 443.0
966 398.0
967 389.0
968 410.0
969 444.0
970 455.0
971 433.0
972 418.0
973 415.0
974 444.0
975 393.0
976 428.0
977 411.0
978 449.0
979 362.0
980 380.0
981 458.0
982 427.0
983 428.0
984 431.0
985 436.0
986 387.0
987 407.0
988 472.0
989 411.0
990 458.0
991 421.0
992 417.0
993 428.0
994 393.0
995 419.0
996 418.0
997 416.0
998 392.0
999 440.0
1000 451.0
1001 409.0
1002 380.0
1003 432.0
1004 414.0
1005 451.0
1006 434.0
1007 412.0
1008 420.0
1009 415.0
1010 423.0
1011 435.0
1012 390.0
1013 386.0
1014 421.0
1015 457.0
1016 419.0
1017 445.0
1018 437.0
1019 434.0
1020 424.0
1021 437.0
1022 404.0
1023 414.0
1024 403.0
1025 432.0
1026 428.0
1027 444.0
1028 433.0
1029 421.0
1030 400.0
1031 414.0
1032 440.0
1033 428.0
1034 394.0
1035 426.0
1036 393.0
1037 396.0
1038 398.0
1039 395.0
1040 459.0
1041 426.0
1042 414.0
1043 419.0
1044 405.0
1045 417.0
1046 413.0
1047 463.0
1048 417.0
1049 404.0
1050 398.0
1051 378.0
1052 367.0
1053 440.0
1054 402.0
1055 467.0
1056 383.0
1057 401.0
1058 402.0
1059 433.0
1060 423.0
1061 425.0
1062 420.0
1063 407.0
1064 402.0
1065 435.0
1066 452.0
1067 424.0
1068 441.0
1069 417.0
1070 403.0
1071 418.0
1072 434.0
1073 444.0
1074 408.0
1075 429.0
1076 431.0
1077 439.0
1078 412.0
1079 444.0
1080 438.0
1081 421.0
1082 437.0
1083 436.0
1084 438.0
1085 435.0
1086 440.0
1087 448.0
1088 432.0
1089 437.0
1090 409.0
1091 446.0
1092 432.0
1093 420.0
1094 436.0
1095 400.0
1096 441.0
1097 428.0
1098 456.0
1099 480.0
1100 434.0
1101 420.0
1102 434.0
1103 434.0
1104 470.0
1105 465.0
1106 424.0
1107 449.0
1108 419.0
1109 421.0
1110 408.0
1111 418.0
1112 474.0
1113 413.0
1114 394.0
1115 434.0
1116 433.0
1117 427.0
1118 394.0
1119 431.0
1120 419.0
1121 458.0
1122 405.0
1123 435.0
1124 445.0
1125 415.0
1126 453.0
1127 452.0
1128 441.0
1129 420.0
1130 429.0
1131 426.0
1132 454.0
1133 450.0
1134 424.0
1135 418.0
1136 431.0
1137 419.0
1138 459.0
1139 426.0
1140 407.0
1141 421.0
1142 467.0
1143 403.0
1144 441.0
1145 431.0
1146 416.0
1147 441.0
1148 433.0
1149 398.0
1150 385.0
1151 414.0
1152 426.0
1153 432.0
1154 469.0
1155 428.0
1156 433.0
1157 427.0
1158 410.0
1159 396.0
1160 434.0
1161 398.0
1162 459.0
1163 441.0
1164 414.0
1165 407.0
1166 387.0
1167 391.0
1168 428.0
1169 375.0
1170 437.0
1171 445.0
1172 403.0
1173 420.0
1174 403.0
1175 426.0
1176 440.0
1177 409.0
1178 422.0
1179 433.0
1180 393.0
1181 390.0
1182 418.0
1183 439.0
1184 424.0
1185 404.0
1186 475.0
1187 427.0
1188 437.0
1189 446.0
1190 424.0
1191 415.0
1192 449.0
1193 414.0
1194 435.0
1195 406.0
1196 417.0
1197 414.0
1198 439.0
1199 441.0
1200 407.0
1201 422.0
1202 419.0
1203 439.0
1204 428.0
1205 405.0
1206 409.0
1207 425.0
1208 399.0
1209 376.0
1210 426.0
1211 398.0
1212 456.0
1213 413.0
1214 408.0
1215 469.0
1216 387.0
1217 404.0
1218 420.0
1219 434.0
1220 446.0
1221 431.0
1222 434.0
1223 426.0
1224 461.0
1225 431.0
1226 401.0
1227 437.0
1228 441.0
1229 462.0
1230 397.0
1231 414.0
1232 436.0
1233 450.0
1234 419.0
1235 384.0
1236 417.0
1237 446.0
1238 441.0
1239 415.0
1240 390.0
1241 462.0
1242 421.0
1243 444.0
1244 415.0
1245 411.0
1246 417.0
1247 410.0
1248 444.0
1249 447.0
1250 449.0
1251 444.0
1252 411.0
1253 440.0
1254 441.0
1255 452.0
1256 450.0
1257 439.0
1258 432.0
1259 438.0
1260 438.0
1261 433.0
1262 399.0
1263 420.0
1264 441.0
1265 437.0
1266 446.0
1267 453.0
1268 446.0
1269 422.0
1270 416.0
1271 449.0
1272 468.0
1273 443.0
1274 395.0
1275 430.0
1276 446.0
1277 416.0
1278 437.0
1279 421.0
1280 451.0
1281 443.0
1282 462.0
1283 438.0
1284 450.0
1285 445.0
1286 451.0
1287 457.0
1288 441.0
1289 459.0
1290 424.0
1291 467.0
1292 434.0
1293 472.0
1294 473.0
1295 424.0
1296 493.0
1297 437.0
1298 430.0
1299 472.0
1300 428.0
1301 464.0
1302 460.0
1303 465.0
1304 456.0
1305 414.0
1306 462.0
1307 444.0
1308 462.0
1309 432.0
1310 483.0
1311 451.0
1312 422.0
1313 501.0
1314 490.0
1315 435.0
1316 469.0
1317 441.0
1318 474.0
1319 447.0
1320 493.0
1321 462.0
1322 462.0
1323 457.0
1324 439.0
1325 474.0
1326 451.0
1327 465.0
1328 456.0
1329 439.0
1330 427.0
1331 449.0
1332 396.0
1333 446.0
1334 461.0
1335 461.0
1336 438.0
1337 454.0
1338 435.0
1339 432.0
1340 430.0
1341 437.0
1342 435.0
1343 467.0
1344 446.0
1345 447.0
1346 450.0
1347 439.0
1348 469.0
1349 449.0
1350 429.0
1351 423.0
1352 469.0
1353 434.0
1354 444.0
1355 446.0
1356 431.0
1357 434.0
1358 411.0
1359 440.0
1360 453.0
1361 465.0
1362 451.0
1363 465.0
1364 448.0
1365 442.0
1366 408.0
1367 439.0
1368 442.0
1369 446.0
1370 417.0
1371 424.0
1372 481.0
1373 413.0
1374 427.0
1375 432.0
1376 432.0
1377 472.0
1378 474.0
1379 445.0
1380 462.0
1381 464.0
1382 448.0
1383 429.0
1384 444.0
1385 395.0
1386 470.0
1387 438.0
1388 414.0
1389 456.0
1390 411.0
1391 441.0
1392 437.0
1393 465.0
1394 484.0
1395 423.0
1396 456.0
1397 450.0
1398 430.0
1399 452.0
1400 441.0
1401 446.0
1402 473.0
1403 473.0
1404 426.0
1405 468.0
1406 463.0
1407 472.0
1408 460.0
1409 473.0
1410 514.0
1411 469.0
1412 462.0
1413 452.0
1414 454.0
1415 433.0
1416 446.0
1417 469.0
1418 494.0
1419 469.0
1420 454.0
1421 443.0
1422 452.0
1423 455.0
1424 454.0
1425 451.0
1426 503.0
1427 502.0
1428 489.0
1429 497.0
1430 459.0
1431 461.0
1432 493.0
1433 474.0
1434 476.0
1435 457.0
1436 468.0
1437 432.0
1438 485.0
1439 468.0
1440 448.0
1441 452.0
1442 436.0
1443 478.0
1444 462.0
1445 438.0
1446 502.0
1447 424.0
1448 459.0
1449 483.0
1450 449.0
1451 417.0
1452 434.0
1453 447.0
1454 439.0
1455 490.0
1456 430.0
1457 431.0
1458 457.0
1459 483.0
1460 435.0
1461 463.0
1462 435.0
1463 450.0
1464 439.0
1465 461.0
1466 433.0
1467 449.0
1468 431.0
1469 441.0
1470 434.0
1471 486.0
1472 458.0
1473 457.0
1474 454.0
1475 449.0
1476 461.0
1477 447.0
1478 442.0
1479 439.0
1480 464.0
1481 438.0
1482 447.0
1483 445.0
1484 419.0
1485 414.0
1486 427.0
1487 449.0
1488 448.0
1489 477.0
1490 437.0
1491 431.0
1492 448.0
1493 430.0
1494 456.0
1495 492.0
1496 423.0
1497 440.0
1498 427.0
1499 462.0
1500 424.0
1501 449.0
1502 484.0
1503 435.0
1504 435.0
1505 446.0
1506 466.0
1507 470.0
1508 465.0
1509 445.0
1510 477.0
1511 461.0
1512 439.0
1513 436.0
1514 442.0
1515 516.0
1516 488.0
1517 415.0
1518 446.0
1519 455.0
1520 436.0
1521 438.0
1522 439.0
1523 425.0
1524 421.0
1525 444.0
1526 405.0
1527 437.0
1528 474.0
1529 438.0
1530 416.0
1531 444.0
1532 440.0
1533 423.0
1534 469.0
1535 442.0
1536 456.0
1537 444.0
1538 471.0
1539 462.0
1540 473.0
1541 440.0
1542 476.0
1543 463.0
1544 459.0
1545 450.0
1546 464.0
1547 448.0
1548 455.0
1549 435.0
1550 405.0
1551 440.0
1552 470.0
1553 469.0
1554 437.0
1555 456.0
1556 442.0
1557 449.0
1558 464.0
1559 466.0
1560 450.0
1561 425.0
1562 414.0
1563 464.0
1564 465.0
1565 453.0
1566 444.0
1567 505.0
1568 432.0
1569 428.0
1570 466.0
1571 448.0
1572 466.0
1573 456.0
1574 434.0
1575 455.0
1576 490.0
1577 461.0
1578 468.0
1579 463.0
1580 467.0
1581 415.0
1582 472.0
1583 438.0
1584 447.0
1585 473.0
1586 455.0
1587 472.0
1588 467.0
1589 447.0
1590 458.0
1591 435.0
1592 484.0
1593 443.0
1594 469.0
1595 461.0
1596 477.0
1597 478.0
1598 465.0
1599 480.0
1600 464.0
1601 446.0
1602 485.0
1603 476.0
1604 492.0
1605 502.0
1606 511.0
1607 498.0
1608 474.0
1609 484.0
1610 501.0
1611 507.0
1612 501.0
1613 435.0
1614 464.0
1615 454.0
1616 481.0
1617 462.0
1618 517.0
1619 468.0
1620 479.0
1621 474.0
1622 473.0
1623 468.0
1624 458.0
1625 471.0
1626 505.0
1627 456.0
1628 456.0
1629 461.0
1630 475.0
1631 468.0
1632 432.0
1633 470.0
1634 494.0
1635 477.0
1636 484.0
1637 464.0
1638 501.0
1639 485.0
1640 460.0
1641 466.0
1642 422.0
1643 484.0
1644 506.0
1645 472.0
1646 471.0
1647 433.0
1648 490.0
1649 505.0
1650 432.0
1651 479.0
1652 476.0
1653 475.0
1654 490.0
1655 482.0
1656 489.0
1657 442.0
1658 485.0
1659 469.0
1660 439.0
1661 486.0
1662 483.0
1663 504.0
1664 468.0
1665 487.0
1666 447.0
1667 465.0
1668 448.0
1669 476.0
1670 493.0
1671 457.0
1672 434.0
1673 434.0
1674 478.0
1675 500.0
1676 482.0
1677 469.0
1678 465.0
1679 475.0
1680 504.0
1681 483.0
1682 482.0
1683 496.0
1684 469.0
1685 472.0
1686 493.0
1687 475.0
1688 464.0
1689 478.0
1690 464.0
1691 468.0
1692 451.0
1693 470.0
1694 461.0
1695 484.0
1696 476.0
1697 473.0
1698 483.0
1699 472.0
1700 462.0
1701 482.0
1702 486.0
1703 461.0
1704 462.0
1705 479.0
1706 465.0
1707 457.0
1708 458.0
1709 465.0
1710 495.0
1711 484.0
1712 504.0
1713 455.0
1714 478.0
1715 481.0
1716 422.0
1717 460.0
1718 497.0
1719 463.0
1720 416.0
1721 491.0
1722 500.0
1723 498.0
1724 449.0
1725 464.0
1726 459.0
1727 490.0
1728 467.0
1729 492.0
1730 446.0
1731 495.0
1732 481.0
1733 477.0
1734 454.0
1735 463.0
1736 509.0
1737 502.0
1738 498.0
1739 493.0
1740 503.0
1741 462.0
1742 459.0
1743 429.0
1744 448.0
1745 493.0
1746 481.0
1747 475.0
1748 474.0
1749 476.0
1750 516.0
1751 496.0
1752 531.0
1753 535.0
1754 510.0
1755 448.0
1756 486.0
1757 493.0
1758 519.0
1759 507.0
1760 454.0
1761 471.0
1762 498.0
1763 515.0
1764 501.0
1765 481.0
1766 537.0
1767 457.0
1768 491.0
1769 508.0
1770 476.0
1771 498.0
1772 480.0
1773 505.0
1774 508.0
1775 476.0
1776 545.0
1777 476.0
1778 470.0
1779 484.0
1780 468.0
1781 466.0
1782 496.0
1783 471.0
1784 494.0
1785 462.0
1786 489.0
1787 484.0
1788 469.0
1789 463.0
1790 481.0
1791 446.0
1792 494.0
1793 482.0
1794 495.0
1795 470.0
1796 489.0
1797 479.0
1798 491.0
1799 467.0
1800 481.0
1801 466.0
1802 463.0
1803 455.0
1804 471.0
1805 484.0
1806 483.0
1807 461.0
1808 437.0
1809 445.0
1810 488.0
1811 513.0
1812 442.0
1813 448.0
1814 450.0
1815 476.0
1816 466.0
1817 451.0
1818 480.0
1819 463.0
1820 482.0
1821 497.0
1822 441.0
1823 438.0
1824 487.0
1825 437.0
1826 442.0
1827 472.0
1828 451.0
1829 473.0
1830 506.0
1831 453.0
1832 446.0
1833 439.0
1834 420.0
1835 451.0
1836 436.0
1837 493.0
1838 477.0
1839 478.0
1840 471.0
1841 478.0
1842 450.0
1843 458.0
1844 453.0
1845 463.0
1846 473.0
1847 487.0
1848 475.0
1849 480.0
1850 441.0
1851 484.0
1852 481.0
1853 457.0
1854 468.0
1855 482.0
1856 470.0
1857 474.0
1858 484.0
1859 458.0
1860 501.0
1861 485.0
1862 445.0
1863 508.0
1864 479.0
1865 494.0
1866 504.0
1867 474.0
1868 496.0
1869 497.0
1870 531.0
1871 450.0
1872 513.0
1873 444.0
1874 498.0
1875 463.0
1876 503.0
1877 488.0
1878 472.0
1879 489.0
1880 489.0
1881 451.0
1882 472.0
1883 482.0
1884 512.0
1885 494.0
1886 497.0
1887 464.0
1888 483.0
1889 478.0
1890 501.0
1891 482.0
1892 498.0
1893 485.0
1894 491.0
1895 476.0
1896 503.0
1897 481.0
1898 456.0
1899 513.0
1900 436.0
1901 485.0
1902 486.0
1903 464.0
1904 502.0
1905 480.0
1906 472.0
1907 465.0
1908 488.0
1909 487.0
1910 438.0
1911 512.0
1912 478.0
1913 510.0
1914 475.0
1915 495.0
1916 502.0
1917 477.0
1918 473.0
1919 473.0
1920 455.0
1921 505.0
1922 466.0
1923 466.0
1924 436.0
1925 427.0
1926 484.0
1927 501.0
1928 479.0
1929 480.0
1930 483.0
1931 460.0
1932 500.0
1933 507.0
1934 474.0
1935 483.0
1936 476.0
1937 474.0
1938 495.0
1939 469.0
1940 473.0
1941 508.0
1942 493.0
1943 475.0
1944 468.0
1945 482.0
1946 490.0
1947 482.0
1948 505.0
1949 462.0
1950 499.0
1951 475.0
1952 509.0
1953 488.0
1954 503.0
1955 523.0
1956 513.0
1957 476.0
1958 472.0
1959 483.0
1960 495.0
1961 518.0
1962 508.0
1963 500.0
1964 479.0
1965 529.0
1966 479.0
1967 440.0
1968 506.0
1969 513.0
1970 508.0
1971 487.0
1972 502.0
1973 493.0
1974 480.0
1975 520.0
1976 487.0
1977 501.0
1978 526.0
1979 508.0
1980 492.0
1981 505.0
1982 532.0
1983 497.0
1984 468.0
1985 504.0
1986 522.0
1987 510.0
1988 544.0
1989 492.0
1990 572.0
1991 513.0
1992 535.0
1993 554.0
1994 536.0
1995 506.0
1996 540.0
1997 505.0
1998 525.0
1999 494.0
2000 533.0
2001 544.0
2002 486.0
2003 520.0
2004 487.0
2005 550.0
2006 506.0
2007 543.0
2008 524.0
2009 537.0
2010 531.0
2011 505.0
2012 513.0
2013 526.0
2014 484.0
2015 525.0
2016 506.0
2017 542.0
2018 493.0
2019 526.0
2020 524.0
2021 525.0
2022 539.0
2023 510.0
2024 503.0
2025 530.0
2026 516.0
2027 519.0
2028 545.0
2029 539.0
2030 505.0
2031 524.0
2032 503.0
2033 486.0
2034 543.0
2035 542.0
2036 522.0
2037 479.0
2038 555.0
2039 533.0
2040 571.0
2041 539.0
2042 541.0
2043 535.0
2044 550.0
2045 505.0
2046 529.0
2047 530.0
