0 388.0
1 431.0
2 430.0
3 466.0
4 461.0
5 410.0
6 411.0
7 439.0
8 429.0
9 422.0
10 451.0
11 443.0
12 433.0
13 436.0
14 431.0
15 407.0
16 447.0
17 414.0
18 412.0
19 447.0
20 395.0
21 431.0
22 403.0
23 440.0
24 387.0
25 433.0
26 409.0
27 431.0
28 386.0
29 429.0
30 400.0
31 466.0
32 407.0
33 385.0
34 444.0
35 440.0
36 395.0
37 393.0
38 436.0
39 434.0
40 436.0
41 419.0
42 438.0
43 468.0
44 455.0
45 416.0
46 427.0
47 389.0
48 422.0
49 395.0
50 424.0
51 419.0
52 388.0
53 447.0
54 413.0
55 418.0
56 409.0
57 436.0
58 417.0
59 422.0
60 427.0
61 438.0
62 402.0
63 412.0
64 415.0
65 479.0
66 431.0
67 429.0
68 392.0
69 421.0
70 417.0
71 419.0
72 398.0
73 414.0
74 408.0
75 436.0
76 401.0
77 433.0
78 405.0
79 426.0
80 432.0
81 460.0
82 416.0
83 444.0
84 419.0
85 428.0
86 406.0
87 458.0
88 380.0
89 441.0
90 404.0
91 453.0
92 419.0
93 424.0
94 432.0
95 436.0
96 388.0
97 373.0
98 400.0
99 414.0
100 382.0
101 412.0
102 434.0
103 394.0
104 389.0
105 415.0
106 420.0
107 379.0
108 397.0
109 402.0
110 407.0
111 420.0
112 445.0
113 402.0
114 385.0
115 411.0
116 390.0
117 416.0
118 375.0
119 386.0
120 399.0
121 413.0
122 352.0
123 431.0
124 419.0
125 419.0
126 398.0
127 414.0
128 389.0
129 429.0
130 397.0
131 425.0
132 419.0
133 430.0
134 424.0
135 410.0
136 402.0
137 409.0
138 383.0
139 434.0
140 435.0
141 407.0
142 404.0
143 433.0
144 433.0
145 439.0
146 409.0
147 424.0
148 398.0
149 422.0
150 393.0
151 420.0
152 396.0
153 427.0
154 401.0
155 412.0
156 414.0
157 362.0
158 435.0
159 438.0
160 402.0
161 463.0
162 441.0
163 387.0
164 409.0
165 441.0
166 413.0
167 416.0
168 443.0
169 426.0
170 394.0
171 432.0
172 438.0
173 429.0
174 397.0
175 393.0
176 418.0
177 431.0
178 418.0
179 424.0
180 412.0
181 451.0
182 419.0
183 427.0
184 424.0
185 446.0
186 389.0
187 455.0
188 417.0
189 438.0
190 441.0
191 392.0
192 445.0
193 420.0
194 423.0
195 412.0
196 422.0
197 448.0
198 400.0
199 405.0
200 416.0
201 425.0
202 372.0
203 442.0
204 436.0
205 440.0
206 432.0
207 402.0
208 449.0
209 460.0
210 408.0
211 436.0
212 377.0
213 434.0
214 400.0
215 426.0
216 436.0
217 454.0
218 421.0
219 432.0
220 419.0
221 416.0
222 423.0
223 426.0
224 374.0
225 377.0
226 442.0
227 455.0
228 405.0
229 449.0
230 422.0
231 407.0
232 405.0
233 394.0
234 414.0
235 429.0
236 387.0
237 448.0
238 397.0
239 377.0
240 396.0
241 423.0
242 390.0
243 414.0
244 392.0
245 398.0
246 433.0
247 465.0
248 407.0
249 370.0
250 391.0
251 400.0
252 442.0
253 449.0
254 419.0
255 399.0
256 402.0
257 395.0
258 374.0
259 413.0
260 395.0
261 429.0
262 411.0
263 397.0
264 404.0
265 441.0
266 412.0
267 427.0
268 424.0
269 446.0
270 354.0
271 448.0
272 393.0
273 416.0
274 387.0
275 401.0
276 400.0
277 418.0
278 392.0
279 427.0
280 398.0
281 412.0
282 371.0
283 416.0
284 421.0
285 421.0
286 398.0
287 397.0
288 422.0
289 412.0
290 390.0
291 377.0
292 390.0
293 387.0
294 448.0
295 401.0
296 416.0
297 423.0
298 423.0
299 358.0
300 402.0
301 424.0
302 363.0
303 383.0
304 411.0
305 409.0
306 374.0
307 389.0
308 405.0
309 371.0
310 400.0
311 393.0
312 440.0
313 400.0
314 389.0
315 386.0
316 410.0
317 380.0
318 372.0
319 424.0
320 389.0
321 421.0
322 398.0
323 376.0
324 386.0
325 386.0
326 388.0
327 401.0
328 438.0
329 373.0
330 379.0
331 414.0
332 410.0
333 423.0
334 412.0
335 427.0
336 395.0
337 397.0
338 397.0
339 386.0
340 381.0
341 409.0
342 426.0
343 386.0
344 377.0
345 430.0
346 372.0
347 379.0
348 419.0
349 424.0
350 383.0
351 398.0
352 453.0
353 399.0
354 408.0
355 407.0
356 337.0
357 398.0
358 403.0
359 386.0
360 401.0
361 394.0
362 395.0
363 407.0
364 375.0
365 412.0
366 387.0
367 423.0
368 397.0
369 429.0
370 410.0
371 419.0
372 383.0
373 390.0
374 418.0
375 399.0
376 365.0
377 401.0
378 393.0
379 397.0
380 395.0
381 376.0
382 412.0
383 402.0
384 430.0
385 377.0
386 382.0
387 448.0
388 427.0
389 367.0
390 366.0
391 401.0
392 386.0
393 421.0
394 385.0
395 379.0
396 398.0
397 407.0
398 396.0
399 368.0
400 385.0
401 387.0
402 381.0
403 398.0
404 438.0
405 374.0
406 373.0
407 438.0
408 415.0
409 385.0
410 397.0
411 374.0
412 393.0
413 421.0
414 394.0
415 376.0
416 415.0
417 374.0
418 408.0
419 397.0
420 364.0
421 393.0
422 381.0
423 348.0
424 362.0
425 372.0
426 398.0
427 424.0
428 384.0
429 423.0
430 390.0
431 415.0
432 380.0
433 378.0
434 399.0
435 407.0
436 399.0
437 402.0
438 353.0
439 399.0
440 375.0
441 401.0
442 373.0
443 414.0
444 419.0
445 411.0
446 400.0
447 446.0
448 381.0
449 405.0
450 447.0
451 394.0
452 389.0
453 412.0
454 428.0
455 419.0
456 407.0
457 436.0
458 390.0
459 418.0
460 405.0
461 415.0
462 418.0
463 443.0
464 417.0
465 410.0
466 377.0
467 401.0
468 377.0
469 378.0
470 437.0
471 426.0
472 422.0
473 424.0
474 447.0
475 404.0
476 397.0
477 413.0
478 388.0
479 423.0
480 378.0
481 430.0
482 394.0
483 418.0
484 367.0
485 441.0
486 397.0
487 403.0
488 429.0
489 415.0
490 380.0
491 420.0
492 427.0
493 416.0
494 379.0
495 406.0
496 398.0
497 405.0
498 398.0
499 409.0
500 387.0
501 385.0
502 436.0
503 369.0
504 394.0
505 379.0
506 350.0
507 392.0
508 364.0
509 415.0
510 391.0
511 377.0
512 380.0
513 398.0
514 383.0
515 415.0
516 392.0
517 406.0
518 361.0
519 413.0
520 375.0
521 408.0
522 425.0
523 412.0
524 390.0
525 405.0
526 404.0
527 420.0
528 444.0
529 397.0
530 368.0
531 390.0
532 384.0
533 390.0
534 436.0
535 430.0
536 405.0
537 364.0
538 405.0
539 422.0
540 385.0
541 406.0
542 394.0
543 418.0
544 355.0
545 408.0
546 433.0
547 415.0
548 435.0
549 397.0
550 386.0
551 426.0
552 423.0
553 425.0
554 434.0
555 409.0
556 373.0
557 429.0
558 396.0
559 367.0
560 376.0
561 412.0
562 402.0
563 372.0
564 407.0
565 408.0
566 398.0
567 373.0
568 412.0
569 399.0
570 364.0
571 391.0
572 402.0
573 366.0
574 385.0
575 416.0
576 383.0
577 393.0
578 387.0
579 368.0
580 386.0
581 373.0
582 418.0
583 383.0
584 390.0
585 439.0
586 396.0
587 377.0
588 381.0
589 401.0
590 391.0
591 418.0
592 438.0
593 384.0
594 370.0
595 361.0
596 377.0
597 413.0
598 410.0
599 423.0
600 384.0
601 420.0
602 404.0
603 389.0
604 425.0
605 410.0
606 404.0
607 402.0
608 372.0
609 428.0
610 381.0
611 406.0
612 409.0
613 436.0
614 424.0
615 408.0
616 387.0
617 420.0
618 406.0
619 416.0
620 388.0
621 425.0
622 382.0
623 401.0
624 420.0
625 486.0
626 414.0
627 409.0
628 402.0
629 420.0
630 421.0
631 415.0
632 408.0
633 413.0
634 406.0
635 410.0
636 381.0
637 410.0
638 412.0
639 435.0
640 409.0
641 404.0
642 387.0
643 424.0
644 437.0
645 458.0
646 422.0
647 411.0
648 384.0
649 426.0
650 387.0
651 393.0
652 423.0
653 406.0
654 427.0
655 443.0
656 398.0
657 421.0
658 435.0
659 411.0
660 425.0
661 401.0
662 400.0
663 443.0
664 411.0
665 386.0
666 446.0
667 414.0
668 413.0
669 425.0
670 417.0
671 415.0
672 415.0
673 422.0
674 426.0
675 414.0
676 397.0
677 383.0
678 403.0
679 441.0
680 411.0
681 438.0
682 399.0
683 437.0
684 392.0
685 417.0
686 397.0
687 413.0
688 426.0
689 442.0
690 376.0
691 416.0
692 448.0
693 389.0
694 433.0
695 436.0
696 426.0
697 438.0
698 380.0
699 430.0
700 430.0
701 387.0
702 375.0
703 394.0
704 377.0
705 373.0
706 373.0
707 461.0
708 407.0
709 406.0
710 384.0
711 408.0
712 394.0
713 421.0
714 441.0
715 394.0
716 370.0
717 391.0
718 396.0
719 420.0
720 427.0
721 415.0
722 395.0
723 396.0
724 414.0
725 455.0
726 365.0
727 373.0
728 388.0
729 415.0
730 449.0
731 396.0
732 386.0
733 396.0
734 391.0
735 410.0
736 386.0
737 431.0
738 392.0
739 425.0
740 393.0
741 445.0
742 399.0
743 428.0
744 392.0
745 420.0
746 378.0
747 387.0
748 414.0
749 428.0
750 392.0
751 417.0
752 435.0
753 395.0
754 418.0
755 434.0
756 396.0
757 427.0
758 429.0
759 383.0
760 441.0
761 400.0
762 373.0
763 442.0
764 425.0
765 422.0
766 402.0
767 436.0
768 433.0
769 408.0
770 421.0
771 401.0
772 408.0
773 404.0
774 416.0
775 372.0
776 472.0
777 418.0
778 448.0
779 402.0
780 400.0
781 440.0
782 385.0
783 426.0
784 433.0
785 412.0
786 426.0
787 392.0
788 415.0
789 406.0
790 392.0
791 429.0
792 414.0
793 399.0
794 391.0
795 406.0
796 466.0
797 407.0
798 403.0
799 397.0
800 403.0
801 405.0
802 397.0
803 387.0
804 400.0
805 405.0
806 398.0
807 434.0
808 403.0
809 410.0
810 412.0
811 383.0
812 411.0
813 413.0
814 435.0
815 412.0
816 437.0
817 423.0
818 374.0
819 395.0
820 386.0
821 400.0
822 419.0
823 417.0
824 395.0
825 455.0
826 394.0
827 423.0
828 390.0
829 433.0
830 433.0
831 447.0
832 385.0
833 391.0
834 402.0
835 386.0
836 391.0
837 408.0
838 395.0
839 427.0
840 425.0
841 377.0
842 426.0
843 409.0
844 431.0
845 408.0
846 380.0
847 367.0
848 412.0
849 399.0
850 394.0
851 432.0
852 421.0
853 410.0
854 403.0
855 417.0
856 398.0
857 388.0
858 399.0
859 413.0
860 406.0
861 395.0
862 402.0
863 405.0
864 418.0
865 403.0
866 397.0
867 417.0
868 390.0
869 407.0
870 391.0
871 408.0
872 410.0
873 423.0
874 385.0
875 411.0
876 344.0
877 403.0
878 379.0
879 368.0
880 393.0
881 372.0
882 405.0
883 407.0
884 416.0
885 420.0
886 446.0
887 366.0
888 391.0
889 388.0
890 362.0
891 381.0
892 393.0
893 401.0
894 366.0
895 439.0
896 402.0
897 394.0
898 420.0
899 397.0
900 415.0
901 399.0
902 377.0
903 408.0
904 410.0
905 453.0
906 399.0
907 422.0
908 418.0
909 405.0
910 396.0
911 421.0
912 427.0
913 409.0
914 402.0
915 428.0
916 412.0
917 409.0
918 416.0
919 395.0
920 388.0
921 412.0
922 418.0
923 384.0
924 423.0
925 464.0
926 414.0
927 407.0
928 420.0
929 435.0
930 424.0
931 409.0
932 397.0
933 432.0
934 433.0
935 410.0
936 416.0
937 424.0
938 402.0
939 424.0
940 415.0
941 400.0
942 390.0
943 435.0
944 378.0
945 423.0
946 428.0
947 389.0
948 433.0
949 411.0
950 443.0
951 370.0
952 412.0
953 430.0
954 429.0
955 411.0
956 407.0
957 404.0
958 439.0
959 410.0
960 407.0
961 423.0
962 404.0
963 417.0
964 413.0
965 419.0
966 429.0
967 402.0
968 408.0
969 448.0
970 413.0
971 408.0
972 429.0
973 468.0
974 416.0
975 414.0
976 444.0
977 416.0
978 462.0
979 422.0
980 371.0
981 418.0
982 432.0
983 435.0
984 445.0
985 445.0
986 401.0
987 416.0
988 439.0
989 392.0
990 424.0
991 434.0
992 428.0
993 431.0
994 426.0
995 394.0
996 403.0
997 408.0
998 419.0
999 479.0
1000 511.0
1001 441.0
1002 404.0
1003 439.0
1004 405.0
1005 451.0
1006 420.0
1007 402.0
1008 429.0
1009 442.0
1010 457.0
1011 434.0
1012 415.0
1013 394.0
1014 427.0
1015 432.0
1016 435.0
1017 445.0
1018 411.0
1019 449.0
1020 450.0
1021 467.0
1022 420.0
1023 445.0
1024 400.0
1025 423.0
1026 427.0
1027 464.0
1028 448.0
1029 424.0
1030 425.0
1031 369.0
1032 428.0
1033 436.0
1034 446.0
1035 404.0
1036 422.0
1037 416.0
1038 430.0
1039 413.0
1040 456.0
1041 425.0
1042 420.0
1043 431.0
1044 430.0
1045 444.0
1046 404.0
1047 408.0
1048 413.0
1049 403.0
1050 432.0
1051 416.0
1052 426.0
1053 454.0
1054 403.0
1055 442.0
1056 432.0
1057 423.0
1058 393.0
1059 421.0
1060 393.0
1061 444.0
1062 423.0
1063 420.0
1064 438.0
1065 456.0
1066 420.0
1067 415.0
1068 408.0
1069 425.0
1070 422.0
1071 372.0
1072 435.0
1073 450.0
1074 418.0
1075 445.0
1076 472.0
1077 451.0
1078 445.0
1079 443.0
1080 432.0
1081 454.0
1082 421.0
1083 418.0
1084 445.0
1085 442.0
1086 437.0
1087 432.0
1088 411.0
1089 446.0
1090 427.0
1091 462.0
1092 430.0
1093 435.0
1094 397.0
1095 419.0
1096 433.0
1097 445.0
1098 437.0
1099 398.0
1100 427.0
1101 428.0
1102 444.0
1103 448.0
1104 465.0
1105 461.0
1106 424.0
1107 468.0
1108 468.0
1109 446.0
1110 426.0
1111 448.0
1112 420.0
1113 434.0
1114 431.0
1115 439.0
1116 396.0
1117 442.0
1118 413.0
1119 427.0
1120 429.0
1121 460.0
1122 405.0
1123 438.0
1124 417.0
1125 432.0
1126 442.0
1127 458.0
1128 459.0
1129 454.0
1130 454.0
1131 449.0
1132 469.0
1133 427.0
1134 413.0
1135 415.0
1136 432.0
1137 412.0
1138 433.0
1139 470.0
1140 445.0
1141 440.0
1142 448.0
1143 442.0
1144 473.0
1145 436.0
1146 434.0
1147 430.0
1148 447.0
1149 452.0
1150 412.0
1151 415.0
1152 403.0
1153 405.0
1154 448.0
1155 414.0
1156 475.0
1157 433.0
1158 432.0
1159 438.0
1160 425.0
1161 389.0
1162 438.0
1163 466.0
1164 437.0
1165 436.0
1166 422.0
1167 427.0
1168 459.0
1169 444.0
1170 408.0
1171 453.0
1172 409.0
1173 431.0
1174 396.0
1175 442.0
1176 412.0
1177 422.0
1178 441.0
1179 430.0
1180 425.0
1181 430.0
1182 411.0
1183 446.0
1184 439.0
1185 440.0
1186 451.0
1187 421.0
1188 419.0
1189 417.0
1190 416.0
1191 429.0
1192 424.0
1193 393.0
1194 426.0
1195 408.0
1196 394.0
1197 424.0
1198 436.0
1199 429.0
1200 440.0
1201 429.0
1202 416.0
1203 448.0
1204 394.0
1205 432.0
1206 438.0
1207 420.0
1208 418.0
1209 389.0
1210 400.0
1211 429.0
1212 442.0
1213 429.0
1214 450.0
1215 470.0
1216 408.0
1217 427.0
1218 448.0
1219 469.0
1220 455.0
1221 440.0
1222 451.0
1223 426.0
1224 446.0
1225 431.0
1226 452.0
1227 435.0
1228 445.0
1229 433.0
1230 409.0
1231 420.0
1232 435.0
1233 444.0
1234 432.0
1235 402.0
1236 428.0
1237 475.0
1238 430.0
1239 442.0
1240 417.0
1241 414.0
1242 399.0
1243 459.0
1244 433.0
1245 414.0
1246 449.0
1247 451.0
1248 421.0
1249 442.0
1250 465.0
1251 430.0
1252 413.0
1253 398.0
1254 441.0
1255 414.0
1256 471.0
1257 442.0
1258 399.0
1259 436.0
1260 435.0
1261 441.0
1262 409.0
1263 399.0
1264 466.0
1265 429.0
1266 424.0
1267 458.0
1268 421.0
1269 413.0
1270 444.0
1271 424.0
1272 409.0
1273 448.0
1274 408.0
1275 396.0
1276 440.0
1277 432.0
1278 446.0
1279 464.0
1280 446.0
1281 452.0
1282 438.0
1283 445.0
1284 446.0
1285 435.0
1286 476.0
1287 423.0
1288 448.0
1289 447.0
1290 427.0
1291 454.0
1292 433.0
1293 498.0
1294 431.0
1295 439.0
1296 467.0
1297 438.0
1298 459.0
1299 463.0
1300 417.0
1301 455.0
1302 453.0
1303 437.0
1304 469.0
1305 464.0
1306 445.0
1307 442.0
1308 446.0
1309 462.0
1310 464.0
1311 456.0
1312 423.0
1313 453.0
1314 469.0
1315 430.0
1316 442.0
1317 461.0
1318 470.0
1319 434.0
1320 475.0
1321 447.0
1322 460.0
1323 467.0
1324 457.0
1325 455.0
1326 449.0
1327 418.0
1328 463.0
1329 468.0
1330 437.0
1331 456.0
1332 437.0
1333 461.0
1334 454.0
1335 478.0
1336 454.0
1337 450.0
1338 408.0
1339 447.0
1340 423.0
1341 471.0
1342 449.0
1343 474.0
1344 397.0
1345 455.0
1346 429.0
1347 476.0
1348 429.0
1349 412.0
1350 447.0
1351 450.0
1352 460.0
1353 428.0
1354 482.0
1355 447.0
1356 433.0
1357 416.0
1358 412.0
1359 415.0
1360 449.0
1361 454.0
1362 454.0
1363 440.0
1364 445.0
1365 454.0
1366 437.0
1367 445.0
1368 436.0
1369 422.0
1370 445.0
1371 470.0
1372 464.0
1373 412.0
1374 439.0
1375 404.0
1376 423.0
1377 440.0
1378 442.0
1379 453.0
1380 464.0
1381 429.0
1382 454.0
1383 453.0
1384 466.0
1385 426.0
1386 488.0
1387 431.0
1388 426.0
1389 463.0
1390 405.0
1391 416.0
1392 415.0
1393 417.0
1394 469.0
1395 434.0
1396 466.0
1397 447.0
1398 460.0
1399 444.0
1400 441.0
1401 465.0
1402 451.0
1403 448.0
1404 436.0
1405 446.0
1406 436.0
1407 451.0
1408 454.0
1409 458.0
1410 487.0
1411 420.0
1412 453.0
1413 453.0
1414 487.0
1415 439.0
1416 470.0
1417 478.0
1418 464.0
1419 473.0
1420 449.0
1421 445.0
1422 437.0
1423 442.0
1424 464.0
1425 446.0
1426 478.0
1427 470.0
1428 455.0
1429 472.0
1430 455.0
1431 453.0
1432 451.0
1433 497.0
1434 476.0
1435 465.0
1436 436.0
1437 473.0
1438 480.0
1439 450.0
1440 460.0
1441 480.0
1442 472.0
1443 474.0
1444 471.0
1445 464.0
1446 502.0
1447 472.0
1448 479.0
1449 477.0
1450 442.0
1451 421.0
1452 414.0
1453 437.0
1454 444.0
1455 473.0
1456 458.0
1457 449.0
1458 486.0
1459 434.0
1460 442.0
1461 457.0
1462 450.0
1463 439.0
1464 437.0
1465 485.0
1466 424.0
1467 435.0
1468 471.0
1469 484.0
1470 424.0
1471 452.0
1472 449.0
1473 465.0
1474 440.0
1475 464.0
1476 446.0
1477 456.0
1478 456.0
1479 462.0
1480 448.0
1481 455.0
1482 460.0
1483 428.0
1484 431.0
1485 442.0
1486 431.0
1487 468.0
1488 464.0
1489 461.0
1490 445.0
1491 463.0
1492 460.0
1493 480.0
1494 450.0
1495 478.0
1496 439.0
1497 446.0
1498 448.0
1499 431.0
1500 447.0
1501 443.0
1502 503.0
1503 444.0
1504 393.0
1505 463.0
1506 455.0
1507 469.0
1508 432.0
1509 428.0
1510 465.0
1511 441.0
1512 410.0
1513 452.0
1514 462.0
1515 470.0
1516 458.0
1517 429.0
1518 472.0
1519 423.0
1520 465.0
1521 463.0
1522 458.0
1523 444.0
1524 431.0
1525 480.0
1526 425.0
1527 483.0
1528 460.0
1529 411.0
1530 436.0
1531 480.0
1532 451.0
1533 458.0
1534 457.0
1535 458.0
1536 464.0
1537 451.0
1538 477.0
1539 464.0
1540 469.0
1541 446.0
1542 487.0
1543 508.0
1544 454.0
1545 474.0
1546 455.0
1547 425.0
1548 486.0
1549 443.0
1550 471.0
1551 453.0
1552 484.0
1553 467.0
1554 475.0
1555 473.0
1556 474.0
1557 458.0
1558 461.0
1559 525.0
1560 424.0
1561 459.0
1562 441.0
1563 492.0
1564 464.0
1565 458.0
1566 463.0
1567 482.0
1568 480.0
1569 448.0
1570 471.0
1571 471.0
1572 485.0
1573 448.0
1574 476.0
1575 463.0
1576 477.0
1577 494.0
1578 446.0
1579 482.0
1580 487.0
1581 460.0
1582 461.0
1583 457.0
1584 459.0
1585 483.0
1586 464.0
1587 472.0
1588 476.0
1589 497.0
1590 453.0
1591 428.0
1592 486.0
1593 428.0
1594 458.0
1595 444.0
1596 432.0
1597 477.0
1598 510.0
1599 485.0
1600 474.0
1601 488.0
1602 442.0
1603 457.0
1604 508.0
1605 513.0
1606 508.0
1607 505.0
1608 462.0
1609 456.0
1610 472.0
1611 482.0
1612 510.0
1613 463.0
1614 484.0
1615 474.0
1616 525.0
1617 469.0
1618 499.0
1619 492.0
1620 513.0
1621 474.0
1622 464.0
1623 441.0
1624 448.0
1625 468.0
1626 515.0
1627 480.0
1628 514.0
1629 506.0
1630 484.0
1631 479.0
1632 458.0
1633 499.0
1634 481.0
1635 472.0
1636 477.0
1637 495.0
1638 481.0
1639 458.0
1640 470.0
1641 482.0
1642 419.0
1643 466.0
1644 511.0
1645 483.0
1646 493.0
1647 467.0
1648 513.0
1649 527.0
1650 421.0
1651 498.0
1652 451.0
1653 474.0
1654 471.0
1655 472.0
1656 485.0
1657 453.0
1658 473.0
1659 497.0
1660 470.0
1661 484.0
1662 470.0
1663 508.0
1664 478.0
1665 439.0
1666 482.0
1667 467.0
1668 492.0
1669 455.0
1670 469.0
1671 437.0
1672 449.0
1673 456.0
1674 471.0
1675 472.0
1676 474.0
1677 468.0
1678 492.0
1679 461.0
1680 490.0
1681 467.0
1682 472.0
1683 486.0
1684 480.0
1685 489.0
1686 461.0
1687 474.0
1688 501.0
1689 474.0
1690 444.0
1691 466.0
1692 465.0
1693 474.0
1694 457.0
1695 426.0
1696 481.0
1697 462.0
1698 473.0
1699 496.0
1700 431.0
1701 492.0
1702 453.0
1703 464.0
1704 430.0
1705 455.0
1706 484.0
1707 450.0
1708 500.0
1709 461.0
1710 467.0
1711 440.0
1712 497.0
1713 500.0
1714 472.0
1715 485.0
1716 428.0
1717 492.0
1718 496.0
1719 448.0
1720 428.0
1721 478.0
1722 478.0
1723 502.0
1724 430.0
1725 464.0
1726 465.0
1727 497.0
1728 483.0
1729 479.0
1730 488.0
1731 482.0
1732 458.0
1733 451.0
1734 443.0
1735 480.0
1736 479.0
1737 475.0
1738 487.0
1739 487.0
1740 506.0
1741 499.0
1742 483.0
1743 461.0
1744 481.0
1745 473.0
1746 459.0
1747 505.0
1748 512.0
1749 484.0
1750 476.0
1751 505.0
1752 510.0
1753 502.0
1754 506.0
1755 472.0
1756 494.0
1757 489.0
1758 491.0
1759 479.0
1760 472.0
1761 503.0
1762 518.0
1763 511.0
1764 467.0
1765 496.0
1766 545.0
1767 473.0
1768 529.0
1769 519.0
1770 478.0
1771 544.0
1772 442.0
1773 522.0
1774 505.0
1775 489.0
1776 508.0
1777 449.0
1778 487.0
1779 488.0
1780 456.0
1781 470.0
1782 462.0
1783 467.0
1784 482.0
1785 508.0
1786 507.0
1787 481.0
1788 481.0
1789 481.0
1790 482.0
1791 465.0
1792 476.0
1793 502.0
1794 478.0
1795 487.0
1796 510.0
1797 472.0
1798 481.0
1799 455.0
1800 477.0
1801 471.0
1802 478.0
1803 442.0
1804 461.0
1805 452.0
1806 455.0
1807 485.0
1808 443.0
1809 468.0
1810 430.0
1811 513.0
1812 492.0
1813 483.0
1814 462.0
1815 463.0
1816 460.0
1817 452.0
1818 439.0
1819 465.0
1820 489.0
1821 482.0
1822 474.0
1823 449.0
1824 458.0
1825 428.0
1826 461.0
1827 481.0
1828 462.0
1829 483.0
1830 456.0
1831 456.0
1832 480.0
1833 453.0
1834 439.0
1835 490.0
1836 440.0
1837 472.0
1838 476.0
1839 461.0
1840 515.0
1841 482.0
1842 458.0
1843 466.0
1844 444.0
1845 451.0
1846 471.0
1847 489.0
1848 443.0
1849 508.0
1850 477.0
1851 489.0
1852 490.0
1853 461.0
1854 460.0
1855 498.0
1856 500.0
1857 481.0
1858 494.0
1859 456.0
1860 517.0
1861 506.0
1862 460.0
1863 497.0
1864 480.0
1865 486.0
1866 481.0
1867 498.0
1868 514.0
1869 522.0
1870 523.0
1871 484.0
1872 515.0
1873 473.0
1874 477.0
1875 451.0
1876 514.0
1877 507.0
1878 450.0
1879 486.0
1880 499.0
1881 491.0
1882 507.0
1883 503.0
1884 495.0
1885 479.0
1886 501.0
1887 481.0
1888 467.0
1889 453.0
1890 495.0
1891 504.0
1892 486.0
1893 477.0
1894 494.0
1895 501.0
1896 494.0
1897 471.0
1898 500.0
1899 481.0
1900 466.0
1901 483.0
1902 475.0
1903 446.0
1904 502.0
1905 487.0
1906 491.0
1907 499.0
1908 493.0
1909 501.0
1910 467.0
1911 499.0
1912 509.0
1913 524.0
1914 476.0
1915 493.0
1916 493.0
1917 460.0
1918 452.0
1919 510.0
1920 498.0
1921 484.0
1922 490.0
1923 492.0
1924 465.0
1925 431.0
1926 482.0
1927 487.0
1928 474.0
1929 494.0
1930 489.0
1931 485.0
1932 527.0
1933 469.0
1934 515.0
1935 488.0
1936 480.0
1937 499.0
1938 518.0
1939 483.0
1940 482.0
1941 492.0
1942 477.0
1943 491.0
1944 511.0
1945 513.0
1946 494.0
1947 486.0
1948 485.0
1949 457.0
1950 494.0
1951 499.0
1952 477.0
1953 516.0
1954 498.0
1955 535.0
1956 521.0
1957 512.0
1958 502.0
1959 471.0
1960 513.0
1961 524.0
1962 510.0
1963 485.0
1964 497.0
1965 526.0
1966 448.0
1967 447.0
1968 526.0
1969 486.0
1970 491.0
1971 488.0
1972 479.0
1973 509.0
1974 491.0
1975 521.0
1976 490.0
1977 501.0
1978 530.0
1979 525.0
1980 518.0
1981 505.0
1982 518.0
1983 517.0
1984 470.0
1985 495.0
1986 510.0
1987 515.0
1988 550.0
1989 501.0
1990 507.0
1991 525.0
1992 499.0
1993 569.0
1994 526.0
1995 481.0
1996 512.0
1997 521.0
1998 524.0
1999 509.0
2000 516.0
2001 524.0
2002 532.0
2003 496.0
2004 512.0
2005 536.0
2006 492.0
2007 514.0
2008 492.0
2009 506.0
2010 542.0
2011 544.0
2012 487.0
2013 508.0
2014 513.0
2015 517.0
2016 496.0
2017 517.0
2018 570.0
2019 540.0
2020 522.0
2021 510.0
2022 502.0
2023 535.0
2024 522.0
2025 539.0
2026 527.0
2027 499.0
2028 515.0
2029 529.0
2030 535.0
2031 513.0
2032 495.0
2033 519.0
2034 522.0
2035 529.0
2036 514.0
2037 525.0
2038 555.0
2039 511.0
2040 568.0
2041 579.0
2042 520.0
2043 527.0
2044 493.0
2045 530.0
2046 515.0
2047 538.0
