0 466.0
1 507.0
2 478.0
3 479.0
4 484.0
5 499.0
6 451.0
7 499.0
8 467.0
9 512.0
10 473.0
11 493.0
12 493.0
13 475.0
14 496.0
15 468.0
16 496.0
17 502.0
18 491.0
19 526.0
20 484.0
21 508.0
22 465.0
23 467.0
24 449.0
25 490.0
26 512.0
27 494.0
28 451.0
29 492.0
30 471.0
31 540.0
32 445.0
33 469.0
34 514.0
35 457.0
36 466.0
37 490.0
38 480.0
39 477.0
40 448.0
41 485.0
42 517.0
43 484.0
44 480.0
45 492.0
46 458.0
47 460.0
48 456.0
49 472.0
50 486.0
51 495.0
52 474.0
53 472.0
54 442.0
55 477.0
56 469.0
57 471.0
58 456.0
59 475.0
60 486.0
61 456.0
62 461.0
63 442.0
64 411.0
65 471.0
66 434.0
67 458.0
68 457.0
69 471.0
70 443.0
71 441.0
72 433.0
73 436.0
74 413.0
75 417.0
76 454.0
77 440.0
78 486.0
79 454.0
80 422.0
81 421.0
82 438.0
83 403.0
84 453.0
85 427.0
86 464.0
87 477.0
88 451.0
89 414.0
90 433.0
91 450.0
92 430.0
93 487.0
94 445.0
95 424.0
96 419.0
97 435.0
98 405.0
99 430.0
100 432.0
101 411.0
102 477.0
103 444.0
104 471.0
105 466.0
106 431.0
107 450.0
108 384.0
109 451.0
110 423.0
111 437.0
112 423.0
113 474.0
114 415.0
115 437.0
116 436.0
117 417.0
118 463.0
119 437.0
120 466.0
121 462.0
122 432.0
123 429.0
124 436.0
125 435.0
126 431.0
127 460.0
128 424.0
129 442.0
130 449.0
131 471.0
132 490.0
133 438.0
134 451.0
135 446.0
136 421.0
137 461.0
138 457.0
139 441.0
140 429.0
141 438.0
142 440.0
143 458.0
144 466.0
145 448.0
146 441.0
147 476.0
148 449.0
149 431.0
150 436.0
151 474.0
152 486.0
153 448.0
154 475.0
155 476.0
156 447.0
157 503.0
158 444.0
159 457.0
160 444.0
161 415.0
162 431.0
163 452.0
164 470.0
165 464.0
166 443.0
167 455.0
168 460.0
169 433.0
170 486.0
171 469.0
172 455.0
173 420.0
174 426.0
175 459.0
176 458.0
177 473.0
178 476.0
179 419.0
180 435.0
181 417.0
182 412.0
183 396.0
184 465.0
185 435.0
186 394.0
187 448.0
188 408.0
189 458.0
190 463.0
191 449.0
192 442.0
193 454.0
194 409.0
195 461.0
196 448.0
197 427.0
198 405.0
199 464.0
200 456.0
201 454.0
202 429.0
203 426.0
204 436.0
205 440.0
206 427.0
207 428.0
208 461.0
209 430.0
210 412.0
211 407.0
212 460.0
213 474.0
214 435.0
215 430.0
216 483.0
217 456.0
218 429.0
219 429.0
220 467.0
221 471.0
222 376.0
223 464.0
224 422.0
225 449.0
226 433.0
227 446.0
228 442.0
229 427.0
230 482.0
231 482.0
232 443.0
233 425.0
234 453.0
235 409.0
236 427.0
237 421.0
238 454.0
239 408.0
240 444.0
241 453.0
242 444.0
243 429.0
244 434.0
245 444.0
246 474.0
247 462.0
248 454.0
249 451.0
250 468.0
251 481.0
252 451.0
253 471.0
254 427.0
255 460.0
256 492.0
257 429.0
258 445.0
259 435.0
260 396.0
261 432.0
262 426.0
263 480.0
264 467.0
265 462.0
266 428.0
267 403.0
268 448.0
269 435.0
270 457.0
271 458.0
272 445.0
273 444.0
274 463.0
275 472.0
276 425.0
277 472.0
278 448.0
279 445.0
280 414.0
281 492.0
282 434.0
283 462.0
284 398.0
285 467.0
286 436.0
287 451.0
288 439.0
289 479.0
290 441.0
291 424.0
292 425.0
293 457.0
294 457.0
295 422.0
296 434.0
297 410.0
298 426.0
299 412.0
300 423.0
301 475.0
302 441.0
303 431.0
304 436.0
305 435.0
306 433.0
307 446.0
308 429.0
309 482.0
310 451.0
311 448.0
312 457.0
313 452.0
314 445.0
315 431.0
316 406.0
317 480.0
318 464.0
319 428.0
320 411.0
321 469.0
322 446.0
323 446.0
324 454.0
325 435.0
326 428.0
327 457.0
328 453.0
329 493.0
330 437.0
331 452.0
332 466.0
333 470.0
334 432.0
335 468.0
336 466.0
337 469.0
338 473.0
339 466.0
340 444.0
341 489.0
342 468.0
343 442.0
344 437.0
345 482.0
346 472.0
347 434.0
348 461.0
349 452.0
350 457.0
351 486.0
352 439.0
353 438.0
354 448.0
355 456.0
356 419.0
357 421.0
358 451.0
359 450.0
360 438.0
361 399.0
362 462.0
363 419.0
364 417.0
365 429.0
366 427.0
367 457.0
368 465.0
369 412.0
370 428.0
371 455.0
372 428.0
373 420.0
374 456.0
375 436.0
376 469.0
377 448.0
378 446.0
379 454.0
380 424.0
381 442.0
382 476.0
383 439.0
384 443.0
385 438.0
386 449.0
387 464.0
388 451.0
389 435.0
390 463.0
391 472.0
392 458.0
393 413.0
394 479.0
395 439.0
396 428.0
397 431.0
398 458.0
399 459.0
400 457.0
401 432.0
402 471.0
403 419.0
404 465.0
405 396.0
406 402.0
407 469.0
408 481.0
409 448.0
410 386.0
411 457.0
412 480.0
413 456.0
414 434.0
415 445.0
416 436.0
417 430.0
418 458.0
419 451.0
420 482.0
421 456.0
422 433.0
423 449.0
424 463.0
425 429.0
426 458.0
427 444.0
428 450.0
429 491.0
430 430.0
431 429.0
432 500.0
433 463.0
434 459.0
435 433.0
436 460.0
437 454.0
438 471.0
439 483.0
440 452.0
441 464.0
442 451.0
443 473.0
444 493.0
445 444.0
446 456.0
447 511.0
448 436.0
449 472.0
450 420.0
451 454.0
452 437.0
453 464.0
454 464.0
455 434.0
456 401.0
457 470.0
458 464.0
459 490.0
460 473.0
461 480.0
462 453.0
463 456.0
464 471.0
465 486.0
466 466.0
467 480.0
468 494.0
469 453.0
470 467.0
471 443.0
472 488.0
473 481.0
474 446.0
475 479.0
476 501.0
477 464.0
478 430.0
479 457.0
480 449.0
481 460.0
482 432.0
483 455.0
484 456.0
485 442.0
486 436.0
487 456.0
488 409.0
489 464.0
490 463.0
491 476.0
492 472.0
493 446.0
494 458.0
495 413.0
496 498.0
497 424.0
498 487.0
499 469.0
500 390.0
501 439.0
502 434.0
503 425.0
504 438.0
505 461.0
506 443.0
507 485.0
508 464.0
509 431.0
510 440.0
511 467.0
512 400.0
513 430.0
514 455.0
515 458.0
516 453.0
517 458.0
518 439.0
519 429.0
520 421.0
521 452.0
522 425.0
523 415.0
524 428.0
525 448.0
526 414.0
527 424.0
528 429.0
529 408.0
530 474.0
531 431.0
532 438.0
533 428.0
534 428.0
535 441.0
536 451.0
537 521.0
538 428.0
539 450.0
540 430.0
541 443.0
542 396.0
543 472.0
544 411.0
545 481.0
546 431.0
547 486.0
548 470.0
549 435.0
550 458.0
551 413.0
552 445.0
553 477.0
554 461.0
555 449.0
556 424.0
557 472.0
558 428.0
559 422.0
560 510.0
561 454.0
562 476.0
563 488.0
564 437.0
565 473.0
566 419.0
567 422.0
568 432.0
569 410.0
570 448.0
571 539.0
572 423.0
573 472.0
574 425.0
575 508.0
576 455.0
577 447.0
578 458.0
579 434.0
580 426.0
581 461.0
582 425.0
583 437.0
584 453.0
585 445.0
586 444.0
587 446.0
588 452.0
589 424.0
590 418.0
591 466.0
592 481.0
593 452.0
594 462.0
595 467.0
596 461.0
597 440.0
598 468.0
599 441.0
600 469.0
601 458.0
602 430.0
603 468.0
604 472.0
605 452.0
606 439.0
607 439.0
608 462.0
609 448.0
610 458.0
611 475.0
612 435.0
613 477.0
614 458.0
615 473.0
616 483.0
617 493.0
618 470.0
619 461.0
620 468.0
621 487.0
622 466.0
623 457.0
624 500.0
625 482.0
626 509.0
627 453.0
628 456.0
629 460.0
630 449.0
631 448.0
632 454.0
633 446.0
634 436.0
635 444.0
636 450.0
637 461.0
638 481.0
639 452.0
640 444.0
641 465.0
642 478.0
643 466.0
644 472.0
645 466.0
646 468.0
647 479.0
648 455.0
649 454.0
650 485.0
651 478.0
652 479.0
653 499.0
654 469.0
655 440.0
656 499.0
657 473.0
658 451.0
659 462.0
660 494.0
661 477.0
662 490.0
663 487.0
664 501.0
665 437.0
666 430.0
667 459.0
668 437.0
669 488.0
670 466.0
671 485.0
672 437.0
673 462.0
674 486.0
675 453.0
676 476.0
677 424.0
678 483.0
679 467.0
680 448.0
681 478.0
682 456.0
683 437.0
684 483.0
685 466.0
686 471.0
687 420.0
688 462.0
689 445.0
690 447.0
691 445.0
692 454.0
693 483.0
694 446.0
695 467.0
696 488.0
697 491.0
698 485.0
699 449.0
700 457.0
701 500.0
702 515.0
703 486.0
704 416.0
705 430.0
706 446.0
707 469.0
708 481.0
709 436.0
710 431.0
711 477.0
712 444.0
713 460.0
714 480.0
715 471.0
716 508.0
717 454.0
718 440.0
719 430.0
720 469.0
721 470.0
722 497.0
723 474.0
724 481.0
725 452.0
726 439.0
727 514.0
728 479.0
729 458.0
730 456.0
731 461.0
732 465.0
733 467.0
734 471.0
735 500.0
736 454.0
737 472.0
738 471.0
739 485.0
740 460.0
741 433.0
742 472.0
743 485.0
744 432.0
745 468.0
746 448.0
747 478.0
748 462.0
749 448.0
750 452.0
751 434.0
752 497.0
753 481.0
754 460.0
755 468.0
756 477.0
757 450.0
758 474.0
759 476.0
760 468.0
761 464.0
762 459.0
763 465.0
764 462.0
765 430.0
766 466.0
767 459.0
768 438.0
769 473.0
770 501.0
771 507.0
772 509.0
773 451.0
774 518.0
775 446.0
776 501.0
777 510.0
778 459.0
779 505.0
780 497.0
781 514.0
782 485.0
783 497.0
784 456.0
785 458.0
786 461.0
787 498.0
788 472.0
789 454.0
790 447.0
791 456.0
792 501.0
793 526.0
794 523.0
795 493.0
796 470.0
797 472.0
798 497.0
799 475.0
800 458.0
801 455.0
802 460.0
803 450.0
804 507.0
805 491.0
806 481.0
807 484.0
808 415.0
809 437.0
810 421.0
811 472.0
812 462.0
813 475.0
814 440.0
815 486.0
816 448.0
817 475.0
818 455.0
819 488.0
820 459.0
821 454.0
822 441.0
823 445.0
824 456.0
825 451.0
826 447.0
827 492.0
828 456.0
829 448.0
830 467.0
831 475.0
832 506.0
833 484.0
834 480.0
835 465.0
836 467.0
837 475.0
838 500.0
839 468.0
840 454.0
841 467.0
842 463.0
843 506.0
844 434.0
845 481.0
846 469.0
847 477.0
848 485.0
849 479.0
850 436.0
851 468.0
852 464.0
853 472.0
854 465.0
855 488.0
856 460.0
857 472.0
858 460.0
859 444.0
860 474.0
861 464.0
862 466.0
863 480.0
864 440.0
865 459.0
866 438.0
867 457.0
868 408.0
869 436.0
870 471.0
871 497.0
872 450.0
873 466.0
874 420.0
875 459.0
876 486.0
877 451.0
878 427.0
879 442.0
880 483.0
881 463.0
882 409.0
883 459.0
884 485.0
885 461.0
886 431.0
887 454.0
888 493.0
889 518.0
890 464.0
891 453.0
892 437.0
893 450.0
894 485.0
895 410.0
896 434.0
897 518.0
898 487.0
899 504.0
900 447.0
901 483.0
902 475.0
903 451.0
904 504.0
905 467.0
906 525.0
907 455.0
908 487.0
909 476.0
910 491.0
911 454.0
912 477.0
913 503.0
914 496.0
915 493.0
916 435.0
917 472.0
918 471.0
919 488.0
920 462.0
921 465.0
922 482.0
923 479.0
924 424.0
925 487.0
926 456.0
927 471.0
928 445.0
929 488.0
930 471.0
931 410.0
932 467.0
933 494.0
934 498.0
935 471.0
936 465.0
937 479.0
938 475.0
939 459.0
940 485.0
941 464.0
942 441.0
943 489.0
944 521.0
945 462.0
946 446.0
947 482.0
948 420.0
949 480.0
950 413.0
951 511.0
952 467.0
953 484.0
954 436.0
955 482.0
956 427.0
957 495.0
958 492.0
959 498.0
960 499.0
961 493.0
962 477.0
963 500.0
964 493.0
965 487.0
966 466.0
967 480.0
968 496.0
969 484.0
970 493.0
971 497.0
972 508.0
973 476.0
974 452.0
975 498.0
976 472.0
977 474.0
978 492.0
979 456.0
980 509.0
981 486.0
982 455.0
983 498.0
984 444.0
985 500.0
986 475.0
987 485.0
988 489.0
989 486.0
990 476.0
991 473.0
992 530.0
993 494.0
994 491.0
995 502.0
996 498.0
997 497.0
998 511.0
999 477.0
1000 441.0
1001 519.0
1002 508.0
1003 505.0
1004 460.0
1005 448.0
1006 501.0
1007 492.0
1008 506.0
1009 462.0
1010 486.0
1011 486.0
1012 530.0
1013 475.0
1014 451.0
1015 461.0
1016 497.0
1017 515.0
1018 479.0
1019 505.0
1020 482.0
1021 468.0
1022 491.0
1023 491.0
1024 494.0
1025 471.0
1026 484.0
1027 483.0
1028 483.0
1029 503.0
1030 441.0
1031 476.0
1032 525.0
1033 499.0
1034 495.0
1035 482.0
1036 470.0
1037 508.0
1038 425.0
1039 487.0
1040 485.0
1041 483.0
1042 506.0
1043 508.0
1044 469.0
1045 494.0
1046 501.0
1047 483.0
1048 476.0
1049 462.0
1050 503.0
1051 488.0
1052 477.0
1053 508.0
1054 497.0
1055 509.0
1056 500.0
1057 496.0
1058 478.0
1059 488.0
1060 500.0
1061 506.0
1062 478.0
1063 501.0
1064 466.0
1065 486.0
1066 453.0
1067 523.0
1068 490.0
1069 473.0
1070 465.0
1071 536.0
1072 539.0
1073 519.0
1074 500.0
1075 536.0
1076 518.0
1077 495.0
1078 471.0
1079 534.0
1080 536.0
1081 487.0
1082 503.0
1083 519.0
1084 517.0
1085 538.0
1086 495.0
1087 463.0
1088 495.0
1089 542.0
1090 507.0
1091 547.0
1092 517.0
1093 529.0
1094 481.0
1095 509.0
1096 531.0
1097 544.0
1098 494.0
1099 512.0
1100 548.0
1101 487.0
1102 496.0
1103 511.0
1104 530.0
1105 552.0
1106 505.0
1107 522.0
1108 495.0
1109 521.0
1110 518.0
1111 562.0
1112 503.0
1113 507.0
1114 492.0
1115 529.0
1116 497.0
1117 555.0
1118 517.0
1119 530.0
1120 492.0
1121 520.0
1122 511.0
1123 506.0
1124 499.0
1125 508.0
1126 466.0
1127 507.0
1128 521.0
1129 503.0
1130 528.0
1131 511.0
1132 527.0
1133 490.0
1134 505.0
1135 510.0
1136 545.0
1137 521.0
1138 489.0
1139 496.0
1140 503.0
1141 496.0
1142 500.0
1143 474.0
1144 502.0
1145 537.0
1146 504.0
1147 512.0
1148 467.0
1149 527.0
1150 494.0
1151 506.0
1152 532.0
1153 509.0
1154 487.0
1155 493.0
1156 545.0
1157 526.0
1158 508.0
1159 531.0
1160 512.0
1161 502.0
1162 513.0
1163 506.0
1164 515.0
1165 534.0
1166 521.0
1167 486.0
1168 481.0
1169 529.0
1170 513.0
1171 488.0
1172 521.0
1173 470.0
1174 508.0
1175 528.0
1176 526.0
1177 550.0
1178 487.0
1179 494.0
1180 502.0
1181 509.0
1182 533.0
1183 493.0
1184 537.0
1185 517.0
1186 462.0
1187 528.0
1188 528.0
1189 502.0
1190 452.0
1191 555.0
1192 484.0
1193 522.0
1194 467.0
1195 520.0
1196 515.0
1197 490.0
1198 527.0
1199 485.0
1200 556.0
1201 495.0
1202 527.0
1203 549.0
1204 528.0
1205 480.0
1206 491.0
1207 539.0
1208 496.0
1209 514.0
1210 506.0
1211 503.0
1212 535.0
1213 500.0
1214 453.0
1215 529.0
1216 555.0
1217 535.0
1218 518.0
1219 542.0
1220 496.0
1221 509.0
1222 529.0
1223 551.0
1224 545.0
1225 534.0
1226 536.0
1227 512.0
1228 529.0
1229 588.0
1230 515.0
1231 498.0
1232 550.0
1233 520.0
1234 538.0
1235 565.0
1236 525.0
1237 545.0
1238 532.0
1239 537.0
1240 508.0
1241 494.0
1242 508.0
1243 540.0
1244 524.0
1245 500.0
1246 495.0
1247 496.0
1248 532.0
1249 510.0
1250 512.0
1251 507.0
1252 508.0
1253 512.0
1254 529.0
1255 548.0
1256 543.0
1257 532.0
1258 518.0
1259 488.0
1260 534.0
1261 527.0
1262 542.0
1263 509.0
1264 510.0
1265 507.0
1266 509.0
1267 499.0
1268 500.0
1269 507.0
1270 515.0
1271 482.0
1272 507.0
1273 512.0
1274 501.0
1275 491.0
1276 477.0
1277 507.0
1278 528.0
1279 502.0
1280 465.0
1281 512.0
1282 497.0
1283 474.0
1284 481.0
1285 492.0
1286 494.0
1287 542.0
1288 499.0
1289 510.0
1290 508.0
1291 521.0
1292 531.0
1293 537.0
1294 535.0
1295 520.0
1296 524.0
1297 483.0
1298 514.0
1299 513.0
1300 524.0
1301 468.0
1302 493.0
1303 519.0
1304 516.0
1305 524.0
1306 530.0
1307 506.0
1308 527.0
1309 528.0
1310 544.0
1311 523.0
1312 521.0
1313 497.0
1314 558.0
1315 494.0
1316 517.0
1317 528.0
1318 522.0
1319 527.0
1320 505.0
1321 506.0
1322 504.0
1323 517.0
1324 519.0
1325 508.0
1326 507.0
1327 502.0
1328 522.0
1329 505.0
1330 504.0
1331 485.0
1332 485.0
1333 523.0
1334 502.0
1335 530.0
1336 522.0
1337 480.0
1338 499.0
1339 485.0
1340 519.0
1341 509.0
1342 486.0
1343 503.0
1344 516.0
1345 523.0
1346 510.0
1347 487.0
1348 477.0
1349 490.0
1350 537.0
1351 469.0
1352 485.0
1353 480.0
1354 475.0
1355 500.0
1356 532.0
1357 488.0
1358 522.0
1359 501.0
1360 522.0
1361 492.0
1362 528.0
1363 489.0
1364 504.0
1365 515.0
1366 506.0
1367 470.0
1368 498.0
1369 504.0
1370 509.0
1371 523.0
1372 521.0
1373 507.0
1374 476.0
1375 510.0
1376 513.0
1377 498.0
1378 475.0
1379 524.0
1380 517.0
1381 502.0
1382 517.0
1383 521.0
1384 510.0
1385 528.0
1386 523.0
1387 512.0
1388 504.0
1389 497.0
1390 494.0
1391 537.0
1392 544.0
1393 542.0
1394 542.0
1395 549.0
1396 568.0
1397 552.0
1398 577.0
1399 517.0
1400 514.0
1401 542.0
1402 552.0
1403 554.0
1404 526.0
1405 555.0
1406 511.0
1407 562.0
1408 489.0
1409 545.0
1410 539.0
1411 537.0
1412 529.0
1413 526.0
1414 534.0
1415 531.0
1416 548.0
1417 542.0
1418 573.0
1419 549.0
1420 523.0
1421 526.0
1422 533.0
1423 560.0
1424 586.0
1425 531.0
1426 559.0
1427 544.0
1428 574.0
1429 571.0
1430 565.0
1431 541.0
1432 514.0
1433 547.0
1434 527.0
1435 554.0
1436 520.0
1437 517.0
1438 545.0
1439 519.0
1440 541.0
1441 514.0
1442 554.0
1443 588.0
1444 555.0
1445 516.0
1446 519.0
1447 493.0
1448 528.0
1449 497.0
1450 530.0
1451 523.0
1452 498.0
1453 512.0
1454 550.0
1455 529.0
1456 529.0
1457 531.0
1458 524.0
1459 549.0
1460 520.0
1461 512.0
1462 523.0
1463 532.0
1464 542.0
1465 506.0
1466 546.0
1467 541.0
1468 500.0
1469 525.0
1470 527.0
1471 541.0
1472 488.0
1473 540.0
1474 508.0
1475 561.0
1476 526.0
1477 528.0
1478 542.0
1479 534.0
1480 530.0
1481 511.0
1482 524.0
1483 519.0
1484 513.0
1485 519.0
1486 449.0
1487 502.0
1488 505.0
1489 548.0
1490 485.0
1491 512.0
1492 501.0
1493 530.0
1494 554.0
1495 556.0
1496 530.0
1497 498.0
1498 521.0
1499 491.0
1500 548.0
1501 555.0
1502 529.0
1503 498.0
1504 485.0
1505 518.0
1506 501.0
1507 532.0
1508 513.0
1509 500.0
1510 541.0
1511 514.0
1512 552.0
1513 522.0
1514 534.0
1515 512.0
1516 513.0
1517 530.0
1518 523.0
1519 499.0
1520 542.0
1521 534.0
1522 489.0
1523 513.0
1524 521.0
1525 557.0
1526 521.0
1527 516.0
1528 512.0
1529 534.0
1530 520.0
1531 526.0
1532 542.0
1533 544.0
1534 559.0
1535 536.0
1536 507.0
1537 527.0
1538 528.0
1539 527.0
1540 576.0
1541 509.0
1542 519.0
1543 538.0
1544 573.0
1545 536.0
1546 524.0
1547 527.0
1548 511.0
1549 526.0
1550 530.0
1551 516.0
1552 559.0
1553 541.0
1554 531.0
1555 523.0
1556 542.0
1557 541.0
1558 532.0
1559 503.0
1560 543.0
1561 555.0
1562 508.0
1563 526.0
1564 535.0
1565 537.0
1566 539.0
1567 520.0
1568 525.0
1569 537.0
1570 512.0
1571 533.0
1572 542.0
1573 540.0
1574 522.0
1575 564.0
1576 504.0
1577 563.0
1578 516.0
1579 529.0
1580 540.0
1581 546.0
1582 529.0
1583 484.0
1584 548.0
1585 530.0
1586 523.0
1587 558.0
1588 486.0
1589 512.0
1590 579.0
1591 561.0
1592 555.0
1593 531.0
1594 552.0
1595 515.0
1596 544.0
1597 565.0
1598 527.0
1599 510.0
1600 535.0
1601 550.0
1602 504.0
1603 549.0
1604 539.0
1605 511.0
1606 569.0
1607 536.0
1608 516.0
1609 509.0
1610 535.0
1611 572.0
1612 546.0
1613 504.0
1614 556.0
1615 507.0
1616 506.0
1617 563.0
1618 544.0
1619 566.0
1620 543.0
1621 581.0
1622 517.0
1623 522.0
1624 553.0
1625 517.0
1626 498.0
1627 564.0
1628 527.0
1629 584.0
1630 504.0
1631 531.0
1632 508.0
1633 499.0
1634 504.0
1635 464.0
1636 511.0
1637 526.0
1638 505.0
1639 528.0
1640 492.0
1641 495.0
1642 491.0
1643 494.0
1644 520.0
1645 522.0
1646 507.0
1647 495.0
1648 523.0
1649 494.0
1650 493.0
1651 537.0
1652 535.0
1653 555.0
1654 519.0
1655 540.0
1656 468.0
1657 503.0
1658 523.0
1659 477.0
1660 526.0
1661 544.0
1662 513.0
1663 493.0
1664 540.0
1665 493.0
1666 516.0
1667 514.0
1668 518.0
1669 540.0
1670 518.0
1671 566.0
1672 489.0
1673 509.0
1674 554.0
1675 557.0
1676 533.0
1677 516.0
1678 536.0
1679 499.0
1680 548.0
1681 538.0
1682 514.0
1683 548.0
1684 527.0
1685 460.0
1686 547.0
1687 515.0
1688 562.0
1689 545.0
1690 540.0
1691 519.0
1692 539.0
1693 539.0
1694 546.0
1695 512.0
1696 515.0
1697 523.0
1698 515.0
1699 573.0
1700 530.0
1701 533.0
1702 559.0
1703 533.0
1704 534.0
1705 519.0
1706 522.0
1707 517.0
1708 540.0
1709 535.0
1710 533.0
1711 525.0
1712 564.0
1713 486.0
1714 493.0
1715 548.0
1716 546.0
1717 532.0
1718 579.0
1719 518.0
1720 532.0
1721 525.0
1722 558.0
1723 557.0
1724 553.0
1725 568.0
1726 524.0
1727 567.0
1728 568.0
1729 540.0
1730 556.0
1731 518.0
1732 531.0
1733 550.0
1734 588.0
1735 556.0
1736 535.0
1737 567.0
1738 539.0
1739 538.0
1740 564.0
1741 571.0
1742 547.0
1743 561.0
1744 551.0
1745 534.0
1746 571.0
1747 561.0
1748 538.0
1749 525.0
1750 531.0
1751 571.0
1752 520.0
1753 541.0
1754 580.0
1755 553.0
1756 517.0
1757 544.0
1758 542.0
1759 572.0
1760 536.0
1761 542.0
1762 568.0
1763 559.0
1764 558.0
1765 538.0
1766 583.0
1767 558.0
1768 585.0
1769 561.0
1770 575.0
1771 517.0
1772 545.0
1773 542.0
1774 546.0
1775 525.0
1776 552.0
1777 586.0
1778 559.0
1779 511.0
1780 556.0
1781 542.0
1782 483.0
1783 515.0
1784 559.0
1785 564.0
1786 507.0
1787 565.0
1788 535.0
1789 551.0
1790 544.0
1791 557.0
1792 562.0
1793 535.0
1794 551.0
1795 530.0
1796 544.0
1797 531.0
1798 537.0
1799 559.0
1800 509.0
1801 540.0
1802 541.0
1803 534.0
1804 555.0
1805 524.0
1806 558.0
1807 540.0
1808 515.0
1809 521.0
1810 528.0
1811 519.0
1812 538.0
1813 529.0
1814 530.0
1815 536.0
1816 513.0
1817 583.0
1818 500.0
1819 559.0
1820 528.0
1821 548.0
1822 545.0
1823 538.0
1824 525.0
1825 540.0
1826 548.0
1827 514.0
1828 523.0
1829 508.0
1830 552.0
1831 544.0
1832 551.0
1833 551.0
1834 512.0
1835 546.0
1836 526.0
1837 549.0
1838 531.0
1839 550.0
1840 555.0
1841 557.0
1842 544.0
1843 527.0
1844 509.0
1845 565.0
1846 574.0
1847 534.0
1848 549.0
1849 548.0
1850 564.0
1851 535.0
1852 553.0
1853 556.0
1854 552.0
1855 528.0
1856 535.0
1857 550.0
1858 530.0
1859 470.0
1860 542.0
1861 555.0
1862 509.0
1863 545.0
1864 569.0
1865 535.0
1866 551.0
1867 506.0
1868 550.0
1869 544.0
1870 543.0
1871 513.0
1872 545.0
1873 541.0
1874 506.0
1875 515.0
1876 544.0
1877 542.0
1878 536.0
1879 549.0
1880 533.0
1881 550.0
1882 527.0
1883 538.0
1884 528.0
1885 584.0
1886 545.0
1887 533.0
1888 545.0
1889 516.0
1890 570.0
1891 496.0
1892 526.0
1893 576.0
1894 526.0
1895 525.0
1896 540.0
1897 529.0
1898 546.0
1899 535.0
1900 484.0
1901 558.0
1902 552.0
1903 505.0
1904 537.0
1905 524.0
1906 545.0
1907 496.0
1908 532.0
1909 542.0
1910 498.0
1911 538.0
1912 552.0
1913 578.0
1914 537.0
1915 509.0
1916 549.0
1917 524.0
1918 495.0
1919 564.0
1920 540.0
1921 540.0
1922 554.0
1923 547.0
1924 556.0
1925 534.0
1926 576.0
1927 567.0
1928 535.0
1929 546.0
1930 503.0
1931 536.0
1932 537.0
1933 569.0
1934 521.0
1935 543.0
1936 556.0
1937 566.0
1938 556.0
1939 550.0
1940 533.0
1941 546.0
1942 539.0
1943 564.0
1944 553.0
1945 540.0
1946 543.0
1947 555.0
1948 524.0
1949 532.0
1950 550.0
1951 541.0
1952 571.0
1953 540.0
1954 576.0
1955 557.0
1956 530.0
1957 517.0
1958 502.0
1959 552.0
1960 540.0
1961 529.0
1962 560.0
1963 573.0
1964 598.0
1965 566.0
1966 540.0
1967 536.0
1968 572.0
1969 545.0
1970 543.0
1971 548.0
1972 506.0
1973 530.0
1974 548.0
1975 541.0
1976 534.0
1977 581.0
1978 521.0
1979 498.0
1980 548.0
1981 577.0
1982 554.0
1983 576.0
1984 587.0
1985 550.0
1986 568.0
1987 597.0
1988 562.0
1989 545.0
1990 529.0
1991 558.0
1992 548.0
1993 519.0
1994 564.0
1995 550.0
1996 555.0
1997 552.0
1998 547.0
1999 574.0
2000 563.0
2001 575.0
2002 554.0
2003 571.0
2004 535.0
2005 563.0
2006 577.0
2007 523.0
2008 599.0
2009 601.0
2010 567.0
2011 526.0
2012 535.0
2013 563.0
2014 606.0
2015 577.0
2016 537.0
2017 541.0
2018 595.0
2019 575.0
2020 598.0
2021 578.0
2022 608.0
2023 587.0
2024 599.0
2025 607.0
2026 571.0
2027 594.0
2028 617.0
2029 591.0
2030 611.0
2031 623.0
2032 615.0
2033 610.0
2034 569.0
2035 591.0
2036 607.0
2037 593.0
2038 625.0
2039 588.0
2040 605.0
2041 581.0
2042 612.0
2043 582.0
2044 624.0
2045 558.0
2046 614.0
2047 580.0
