0 380.0
1 428.0
2 443.0
3 445.0
4 419.0
5 434.0
6 424.0
7 435.0
8 434.0
9 405.0
10 421.0
11 366.0
12 413.0
13 417.0
14 428.0
15 394.0
16 463.0
17 434.0
18 446.0
19 466.0
20 377.0
21 405.0
22 401.0
23 441.0
24 391.0
25 418.0
26 400.0
27 406.0
28 374.0
29 415.0
30 423.0
31 430.0
32 409.0
33 395.0
34 423.0
35 435.0
36 401.0
37 424.0
38 421.0
39 413.0
40 415.0
41 438.0
42 400.0
43 428.0
44 464.0
45 395.0
46 425.0
47 376.0
48 454.0
49 414.0
50 419.0
51 432.0
52 410.0
53 435.0
54 413.0
55 403.0
56 394.0
57 421.0
58 397.0
59 380.0
60 441.0
61 407.0
62 424.0
63 424.0
64 414.0
65 424.0
66 445.0
67 416.0
68 386.0
69 451.0
70 382.0
71 456.0
72 408.0
73 449.0
74 415.0
75 423.0
76 406.0
77 422.0
78 418.0
79 403.0
80 425.0
81 429.0
82 415.0
83 413.0
84 403.0
85 414.0
86 382.0
87 427.0
88 402.0
89 437.0
90 433.0
91 413.0
92 397.0
93 409.0
94 388.0
95 408.0
96 416.0
97 412.0
98 380.0
99 422.0
100 394.0
101 414.0
102 400.0
103 384.0
104 407.0
105 407.0
106 409.0
107 370.0
108 384.0
109 395.0
110 415.0
111 428.0
112 445.0
113 408.0
114 367.0
115 411.0
116 366.0
117 414.0
118 394.0
119 383.0
120 387.0
121 409.0
122 389.0
123 385.0
124 393.0
125 425.0
126 418.0
127 372.0
128 422.0
129 382.0
130 344.0
131 417.0
132 430.0
133 447.0
134 429.0
135 388.0
136 428.0
137 437.0
138 453.0
139 406.0
140 406.0
141 394.0
142 410.0
143 432.0
144 429.0
145 441.0
146 391.0
147 431.0
148 432.0
149 454.0
150 412.0
151 415.0
152 403.0
153 412.0
154 383.0
155 384.0
156 443.0
157 381.0
158 400.0
159 427.0
160 418.0
161 437.0
162 424.0
163 420.0
164 395.0
165 417.0
166 392.0
167 408.0
168 408.0
169 437.0
170 390.0
171 438.0
172 408.0
173 428.0
174 390.0
175 399.0
176 423.0
177 424.0
178 416.0
179 397.0
180 419.0
181 459.0
182 416.0
183 418.0
184 420.0
185 433.0
186 405.0
187 418.0
188 423.0
189 416.0
190 398.0
191 414.0
192 401.0
193 425.0
194 462.0
195 433.0
196 431.0
197 436.0
198 420.0
199 413.0
200 404.0
201 397.0
202 408.0
203 424.0
204 430.0
205 446.0
206 408.0
207 410.0
208 408.0
209 449.0
210 425.0
211 406.0
212 395.0
213 430.0
214 422.0
215 384.0
216 391.0
217 387.0
218 417.0
219 417.0
220 402.0
221 421.0
222 411.0
223 450.0
224 390.0
225 399.0
226 432.0
227 445.0
228 395.0
229 387.0
230 369.0
231 418.0
232 364.0
233 385.0
234 397.0
235 396.0
236 395.0
237 404.0
238 426.0
239 362.0
240 426.0
241 445.0
242 418.0
243 411.0
244 405.0
245 427.0
246 420.0
247 439.0
248 393.0
249 392.0
250 399.0
251 404.0
252 375.0
253 434.0
254 392.0
255 415.0
256 412.0
257 395.0
258 401.0
259 354.0
260 417.0
261 394.0
262 433.0
263 400.0
264 387.0
265 442.0
266 403.0
267 434.0
268 412.0
269 425.0
270 377.0
271 443.0
272 403.0
273 414.0
274 400.0
275 414.0
276 375.0
277 407.0
278 393.0
279 412.0
280 437.0
281 433.0
282 393.0
283 456.0
284 428.0
285 422.0
286 438.0
287 432.0
288 392.0
289 414.0
290 357.0
291 373.0
292 384.0
293 396.0
294 417.0
295 376.0
296 380.0
297 386.0
298 402.0
299 376.0
300 408.0
301 416.0
302 357.0
303 403.0
304 402.0
305 422.0
306 394.0
307 364.0
308 373.0
309 407.0
310 337.0
311 399.0
312 386.0
313 402.0
314 353.0
315 398.0
316 423.0
317 407.0
318 367.0
319 396.0
320 401.0
321 403.0
322 381.0
323 377.0
324 374.0
325 404.0
326 393.0
327 400.0
328 402.0
329 393.0
330 376.0
331 398.0
332 410.0
333 405.0
334 386.0
335 408.0
336 357.0
337 395.0
338 394.0
339 397.0
340 370.0
341 392.0
342 405.0
343 375.0
344 406.0
345 427.0
346 354.0
347 426.0
348 383.0
349 409.0
350 365.0
351 375.0
352 399.0
353 407.0
354 388.0
355 394.0
356 355.0
357 401.0
358 391.0
359 366.0
360 397.0
361 363.0
362 374.0
363 401.0
364 355.0
365 426.0
366 381.0
367 401.0
368 398.0
369 387.0
370 403.0
371 428.0
372 376.0
373 383.0
374 389.0
375 397.0
376 384.0
377 390.0
378 395.0
379 398.0
380 438.0
381 362.0
382 403.0
383 415.0
384 415.0
385 391.0
386 383.0
387 415.0
388 387.0
389 341.0
390 387.0
391 401.0
392 393.0
393 373.0
394 408.0
395 415.0
396 386.0
397 386.0
398 376.0
399 400.0
400 409.0
401 401.0
402 403.0
403 398.0
404 426.0
405 398.0
406 382.0
407 431.0
408 391.0
409 419.0
410 399.0
411 409.0
412 375.0
413 369.0
414 407.0
415 381.0
416 382.0
417 425.0
418 360.0
419 381.0
420 380.0
421 409.0
422 368.0
423 406.0
424 368.0
425 408.0
426 392.0
427 422.0
428 391.0
429 422.0
430 398.0
431 378.0
432 419.0
433 405.0
434 387.0
435 385.0
436 389.0
437 425.0
438 360.0
439 381.0
440 366.0
441 380.0
442 390.0
443 470.0
444 414.0
445 397.0
446 390.0
447 435.0
448 385.0
449 381.0
450 396.0
451 417.0
452 399.0
453 426.0
454 378.0
455 408.0
456 414.0
457 441.0
458 375.0
459 401.0
460 394.0
461 403.0
462 424.0
463 399.0
464 424.0
465 403.0
466 385.0
467 408.0
468 403.0
469 418.0
470 395.0
471 420.0
472 424.0
473 427.0
474 413.0
475 413.0
476 384.0
477 416.0
478 427.0
479 404.0
480 408.0
481 416.0
482 384.0
483 403.0
484 398.0
485 438.0
486 404.0
487 384.0
488 437.0
489 399.0
490 379.0
491 400.0
492 404.0
493 404.0
494 389.0
495 395.0
496 410.0
497 434.0
498 396.0
499 414.0
500 377.0
501 391.0
502 423.0
503 392.0
504 387.0
505 412.0
506 405.0
507 393.0
508 396.0
509 389.0
510 444.0
511 384.0
512 380.0
513 386.0
514 408.0
515 392.0
516 370.0
517 404.0
518 389.0
519 412.0
520 392.0
521 399.0
522 432.0
523 408.0
524 394.0
525 410.0
526 447.0
527 396.0
528 430.0
529 433.0
530 399.0
531 395.0
532 398.0
533 379.0
534 398.0
535 409.0
536 395.0
537 399.0
538 403.0
539 399.0
540 406.0
541 409.0
542 383.0
543 429.0
544 371.0
545 443.0
546 382.0
547 429.0
548 432.0
549 373.0
550 363.0
551 409.0
552 404.0
553 418.0
554 408.0
555 391.0
556 374.0
557 424.0
558 391.0
559 346.0
560 393.0
561 427.0
562 382.0
563 389.0
564 351.0
565 408.0
566 441.0
567 347.0
568 384.0
569 421.0
570 328.0
571 404.0
572 421.0
573 366.0
574 402.0
575 418.0
576 362.0
577 388.0
578 367.0
579 407.0
580 379.0
581 355.0
582 402.0
583 435.0
584 367.0
585 411.0
586 399.0
587 373.0
588 363.0
589 403.0
590 383.0
591 379.0
592 416.0
593 355.0
594 399.0
595 341.0
596 393.0
597 436.0
598 379.0
599 417.0
600 414.0
601 378.0
602 396.0
603 383.0
604 414.0
605 427.0
606 407.0
607 418.0
608 399.0
609 421.0
610 383.0
611 431.0
612 417.0
613 427.0
614 388.0
615 407.0
616 391.0
617 414.0
618 413.0
619 412.0
620 405.0
621 431.0
622 405.0
623 402.0
624 442.0
625 402.0
626 407.0
627 420.0
628 375.0
629 435.0
630 407.0
631 461.0
632 418.0
633 395.0
634 431.0
635 415.0
636 380.0
637 417.0
638 399.0
639 425.0
640 405.0
641 412.0
642 380.0
643 433.0
644 378.0
645 444.0
646 430.0
647 440.0
648 398.0
649 445.0
650 426.0
651 419.0
652 420.0
653 393.0
654 398.0
655 395.0
656 413.0
657 410.0
658 416.0
659 417.0
660 415.0
661 374.0
662 379.0
663 440.0
664 414.0
665 419.0
666 445.0
667 367.0
668 424.0
669 401.0
670 413.0
671 416.0
672 361.0
673 394.0
674 410.0
675 424.0
676 430.0
677 396.0
678 423.0
679 395.0
680 392.0
681 427.0
682 410.0
683 385.0
684 385.0
685 428.0
686 407.0
687 447.0
688 426.0
689 450.0
690 392.0
691 371.0
692 409.0
693 435.0
694 367.0
695 428.0
696 421.0
697 482.0
698 395.0
699 409.0
700 428.0
701 374.0
702 387.0
703 375.0
704 406.0
705 406.0
706 377.0
707 413.0
708 361.0
709 373.0
710 385.0
711 430.0
712 380.0
713 426.0
714 412.0
715 396.0
716 387.0
717 350.0
718 389.0
719 426.0
720 416.0
721 435.0
722 425.0
723 354.0
724 405.0
725 408.0
726 387.0
727 366.0
728 373.0
729 416.0
730 384.0
731 371.0
732 403.0
733 436.0
734 402.0
735 452.0
736 381.0
737 411.0
738 402.0
739 401.0
740 398.0
741 398.0
742 413.0
743 425.0
744 408.0
745 409.0
746 369.0
747 398.0
748 434.0
749 432.0
750 398.0
751 388.0
752 417.0
753 421.0
754 416.0
755 411.0
756 390.0
757 416.0
758 402.0
759 398.0
760 441.0
761 395.0
762 414.0
763 407.0
764 459.0
765 444.0
766 413.0
767 419.0
768 411.0
769 385.0
770 400.0
771 394.0
772 403.0
773 433.0
774 398.0
775 392.0
776 431.0
777 441.0
778 452.0
779 415.0
780 374.0
781 423.0
782 418.0
783 430.0
784 411.0
785 393.0
786 427.0
787 421.0
788 401.0
789 375.0
790 404.0
791 447.0
792 468.0
793 406.0
794 417.0
795 418.0
796 431.0
797 412.0
798 425.0
799 416.0
800 375.0
801 407.0
802 348.0
803 396.0
804 414.0
805 435.0
806 387.0
807 424.0
808 390.0
809 425.0
810 407.0
811 407.0
812 390.0
813 413.0
814 428.0
815 373.0
816 393.0
817 429.0
818 406.0
819 394.0
820 408.0
821 396.0
822 432.0
823 385.0
824 391.0
825 408.0
826 422.0
827 432.0
828 404.0
829 429.0
830 390.0
831 397.0
832 364.0
833 410.0
834 400.0
835 389.0
836 416.0
837 400.0
838 395.0
839 430.0
840 404.0
841 392.0
842 422.0
843 421.0
844 441.0
845 410.0
846 368.0
847 391.0
848 388.0
849 420.0
850 399.0
851 408.0
852 413.0
853 426.0
854 398.0
855 407.0
856 398.0
857 402.0
858 397.0
859 395.0
860 401.0
861 389.0
862 379.0
863 384.0
864 415.0
865 402.0
866 382.0
867 423.0
868 374.0
869 425.0
870 409.0
871 355.0
872 407.0
873 407.0
874 390.0
875 402.0
876 421.0
877 405.0
878 431.0
879 363.0
880 389.0
881 418.0
882 444.0
883 419.0
884 383.0
885 390.0
886 441.0
887 398.0
888 401.0
889 379.0
890 371.0
891 396.0
892 389.0
893 382.0
894 373.0
895 417.0
896 398.0
897 358.0
898 377.0
899 404.0
900 386.0
901 425.0
902 391.0
903 414.0
904 336.0
905 417.0
906 394.0
907 413.0
908 389.0
909 426.0
910 372.0
911 397.0
912 418.0
913 450.0
914 377.0
915 434.0
916 386.0
917 411.0
918 411.0
919 412.0
920 399.0
921 413.0
922 403.0
923 379.0
924 392.0
925 443.0
926 422.0
927 389.0
928 383.0
929 410.0
930 411.0
931 367.0
932 422.0
933 447.0
934 423.0
935 421.0
936 371.0
937 407.0
938 375.0
939 393.0
940 390.0
941 389.0
942 431.0
943 413.0
944 400.0
945 407.0
946 390.0
947 383.0
948 418.0
949 430.0
950 427.0
951 399.0
952 425.0
953 419.0
954 423.0
955 411.0
956 395.0
957 404.0
958 395.0
959 411.0
960 425.0
961 441.0
962 386.0
963 425.0
964 437.0
965 444.0
966 442.0
967 387.0
968 424.0
969 404.0
970 426.0
971 419.0
972 419.0
973 418.0
974 428.0
975 395.0
976 431.0
977 425.0
978 423.0
979 400.0
980 371.0
981 423.0
982 422.0
983 421.0
984 398.0
985 407.0
986 423.0
987 405.0
988 452.0
989 361.0
990 403.0
991 421.0
992 414.0
993 444.0
994 396.0
995 383.0
996 404.0
997 423.0
998 398.0
999 450.0
1000 439.0
1001 448.0
1002 413.0
1003 447.0
1004 405.0
1005 425.0
1006 402.0
1007 394.0
1008 433.0
1009 440.0
1010 424.0
1011 473.0
1012 405.0
1013 378.0
1014 416.0
1015 448.0
1016 390.0
1017 426.0
1018 427.0
1019 412.0
1020 434.0
1021 425.0
1022 415.0
1023 397.0
1024 428.0
1025 419.0
1026 434.0
1027 435.0
1028 426.0
1029 416.0
1030 403.0
1031 389.0
1032 409.0
1033 427.0
1034 406.0
1035 425.0
1036 442.0
1037 430.0
1038 447.0
1039 413.0
1040 464.0
1041 421.0
1042 447.0
1043 397.0
1044 408.0
1045 432.0
1046 430.0
1047 435.0
1048 400.0
1049 416.0
1050 434.0
1051 405.0
1052 427.0
1053 456.0
1054 426.0
1055 443.0
1056 408.0
1057 431.0
1058 402.0
1059 435.0
1060 409.0
1061 420.0
1062 437.0
1063 445.0
1064 429.0
1065 434.0
1066 434.0
1067 392.0
1068 388.0
1069 412.0
1070 403.0
1071 429.0
1072 442.0
1073 438.0
1074 400.0
1075 441.0
1076 432.0
1077 427.0
1078 423.0
1079 434.0
1080 442.0
1081 440.0
1082 413.0
1083 437.0
1084 417.0
1085 443.0
1086 422.0
1087 432.0
1088 428.0
1089 434.0
1090 409.0
1091 413.0
1092 428.0
1093 446.0
1094 405.0
1095 422.0
1096 450.0
1097 436.0
1098 461.0
1099 472.0
1100 425.0
1101 417.0
1102 438.0
1103 440.0
1104 456.0
1105 464.0
1106 454.0
1107 465.0
1108 404.0
1109 418.0
1110 424.0
1111 431.0
1112 446.0
1113 430.0
1114 413.0
1115 432.0
1116 435.0
1117 437.0
1118 427.0
1119 418.0
1120 420.0
1121 421.0
1122 430.0
1123 403.0
1124 421.0
1125 422.0
1126 454.0
1127 433.0
1128 445.0
1129 418.0
1130 455.0
1131 439.0
1132 410.0
1133 420.0
1134 387.0
1135 405.0
1136 457.0
1137 421.0
1138 438.0
1139 455.0
1140 412.0
1141 422.0
1142 478.0
1143 425.0
1144 427.0
1145 452.0
1146 427.0
1147 451.0
1148 422.0
1149 427.0
1150 412.0
1151 431.0
1152 413.0
1153 393.0
1154 463.0
1155 408.0
1156 447.0
1157 468.0
1158 374.0
1159 421.0
1160 404.0
1161 409.0
1162 426.0
1163 423.0
1164 394.0
1165 446.0
1166 402.0
1167 421.0
1168 473.0
1169 427.0
1170 425.0
1171 427.0
1172 384.0
1173 450.0
1174 421.0
1175 462.0
1176 431.0
1177 422.0
1178 433.0
1179 408.0
1180 397.0
1181 413.0
1182 411.0
1183 428.0
1184 428.0
1185 416.0
1186 476.0
1187 415.0
1188 370.0
1189 416.0
1190 372.0
1191 402.0
1192 415.0
1193 397.0
1194 432.0
1195 436.0
1196 429.0
1197 445.0
1198 502.0
1199 416.0
1200 408.0
1201 404.0
1202 424.0
1203 407.0
1204 360.0
1205 406.0
1206 442.0
1207 436.0
1208 403.0
1209 388.0
1210 409.0
1211 387.0
1212 428.0
1213 447.0
1214 436.0
1215 434.0
1216 405.0
1217 420.0
1218 415.0
1219 414.0
1220 429.0
1221 434.0
1222 418.0
1223 405.0
1224 443.0
1225 444.0
1226 443.0
1227 421.0
1228 414.0
1229 439.0
1230 382.0
1231 425.0
1232 418.0
1233 431.0
1234 419.0
1235 413.0
1236 424.0
1237 433.0
1238 437.0
1239 439.0
1240 414.0
1241 448.0
1242 410.0
1243 466.0
1244 419.0
1245 415.0
1246 470.0
1247 437.0
1248 437.0
1249 433.0
1250 409.0
1251 443.0
1252 420.0
1253 436.0
1254 398.0
1255 430.0
1256 449.0
1257 424.0
1258 420.0
1259 425.0
1260 415.0
1261 436.0
1262 428.0
1263 434.0
1264 442.0
1265 407.0
1266 440.0
1267 434.0
1268 419.0
1269 425.0
1270 409.0
1271 420.0
1272 423.0
1273 473.0
1274 430.0
1275 466.0
1276 426.0
1277 425.0
1278 462.0
1279 481.0
1280 421.0
1281 439.0
1282 416.0
1283 395.0
1284 414.0
1285 406.0
1286 457.0
1287 452.0
1288 425.0
1289 435.0
1290 391.0
1291 438.0
1292 440.0
1293 464.0
1294 441.0
1295 447.0
1296 473.0
1297 406.0
1298 440.0
1299 496.0
1300 463.0
1301 460.0
1302 443.0
1303 446.0
1304 450.0
1305 425.0
1306 450.0
1307 413.0
1308 453.0
1309 453.0
1310 444.0
1311 461.0
1312 436.0
1313 488.0
1314 484.0
1315 436.0
1316 460.0
1317 416.0
1318 458.0
1319 484.0
1320 472.0
1321 426.0
1322 486.0
1323 443.0
1324 452.0
1325 430.0
1326 437.0
1327 453.0
1328 451.0
1329 432.0
1330 443.0
1331 444.0
1332 470.0
1333 467.0
1334 462.0
1335 431.0
1336 446.0
1337 459.0
1338 387.0
1339 427.0
1340 429.0
1341 443.0
1342 415.0
1343 463.0
1344 409.0
1345 476.0
1346 425.0
1347 455.0
1348 413.0
1349 470.0
1350 418.0
1351 430.0
1352 473.0
1353 436.0
1354 465.0
1355 439.0
1356 401.0
1357 434.0
1358 374.0
1359 450.0
1360 439.0
1361 454.0
1362 453.0
1363 463.0
1364 431.0
1365 425.0
1366 405.0
1367 424.0
1368 453.0
1369 417.0
1370 446.0
1371 448.0
1372 458.0
1373 396.0
1374 440.0
1375 413.0
1376 440.0
1377 437.0
1378 494.0
1379 432.0
1380 450.0
1381 400.0
1382 426.0
1383 423.0
1384 444.0
1385 419.0
1386 438.0
1387 443.0
1388 421.0
1389 428.0
1390 407.0
1391 427.0
1392 425.0
1393 430.0
1394 480.0
1395 413.0
1396 455.0
1397 464.0
1398 427.0
1399 430.0
1400 448.0
1401 439.0
1402 468.0
1403 441.0
1404 441.0
1405 422.0
1406 459.0
1407 470.0
1408 466.0
1409 488.0
1410 517.0
1411 437.0
1412 455.0
1413 433.0
1414 482.0
1415 458.0
1416 464.0
1417 495.0
1418 466.0
1419 431.0
1420 449.0
1421 470.0
1422 475.0
1423 447.0
1424 449.0
1425 454.0
1426 461.0
1427 481.0
1428 481.0
1429 456.0
1430 467.0
1431 452.0
1432 448.0
1433 480.0
1434 484.0
1435 455.0
1436 460.0
1437 446.0
1438 490.0
1439 478.0
1440 463.0
1441 476.0
1442 461.0
1443 479.0
1444 447.0
1445 429.0
1446 488.0
1447 430.0
1448 485.0
1449 479.0
1450 452.0
1451 398.0
1452 421.0
1453 450.0
1454 455.0
1455 452.0
1456 435.0
1457 408.0
1458 487.0
1459 437.0
1460 430.0
1461 441.0
1462 446.0
1463 421.0
1464 436.0
1465 447.0
1466 452.0
1467 431.0
1468 448.0
1469 478.0
1470 435.0
1471 472.0
1472 425.0
1473 436.0
1474 441.0
1475 465.0
1476 462.0
1477 462.0
1478 446.0
1479 436.0
1480 464.0
1481 401.0
1482 437.0
1483 433.0
1484 416.0
1485 460.0
1486 454.0
1487 446.0
1488 446.0
1489 464.0
1490 428.0
1491 465.0
1492 427.0
1493 423.0
1494 416.0
1495 456.0
1496 418.0
1497 419.0
1498 433.0
1499 452.0
1500 440.0
1501 437.0
1502 497.0
1503 412.0
1504 438.0
1505 454.0
1506 510.0
1507 462.0
1508 456.0
1509 449.0
1510 489.0
1511 469.0
1512 433.0
1513 472.0
1514 444.0
1515 476.0
1516 466.0
1517 420.0
1518 450.0
1519 476.0
1520 462.0
1521 465.0
1522 428.0
1523 423.0
1524 426.0
1525 431.0
1526 416.0
1527 476.0
1528 445.0
1529 443.0
1530 405.0
1531 464.0
1532 444.0
1533 470.0
1534 407.0
1535 454.0
1536 426.0
1537 454.0
1538 481.0
1539 447.0
1540 461.0
1541 457.0
1542 497.0
1543 484.0
1544 427.0
1545 462.0
1546 488.0
1547 480.0
1548 472.0
1549 445.0
1550 429.0
1551 424.0
1552 462.0
1553 466.0
1554 460.0
1555 468.0
1556 420.0
1557 449.0
1558 487.0
1559 494.0
1560 416.0
1561 450.0
1562 444.0
1563 451.0
1564 445.0
1565 438.0
1566 469.0
1567 472.0
1568 475.0
1569 448.0
1570 457.0
1571 458.0
1572 462.0
1573 439.0
1574 452.0
1575 456.0
1576 479.0
1577 469.0
1578 457.0
1579 486.0
1580 464.0
1581 433.0
1582 454.0
1583 446.0
1584 449.0
1585 472.0
1586 468.0
1587 465.0
1588 453.0
1589 458.0
1590 442.0
1591 458.0
1592 502.0
1593 462.0
1594 461.0
1595 417.0
1596 465.0
1597 485.0
1598 467.0
1599 462.0
1600 474.0
1601 438.0
1602 466.0
1603 471.0
1604 483.0
1605 493.0
1606 471.0
1607 477.0
1608 445.0
1609 499.0
1610 470.0
1611 485.0
1612 512.0
1613 444.0
1614 491.0
1615 451.0
1616 492.0
1617 452.0
1618 472.0
1619 459.0
1620 469.0
1621 496.0
1622 436.0
1623 478.0
1624 443.0
1625 478.0
1626 486.0
1627 464.0
1628 443.0
1629 489.0
1630 503.0
1631 475.0
1632 456.0
1633 459.0
1634 480.0
1635 473.0
1636 489.0
1637 500.0
1638 471.0
1639 480.0
1640 436.0
1641 428.0
1642 438.0
1643 455.0
1644 484.0
1645 460.0
1646 476.0
1647 449.0
1648 511.0
1649 472.0
1650 454.0
1651 480.0
1652 472.0
1653 495.0
1654 510.0
1655 459.0
1656 472.0
1657 454.0
1658 477.0
1659 459.0
1660 485.0
1661 474.0
1662 491.0
1663 524.0
1664 473.0
1665 476.0
1666 479.0
1667 481.0
1668 480.0
1669 446.0
1670 532.0
1671 471.0
1672 436.0
1673 488.0
1674 471.0
1675 462.0
1676 485.0
1677 444.0
1678 464.0
1679 463.0
1680 481.0
1681 480.0
1682 480.0
1683 436.0
1684 463.0
1685 482.0
1686 436.0
1687 444.0
1688 488.0
1689 499.0
1690 419.0
1691 450.0
1692 462.0
1693 452.0
1694 441.0
1695 463.0
1696 467.0
1697 457.0
1698 486.0
1699 484.0
1700 449.0
1701 501.0
1702 430.0
1703 419.0
1704 476.0
1705 490.0
1706 456.0
1707 441.0
1708 459.0
1709 460.0
1710 485.0
1711 432.0
1712 480.0
1713 457.0
1714 478.0
1715 500.0
1716 440.0
1717 494.0
1718 480.0
1719 435.0
1720 454.0
1721 440.0
1722 451.0
1723 476.0
1724 441.0
1725 457.0
1726 466.0
1727 467.0
1728 472.0
1729 498.0
1730 474.0
1731 467.0
1732 475.0
1733 436.0
1734 431.0
1735 467.0
1736 501.0
1737 487.0
1738 494.0
1739 463.0
1740 495.0
1741 472.0
1742 487.0
1743 475.0
1744 443.0
1745 461.0
1746 458.0
1747 485.0
1748 473.0
1749 477.0
1750 482.0
1751 475.0
1752 514.0
1753 516.0
1754 458.0
1755 453.0
1756 491.0
1757 483.0
1758 522.0
1759 459.0
1760 482.0
1761 481.0
1762 499.0
1763 493.0
1764 503.0
1765 487.0
1766 492.0
1767 477.0
1768 498.0
1769 489.0
1770 483.0
1771 516.0
1772 504.0
1773 517.0
1774 488.0
1775 473.0
1776 506.0
1777 456.0
1778 460.0
1779 458.0
1780 436.0
1781 487.0
1782 430.0
1783 476.0
1784 459.0
1785 480.0
1786 509.0
1787 471.0
1788 506.0
1789 489.0
1790 482.0
1791 454.0
1792 529.0
1793 469.0
1794 490.0
1795 453.0
1796 483.0
1797 494.0
1798 500.0
1799 479.0
1800 442.0
1801 483.0
1802 443.0
1803 484.0
1804 455.0
1805 475.0
1806 479.0
1807 461.0
1808 466.0
1809 439.0
1810 465.0
1811 495.0
1812 458.0
1813 439.0
1814 431.0
1815 472.0
1816 447.0
1817 427.0
1818 461.0
1819 447.0
1820 466.0
1821 459.0
1822 479.0
1823 452.0
1824 447.0
1825 417.0
1826 487.0
1827 439.0
1828 452.0
1829 461.0
1830 466.0
1831 455.0
1832 439.0
1833 474.0
1834 430.0
1835 449.0
1836 439.0
1837 513.0
1838 475.0
1839 463.0
1840 506.0
1841 471.0
1842 470.0
1843 469.0
1844 431.0
1845 465.0
1846 507.0
1847 473.0
1848 468.0
1849 487.0
1850 466.0
1851 489.0
1852 494.0
1853 464.0
1854 437.0
1855 495.0
1856 482.0
1857 461.0
1858 482.0
1859 472.0
1860 497.0
1861 491.0
1862 448.0
1863 467.0
1864 478.0
1865 488.0
1866 503.0
1867 508.0
1868 485.0
1869 473.0
1870 502.0
1871 451.0
1872 492.0
1873 466.0
1874 466.0
1875 461.0
1876 495.0
1877 490.0
1878 441.0
1879 499.0
1880 494.0
1881 477.0
1882 459.0
1883 474.0
1884 531.0
1885 485.0
1886 514.0
1887 479.0
1888 451.0
1889 509.0
1890 498.0
1891 481.0
1892 465.0
1893 457.0
1894 486.0
1895 467.0
1896 454.0
1897 482.0
1898 466.0
1899 487.0
1900 471.0
1901 487.0
1902 467.0
1903 447.0
1904 491.0
1905 495.0
1906 481.0
1907 489.0
1908 479.0
1909 467.0
1910 437.0
1911 488.0
1912 466.0
1913 485.0
1914 459.0
1915 500.0
1916 476.0
1917 489.0
1918 488.0
1919 459.0
1920 490.0
1921 490.0
1922 434.0
1923 454.0
1924 491.0
1925 455.0
1926 487.0
1927 475.0
1928 473.0
1929 485.0
1930 467.0
1931 477.0
1932 463.0
1933 488.0
1934 466.0
1935 459.0
1936 492.0
1937 469.0
1938 478.0
1939 469.0
1940 495.0
1941 504.0
1942 460.0
1943 485.0
1944 482.0
1945 499.0
1946 482.0
1947 466.0
1948 506.0
1949 487.0
1950 461.0
1951 465.0
1952 487.0
1953 495.0
1954 489.0
1955 524.0
1956 528.0
1957 503.0
1958 491.0
1959 476.0
1960 514.0
1961 542.0
1962 509.0
1963 513.0
1964 510.0
1965 513.0
1966 469.0
1967 472.0
1968 536.0
1969 495.0
1970 470.0
1971 506.0
1972 452.0
1973 520.0
1974 499.0
1975 509.0
1976 507.0
1977 500.0
1978 516.0
1979 457.0
1980 512.0
1981 507.0
1982 506.0
1983 510.0
1984 502.0
1985 520.0
1986 503.0
1987 523.0
1988 523.0
1989 537.0
1990 518.0
1991 557.0
1992 513.0
1993 549.0
1994 524.0
1995 529.0
1996 526.0
1997 522.0
1998 556.0
1999 484.0
2000 518.0
2001 485.0
2002 475.0
2003 512.0
2004 488.0
2005 513.0
2006 514.0
2007 529.0
2008 534.0
2009 514.0
2010 540.0
2011 533.0
2012 486.0
2013 505.0
2014 531.0
2015 536.0
2016 502.0
2017 527.0
2018 552.0
2019 537.0
2020 530.0
2021 545.0
2022 487.0
2023 522.0
2024 504.0
2025 561.0
2026 542.0
2027 509.0
2028 561.0
2029 538.0
2030 504.0
2031 515.0
2032 526.0
2033 508.0
2034 491.0
2035 514.0
2036 509.0
2037 501.0
2038 540.0
2039 527.0
2040 535.0
2041 568.0
2042 546.0
2043 490.0
2044 517.0
2045 535.0
2046 526.0
2047 545.0
