0 376.0
1 430.0
2 391.0
3 451.0
4 361.0
5 412.0
6 363.0
7 425.0
8 375.0
9 420.0
10 406.0
11 387.0
12 440.0
13 425.0
14 378.0
15 385.0
16 371.0
17 362.0
18 358.0
19 397.0
20 380.0
21 377.0
22 357.0
23 403.0
24 406.0
25 404.0
26 396.0
27 372.0
28 367.0
29 423.0
30 388.0
31 368.0
32 384.0
33 379.0
34 351.0
35 364.0
36 366.0
37 358.0
38 349.0
39 379.0
40 376.0
41 373.0
42 381.0
43 412.0
44 335.0
45 392.0
46 360.0
47 386.0
48 416.0
49 389.0
50 372.0
51 308.0
52 411.0
53 380.0
54 384.0
55 384.0
56 356.0
57 391.0
58 386.0
59 370.0
60 378.0
61 338.0
62 377.0
63 375.0
64 357.0
65 367.0
66 357.0
67 358.0
68 351.0
69 370.0
70 327.0
71 382.0
72 333.0
73 383.0
74 345.0
75 375.0
76 335.0
77 356.0
78 303.0
79 304.0
80 385.0
81 305.0
82 330.0
83 339.0
84 336.0
85 342.0
86 340.0
87 397.0
88 325.0
89 312.0
90 351.0
91 380.0
92 354.0
93 342.0
94 328.0
95 367.0
96 300.0
97 333.0
98 323.0
99 342.0
100 327.0
101 356.0
102 342.0
103 317.0
104 317.0
105 341.0
106 374.0
107 335.0
108 332.0
109 354.0
110 320.0
111 347.0
112 341.0
113 330.0
114 293.0
115 358.0
116 331.0
117 330.0
118 309.0
119 354.0
120 355.0
121 341.0
122 353.0
123 320.0
124 351.0
125 357.0
126 354.0
127 316.0
128 312.0
129 309.0
130 330.0
131 335.0
132 360.0
133 356.0
134 364.0
135 333.0
136 349.0
137 384.0
138 318.0
139 336.0
140 328.0
141 346.0
142 314.0
143 331.0
144 332.0
145 344.0
146 329.0
147 307.0
148 321.0
149 356.0
150 326.0
151 360.0
152 337.0
153 352.0
154 318.0
155 341.0
156 328.0
157 362.0
158 342.0
159 367.0
160 324.0
161 310.0
162 299.0
163 351.0
164 345.0
165 368.0
166 313.0
167 357.0
168 333.0
169 344.0
170 322.0
171 350.0
172 286.0
173 354.0
174 370.0
175 313.0
176 337.0
177 343.0
178 363.0
179 387.0
180 308.0
181 344.0
182 341.0
183 339.0
184 343.0
185 364.0
186 340.0
187 324.0
188 321.0
189 323.0
190 338.0
191 334.0
192 348.0
193 340.0
194 309.0
195 363.0
196 323.0
197 348.0
198 320.0
199 350.0
200 341.0
201 321.0
202 308.0
203 356.0
204 353.0
205 308.0
206 328.0
207 318.0
208 340.0
209 344.0
210 338.0
211 312.0
212 341.0
213 344.0
214 336.0
215 349.0
216 348.0
217 360.0
218 364.0
219 294.0
220 316.0
221 338.0
222 298.0
223 362.0
224 349.0
225 330.0
226 323.0
227 367.0
228 367.0
229 360.0
230 363.0
231 359.0
232 307.0
233 339.0
234 314.0
235 305.0
236 359.0
237 359.0
238 331.0
239 299.0
240 362.0
241 349.0
242 363.0
243 337.0
244 367.0
245 361.0
246 340.0
247 331.0
248 362.0
249 393.0
250 318.0
251 372.0
252 335.0
253 339.0
254 344.0
255 363.0
256 354.0
257 333.0
258 339.0
259 350.0
260 341.0
261 343.0
262 318.0
263 389.0
264 299.0
265 388.0
266 353.0
267 317.0
268 354.0
269 379.0
270 368.0
271 342.0
272 410.0
273 353.0
274 365.0
275 342.0
276 347.0
277 395.0
278 342.0
279 378.0
280 343.0
281 339.0
282 335.0
283 339.0
284 335.0
285 343.0
286 299.0
287 377.0
288 299.0
289 373.0
290 333.0
291 341.0
292 362.0
293 363.0
294 406.0
295 354.0
296 344.0
297 331.0
298 345.0
299 341.0
300 319.0
301 358.0
302 307.0
303 366.0
304 350.0
305 375.0
306 331.0
307 379.0
308 327.0
309 369.0
310 351.0
311 329.0
312 359.0
313 333.0
314 360.0
315 349.0
316 360.0
317 335.0
318 360.0
319 386.0
320 344.0
321 354.0
322 359.0
323 360.0
324 361.0
325 342.0
326 307.0
327 379.0
328 318.0
329 378.0
330 319.0
331 317.0
332 351.0
333 353.0
334 373.0
335 397.0
336 354.0
337 349.0
338 370.0
339 352.0
340 350.0
341 349.0
342 380.0
343 405.0
344 338.0
345 347.0
346 340.0
347 382.0
348 356.0
349 373.0
350 343.0
351 442.0
352 339.0
353 376.0
354 374.0
355 377.0
356 351.0
357 365.0
358 364.0
359 343.0
360 372.0
361 361.0
362 388.0
363 340.0
364 375.0
365 344.0
366 356.0
367 364.0
368 390.0
369 335.0
370 336.0
371 346.0
372 374.0
373 401.0
374 365.0
375 360.0
376 335.0
377 385.0
378 312.0
379 384.0
380 358.0
381 391.0
382 322.0
383 374.0
384 364.0
385 379.0
386 357.0
387 347.0
388 351.0
389 364.0
390 397.0
391 384.0
392 399.0
393 379.0
394 382.0
395 382.0
396 360.0
397 377.0
398 349.0
399 347.0
400 371.0
401 360.0
402 368.0
403 392.0
404 373.0
405 347.0
406 360.0
407 374.0
408 352.0
409 380.0
410 343.0
411 366.0
412 401.0
413 348.0
414 356.0
415 345.0
416 345.0
417 402.0
418 380.0
419 348.0
420 356.0
421 368.0
422 361.0
423 382.0
424 356.0
425 420.0
426 370.0
427 380.0
428 391.0
429 368.0
430 332.0
431 379.0
432 382.0
433 401.0
434 410.0
435 396.0
436 369.0
437 363.0
438 386.0
439 417.0
440 382.0
441 382.0
442 393.0
443 351.0
444 366.0
445 373.0
446 407.0
447 406.0
448 319.0
449 367.0
450 412.0
451 365.0
452 383.0
453 395.0
454 397.0
455 398.0
456 362.0
457 397.0
458 363.0
459 390.0
460 397.0
461 411.0
462 402.0
463 423.0
464 403.0
465 382.0
466 363.0
467 395.0
468 391.0
469 387.0
470 393.0
471 407.0
472 389.0
473 409.0
474 363.0
475 388.0
476 419.0
477 362.0
478 358.0
479 359.0
480 378.0
481 343.0
482 379.0
483 379.0
484 391.0
485 345.0
486 367.0
487 387.0
488 359.0
489 387.0
490 378.0
491 383.0
492 393.0
493 375.0
494 389.0
495 395.0
496 415.0
497 386.0
498 353.0
499 374.0
500 357.0
501 407.0
502 335.0
503 366.0
504 379.0
505 374.0
506 355.0
507 377.0
508 375.0
509 383.0
510 373.0
511 351.0
512 366.0
513 351.0
514 365.0
515 330.0
516 325.0
517 369.0
518 371.0
519 372.0
520 377.0
521 386.0
522 360.0
523 369.0
524 370.0
525 376.0
526 367.0
527 382.0
528 358.0
529 385.0
530 386.0
531 375.0
532 339.0
533 371.0
534 358.0
535 381.0
536 341.0
537 371.0
538 353.0
539 367.0
540 370.0
541 402.0
542 355.0
543 386.0
544 347.0
545 331.0
546 331.0
547 375.0
548 397.0
549 367.0
550 369.0
551 377.0
552 371.0
553 386.0
554 337.0
555 346.0
556 358.0
557 393.0
558 385.0
559 370.0
560 379.0
561 349.0
562 366.0
563 384.0
564 367.0
565 403.0
566 346.0
567 355.0
568 366.0
569 371.0
570 349.0
571 375.0
572 353.0
573 367.0
574 375.0
575 388.0
576 375.0
577 362.0
578 371.0
579 363.0
580 384.0
581 371.0
582 389.0
583 351.0
584 415.0
585 368.0
586 357.0
587 394.0
588 389.0
589 359.0
590 378.0
591 378.0
592 405.0
593 398.0
594 365.0
595 365.0
596 383.0
597 374.0
598 343.0
599 390.0
600 320.0
601 423.0
602 369.0
603 383.0
604 357.0
605 404.0
606 351.0
607 410.0
608 357.0
609 394.0
610 386.0
611 409.0
612 375.0
613 396.0
614 405.0
615 399.0
616 344.0
617 415.0
618 358.0
619 392.0
620 381.0
621 430.0
622 373.0
623 391.0
624 428.0
625 388.0
626 381.0
627 374.0
628 387.0
629 364.0
630 382.0
631 402.0
632 363.0
633 391.0
634 358.0
635 377.0
636 395.0
637 399.0
638 427.0
639 357.0
640 362.0
641 383.0
642 405.0
643 383.0
644 334.0
645 381.0
646 381.0
647 370.0
648 429.0
649 381.0
650 384.0
651 378.0
652 371.0
653 402.0
654 376.0
655 370.0
656 403.0
657 433.0
658 399.0
659 386.0
660 357.0
661 421.0
662 398.0
663 375.0
664 395.0
665 402.0
666 370.0
667 395.0
668 413.0
669 379.0
670 387.0
671 371.0
672 385.0
673 360.0
674 369.0
675 397.0
676 333.0
677 338.0
678 386.0
679 394.0
680 390.0
681 350.0
682 367.0
683 397.0
684 375.0
685 389.0
686 325.0
687 375.0
688 374.0
689 383.0
690 368.0
691 366.0
692 383.0
693 361.0
694 381.0
695 436.0
696 417.0
697 391.0
698 370.0
699 376.0
700 360.0
701 376.0
702 395.0
703 387.0
704 374.0
705 360.0
706 386.0
707 377.0
708 379.0
709 351.0
710 384.0
711 429.0
712 388.0
713 403.0
714 423.0
715 382.0
716 424.0
717 392.0
718 383.0
719 393.0
720 393.0
721 454.0
722 360.0
723 377.0
724 396.0
725 404.0
726 389.0
727 356.0
728 370.0
729 392.0
730 400.0
731 378.0
732 366.0
733 385.0
734 388.0
735 416.0
736 389.0
737 385.0
738 356.0
739 352.0
740 410.0
741 430.0
742 366.0
743 422.0
744 318.0
745 407.0
746 369.0
747 391.0
748 375.0
749 411.0
750 373.0
751 366.0
752 399.0
753 423.0
754 401.0
755 418.0
756 389.0
757 393.0
758 411.0
759 398.0
760 387.0
761 402.0
762 388.0
763 405.0
764 365.0
765 403.0
766 375.0
767 414.0
768 396.0
769 418.0
770 391.0
771 405.0
772 385.0
773 414.0
774 375.0
775 385.0
776 408.0
777 394.0
778 405.0
779 407.0
780 390.0
781 392.0
782 401.0
783 394.0
784 369.0
785 381.0
786 412.0
787 412.0
788 417.0
789 380.0
790 400.0
791 378.0
792 390.0
793 418.0
794 420.0
795 406.0
796 385.0
797 387.0
798 417.0
799 398.0
800 351.0
801 392.0
802 379.0
803 354.0
804 413.0
805 415.0
806 362.0
807 391.0
808 397.0
809 370.0
810 323.0
811 415.0
812 363.0
813 388.0
814 393.0
815 397.0
816 369.0
817 415.0
818 412.0
819 388.0
820 392.0
821 408.0
822 395.0
823 426.0
824 426.0
825 394.0
826 386.0
827 411.0
828 423.0
829 409.0
830 425.0
831 407.0
832 387.0
833 409.0
834 422.0
835 404.0
836 397.0
837 425.0
838 378.0
839 413.0
840 426.0
841 426.0
842 420.0
843 431.0
844 396.0
845 409.0
846 381.0
847 398.0
848 411.0
849 394.0
850 426.0
851 376.0
852 377.0
853 411.0
854 409.0
855 427.0
856 418.0
857 408.0
858 383.0
859 396.0
860 385.0
861 415.0
862 416.0
863 387.0
864 378.0
865 374.0
866 397.0
867 402.0
868 377.0
869 357.0
870 405.0
871 400.0
872 367.0
873 392.0
874 372.0
875 418.0
876 410.0
877 337.0
878 374.0
879 382.0
880 439.0
881 361.0
882 402.0
883 383.0
884 395.0
885 417.0
886 374.0
887 405.0
888 409.0
889 419.0
890 368.0
891 351.0
892 380.0
893 382.0
894 337.0
895 374.0
896 395.0
897 398.0
898 393.0
899 390.0
900 399.0
901 407.0
902 385.0
903 440.0
904 391.0
905 403.0
906 401.0
907 348.0
908 398.0
909 405.0
910 415.0
911 398.0
912 434.0
913 417.0
914 372.0
915 393.0
916 409.0
917 417.0
918 426.0
919 384.0
920 360.0
921 386.0
922 378.0
923 393.0
924 400.0
925 424.0
926 395.0
927 437.0
928 406.0
929 412.0
930 414.0
931 415.0
932 404.0
933 395.0
934 376.0
935 385.0
936 401.0
937 384.0
938 379.0
939 398.0
940 372.0
941 398.0
942 418.0
943 395.0
944 397.0
945 394.0
946 393.0
947 381.0
948 389.0
949 410.0
950 417.0
951 396.0
952 380.0
953 358.0
954 383.0
955 406.0
956 392.0
957 402.0
958 393.0
959 367.0
960 397.0
961 396.0
962 391.0
963 422.0
964 399.0
965 400.0
966 420.0
967 427.0
968 441.0
969 395.0
970 404.0
971 384.0
972 423.0
973 446.0
974 409.0
975 376.0
976 432.0
977 433.0
978 401.0
979 406.0
980 384.0
981 392.0
982 384.0
983 386.0
984 391.0
985 408.0
986 412.0
987 404.0
988 405.0
989 415.0
990 398.0
991 408.0
992 384.0
993 394.0
994 403.0
995 401.0
996 390.0
997 408.0
998 425.0
999 395.0
1000 386.0
1001 409.0
1002 414.0
1003 406.0
1004 381.0
1005 385.0
1006 372.0
1007 427.0
1008 437.0
1009 412.0
1010 442.0
1011 384.0
1012 361.0
1013 386.0
1014 432.0
1015 403.0
1016 404.0
1017 378.0
1018 395.0
1019 388.0
1020 403.0
1021 370.0
1022 425.0
1023 407.0
1024 390.0
1025 359.0
1026 383.0
1027 404.0
1028 413.0
1029 377.0
1030 403.0
1031 387.0
1032 442.0
1033 406.0
1034 354.0
1035 407.0
1036 383.0
1037 373.0
1038 373.0
1039 437.0
1040 443.0
1041 407.0
1042 450.0
1043 394.0
1044 378.0
1045 451.0
1046 399.0
1047 429.0
1048 407.0
1049 425.0
1050 393.0
1051 401.0
1052 404.0
1053 401.0
1054 464.0
1055 398.0
1056 394.0
1057 402.0
1058 422.0
1059 376.0
1060 389.0
1061 397.0
1062 373.0
1063 433.0
1064 404.0
1065 378.0
1066 398.0
1067 430.0
1068 406.0
1069 372.0
1070 423.0
1071 417.0
1072 427.0
1073 377.0
1074 410.0
1075 435.0
1076 442.0
1077 441.0
1078 432.0
1079 453.0
1080 415.0
1081 437.0
1082 444.0
1083 400.0
1084 422.0
1085 395.0
1086 422.0
1087 396.0
1088 404.0
1089 469.0
1090 419.0
1091 433.0
1092 406.0
1093 452.0
1094 460.0
1095 421.0
1096 420.0
1097 447.0
1098 408.0
1099 432.0
1100 432.0
1101 448.0
1102 425.0
1103 398.0
1104 446.0
1105 432.0
1106 464.0
1107 424.0
1108 429.0
1109 445.0
1110 400.0
1111 432.0
1112 416.0
1113 390.0
1114 420.0
1115 452.0
1116 386.0
1117 436.0
1118 411.0
1119 424.0
1120 402.0
1121 431.0
1122 412.0
1123 439.0
1124 438.0
1125 413.0
1126 433.0
1127 446.0
1128 461.0
1129 425.0
1130 410.0
1131 466.0
1132 435.0
1133 434.0
1134 410.0
1135 381.0
1136 443.0
1137 459.0
1138 455.0
1139 415.0
1140 432.0
1141 425.0
1142 429.0
1143 411.0
1144 471.0
1145 454.0
1146 442.0
1147 418.0
1148 445.0
1149 407.0
1150 423.0
1151 391.0
1152 427.0
1153 420.0
1154 381.0
1155 427.0
1156 379.0
1157 429.0
1158 370.0
1159 422.0
1160 421.0
1161 435.0
1162 432.0
1163 421.0
1164 417.0
1165 444.0
1166 413.0
1167 404.0
1168 410.0
1169 438.0
1170 440.0
1171 462.0
1172 398.0
1173 421.0
1174 435.0
1175 416.0
1176 453.0
1177 407.0
1178 444.0
1179 443.0
1180 410.0
1181 442.0
1182 399.0
1183 430.0
1184 421.0
1185 415.0
1186 397.0
1187 443.0
1188 423.0
1189 438.0
1190 397.0
1191 424.0
1192 447.0
1193 419.0
1194 423.0
1195 446.0
1196 438.0
1197 413.0
1198 423.0
1199 435.0
1200 451.0
1201 437.0
1202 390.0
1203 437.0
1204 415.0
1205 423.0
1206 464.0
1207 455.0
1208 392.0
1209 437.0
1210 447.0
1211 436.0
1212 433.0
1213 440.0
1214 454.0
1215 429.0
1216 456.0
1217 446.0
1218 434.0
1219 429.0
1220 430.0
1221 402.0
1222 433.0
1223 433.0
1224 402.0
1225 453.0
1226 409.0
1227 454.0
1228 442.0
1229 439.0
1230 416.0
1231 418.0
1232 491.0
1233 451.0
1234 447.0
1235 468.0
1236 421.0
1237 463.0
1238 431.0
1239 415.0
1240 448.0
1241 430.0
1242 435.0
1243 435.0
1244 443.0
1245 448.0
1246 447.0
1247 451.0
1248 415.0
1249 419.0
1250 420.0
1251 441.0
1252 425.0
1253 439.0
1254 451.0
1255 484.0
1256 442.0
1257 452.0
1258 409.0
1259 419.0
1260 412.0
1261 449.0
1262 408.0
1263 390.0
1264 451.0
1265 412.0
1266 462.0
1267 404.0
1268 403.0
1269 423.0
1270 464.0
1271 415.0
1272 416.0
1273 385.0
1274 453.0
1275 412.0
1276 417.0
1277 446.0
1278 454.0
1279 436.0
1280 422.0
1281 430.0
1282 427.0
1283 419.0
1284 404.0
1285 429.0
1286 401.0
1287 463.0
1288 447.0
1289 432.0
1290 408.0
1291 422.0
1292 411.0
1293 443.0
1294 392.0
1295 418.0
1296 437.0
1297 451.0
1298 411.0
1299 432.0
1300 425.0
1301 418.0
1302 407.0
1303 463.0
1304 400.0
1305 458.0
1306 429.0
1307 445.0
1308 381.0
1309 464.0
1310 425.0
1311 438.0
1312 384.0
1313 402.0
1314 416.0
1315 388.0
1316 413.0
1317 438.0
1318 441.0
1319 472.0
1320 438.0
1321 398.0
1322 401.0
1323 458.0
1324 396.0
1325 413.0
1326 345.0
1327 394.0
1328 449.0
1329 402.0
1330 464.0
1331 458.0
1332 395.0
1333 436.0
1334 419.0
1335 440.0
1336 413.0
1337 415.0
1338 392.0
1339 417.0
1340 386.0
1341 382.0
1342 383.0
1343 432.0
1344 434.0
1345 447.0
1346 469.0
1347 403.0
1348 420.0
1349 413.0
1350 399.0
1351 432.0
1352 421.0
1353 424.0
1354 394.0
1355 435.0
1356 374.0
1357 388.0
1358 398.0
1359 375.0
1360 443.0
1361 395.0
1362 390.0
1363 445.0
1364 409.0
1365 445.0
1366 447.0
1367 399.0
1368 418.0
1369 402.0
1370 436.0
1371 415.0
1372 387.0
1373 415.0
1374 403.0
1375 452.0
1376 385.0
1377 429.0
1378 457.0
1379 413.0
1380 446.0
1381 442.0
1382 428.0
1383 438.0
1384 434.0
1385 405.0
1386 441.0
1387 436.0
1388 425.0
1389 449.0
1390 432.0
1391 458.0
1392 492.0
1393 430.0
1394 378.0
1395 436.0
1396 439.0
1397 464.0
1398 409.0
1399 481.0
1400 442.0
1401 431.0
1402 444.0
1403 468.0
1404 426.0
1405 439.0
1406 439.0
1407 466.0
1408 460.0
1409 449.0
1410 447.0
1411 443.0
1412 447.0
1413 456.0
1414 418.0
1415 437.0
1416 467.0
1417 459.0
1418 446.0
1419 473.0
1420 406.0
1421 441.0
1422 473.0
1423 409.0
1424 438.0
1425 405.0
1426 466.0
1427 496.0
1428 460.0
1429 471.0
1430 432.0
1431 445.0
1432 426.0
1433 448.0
1434 433.0
1435 456.0
1436 426.0
1437 461.0
1438 464.0
1439 418.0
1440 460.0
1441 461.0
1442 442.0
1443 444.0
1444 467.0
1445 444.0
1446 440.0
1447 443.0
1448 460.0
1449 433.0
1450 418.0
1451 402.0
1452 443.0
1453 410.0
1454 438.0
1455 459.0
1456 431.0
1457 453.0
1458 421.0
1459 423.0
1460 467.0
1461 411.0
1462 462.0
1463 426.0
1464 435.0
1465 411.0
1466 421.0
1467 437.0
1468 431.0
1469 423.0
1470 467.0
1471 434.0
1472 418.0
1473 437.0
1474 417.0
1475 415.0
1476 411.0
1477 423.0
1478 442.0
1479 428.0
1480 433.0
1481 431.0
1482 469.0
1483 429.0
1484 454.0
1485 442.0
1486 423.0
1487 430.0
1488 452.0
1489 449.0
1490 479.0
1491 417.0
1492 453.0
1493 442.0
1494 426.0
1495 437.0
1496 404.0
1497 426.0
1498 433.0
1499 421.0
1500 470.0
1501 436.0
1502 429.0
1503 414.0
1504 410.0
1505 443.0
1506 462.0
1507 468.0
1508 441.0
1509 411.0
1510 397.0
1511 429.0
1512 446.0
1513 434.0
1514 439.0
1515 430.0
1516 444.0
1517 439.0
1518 449.0
1519 443.0
1520 463.0
1521 454.0
1522 447.0
1523 406.0
1524 435.0
1525 407.0
1526 469.0
1527 445.0
1528 451.0
1529 489.0
1530 445.0
1531 442.0
1532 430.0
1533 431.0
1534 426.0
1535 452.0
1536 437.0
1537 463.0
1538 421.0
1539 451.0
1540 436.0
1541 448.0
1542 439.0
1543 444.0
1544 471.0
1545 478.0
1546 454.0
1547 467.0
1548 416.0
1549 457.0
1550 399.0
1551 415.0
1552 463.0
1553 446.0
1554 476.0
1555 437.0
1556 435.0
1557 413.0
1558 405.0
1559 402.0
1560 446.0
1561 413.0
1562 444.0
1563 434.0
1564 443.0
1565 491.0
1566 432.0
1567 402.0
1568 449.0
1569 467.0
1570 469.0
1571 436.0
1572 435.0
1573 464.0
1574 437.0
1575 430.0
1576 448.0
1577 473.0
1578 410.0
1579 470.0
1580 435.0
1581 406.0
1582 480.0
1583 439.0
1584 445.0
1585 467.0
1586 421.0
1587 440.0
1588 397.0
1589 430.0
1590 465.0
1591 432.0
1592 432.0
1593 462.0
1594 459.0
1595 454.0
1596 450.0
1597 462.0
1598 407.0
1599 415.0
1600 427.0
1601 449.0
1602 421.0
1603 439.0
1604 453.0
1605 431.0
1606 472.0
1607 452.0
1608 469.0
1609 438.0
1610 429.0
1611 468.0
1612 454.0
1613 410.0
1614 477.0
1615 404.0
1616 452.0
1617 437.0
1618 459.0
1619 438.0
1620 426.0
1621 446.0
1622 466.0
1623 477.0
1624 449.0
1625 463.0
1626 467.0
1627 433.0
1628 432.0
1629 454.0
1630 441.0
1631 421.0
1632 426.0
1633 438.0
1634 419.0
1635 460.0
1636 406.0
1637 401.0
1638 469.0
1639 435.0
1640 400.0
1641 421.0
1642 440.0
1643 414.0
1644 371.0
1645 424.0
1646 468.0
1647 410.0
1648 445.0
1649 431.0
1650 424.0
1651 450.0
1652 419.0
1653 446.0
1654 435.0
1655 428.0
1656 441.0
1657 461.0
1658 447.0
1659 441.0
1660 450.0
1661 458.0
1662 430.0
1663 455.0
1664 424.0
1665 441.0
1666 433.0
1667 435.0
1668 441.0
1669 394.0
1670 458.0
1671 480.0
1672 409.0
1673 432.0
1674 455.0
1675 445.0
1676 446.0
1677 428.0
1678 420.0
1679 433.0
1680 436.0
1681 467.0
1682 432.0
1683 458.0
1684 424.0
1685 414.0
1686 421.0
1687 424.0
1688 409.0
1689 452.0
1690 431.0
1691 464.0
1692 458.0
1693 394.0
1694 428.0
1695 449.0
1696 448.0
1697 431.0
1698 441.0
1699 412.0
1700 430.0
1701 436.0
1702 427.0
1703 440.0
1704 410.0
1705 449.0
1706 416.0
1707 437.0
1708 452.0
1709 431.0
1710 412.0
1711 402.0
1712 468.0
1713 446.0
1714 433.0
1715 446.0
1716 419.0
1717 456.0
1718 449.0
1719 440.0
1720 459.0
1721 431.0
1722 442.0
1723 486.0
1724 476.0
1725 469.0
1726 445.0
1727 469.0
1728 447.0
1729 428.0
1730 422.0
1731 452.0
1732 430.0
1733 465.0
1734 456.0
1735 513.0
1736 444.0
1737 473.0
1738 446.0
1739 454.0
1740 436.0
1741 468.0
1742 444.0
1743 457.0
1744 481.0
1745 470.0
1746 440.0
1747 456.0
1748 452.0
1749 458.0
1750 449.0
1751 466.0
1752 476.0
1753 448.0
1754 453.0
1755 472.0
1756 459.0
1757 460.0
1758 438.0
1759 474.0
1760 444.0
1761 449.0
1762 414.0
1763 485.0
1764 481.0
1765 478.0
1766 450.0
1767 449.0
1768 442.0
1769 494.0
1770 489.0
1771 437.0
1772 474.0
1773 457.0
1774 437.0
1775 446.0
1776 448.0
1777 491.0
1778 504.0
1779 450.0
1780 461.0
1781 474.0
1782 491.0
1783 436.0
1784 439.0
1785 454.0
1786 467.0
1787 451.0
1788 436.0
1789 455.0
1790 471.0
1791 427.0
1792 455.0
1793 456.0
1794 431.0
1795 451.0
1796 447.0
1797 439.0
1798 466.0
1799 437.0
1800 441.0
1801 437.0
1802 453.0
1803 469.0
1804 462.0
1805 430.0
1806 446.0
1807 466.0
1808 476.0
1809 475.0
1810 445.0
1811 427.0
1812 435.0
1813 468.0
1814 463.0
1815 472.0
1816 463.0
1817 467.0
1818 448.0
1819 475.0
1820 442.0
1821 441.0
1822 497.0
1823 456.0
1824 455.0
1825 447.0
1826 440.0
1827 472.0
1828 412.0
1829 471.0
1830 465.0
1831 442.0
1832 460.0
1833 480.0
1834 495.0
1835 446.0
1836 439.0
1837 460.0
1838 460.0
1839 503.0
1840 447.0
1841 463.0
1842 474.0
1843 486.0
1844 469.0
1845 481.0
1846 457.0
1847 489.0
1848 439.0
1849 448.0
1850 436.0
1851 460.0
1852 494.0
1853 453.0
1854 472.0
1855 426.0
1856 474.0
1857 473.0
1858 492.0
1859 480.0
1860 497.0
1861 459.0
1862 468.0
1863 492.0
1864 466.0
1865 502.0
1866 445.0
1867 484.0
1868 500.0
1869 463.0
1870 469.0
1871 474.0
1872 470.0
1873 452.0
1874 433.0
1875 482.0
1876 447.0
1877 487.0
1878 492.0
1879 458.0
1880 473.0
1881 445.0
1882 451.0
1883 456.0
1884 475.0
1885 490.0
1886 486.0
1887 473.0
1888 442.0
1889 425.0
1890 437.0
1891 441.0
1892 458.0
1893 477.0
1894 454.0
1895 458.0
1896 456.0
1897 455.0
1898 468.0
1899 473.0
1900 449.0
1901 426.0
1902 469.0
1903 438.0
1904 502.0
1905 458.0
1906 477.0
1907 478.0
1908 489.0
1909 457.0
1910 479.0
1911 480.0
1912 467.0
1913 472.0
1914 460.0
1915 439.0
1916 464.0
1917 455.0
1918 446.0
1919 462.0
1920 465.0
1921 450.0
1922 465.0
1923 437.0
1924 463.0
1925 448.0
1926 443.0
1927 496.0
1928 464.0
1929 455.0
1930 476.0
1931 471.0
1932 486.0
1933 466.0
1934 453.0
1935 444.0
1936 459.0
1937 471.0
1938 447.0
1939 480.0
1940 438.0
1941 445.0
1942 445.0
1943 455.0
1944 468.0
1945 471.0
1946 470.0
1947 446.0
1948 473.0
1949 452.0
1950 467.0
1951 471.0
1952 459.0
1953 500.0
1954 454.0
1955 485.0
1956 425.0
1957 453.0
1958 450.0
1959 489.0
1960 476.0
1961 416.0
1962 498.0
1963 457.0
1964 482.0
1965 486.0
1966 478.0
1967 445.0
1968 494.0
1969 485.0
1970 437.0
1971 481.0
1972 478.0
1973 461.0
1974 476.0
1975 476.0
1976 486.0
1977 473.0
1978 470.0
1979 468.0
1980 464.0
1981 479.0
1982 474.0
1983 473.0
1984 460.0
1985 494.0
1986 493.0
1987 475.0
1988 472.0
1989 468.0
1990 475.0
1991 480.0
1992 491.0
1993 496.0
1994 488.0
1995 491.0
1996 474.0
1997 493.0
1998 436.0
1999 466.0
2000 517.0
2001 485.0
2002 474.0
2003 506.0
2004 489.0
2005 478.0
2006 452.0
2007 523.0
2008 483.0
2009 456.0
2010 457.0
2011 494.0
2012 507.0
2013 507.0
2014 472.0
2015 480.0
2016 483.0
2017 499.0
2018 509.0
2019 490.0
2020 528.0
2021 531.0
2022 503.0
2023 546.0
2024 515.0
2025 504.0
2026 499.0
2027 555.0
2028 517.0
2029 521.0
2030 502.0
2031 527.0
2032 529.0
2033 494.0
2034 552.0
2035 529.0
2036 533.0
2037 512.0
2038 539.0
2039 524.0
2040 514.0
2041 546.0
2042 564.0
2043 513.0
2044 542.0
2045 505.0
2046 527.0
2047 556.0
