
Integration time [ms]:   0.300
Averaging Nr. [scans]: 1
Smoothing Nr. [pixels]: 0
Data measured with spectrometer [name]: VIS
Wave   ;Sample   ;Dark     ;Reference
[nm]   ;[counts] ;[counts] ;[counts] 

450.961;  198.150;  204.350;    0.000
451.100;  217.150;  243.350;    0.000
451.239;  203.150;  228.350;    0.000
451.377;  244.150;  250.350;    0.000
451.516;  219.150;  189.350;    0.000
451.655;  229.150;  235.350;    0.000
451.794;  215.150;  223.350;    0.000
451.932;  228.150;  269.350;    0.000
452.071;  216.150;  250.350;    0.000
452.210;  232.150;  262.350;    0.000
452.348;  215.150;  259.350;    0.000
452.487;  206.150;  231.350;    0.000
452.626;  208.150;  220.350;    0.000
452.764;  218.150;  252.350;    0.000
452.903;  220.150;  236.350;    0.000
453.042;  280.150;  217.350;    0.000
453.180; 2421.150;  273.350;    0.000
453.319; 2464.150;  261.350;    0.000
453.458; 2601.150;  219.350;    0.000
453.596; 2532.150;  307.350;    0.000
453.735; 2568.150;  246.350;    0.000
453.873; 2635.150;  270.350;    0.000
454.012; 2620.150;  232.350;    0.000
454.150; 2633.150;  211.350;    0.000
454.289; 2618.150;  245.350;    0.000
454.427; 2598.150;  224.350;    0.000
454.566; 2722.150;  252.350;    0.000
454.704; 2686.150;  225.350;    0.000
454.843; 2615.150;  195.350;    0.000
454.981; 2751.150;  258.350;    0.000
455.120; 2817.150;  191.350;    0.000
455.258; 2839.150;  243.350;    0.000
455.397; 2783.150;  188.350;    0.000
455.535; 2798.150;  219.350;    0.000
455.674; 2848.150;  184.350;    0.000
455.812; 2857.150;  225.350;    0.000
455.951; 2970.150;  201.350;    0.000
456.089; 2868.150;  187.350;    0.000
456.227; 2871.150;  199.350;    0.000
456.366; 3044.150;  235.350;    0.000
456.504; 3013.150;  216.350;    0.000
456.642; 3013.150;  256.350;    0.000
456.781; 3092.150;  201.350;    0.000
456.919; 3086.150;  231.350;    0.000
457.057; 3080.150;  181.350;    0.000
457.196; 3149.150;  231.350;    0.000
457.334; 3165.150;  229.350;    0.000
457.472; 3186.150;  242.350;    0.000
457.610; 3363.150;  221.350;    0.000
457.749; 3312.150;  218.350;    0.000
457.887; 3281.150;  213.350;    0.000
458.025; 3281.150;  228.350;    0.000
458.163; 3471.150;  204.350;    0.000
458.301; 3488.150;  230.350;    0.000
458.440; 3548.150;  200.350;    0.000
458.578; 3591.150;  222.350;    0.000
458.716; 3583.150;  137.350;    0.000
458.854; 3706.150;  259.350;    0.000
458.992; 3512.150;  172.350;    0.000
459.130; 3708.150;  253.350;    0.000
459.269; 3630.150;  212.350;    0.000
459.407; 3774.150;  212.350;    0.000
459.545; 3821.150;  225.350;    0.000
459.683; 3874.150;  225.350;    0.000
459.821; 3848.150;  192.350;    0.000
459.959; 3927.150;  205.350;    0.000
460.097; 3873.150;  199.350;    0.000
460.235; 3913.150;  232.350;    0.000
460.373; 3947.150;  248.350;    0.000
460.511; 4042.150;  225.350;    0.000
460.649; 4038.150;  204.350;    0.000
460.787; 4077.150;  221.350;    0.000
460.925; 3983.150;  181.350;    0.000
461.063; 4122.150;  243.350;    0.000
461.201; 4103.150;  212.350;    0.000
461.339; 4185.150;  229.350;    0.000
461.477; 4165.150;  162.350;    0.000
461.615; 4212.150;  232.350;    0.000
461.753; 4167.150;  193.350;    0.000
461.891; 4342.150;  217.350;    0.000
462.029; 4399.150;  224.350;    0.000
462.166; 4295.150;  222.350;    0.000
462.304; 4408.150;  185.350;    0.000
462.442; 4478.150;  246.350;    0.000
462.580; 4441.150;  246.350;    0.000
462.718; 4436.150;  235.350;    0.000
462.856; 4338.150;  230.350;    0.000
462.993; 4486.150;  266.350;    0.000
463.131; 4423.150;  208.350;    0.000
463.269; 4381.150;  218.350;    0.000
463.407; 4268.150;  215.350;    0.000
463.545; 4283.150;  200.350;    0.000
463.682; 4379.150;  206.350;    0.000
463.820; 4534.150;  211.350;    0.000
463.958; 4741.150;  206.350;    0.000
464.095; 4732.150;  193.350;    0.000
464.233; 4758.150;  203.350;    0.000
464.371; 4870.150;  258.350;    0.000
464.509; 4743.150;  219.350;    0.000
464.646; 4839.150;  210.350;    0.000
464.784; 4810.150;  206.350;    0.000
464.921; 4783.150;  233.350;    0.000
465.059; 4599.150;  186.350;    0.000
465.197; 4604.150;  213.350;    0.000
465.334; 4542.150;  202.350;    0.000
465.472; 4457.150;  236.350;    0.000
465.609; 4414.150;  206.350;    0.000
465.747; 4516.150;  208.350;    0.000
465.885; 4516.150;  198.350;    0.000
466.022; 4491.150;  210.350;    0.000
466.160; 4499.150;  245.350;    0.000
466.297; 4443.150;  226.350;    0.000
466.435; 4470.150;  235.350;    0.000
466.572; 4540.150;  226.350;    0.000
466.710; 4502.150;  266.350;    0.000
466.847; 4490.150;  258.350;    0.000
466.985; 4414.150;  228.350;    0.000
467.122; 4563.150;  201.350;    0.000
467.260; 4320.150;  170.350;    0.000
467.397; 4355.150;  174.350;    0.000
467.534; 4515.150;  244.350;    0.000
467.672; 4453.150;  247.350;    0.000
467.809; 4320.150;  182.350;    0.000
467.947; 4448.150;  208.350;    0.000
468.084; 4408.150;  206.350;    0.000
468.221; 4406.150;  249.350;    0.000
468.359; 4361.150;  253.350;    0.000
468.496; 4278.150;  208.350;    0.000
468.633; 4410.150;  189.350;    0.000
468.771; 4366.150;  216.350;    0.000
468.908; 4425.150;  240.350;    0.000
469.045; 4429.150;  234.350;    0.000
469.183; 4483.150;  203.350;    0.000
469.320; 4387.150;  230.350;    0.000
469.457; 4489.150;  219.350;    0.000
469.594; 4591.150;  233.350;    0.000
469.732; 4565.150;  230.350;    0.000
469.869; 4576.150;  239.350;    0.000
470.006; 4730.150;  224.350;    0.000
470.143; 4685.150;  241.350;    0.000
470.280; 4586.150;  234.350;    0.000
470.417; 4769.150;  236.350;    0.000
470.555; 4568.150;  207.350;    0.000
470.692; 4757.150;  251.350;    0.000
470.829; 4663.150;  238.350;    0.000
470.966; 4495.150;  242.350;    0.000
471.103; 4581.150;  215.350;    0.000
471.240; 4602.150;  237.350;    0.000
471.377; 4673.150;  235.350;    0.000
471.514; 4706.150;  256.350;    0.000
471.651; 4660.150;  198.350;    0.000
471.789; 4575.150;  215.350;    0.000
471.926; 4587.150;  210.350;    0.000
472.063; 4571.150;  237.350;    0.000
472.200; 4597.150;  265.350;    0.000
472.337; 4526.150;  240.350;    0.000
472.474; 4596.150;  195.350;    0.000
472.611; 4564.150;  228.350;    0.000
472.748; 4518.150;  234.350;    0.000
472.884; 4605.150;  230.350;    0.000
473.021; 4493.150;  219.350;    0.000
473.158; 4416.150;  253.350;    0.000
473.295; 4554.150;  207.350;    0.000
473.432; 4511.150;  238.350;    0.000
473.569; 4493.150;  236.350;    0.000
473.706; 4431.150;  203.350;    0.000
473.843; 4438.150;  232.350;    0.000
473.980; 4547.150;  207.350;    0.000
474.117; 4552.150;  182.350;    0.000
474.253; 4485.150;  261.350;    0.000
474.390; 4586.150;  211.350;    0.000
474.527; 4635.150;  229.350;    0.000
474.664; 4430.150;  181.350;    0.000
474.801; 4590.150;  250.350;    0.000
474.937; 4569.150;  196.350;    0.000
475.074; 4579.150;  213.350;    0.000
475.211; 4662.150;  232.350;    0.000
475.348; 4569.150;  228.350;    0.000
475.484; 4583.150;  240.350;    0.000
475.621; 4581.150;  235.350;    0.000
475.758; 4588.150;  232.350;    0.000
475.894; 4633.150;  227.350;    0.000
476.031; 4673.150;  233.350;    0.000
476.168; 4578.150;  205.350;    0.000
476.304; 4671.150;  263.350;    0.000
476.441; 4634.150;  255.350;    0.000
476.578; 4677.150;  191.350;    0.000
476.714; 4661.150;  218.350;    0.000
476.851; 4601.150;  224.350;    0.000
476.987; 4678.150;  225.350;    0.000
477.124; 4775.150;  231.350;    0.000
477.261; 4775.150;  291.350;    0.000
477.397; 4729.150;  218.350;    0.000
477.534; 4767.150;  209.350;    0.000
477.670; 4795.150;  210.350;    0.000
477.807; 4908.150;  199.350;    0.000
477.943; 4770.150;  219.350;    0.000
478.080; 4893.150;  234.350;    0.000
478.216; 5000.150;  196.350;    0.000
478.353; 4932.150;  234.350;    0.000
478.489; 4896.150;  219.350;    0.000
478.626; 4923.150;  209.350;    0.000
478.762; 5041.150;  206.350;    0.000
478.898; 4946.150;  209.350;    0.000
479.035; 4972.150;  232.350;    0.000
479.171; 4978.150;  219.350;    0.000
479.308; 4966.150;  226.350;    0.000
479.444; 4943.150;  184.350;    0.000
479.580; 5007.150;  192.350;    0.000
479.717; 5178.150;  247.350;    0.000
479.853; 5059.150;  181.350;    0.000
479.989; 5059.150;  212.350;    0.000
480.126; 5074.150;  187.350;    0.000
480.262; 5070.150;  217.350;    0.000
480.398; 5083.150;  249.350;    0.000
480.535; 4972.150;  196.350;    0.000
480.671; 5068.150;  199.350;    0.000
480.807; 5177.150;  231.350;    0.000
480.943; 5053.150;  192.350;    0.000
481.080; 5038.150;  206.350;    0.000
481.216; 4980.150;  189.350;    0.000
481.352; 5114.150;  215.350;    0.000
481.488; 5061.150;  223.350;    0.000
481.624; 5047.150;  235.350;    0.000
481.760; 5017.150;  218.350;    0.000
481.897; 4998.150;  204.350;    0.000
482.033; 5067.150;  243.350;    0.000
482.169; 4955.150;  239.350;    0.000
482.305; 4980.150;  221.350;    0.000
482.441; 5039.150;  162.350;    0.000
482.577; 4953.150;  241.350;    0.000
482.713; 5108.150;  223.350;    0.000
482.849; 4960.150;  195.350;    0.000
482.985; 4952.150;  230.350;    0.000
483.121; 4988.150;  230.350;    0.000
483.258; 5029.150;  254.350;    0.000
483.394; 4996.150;  199.350;    0.000
483.530; 5002.150;  209.350;    0.000
483.665; 5014.150;  196.350;    0.000
483.801; 4922.150;  208.350;    0.000
483.937; 5021.150;  202.350;    0.000
484.073; 4950.150;  247.350;    0.000
484.209; 4937.150;  188.350;    0.000
484.345; 5011.150;  241.350;    0.000
484.481; 5087.150;  247.350;    0.000
484.617; 4999.150;  248.350;    0.000
484.753; 5083.150;  255.350;    0.000
484.889; 5143.150;  253.350;    0.000
485.025; 5088.150;  226.350;    0.000
485.161; 5014.150;  207.350;    0.000
485.296; 5126.150;  247.350;    0.000
485.432; 5080.150;  255.350;    0.000
485.568; 5102.150;  216.350;    0.000
485.704; 5100.150;  232.350;    0.000
485.840; 5099.150;  231.350;    0.000
485.975; 5261.150;  233.350;    0.000
486.111; 5116.150;  207.350;    0.000
486.247; 5177.150;  211.350;    0.000
486.383; 5148.150;  219.350;    0.000
486.518; 5178.150;  213.350;    0.000
486.654; 5259.150;  216.350;    0.000
486.790; 5182.150;  253.350;    0.000
486.926; 5195.150;  229.350;    0.000
487.061; 5360.150;  241.350;    0.000
487.197; 5191.150;  218.350;    0.000
487.333; 5206.150;  221.350;    0.000
487.468; 5185.150;  206.350;    0.000
487.604; 5218.150;  254.350;    0.000
487.740; 5100.150;  240.350;    0.000
487.875; 5324.150;  260.350;    0.000
488.011; 5059.150;  232.350;    0.000
488.146; 5141.150;  206.350;    0.000
488.282; 5189.150;  236.350;    0.000
488.417; 5192.150;  255.350;    0.000
488.553; 5092.150;  221.350;    0.000
488.688; 5070.150;  233.350;    0.000
488.824; 5151.150;  246.350;    0.000
488.960; 5383.150;  267.350;    0.000
489.095; 5160.150;  217.350;    0.000
489.230; 5286.150;  226.350;    0.000
489.366; 5253.150;  232.350;    0.000
489.501; 5138.150;  220.350;    0.000
489.637; 5330.150;  245.350;    0.000
489.772; 5218.150;  228.350;    0.000
489.908; 5301.150;  250.350;    0.000
490.043; 5331.150;  239.350;    0.000
490.178; 5241.150;  213.350;    0.000
490.314; 5273.150;  270.350;    0.000
490.449; 5357.150;  245.350;    0.000
490.585; 5253.150;  218.350;    0.000
490.720; 5166.150;  243.350;    0.000
490.855; 5277.150;  196.350;    0.000
490.991; 5237.150;  208.350;    0.000
491.126; 5329.150;  268.350;    0.000
491.261; 5393.150;  226.350;    0.000
491.396; 5339.150;  201.350;    0.000
491.532; 5357.150;  213.350;    0.000
491.667; 5399.150;  183.350;    0.000
491.802; 5339.150;  239.350;    0.000
491.937; 5355.150;  228.350;    0.000
492.073; 5330.150;  258.350;    0.000
492.208; 5441.150;  218.350;    0.000
492.343; 5402.150;  205.350;    0.000
492.478; 5466.150;  247.350;    0.000
492.613; 5444.150;  217.350;    0.000
492.749; 5387.150;  258.350;    0.000
492.884; 5371.150;  208.350;    0.000
493.019; 5509.150;  248.350;    0.000
493.154; 5259.150;  231.350;    0.000
493.289; 5308.150;  226.350;    0.000
493.424; 5322.150;  216.350;    0.000
493.559; 5468.150;  205.350;    0.000
493.694; 5287.150;  203.350;    0.000
493.829; 5280.150;  231.350;    0.000
493.964; 5400.150;  200.350;    0.000
494.099; 5451.150;  253.350;    0.000
494.234; 5480.150;  244.350;    0.000
494.369; 5362.150;  239.350;    0.000
494.504; 5264.150;  223.350;    0.000
494.639; 5422.150;  263.350;    0.000
494.774; 5416.150;  240.350;    0.000
494.909; 5278.150;  231.350;    0.000
495.044; 5413.150;  195.350;    0.000
495.179; 5354.150;  231.350;    0.000
495.314; 5425.150;  231.350;    0.000
495.449; 5456.150;  239.350;    0.000
495.584; 5429.150;  201.350;    0.000
495.719; 5405.150;  201.350;    0.000
495.854; 5477.150;  201.350;    0.000
495.988; 5473.150;  239.350;    0.000
496.123; 5476.150;  199.350;    0.000
496.258; 5539.150;  256.350;    0.000
496.393; 5535.150;  214.350;    0.000
496.528; 5495.150;  220.350;    0.000
496.663; 5659.150;  207.350;    0.000
496.797; 5718.150;  241.350;    0.000
496.932; 5748.150;  215.350;    0.000
497.067; 5724.150;  240.350;    0.000
497.202; 5876.150;  177.350;    0.000
497.336; 6010.150;  221.350;    0.000
497.471; 5899.150;  228.350;    0.000
497.606; 6050.150;  213.350;    0.000
497.740; 6310.150;  217.350;    0.000
497.875; 6286.150;  182.350;    0.000
498.010; 6259.150;  230.350;    0.000
498.144; 6434.150;  217.350;    0.000
498.279; 6643.150;  194.350;    0.000
498.414; 6729.150;  270.350;    0.000
498.548; 6755.150;  184.350;    0.000
498.683; 6768.150;  188.350;    0.000
498.817; 6729.150;  216.350;    0.000
498.952; 6796.150;  208.350;    0.000
499.087; 6905.150;  236.350;    0.000
499.221; 7038.150;  219.350;    0.000
499.356; 7118.150;  263.350;    0.000
499.490; 7207.150;  221.350;    0.000
499.625; 7300.150;  233.350;    0.000
499.759; 7265.150;  245.350;    0.000
499.894; 7519.150;  241.350;    0.000
500.028; 7663.150;  237.350;    0.000
500.162; 7894.150;  282.350;    0.000
500.297; 7698.150;  232.350;    0.000
500.431; 7779.150;  266.350;    0.000
500.566; 7762.150;  254.350;    0.000
500.700; 7772.150;  238.350;    0.000
500.835; 7517.150;  264.350;    0.000
500.969; 7525.150;  165.350;    0.000
501.103; 7352.150;  190.350;    0.000
501.238; 7389.150;  274.350;    0.000
501.372; 6990.150;  270.350;    0.000
501.506; 7085.150;  231.350;    0.000
501.641; 6827.150;  224.350;    0.000
501.775; 6716.150;  224.350;    0.000
501.909; 6527.150;  218.350;    0.000
502.043; 6461.150;  238.350;    0.000
502.178; 6475.150;  289.350;    0.000
502.312; 6266.150;  225.350;    0.000
502.446; 6286.150;  295.350;    0.000
502.580; 6106.150;  200.350;    0.000
502.715; 6023.150;  256.350;    0.000
502.849; 5940.150;  226.350;    0.000
502.983; 5987.150;  250.350;    0.000
503.117; 5815.150;  229.350;    0.000
503.251; 5953.150;  267.350;    0.000
503.385; 5840.150;  237.350;    0.000
503.520; 5612.150;  210.350;    0.000
503.654; 5474.150;  204.350;    0.000
503.788; 5550.150;  236.350;    0.000
503.922; 5479.150;  225.350;    0.000
504.056; 5476.150;  222.350;    0.000
504.190; 5400.150;  220.350;    0.000
504.324; 5347.150;  257.350;    0.000
504.458; 5289.150;  223.350;    0.000
504.592; 5282.150;  252.350;    0.000
504.726; 5190.150;  216.350;    0.000
504.860; 5042.150;  231.350;    0.000
504.994; 5038.150;  228.350;    0.000
505.128; 5051.150;  239.350;    0.000
505.262; 4881.150;  245.350;    0.000
505.396; 4823.150;  231.350;    0.000
505.530; 4849.150;  211.350;    0.000
505.664; 4817.150;  223.350;    0.000
505.798; 4842.150;  239.350;    0.000
505.932; 4797.150;  232.350;    0.000
506.066; 4776.150;  263.350;    0.000
506.199; 4669.150;  231.350;    0.000
506.333; 4699.150;  213.350;    0.000
506.467; 4519.150;  241.350;    0.000
506.601; 4539.150;  233.350;    0.000
506.735; 4586.150;  235.350;    0.000
506.869; 4611.150;  269.350;    0.000
507.002; 4526.150;  244.350;    0.000
507.136; 4526.150;  258.350;    0.000
507.270; 4456.150;  218.350;    0.000
507.404; 4373.150;  191.350;    0.000
507.537; 4394.150;  226.350;    0.000
507.671; 4401.150;  243.350;    0.000
507.805; 4459.150;  234.350;    0.000
507.939; 4280.150;  234.350;    0.000
508.072; 4345.150;  261.350;    0.000
508.206; 4367.150;  220.350;    0.000
508.340; 4285.150;  241.350;    0.000
508.473; 4294.150;  214.350;    0.000
508.607; 4328.150;  232.350;    0.000
508.740; 4209.150;  222.350;    0.000
508.874; 4268.150;  225.350;    0.000
509.008; 4233.150;  258.350;    0.000
509.141; 4147.150;  210.350;    0.000
509.275; 4246.150;  199.350;    0.000
509.408; 4091.150;  260.350;    0.000
509.542; 4130.150;  252.350;    0.000
509.675; 4221.150;  276.350;    0.000
509.809; 4140.150;  266.350;    0.000
509.942; 4197.150;  227.350;    0.000
510.076; 4108.150;  243.350;    0.000
510.209; 4183.150;  221.350;    0.000
510.343; 4115.150;  229.350;    0.000
510.476; 4088.150;  246.350;    0.000
510.610; 4061.150;  211.350;    0.000
510.743; 4242.150;  279.350;    0.000
510.877; 4110.150;  274.350;    0.000
511.010; 4000.150;  252.350;    0.000
511.143; 4040.150;  228.350;    0.000
511.277; 4049.150;  261.350;    0.000
511.410; 4051.150;  217.350;    0.000
511.543; 3959.150;  230.350;    0.000
511.677; 3988.150;  245.350;    0.000
511.810; 4002.150;  237.350;    0.000
511.943; 4041.150;  224.350;    0.000
512.077; 4134.150;  194.350;    0.000
512.210; 4006.150;  212.350;    0.000
512.343; 4030.150;  236.350;    0.000
512.476; 3977.150;  248.350;    0.000
512.610; 3947.150;  249.350;    0.000
512.743; 4011.150;  224.350;    0.000
512.876; 4031.150;  277.350;    0.000
513.009; 4117.150;  261.350;    0.000
513.142; 4043.150;  213.350;    0.000
513.276; 3910.150;  192.350;    0.000
513.409; 4004.150;  267.350;    0.000
513.542; 3986.150;  224.350;    0.000
513.675; 3981.150;  244.350;    0.000
513.808; 3946.150;  218.350;    0.000
513.941; 3997.150;  237.350;    0.000
514.074; 4062.150;  257.350;    0.000
514.207; 4011.150;  245.350;    0.000
514.340; 4015.150;  195.350;    0.000
514.474; 4031.150;  244.350;    0.000
514.607; 3913.150;  230.350;    0.000
514.740; 4029.150;  246.350;    0.000
514.873; 4074.150;  268.350;    0.000
515.006; 4258.150;  253.350;    0.000
515.139; 4160.150;  235.350;    0.000
515.272; 4179.150;  214.350;    0.000
515.404; 4359.150;  228.350;    0.000
515.537; 4337.150;  263.350;    0.000
515.670; 4137.150;  270.350;    0.000
515.803; 4074.150;  243.350;    0.000
515.936; 4138.150;  226.350;    0.000
516.069; 4216.150;  227.350;    0.000
516.202; 4197.150;  259.350;    0.000
516.335; 4185.150;  260.350;    0.000
516.468; 4349.150;  243.350;    0.000
516.600; 4839.150;  258.350;    0.000
516.733; 5758.150;  235.350;    0.000
516.866; 5719.150;  267.350;    0.000
516.999; 5311.150;  251.350;    0.000
517.132; 6289.150;  261.350;    0.000
517.264; 8118.150;  260.350;    0.000
517.397; 8153.150;  231.350;    0.000
517.530; 6602.150;  257.350;    0.000
517.663; 5662.150;  263.350;    0.000
517.795; 5321.150;  250.350;    0.000
517.928; 5127.150;  257.350;    0.000
518.061; 5233.150;  227.350;    0.000
518.193; 6285.150;  252.350;    0.000
518.326; 9409.150;  227.350;    0.000
518.459;10289.150;  210.350;    0.000
518.591; 8090.150;  214.350;    0.000
518.724; 6181.150;  269.350;    0.000
518.857; 5511.150;  215.350;    0.000
518.989; 5041.150;  259.350;    0.000
519.122; 4919.150;  238.350;    0.000
519.254; 4687.150;  248.350;    0.000
519.387; 4521.150;  246.350;    0.000
519.519; 4422.150;  239.350;    0.000
519.652; 4431.150;  249.350;    0.000
519.784; 4298.150;  238.350;    0.000
519.917; 4040.150;  231.350;    0.000
520.049; 4227.150;  244.350;    0.000
520.182; 4137.150;  205.350;    0.000
520.314; 4106.150;  262.350;    0.000
520.447; 3971.150;  234.350;    0.000
520.579; 4016.150;  273.350;    0.000
520.712; 3896.150;  215.350;    0.000
520.844; 3909.150;  258.350;    0.000
520.976; 4019.150;  242.350;    0.000
521.109; 3844.150;  232.350;    0.000
521.241; 3870.150;  236.350;    0.000
521.373; 3776.150;  227.350;    0.000
521.506; 3755.150;  212.350;    0.000
521.638; 3836.150;  292.350;    0.000
521.770; 3802.150;  259.350;    0.000
521.903; 3607.150;  263.350;    0.000
522.035; 3666.150;  269.350;    0.000
522.167; 3532.150;  289.350;    0.000
522.300; 3664.150;  255.350;    0.000
522.432; 3733.150;  247.350;    0.000
522.564; 3548.150;  239.350;    0.000
522.696; 3683.150;  246.350;    0.000
522.828; 3566.150;  230.350;    0.000
522.961; 3524.150;  239.350;    0.000
523.093; 3511.150;  269.350;    0.000
523.225; 3582.150;  251.350;    0.000
523.357; 3580.150;  244.350;    0.000
523.489; 3537.150;  266.350;    0.000
523.621; 3582.150;  267.350;    0.000
523.753; 3446.150;  234.350;    0.000
523.885; 3407.150;  229.350;    0.000
524.018; 3440.150;  221.350;    0.000
524.150; 3491.150;  264.350;    0.000
524.282; 3415.150;  283.350;    0.000
524.414; 3415.150;  258.350;    0.000
524.546; 3322.150;  286.350;    0.000
524.678; 3370.150;  274.350;    0.000
524.810; 3344.150;  253.350;    0.000
524.942; 3282.150;  183.350;    0.000
525.074; 3370.150;  232.350;    0.000
525.206; 3375.150;  250.350;    0.000
525.338; 3239.150;  228.350;    0.000
525.469; 3364.150;  224.350;    0.000
525.601; 3367.150;  247.350;    0.000
525.733; 3251.150;  199.350;    0.000
525.865; 3368.150;  230.350;    0.000
525.997; 3332.150;  209.350;    0.000
526.129; 3288.150;  211.350;    0.000
526.261; 3288.150;  233.350;    0.000
526.393; 3214.150;  261.350;    0.000
526.524; 3228.150;  206.350;    0.000
526.656; 3194.150;  260.350;    0.000
526.788; 3302.150;  293.350;    0.000
526.920; 3262.150;  208.350;    0.000
527.052; 3209.150;  204.350;    0.000
527.183; 3224.150;  244.350;    0.000
527.315; 3271.150;  237.350;    0.000
527.447; 3249.150;  236.350;    0.000
527.578; 3217.150;  235.350;    0.000
527.710; 3223.150;  253.350;    0.000
527.842; 3256.150;  231.350;    0.000
527.973; 3236.150;  224.350;    0.000
528.105; 3207.150;  237.350;    0.000
528.237; 3245.150;  213.350;    0.000
528.368; 3190.150;  194.350;    0.000
528.500; 3188.150;  195.350;    0.000
528.632; 3180.150;  201.350;    0.000
528.763; 3232.150;  196.350;    0.000
528.895; 3171.150;  204.350;    0.000
529.026; 3191.150;  214.350;    0.000
529.158; 3268.150;  197.350;    0.000
529.289; 3370.150;  230.350;    0.000
529.421; 3224.150;  247.350;    0.000
529.552; 3122.150;  255.350;    0.000
529.684; 3188.150;  270.350;    0.000
529.815; 3194.150;  248.350;    0.000
529.947; 3239.150;  234.350;    0.000
530.078; 3214.150;  223.350;    0.000
530.210; 3221.150;  243.350;    0.000
530.341; 3184.150;  222.350;    0.000
530.472; 3189.150;  217.350;    0.000
530.604; 3272.150;  242.350;    0.000
530.735; 3169.150;  249.350;    0.000
530.867; 3261.150;  257.350;    0.000
530.998; 3188.150;  250.350;    0.000
531.129; 3313.150;  244.350;    0.000
531.260; 3258.150;  276.350;    0.000
531.392; 3135.150;  220.350;    0.000
531.523; 3233.150;  262.350;    0.000
531.654; 3298.150;  264.350;    0.000
531.786; 3291.150;  225.350;    0.000
531.917; 3331.150;  285.350;    0.000
532.048; 3184.150;  239.350;    0.000
532.179; 3285.150;  248.350;    0.000
532.311; 3311.150;  219.350;    0.000
532.442; 3270.150;  264.350;    0.000
532.573; 3286.150;  230.350;    0.000
532.704; 3186.150;  253.350;    0.000
532.835; 3277.150;  239.350;    0.000
532.966; 3234.150;  247.350;    0.000
533.097; 3255.150;  225.350;    0.000
533.229; 3203.150;  282.350;    0.000
533.360; 3275.150;  236.350;    0.000
533.491; 3165.150;  247.350;    0.000
533.622; 3245.150;  265.350;    0.000
533.753; 3256.150;  226.350;    0.000
533.884; 3208.150;  294.350;    0.000
534.015; 3288.150;  215.350;    0.000
534.146; 3175.150;  223.350;    0.000
534.277; 3219.150;  264.350;    0.000
534.408; 3240.150;  232.350;    0.000
534.539; 3260.150;  274.350;    0.000
534.670; 3220.150;  275.350;    0.000
534.801; 3154.150;  261.350;    0.000
534.932; 3186.150;  225.350;    0.000
535.063; 3182.150;  235.350;    0.000
535.194; 3212.150;  300.350;    0.000
535.324; 3078.150;  249.350;    0.000
535.455; 3267.150;  260.350;    0.000
535.586; 3149.150;  288.350;    0.000
535.717; 3091.150;  237.350;    0.000
535.848; 3148.150;  271.350;    0.000
535.979; 3181.150;  234.350;    0.000
536.109; 3206.150;  255.350;    0.000
536.240; 3109.150;  269.350;    0.000
536.371; 3162.150;  232.350;    0.000
536.502; 3178.150;  253.350;    0.000
536.632; 3055.150;  240.350;    0.000
536.763; 3133.150;  251.350;    0.000
536.894; 3213.150;  256.350;    0.000
537.025; 3127.150;  247.350;    0.000
537.155; 3083.150;  272.350;    0.000
537.286; 3064.150;  241.350;    0.000
537.417; 3155.150;  279.350;    0.000
537.547; 3031.150;  229.350;    0.000
537.678; 3102.150;  227.350;    0.000
537.808; 3098.150;  225.350;    0.000
537.939; 3198.150;  250.350;    0.000
538.070; 3082.150;  263.350;    0.000
538.200; 3128.150;  270.350;    0.000
538.331; 3085.150;  249.350;    0.000
538.461; 3029.150;  230.350;    0.000
538.592; 3065.150;  282.350;    0.000
538.722; 3159.150;  253.350;    0.000
538.853; 3120.150;  240.350;    0.000
538.983; 3033.150;  232.350;    0.000
539.114; 3125.150;  248.350;    0.000
539.244; 2983.150;  256.350;    0.000
539.375; 3116.150;  248.350;    0.000
539.505; 2974.150;  235.350;    0.000
539.636; 3003.150;  237.350;    0.000
539.766; 3159.150;  263.350;    0.000
539.896; 3104.150;  217.350;    0.000
540.027; 3066.150;  217.350;    0.000
540.157; 3049.150;  231.350;    0.000
540.287; 3064.150;  210.350;    0.000
540.418; 3104.150;  239.350;    0.000
540.548; 3134.150;  260.350;    0.000
540.678; 3137.150;  228.350;    0.000
540.809; 3073.150;  241.350;    0.000
540.939; 3204.150;  238.350;    0.000
541.069; 3150.150;  245.350;    0.000
541.200; 3135.150;  225.350;    0.000
541.330; 3175.150;  219.350;    0.000
541.460; 3221.150;  254.350;    0.000
541.590; 3138.150;  234.350;    0.000
541.720; 3101.150;  196.350;    0.000
541.851; 3200.150;  200.350;    0.000
541.981; 3122.150;  235.350;    0.000
542.111; 3183.150;  246.350;    0.000
542.241; 3125.150;  214.350;    0.000
542.371; 3279.150;  221.350;    0.000
542.501; 3420.150;  259.350;    0.000
542.631; 3259.150;  213.350;    0.000
542.761; 3326.150;  240.350;    0.000
542.891; 3321.150;  242.350;    0.000
543.021; 3306.150;  230.350;    0.000
543.151; 3204.150;  261.350;    0.000
543.281; 3294.150;  212.350;    0.000
543.411; 3259.150;  229.350;    0.000
543.542; 3265.150;  204.350;    0.000
543.671; 3249.150;  260.350;    0.000
543.801; 3258.150;  236.350;    0.000
543.931; 3227.150;  243.350;    0.000
544.061; 3306.150;  262.350;    0.000
544.191; 3271.150;  223.350;    0.000
544.321; 3207.150;  217.350;    0.000
544.451; 3341.150;  209.350;    0.000
544.581; 3286.150;  213.350;    0.000
544.711; 3313.150;  256.350;    0.000
544.841; 3344.150;  235.350;    0.000
544.970; 3314.150;  260.350;    0.000
545.100; 3385.150;  236.350;    0.000
545.230; 3477.150;  220.350;    0.000
545.360; 3403.150;  219.350;    0.000
545.490; 3290.150;  217.350;    0.000
545.619; 3325.150;  199.350;    0.000
545.749; 3289.150;  183.350;    0.000
545.879; 3185.150;  169.350;    0.000
546.009; 3254.150;  215.350;    0.000
546.138; 3235.150;  228.350;    0.000
546.268; 3225.150;  209.350;    0.000
546.398; 3189.150;  167.350;    0.000
546.527; 3311.150;  178.350;    0.000
546.657; 3205.150;  175.350;    0.000
546.786; 3222.150;  225.350;    0.000
546.916; 3231.150;  196.350;    0.000
547.046; 3257.150;  185.350;    0.000
547.175; 3292.150;  184.350;    0.000
547.305; 3203.150;  197.350;    0.000
547.434; 3265.150;  168.350;    0.000
547.564; 3194.150;  183.350;    0.000
547.693; 3273.150;  204.350;    0.000
547.823; 3204.150;  211.350;    0.000
547.953; 3212.150;  174.350;    0.000
548.082; 3241.150;  217.350;    0.000
548.211; 3161.150;  201.350;    0.000
548.341; 3255.150;  195.350;    0.000
548.470; 3228.150;  225.350;    0.000
548.600; 3202.150;  194.350;    0.000
548.729; 3151.150;  218.350;    0.000
548.859; 3163.150;  202.350;    0.000
548.988; 3246.150;  193.350;    0.000
549.117; 3172.150;  182.350;    0.000
549.247; 3251.150;  198.350;    0.000
549.376; 3200.150;  200.350;    0.000
549.505; 3184.150;  200.350;    0.000
549.635; 3283.150;  224.350;    0.000
549.764; 3232.150;  200.350;    0.000
549.893; 3284.150;  224.350;    0.000
550.023; 3286.150;  207.350;    0.000
550.152; 3260.150;  167.350;    0.000
550.281; 3344.150;  219.350;    0.000
550.410; 3254.150;  217.350;    0.000
550.539; 3278.150;  211.350;    0.000
550.669; 3245.150;  173.350;    0.000
550.798; 3290.150;  211.350;    0.000
550.927; 3312.150;  195.350;    0.000
551.056; 3245.150;  176.350;    0.000
551.185; 3243.150;  203.350;    0.000
551.314; 3217.150;  178.350;    0.000
551.443; 3283.150;  185.350;    0.000
551.573; 3144.150;  167.350;    0.000
551.702; 3343.150;  193.350;    0.000
551.831; 3300.150;  245.350;    0.000
551.960; 3295.150;  190.350;    0.000
552.089; 3260.150;  202.350;    0.000
552.218; 3334.150;  211.350;    0.000
552.347; 3244.150;  184.350;    0.000
552.476; 3388.150;  200.350;    0.000
552.605; 3312.150;  174.350;    0.000
552.734; 3436.150;  206.350;    0.000
552.863; 3481.150;  189.350;    0.000
552.992; 3468.150;  209.350;    0.000
553.121; 3440.150;  201.350;    0.000
553.249; 3444.150;  208.350;    0.000
553.378; 3406.150;  142.350;    0.000
553.507; 3377.150;  208.350;    0.000
553.636; 3428.150;  192.350;    0.000
553.765; 3314.150;  182.350;    0.000
553.894; 3328.150;  183.350;    0.000
554.023; 3381.150;  182.350;    0.000
554.151; 3337.150;  211.350;    0.000
554.280; 3318.150;  179.350;    0.000
554.409; 3307.150;  182.350;    0.000
554.538; 3394.150;  209.350;    0.000
554.666; 3243.150;  182.350;    0.000
554.795; 3343.150;  179.350;    0.000
554.924; 3327.150;  217.350;    0.000
555.052; 3314.150;  220.350;    0.000
555.181; 3291.150;  228.350;    0.000
555.310; 3320.150;  212.350;    0.000
555.439; 3254.150;  199.350;    0.000
555.567; 3276.150;  220.350;    0.000
555.696; 3293.150;  187.350;    0.000
555.824; 3300.150;  189.350;    0.000
555.953; 3248.150;  217.350;    0.000
556.082; 3333.150;  187.350;    0.000
556.210; 3298.150;  245.350;    0.000
556.339; 3301.150;  195.350;    0.000
556.467; 3172.150;  218.350;    0.000
556.596; 3284.150;  198.350;    0.000
556.724; 3261.150;  201.350;    0.000
556.853; 3161.150;  196.350;    0.000
556.981; 3207.150;  175.350;    0.000
557.110; 3270.150;  210.350;    0.000
557.238; 3146.150;  190.350;    0.000
557.367; 3155.150;  192.350;    0.000
557.495; 3293.150;  219.350;    0.000
557.623; 3220.150;  203.350;    0.000
557.752; 3209.150;  166.350;    0.000
557.880; 3189.150;  172.350;    0.000
558.008; 3168.150;  221.350;    0.000
558.137; 3291.150;  211.350;    0.000
558.265; 3328.150;  157.350;    0.000
558.393; 3267.150;  198.350;    0.000
558.522; 3241.150;  209.350;    0.000
558.650; 3314.150;  260.350;    0.000
558.778; 3264.150;  203.350;    0.000
558.906; 3272.150;  210.350;    0.000
559.035; 3210.150;  194.350;    0.000
559.163; 3285.150;  192.350;    0.000
559.291; 3229.150;  215.350;    0.000
559.419; 3306.150;  197.350;    0.000
559.548; 3232.150;  160.350;    0.000
559.676; 3225.150;  200.350;    0.000
559.804; 3359.150;  223.350;    0.000
559.932; 3283.150;  213.350;    0.000
560.060; 3343.150;  224.350;    0.000
560.188; 3352.150;  221.350;    0.000
560.316; 3419.150;  223.350;    0.000
560.444; 3374.150;  159.350;    0.000
560.572; 3342.150;  204.350;    0.000
560.700; 3464.150;  213.350;    0.000
560.828; 3388.150;  216.350;    0.000
560.956; 3446.150;  207.350;    0.000
561.085; 3525.150;  231.350;    0.000
561.212; 3435.150;  197.350;    0.000
561.340; 3522.150;  192.350;    0.000
561.468; 3510.150;  215.350;    0.000
561.596; 3479.150;  215.350;    0.000
561.724; 3557.150;  181.350;    0.000
561.852; 3452.150;  184.350;    0.000
561.980; 3441.150;  217.350;    0.000
562.108; 3469.150;  199.350;    0.000
562.236; 3552.150;  181.350;    0.000
562.364; 3569.150;  234.350;    0.000
562.492; 3544.150;  225.350;    0.000
562.619; 3569.150;  204.350;    0.000
562.747; 3635.150;  223.350;    0.000
562.875; 3650.150;  210.350;    0.000
563.003; 3531.150;  232.350;    0.000
563.130; 3692.150;  224.350;    0.000
563.258; 3745.150;  213.350;    0.000
563.386; 3738.150;  191.350;    0.000
563.514; 3759.150;  252.350;    0.000
563.641; 3782.150;  201.350;    0.000
563.769; 3908.150;  201.350;    0.000
563.897; 3997.150;  176.350;    0.000
564.024; 3975.150;  167.350;    0.000
564.152; 3968.150;  205.350;    0.000
564.280; 3987.150;  222.350;    0.000
564.407; 3924.150;  192.350;    0.000
564.535; 4079.150;  231.350;    0.000
564.662; 4050.150;  197.350;    0.000
564.790; 4110.150;  200.350;    0.000
564.917; 4128.150;  172.350;    0.000
565.045; 4132.150;  187.350;    0.000
565.173; 4168.150;  173.350;    0.000
565.300; 4217.150;  196.350;    0.000
565.428; 4257.150;  195.350;    0.000
565.555; 4230.150;  191.350;    0.000
565.682; 4334.150;  169.350;    0.000
565.810; 4386.150;  198.350;    0.000
565.937; 4367.150;  213.350;    0.000
566.065; 4543.150;  221.350;    0.000
566.192; 4465.150;  173.350;    0.000
566.320; 4547.150;  214.350;    0.000
566.447; 4747.150;  214.350;    0.000
566.574; 4834.150;  188.350;    0.000
566.702; 4906.150;  198.350;    0.000
566.829; 5009.150;  200.350;    0.000
566.956; 5064.150;  194.350;    0.000
567.083; 4890.150;  176.350;    0.000
567.211; 4987.150;  189.350;    0.000
567.338; 4951.150;  184.350;    0.000
567.465; 5053.150;  181.350;    0.000
567.593; 5114.150;  194.350;    0.000
567.720; 5035.150;  193.350;    0.000
567.847; 4994.150;  196.350;    0.000
567.974; 5114.150;  199.350;    0.000
568.101; 5409.150;  150.350;    0.000
568.228; 6237.150;  174.350;    0.000
568.356; 6494.150;  164.350;    0.000
568.483; 6511.150;  163.350;    0.000
568.610; 6487.150;  187.350;    0.000
568.737; 7233.150;  192.350;    0.000
568.864; 8285.150;  218.350;    0.000
568.991; 7955.150;  169.350;    0.000
569.118; 7100.150;  161.350;    0.000
569.245; 6596.150;  161.350;    0.000
569.372; 6095.150;  187.350;    0.000
569.499; 5825.150;  146.350;    0.000
569.626; 5518.150;  172.350;    0.000
569.753; 5350.150;  188.350;    0.000
569.880; 5264.150;  180.350;    0.000
570.007; 5094.150;  187.350;    0.000
570.134; 4895.150;  196.350;    0.000
570.261; 4875.150;  127.350;    0.000
570.388; 4741.150;  189.350;    0.000
570.515; 4684.150;  219.350;    0.000
570.642; 4619.150;  187.350;    0.000
570.768; 4504.150;  175.350;    0.000
570.895; 4558.150;  165.350;    0.000
571.022; 4415.150;  180.350;    0.000
571.149; 4436.150;  209.350;    0.000
571.276; 4358.150;  187.350;    0.000
571.402; 4286.150;  227.350;    0.000
571.529; 4255.150;  166.350;    0.000
571.656; 4198.150;  203.350;    0.000
571.783; 4112.150;  156.350;    0.000
571.909; 4089.150;  195.350;    0.000
572.036; 4149.150;  165.350;    0.000
572.163; 4072.150;  156.350;    0.000
572.289; 4009.150;  193.350;    0.000
572.416; 3970.150;  199.350;    0.000
572.543; 3917.150;  185.350;    0.000
572.669; 3929.150;  180.350;    0.000
572.796; 3932.150;  173.350;    0.000
572.922; 3933.150;  186.350;    0.000
573.049; 3967.150;  185.350;    0.000
573.176; 3811.150;  196.350;    0.000
573.302; 3787.150;  189.350;    0.000
573.429; 3808.150;  186.350;    0.000
573.555; 3729.150;  220.350;    0.000
573.682; 3806.150;  196.350;    0.000
573.808; 3756.150;  201.350;    0.000
573.935; 3740.150;  188.350;    0.000
574.061; 3732.150;  216.350;    0.000
574.188; 3825.150;  161.350;    0.000
574.314; 3779.150;  189.350;    0.000
574.440; 3740.150;  190.350;    0.000
574.567; 3718.150;  201.350;    0.000
574.693; 3734.150;  175.350;    0.000
574.820; 3735.150;  188.350;    0.000
574.946; 3620.150;  182.350;    0.000
575.072; 3616.150;  188.350;    0.000
575.198; 3803.150;  232.350;    0.000
575.325; 3645.150;  159.350;    0.000
575.451; 3684.150;  231.350;    0.000
575.577; 3706.150;  196.350;    0.000
575.704; 3660.150;  177.350;    0.000
575.830; 3586.150;  171.350;    0.000
575.956; 3659.150;  163.350;    0.000
576.082; 3618.150;  197.350;    0.000
576.208; 3671.150;  181.350;    0.000
576.335; 3766.150;  218.350;    0.000
576.461; 3845.150;  207.350;    0.000
576.587; 3628.150;  173.350;    0.000
576.713; 3745.150;  170.350;    0.000
576.839; 3634.150;  186.350;    0.000
576.965; 3621.150;  194.350;    0.000
577.091; 3671.150;  167.350;    0.000
577.217; 3680.150;  212.350;    0.000
577.343; 3763.150;  214.350;    0.000
577.469; 3661.150;  208.350;    0.000
577.596; 3635.150;  188.350;    0.000
577.722; 3722.150;  221.350;    0.000
577.848; 3690.150;  197.350;    0.000
577.974; 3636.150;  222.350;    0.000
578.099; 3581.150;  187.350;    0.000
578.225; 3760.150;  213.350;    0.000
578.351; 3717.150;  190.350;    0.000
578.477; 3789.150;  212.350;    0.000
578.603; 3658.150;  178.350;    0.000
578.729; 3713.150;  193.350;    0.000
578.855; 3674.150;  194.350;    0.000
578.981; 3805.150;  152.350;    0.000
579.107; 3825.150;  175.350;    0.000
579.232; 3759.150;  192.350;    0.000
579.358; 3791.150;  186.350;    0.000
579.484; 3763.150;  186.350;    0.000
579.610; 3883.150;  199.350;    0.000
579.735; 3821.150;  197.350;    0.000
579.861; 3818.150;  203.350;    0.000
579.987; 3822.150;  220.350;    0.000
580.113; 3842.150;  210.350;    0.000
580.238; 3846.150;  189.350;    0.000
580.364; 3979.150;  214.350;    0.000
580.490; 3969.150;  205.350;    0.000
580.615; 3931.150;  231.350;    0.000
580.741; 3931.150;  212.350;    0.000
580.867; 3999.150;  196.350;    0.000
580.992; 4094.150;  214.350;    0.000
581.118; 3993.150;  178.350;    0.000
581.243; 4040.150;  209.350;    0.000
581.369; 3950.150;  173.350;    0.000
581.494; 4072.150;  209.350;    0.000
581.620; 4147.150;  204.350;    0.000
581.745; 4115.150;  168.350;    0.000
581.871; 4180.150;  236.350;    0.000
581.996; 4241.150;  212.350;    0.000
582.122; 4178.150;  192.350;    0.000
582.247; 4214.150;  179.350;    0.000
582.373; 4284.150;  189.350;    0.000
582.498; 4382.150;  217.350;    0.000
582.624; 4389.150;  231.350;    0.000
582.749; 4453.150;  237.350;    0.000
582.874; 4419.150;  205.350;    0.000
583.000; 4464.150;  204.350;    0.000
583.125; 4469.150;  192.350;    0.000
583.250; 4583.150;  229.350;    0.000
583.376; 4629.150;  256.350;    0.000
583.501; 4568.150;  200.350;    0.000
583.626; 4798.150;  207.350;    0.000
583.751; 4705.150;  215.350;    0.000
583.877; 4974.150;  212.350;    0.000
584.002; 4911.150;  227.350;    0.000
584.127; 4984.150;  153.350;    0.000
584.252; 5061.150;  197.350;    0.000
584.377; 5127.150;  183.350;    0.000
584.503; 5185.150;  211.350;    0.000
584.628; 5444.150;  215.350;    0.000
584.753; 5414.150;  194.350;    0.000
584.878; 5597.150;  154.350;    0.000
585.003; 5526.150;  213.350;    0.000
585.128; 5713.150;  199.350;    0.000
585.253; 6028.150;  219.350;    0.000
585.378; 5959.150;  174.350;    0.000
585.503; 6173.150;  202.350;    0.000
585.628; 6289.150;  186.350;    0.000
585.753; 6397.150;  209.350;    0.000
585.878; 6644.150;  167.350;    0.000
586.003; 6832.150;  226.350;    0.000
586.128; 7149.150;  206.350;    0.000
586.253; 7365.150;  198.350;    0.000
586.378; 7561.150;  180.350;    0.000
586.503; 7836.150;  201.350;    0.000
586.628; 8210.150;  206.350;    0.000
586.753; 8493.150;  178.350;    0.000
586.878; 9069.150;  228.350;    0.000
587.003; 9515.150;  199.350;    0.000
587.127; 9884.150;  194.350;    0.000
587.252;10597.150;  212.350;    0.000
587.377;11145.150;  172.350;    0.000
587.502;11945.150;  219.350;    0.000
587.627;12840.150;  247.350;    0.000
587.751;13546.150;  184.350;    0.000
587.876;15023.150;  215.350;    0.000
588.001;15961.150;  163.350;    0.000
588.125;17829.150;  185.350;    0.000
588.250;19624.150;  171.350;    0.000
588.375;22393.150;  255.350;    0.000
588.499;25202.150;  185.350;    0.000
588.624;28965.150;  167.350;    0.000
588.749;33765.148;  170.350;    0.000
588.873;36852.148;  173.350;    0.000
588.998;39289.148;  203.350;    0.000
589.122;43321.148;  184.350;    0.000
589.247;43633.148;  217.350;    0.000
589.372;40979.148;  250.350;    0.000
589.496;39476.148;  200.350;    0.000
589.621;39913.148;  199.350;    0.000
589.745;40797.148;  235.350;    0.000
589.870;37217.148;  206.350;    0.000
589.994;31620.150;  194.350;    0.000
590.118;27278.150;  177.350;    0.000
590.243;23777.150;  231.350;    0.000
590.367;21201.150;  173.350;    0.000
590.492;19239.150;  170.350;    0.000
590.616;17546.150;  182.350;    0.000
590.740;16037.150;  178.350;    0.000
590.865;14747.150;  219.350;    0.000
590.989;13831.150;  210.350;    0.000
591.114;12836.150;  194.350;    0.000
591.238;12175.150;  154.350;    0.000
591.362;11409.150;  210.350;    0.000
591.486;10876.150;  215.350;    0.000
591.611;10326.150;  194.350;    0.000
591.735; 9908.150;  206.350;    0.000
591.859; 9360.150;  188.350;    0.000
591.983; 9221.150;  202.350;    0.000
592.107; 8734.150;  175.350;    0.000
592.232; 8425.150;  214.350;    0.000
592.356; 8164.150;  232.350;    0.000
592.480; 7906.150;  203.350;    0.000
592.604; 7801.150;  204.350;    0.000
592.728; 7553.150;  187.350;    0.000
592.852; 7231.150;  204.350;    0.000
592.976; 7084.150;  163.350;    0.000
593.100; 6977.150;  177.350;    0.000
593.224; 6761.150;  209.350;    0.000
593.349; 6535.150;  255.350;    0.000
593.473; 6428.150;  225.350;    0.000
593.597; 6296.150;  211.350;    0.000
593.721; 6185.150;  222.350;    0.000
593.844; 6101.150;  202.350;    0.000
593.968; 5988.150;  223.350;    0.000
594.092; 5910.150;  162.350;    0.000
594.216; 5788.150;  211.350;    0.000
594.340; 5645.150;  198.350;    0.000
594.464; 5525.150;  242.350;    0.000
594.588; 5496.150;  213.350;    0.000
594.712; 5215.150;  198.350;    0.000
594.836; 5262.150;  207.350;    0.000
594.959; 5109.150;  192.350;    0.000
595.083; 5065.150;  180.350;    0.000
595.207; 5020.150;  242.350;    0.000
595.331; 4868.150;  172.350;    0.000
595.455; 4877.150;  185.350;    0.000
595.578; 4829.150;  221.350;    0.000
595.702; 4781.150;  233.350;    0.000
595.826; 4740.150;  164.350;    0.000
595.949; 4574.150;  215.350;    0.000
596.073; 4539.150;  198.350;    0.000
596.197; 4557.150;  266.350;    0.000
596.320; 4493.150;  236.350;    0.000
596.444; 4454.150;  215.350;    0.000
596.568; 4345.150;  213.350;    0.000
596.691; 4268.150;  198.350;    0.000
596.815; 4359.150;  210.350;    0.000
596.938; 4265.150;  207.350;    0.000
597.062; 4201.150;  187.350;    0.000
597.186; 4123.150;  234.350;    0.000
597.309; 4104.150;  176.350;    0.000
597.433; 4118.150;  222.350;    0.000
597.556; 3931.150;  219.350;    0.000
597.680; 4093.150;  227.350;    0.000
597.803; 3946.150;  240.350;    0.000
597.926; 3986.150;  227.350;    0.000
598.050; 3893.150;  198.350;    0.000
598.173; 3972.150;  235.350;    0.000
598.297; 3933.150;  233.350;    0.000
598.420; 3889.150;  211.350;    0.000
598.543; 3837.150;  207.350;    0.000
598.667; 3803.150;  232.350;    0.000
598.790; 3754.150;  205.350;    0.000
598.913; 3697.150;  200.350;    0.000
599.037; 3747.150;  193.350;    0.000
599.160; 3661.150;  199.350;    0.000
599.283; 3712.150;  237.350;    0.000
599.406; 3697.150;  168.350;    0.000
599.530; 3665.150;  231.350;    0.000
599.653; 3620.150;  220.350;    0.000
599.776; 3653.150;  203.350;    0.000
599.899; 3648.150;  202.350;    0.000
600.022; 3453.150;  189.350;    0.000
600.145; 3535.150;  175.350;    0.000
600.269; 3568.150;  235.350;    0.000
600.392; 3553.150;  213.350;    0.000
600.515; 3520.150;  236.350;    0.000
600.638; 3501.150;  198.350;    0.000
600.761; 3500.150;  195.350;    0.000
600.884; 3450.150;  221.350;    0.000
601.007; 3451.150;  236.350;    0.000
601.130; 3356.150;  223.350;    0.000
601.253; 3409.150;  250.350;    0.000
601.376; 3382.150;  195.350;    0.000
601.499; 3319.150;  168.350;    0.000
601.622; 3416.150;  221.350;    0.000
601.745; 3308.150;  223.350;    0.000
601.868; 3283.150;  204.350;    0.000
601.991; 3389.150;  207.350;    0.000
602.113; 3386.150;  223.350;    0.000
602.236; 3224.150;  182.350;    0.000
602.359; 3328.150;  235.350;    0.000
602.482; 3248.150;  173.350;    0.000
602.605; 3277.150;  227.350;    0.000
602.728; 3229.150;  227.350;    0.000
602.850; 3226.150;  250.350;    0.000
602.973; 3324.150;  195.350;    0.000
603.096; 3268.150;  270.350;    0.000
603.219; 3167.150;  197.350;    0.000
603.341; 3297.150;  195.350;    0.000
603.464; 3213.150;  204.350;    0.000
603.587; 3262.150;  243.350;    0.000
603.709; 3126.150;  188.350;    0.000
603.832; 3260.150;  214.350;    0.000
603.955; 3111.150;  213.350;    0.000
604.077; 3105.150;  201.350;    0.000
604.200; 3155.150;  209.350;    0.000
604.323; 3089.150;  201.350;    0.000
604.445; 3090.150;  202.350;    0.000
604.568; 3124.150;  230.350;    0.000
604.690; 3037.150;  212.350;    0.000
604.813; 3102.150;  226.350;    0.000
604.935; 3003.150;  216.350;    0.000
605.058; 3013.150;  182.350;    0.000
605.180; 3138.150;  204.350;    0.000
605.303; 3125.150;  199.350;    0.000
605.425; 3069.150;  178.350;    0.000
605.547; 3114.150;  209.350;    0.000
605.670; 3077.150;  206.350;    0.000
605.792; 3093.150;  199.350;    0.000
605.915; 2941.150;  221.350;    0.000
606.037; 2993.150;  222.350;    0.000
606.159; 3021.150;  160.350;    0.000
606.282; 3049.150;  188.350;    0.000
606.404; 2955.150;  205.350;    0.000
606.526; 3009.150;  228.350;    0.000
606.648; 3021.150;  184.350;    0.000
606.771; 3023.150;  195.350;    0.000
606.893; 2883.150;  193.350;    0.000
607.015; 2966.150;  202.350;    0.000
607.137; 2931.150;  189.350;    0.000
607.260; 2847.150;  201.350;    0.000
607.382; 2956.150;  211.350;    0.000
607.504; 2912.150;  206.350;    0.000
607.626; 2959.150;  236.350;    0.000
607.748; 3028.150;  228.350;    0.000
607.870; 2932.150;  212.350;    0.000
607.992; 2954.150;  201.350;    0.000
608.114; 2896.150;  214.350;    0.000
608.237; 2976.150;  235.350;    0.000
608.359; 2852.150;  215.350;    0.000
608.481; 2952.150;  183.350;    0.000
608.603; 2947.150;  206.350;    0.000
608.725; 2852.150;  238.350;    0.000
608.847; 2908.150;  237.350;    0.000
608.969; 2952.150;  227.350;    0.000
609.090; 2882.150;  205.350;    0.000
609.212; 2928.150;  182.350;    0.000
609.334; 2848.150;  210.350;    0.000
609.456; 2924.150;  208.350;    0.000
609.578; 2834.150;  195.350;    0.000
609.700; 2883.150;  196.350;    0.000
609.822; 2792.150;  184.350;    0.000
609.944; 2848.150;  258.350;    0.000
610.065; 2794.150;  219.350;    0.000
610.187; 2835.150;  217.350;    0.000
610.309; 2908.150;  179.350;    0.000
610.431; 2920.150;  189.350;    0.000
610.552; 2880.150;  212.350;    0.000
610.674; 2805.150;  211.350;    0.000
610.796; 2800.150;  168.350;    0.000
610.918; 2784.150;  201.350;    0.000
611.039; 2810.150;  212.350;    0.000
611.161; 2864.150;  207.350;    0.000
611.282; 2747.150;  219.350;    0.000
611.404; 2792.150;  243.350;    0.000
611.526; 2768.150;  180.350;    0.000
611.647; 2791.150;  235.350;    0.000
611.769; 2854.150;  189.350;    0.000
611.890; 2756.150;  201.350;    0.000
612.012; 2804.150;  191.350;    0.000
612.133; 2834.150;  227.350;    0.000
612.255; 2862.150;  191.350;    0.000
612.377; 2827.150;  192.350;    0.000
612.498; 2800.150;  202.350;    0.000
612.619; 2710.150;  207.350;    0.000
612.741; 2801.150;  241.350;    0.000
612.862; 2823.150;  219.350;    0.000
612.984; 2808.150;  203.350;    0.000
613.105; 2778.150;  228.350;    0.000
613.226; 2743.150;  199.350;    0.000
613.348; 2777.150;  238.350;    0.000
613.469; 2804.150;  239.350;    0.000
613.590; 2776.150;  183.350;    0.000
613.712; 2727.150;  245.350;    0.000
613.833; 2788.150;  241.350;    0.000
613.954; 2735.150;  208.350;    0.000
614.076; 2766.150;  181.350;    0.000
614.197; 2700.150;  217.350;    0.000
614.318; 2800.150;  182.350;    0.000
614.439; 2782.150;  204.350;    0.000
614.560; 2756.150;  219.350;    0.000
614.682; 2751.150;  238.350;    0.000
614.803; 2740.150;  240.350;    0.000
614.924; 2814.150;  212.350;    0.000
615.045; 2851.150;  225.350;    0.000
615.166; 2862.150;  227.350;    0.000
615.287; 3016.150;  230.350;    0.000
615.408; 3402.150;  187.350;    0.000
615.529; 3563.150;  211.350;    0.000
615.650; 3386.150;  202.350;    0.000
615.771; 3115.150;  203.350;    0.000
615.892; 3292.150;  222.350;    0.000
616.013; 3845.150;  215.350;    0.000
616.134; 4302.150;  193.350;    0.000
616.255; 4111.150;  242.350;    0.000
616.376; 3618.150;  205.350;    0.000
616.497; 3352.150;  200.350;    0.000
616.618; 3175.150;  177.350;    0.000
616.739; 3157.150;  218.350;    0.000
616.860; 3088.150;  214.350;    0.000
616.981; 3027.150;  208.350;    0.000
617.102; 2964.150;  203.350;    0.000
617.222; 2952.150;  212.350;    0.000
617.343; 2883.150;  162.350;    0.000
617.464; 2890.150;  230.350;    0.000
617.585; 2874.150;  197.350;    0.000
617.705; 2808.150;  209.350;    0.000
617.826; 2850.150;  229.350;    0.000
617.947; 2782.150;  216.350;    0.000
618.068; 2757.150;  192.350;    0.000
618.188; 2845.150;  230.350;    0.000
618.309; 2834.150;  238.350;    0.000
618.430; 2753.150;  242.350;    0.000
618.550; 2711.150;  235.350;    0.000
618.671; 2763.150;  207.350;    0.000
618.791; 2697.150;  228.350;    0.000
618.912; 2687.150;  266.350;    0.000
619.033; 2779.150;  232.350;    0.000
619.153; 2682.150;  207.350;    0.000
619.274; 2620.150;  193.350;    0.000
619.394; 2643.150;  237.350;    0.000
619.515; 2668.150;  216.350;    0.000
619.635; 2740.150;  203.350;    0.000
619.756; 2689.150;  227.350;    0.000
619.876; 2624.150;  244.350;    0.000
619.996; 2644.150;  220.350;    0.000
620.117; 2726.150;  231.350;    0.000
620.237; 2646.150;  235.350;    0.000
620.358; 2659.150;  241.350;    0.000
620.478; 2624.150;  237.350;    0.000
620.598; 2676.150;  255.350;    0.000
620.719; 2597.150;  243.350;    0.000
620.839; 2703.150;  237.350;    0.000
620.959; 2668.150;  216.350;    0.000
621.079; 2560.150;  240.350;    0.000
621.200; 2626.150;  195.350;    0.000
621.320; 2705.150;  287.350;    0.000
621.440; 2608.150;  236.350;    0.000
621.560; 2612.150;  231.350;    0.000
621.681; 2608.150;  177.350;    0.000
621.801; 2539.150;  257.350;    0.000
621.921; 2591.150;  241.350;    0.000
622.041; 2600.150;  239.350;    0.000
622.161; 2562.150;  233.350;    0.000
622.281; 2596.150;  204.350;    0.000
622.401; 2626.150;  204.350;    0.000
622.521; 2468.150;  242.350;    0.000
622.641; 2516.150;  205.350;    0.000
622.761; 2507.150;  254.350;    0.000
622.882; 2554.150;  225.350;    0.000
623.002; 2555.150;  255.350;    0.000
623.121; 2562.150;  244.350;    0.000
623.241; 2546.150;  238.350;    0.000
623.361; 2546.150;  208.350;    0.000
623.481; 2375.150;  194.350;    0.000
623.601; 2468.150;  249.350;    0.000
623.721; 2549.150;  229.350;    0.000
623.841; 2441.150;  244.350;    0.000
623.961; 2561.150;  253.350;    0.000
624.081; 2492.150;  218.350;    0.000
624.201; 2478.150;  218.350;    0.000
624.320; 2493.150;  212.350;    0.000
624.440; 2483.150;  251.350;    0.000
624.560; 2499.150;  244.350;    0.000
624.680; 2452.150;  224.350;    0.000
624.799; 2437.150;  198.350;    0.000
624.919; 2507.150;  215.350;    0.000
625.039; 2458.150;  225.350;    0.000
625.159; 2462.150;  209.350;    0.000
625.278; 2396.150;  211.350;    0.000
625.398; 2481.150;  260.350;    0.000
625.518; 2422.150;  205.350;    0.000
625.637; 2491.150;  240.350;    0.000
625.757; 2469.150;  208.350;    0.000
625.876; 2452.150;  221.350;    0.000
625.996; 2469.150;  245.350;    0.000
626.115; 2437.150;  196.350;    0.000
626.235; 2438.150;  241.350;    0.000
626.354; 2387.150;  231.350;    0.000
626.474; 2514.150;  220.350;    0.000
626.594; 2433.150;  210.350;    0.000
626.713; 2453.150;  229.350;    0.000
626.832; 2383.150;  236.350;    0.000
626.952; 2436.150;  223.350;    0.000
627.071; 2487.150;  211.350;    0.000
627.191; 2513.150;  220.350;    0.000
627.310; 2421.150;  206.350;    0.000
627.429; 2334.150;  223.350;    0.000
627.549; 2328.150;  205.350;    0.000
627.668; 2378.150;  227.350;    0.000
627.787; 2371.150;  221.350;    0.000
627.907; 2403.150;  194.350;    0.000
628.026; 2327.150;  231.350;    0.000
628.145; 2364.150;  210.350;    0.000
628.264; 2447.150;  245.350;    0.000
628.384; 2352.150;  234.350;    0.000
628.503; 2346.150;  210.350;    0.000
628.622; 2366.150;  223.350;    0.000
628.741; 2344.150;  210.350;    0.000
628.860; 2434.150;  222.350;    0.000
628.980; 2310.150;  184.350;    0.000
629.099; 2451.150;  234.350;    0.000
629.218; 2379.150;  157.350;    0.000
629.337; 2414.150;  220.350;    0.000
629.456; 2405.150;  210.350;    0.000
629.575; 2385.150;  239.350;    0.000
629.694; 2314.150;  216.350;    0.000
629.813; 2410.150;  218.350;    0.000
629.932; 2405.150;  175.350;    0.000
630.051; 2377.150;  218.350;    0.000
630.170; 2297.150;  215.350;    0.000
630.289; 2363.150;  203.350;    0.000
630.408; 2365.150;  180.350;    0.000
630.527; 2407.150;  249.350;    0.000
630.646; 2377.150;  186.350;    0.000
630.764; 2427.150;  189.350;    0.000
630.883; 2368.150;  221.350;    0.000
631.002; 2383.150;  191.350;    0.000
631.121; 2350.150;  210.350;    0.000
631.240; 2421.150;  256.350;    0.000
631.359; 2360.150;  246.350;    0.000
631.477; 2372.150;  230.350;    0.000
631.596; 2396.150;  229.350;    0.000
631.715; 2343.150;  242.350;    0.000
631.834; 2349.150;  261.350;    0.000
631.952; 2396.150;  250.350;    0.000
632.071; 2306.150;  218.350;    0.000
632.190; 2286.150;  200.350;    0.000
632.308; 2360.150;  226.350;    0.000
632.427; 2363.150;  234.350;    0.000
632.546; 2352.150;  250.350;    0.000
632.664; 2303.150;  224.350;    0.000
632.783; 2351.150;  211.350;    0.000
632.901; 2278.150;  254.350;    0.000
633.020; 2312.150;  204.350;    0.000
633.138; 2234.150;  228.350;    0.000
633.257; 2234.150;  219.350;    0.000
633.375; 2346.150;  243.350;    0.000
633.494; 2303.150;  242.350;    0.000
633.612; 2334.150;  227.350;    0.000
633.731; 2285.150;  221.350;    0.000
633.849; 2257.150;  239.350;    0.000
633.968; 2323.150;  219.350;    0.000
634.086; 2278.150;  218.350;    0.000
634.204; 2337.150;  203.350;    0.000
634.323; 2327.150;  222.350;    0.000
634.441; 2301.150;  257.350;    0.000
634.559; 2272.150;  201.350;    0.000
634.678; 2257.150;  214.350;    0.000
634.796; 2243.150;  207.350;    0.000
634.914; 2272.150;  226.350;    0.000
635.032; 2241.150;  250.350;    0.000
635.151; 2258.150;  228.350;    0.000
635.269; 2247.150;  188.350;    0.000
635.387; 2272.150;  247.350;    0.000
635.505; 2242.150;  250.350;    0.000
635.623; 2263.150;  230.350;    0.000
635.742; 2253.150;  209.350;    0.000
635.860; 2304.150;  239.350;    0.000
635.978; 2254.150;  213.350;    0.000
636.096; 2293.150;  176.350;    0.000
636.214; 2184.150;  246.350;    0.000
636.332; 2191.150;  224.350;    0.000
636.450; 2230.150;  215.350;    0.000
636.568; 2241.150;  246.350;    0.000
636.686; 2183.150;  225.350;    0.000
636.804; 2232.150;  218.350;    0.000
636.922; 2168.150;  195.350;    0.000
637.040; 2247.150;  213.350;    0.000
637.158; 2269.150;  228.350;    0.000
637.276; 2302.150;  206.350;    0.000
637.394; 2218.150;  224.350;    0.000
637.512; 2224.150;  245.350;    0.000
637.629; 2280.150;  234.350;    0.000
637.747; 2213.150;  233.350;    0.000
637.865; 2247.150;  236.350;    0.000
637.983; 2153.150;  235.350;    0.000
638.101; 2236.150;  232.350;    0.000
638.218; 2180.150;  256.350;    0.000
638.336; 2189.150;  216.350;    0.000
638.454; 2174.150;  255.350;    0.000
638.572; 2181.150;  237.350;    0.000
638.689; 2224.150;  271.350;    0.000
638.807; 2160.150;  243.350;    0.000
638.925; 2169.150;  259.350;    0.000
639.042; 2139.150;  185.350;    0.000
639.160; 2173.150;  250.350;    0.000
639.278; 2184.150;  207.350;    0.000
639.395; 2166.150;  243.350;    0.000
639.513; 2189.150;  235.350;    0.000
639.630; 2216.150;  230.350;    0.000
639.748; 2077.150;  192.350;    0.000
639.865; 2186.150;  219.350;    0.000
639.983; 2265.150;  183.350;    0.000
640.100; 2173.150;  251.350;    0.000
640.218; 2230.150;  246.350;    0.000
640.335; 2187.150;  227.350;    0.000
640.453; 2159.150;  259.350;    0.000
640.570; 2189.150;  251.350;    0.000
640.688; 2145.150;  223.350;    0.000
640.805; 2091.150;  246.350;    0.000
640.922; 2164.150;  249.350;    0.000
641.040; 2262.150;  257.350;    0.000
641.157; 2161.150;  207.350;    0.000
641.274; 2125.150;  241.350;    0.000
641.391; 2194.150;  246.350;    0.000
641.509; 2112.150;  216.350;    0.000
641.626; 2223.150;  252.350;    0.000
641.743; 2153.150;  215.350;    0.000
641.860; 2161.150;  234.350;    0.000
641.978; 2165.150;  216.350;    0.000
642.095; 2180.150;  247.350;    0.000
642.212; 2120.150;  199.350;    0.000
642.329; 2099.150;  237.350;    0.000
642.446; 2155.150;  222.350;    0.000
642.563; 2113.150;  287.350;    0.000
642.681; 2148.150;  261.350;    0.000
642.798; 2100.150;  251.350;    0.000
642.915; 2130.150;  238.350;    0.000
643.032; 2078.150;  246.350;    0.000
643.149; 2211.150;  239.350;    0.000
643.266; 2162.150;  238.350;    0.000
643.383; 2156.150;  231.350;    0.000
643.500; 2137.150;  212.350;    0.000
643.617; 2115.150;  236.350;    0.000
643.734; 2134.150;  239.350;    0.000
643.850; 2061.150;  234.350;    0.000
643.967; 2132.150;  253.350;    0.000
644.084; 2125.150;  253.350;    0.000
644.201; 2162.150;  227.350;    0.000
644.318; 2147.150;  247.350;    0.000
644.435; 2061.150;  264.350;    0.000
644.552; 2134.150;  230.350;    0.000
644.668; 2117.150;  250.350;    0.000
644.785; 2125.150;  235.350;    0.000
644.902; 2166.150;  227.350;    0.000
645.019; 2131.150;  203.350;    0.000
645.135; 2141.150;  210.350;    0.000
645.252; 2103.150;  206.350;    0.000
645.369; 2143.150;  235.350;    0.000
645.485; 2199.150;  223.350;    0.000
645.602; 2106.150;  205.350;    0.000
645.719; 2095.150;  222.350;    0.000
645.835; 2208.150;  246.350;    0.000
645.952; 2186.150;  239.350;    0.000
646.068; 2114.150;  225.350;    0.000
646.185; 2177.150;  248.350;    0.000
646.302; 2230.150;  226.350;    0.000
646.418; 2196.150;  228.350;    0.000
646.535; 2131.150;  219.350;    0.000
646.651; 2171.150;  204.350;    0.000
646.768; 2155.150;  247.350;    0.000
646.884; 2143.150;  228.350;    0.000
647.000; 2276.150;  223.350;    0.000
647.117; 2220.150;  251.350;    0.000
647.233; 2174.150;  223.350;    0.000
647.350; 2144.150;  237.350;    0.000
647.466; 2244.150;  223.350;    0.000
647.582; 2126.150;  243.350;    0.000
647.699; 2168.150;  223.350;    0.000
647.815; 2249.150;  215.350;    0.000
647.931; 2232.150;  214.350;    0.000
648.047; 2158.150;  199.350;    0.000
648.164; 2165.150;  233.350;    0.000
648.280; 2192.150;  231.350;    0.000
648.396; 2183.150;  215.350;    0.000
648.512; 2240.150;  252.350;    0.000
648.629; 2169.150;  237.350;    0.000
648.745; 2193.150;  216.350;    0.000
648.861; 2168.150;  207.350;    0.000
648.977; 2166.150;  247.350;    0.000
649.093; 2230.150;  221.350;    0.000
649.209; 2257.150;  232.350;    0.000
649.325; 2183.150;  245.350;    0.000
649.441; 2276.150;  253.350;    0.000
649.557; 2139.150;  221.350;    0.000
649.673; 2207.150;  182.350;    0.000
649.789; 2177.150;  245.350;    0.000
649.905; 2128.150;  204.350;    0.000
650.021; 2184.150;  270.350;    0.000
650.137; 2228.150;  218.350;    0.000
650.253; 2256.150;  268.350;    0.000
650.369; 2221.150;  222.350;    0.000
650.485; 2158.150;  215.350;    0.000
650.601; 2234.150;  218.350;    0.000
650.717; 2172.150;  208.350;    0.000
650.833; 2240.150;  263.350;    0.000
650.948; 2297.150;  266.350;    0.000
651.064; 2225.150;  271.350;    0.000
651.180; 2273.150;  232.350;    0.000
651.296; 2278.150;  237.350;    0.000
651.411; 2164.150;  233.350;    0.000
651.527; 2295.150;  232.350;    0.000
651.643; 2267.150;  259.350;    0.000
651.759; 2257.150;  257.350;    0.000
651.874; 2309.150;  216.350;    0.000
651.990; 2286.150;  234.350;    0.000
652.105; 2254.150;  195.350;    0.000
652.221; 2292.150;  245.350;    0.000
652.337; 2349.150;  210.350;    0.000
652.452; 2339.150;  259.350;    0.000
652.568; 2291.150;  202.350;    0.000
652.683; 2269.150;  233.350;    0.000
652.799; 2412.150;  230.350;    0.000
652.914; 2293.150;  198.350;    0.000
653.030; 2278.150;  203.350;    0.000
653.145; 2342.150;  228.350;    0.000
653.261; 2361.150;  244.350;    0.000
653.376; 2362.150;  214.350;    0.000
653.492; 2363.150;  246.350;    0.000
653.607; 2453.150;  241.350;    0.000
653.722; 2413.150;  257.350;    0.000
653.838; 2459.150;  265.350;    0.000
653.953; 2497.150;  252.350;    0.000
654.068; 2502.150;  270.350;    0.000
654.184; 2489.150;  248.350;    0.000
654.299; 2609.150;  226.350;    0.000
654.414; 2486.150;  190.350;    0.000
654.530; 2565.150;  263.350;    0.000
654.645; 2591.150;  240.350;    0.000
654.760; 2701.150;  243.350;    0.000
654.875; 2659.150;  210.350;    0.000
654.990; 2737.150;  250.350;    0.000
655.106; 2847.150;  277.350;    0.000
655.221; 2892.150;  249.350;    0.000
655.336; 2907.150;  239.350;    0.000
655.451; 2910.150;  226.350;    0.000
655.566; 2891.150;  236.350;    0.000
655.681; 3018.150;  272.350;    0.000
655.796; 3052.150;  224.350;    0.000
655.911; 3240.150;  247.350;    0.000
656.026; 3293.150;  240.350;    0.000
656.141; 3332.150;  239.350;    0.000
656.256; 3395.150;  241.350;    0.000
656.371; 3540.150;  213.350;    0.000
656.486; 3536.150;  275.350;    0.000
656.601; 3439.150;  225.350;    0.000
656.716; 3454.150;  239.350;    0.000
656.831; 3320.150;  260.350;    0.000
656.946; 3316.150;  250.350;    0.000
657.060; 3140.150;  257.350;    0.000
657.175; 3166.150;  256.350;    0.000
657.290; 3131.150;  255.350;    0.000
657.405; 3034.150;  303.350;    0.000
657.520; 3038.150;  272.350;    0.000
657.634; 2918.150;  268.350;    0.000
657.749; 2835.150;  261.350;    0.000
657.864; 2870.150;  235.350;    0.000
657.979; 2813.150;  257.350;    0.000
658.093; 2731.150;  243.350;    0.000
658.208; 2781.150;  281.350;    0.000
658.323; 2698.150;  240.350;    0.000
658.437; 2619.150;  285.350;    0.000
658.552; 2587.150;  262.350;    0.000
658.666; 2676.150;  269.350;    0.000
658.781; 2583.150;  244.350;    0.000
658.895; 2557.150;  259.350;    0.000
659.010; 2520.150;  254.350;    0.000
659.125; 2464.150;  210.350;    0.000
659.239; 2510.150;  212.350;    0.000
659.353; 2520.150;  269.350;    0.000
659.468; 2463.150;  269.350;    0.000
659.582; 2398.150;  244.350;    0.000
659.697; 2474.150;  262.350;    0.000
659.811; 2423.150;  271.350;    0.000
659.926; 2406.150;  232.350;    0.000
660.040; 2336.150;  250.350;    0.000
660.154; 2321.150;  209.350;    0.000
660.269; 2325.150;  212.350;    0.000
660.383; 2260.150;  237.350;    0.000
660.497; 2315.150;  231.350;    0.000
660.612; 2380.150;  232.350;    0.000
660.726; 2323.150;  276.350;    0.000
660.840; 2271.150;  235.350;    0.000
660.954; 2288.150;  224.350;    0.000
661.068; 2258.150;  241.350;    0.000
661.183; 2286.150;  223.350;    0.000
661.297; 2236.150;  255.350;    0.000
661.411; 2266.150;  223.350;    0.000
661.525; 2312.150;  249.350;    0.000
661.639; 2235.150;  264.350;    0.000
661.753; 2167.150;  225.350;    0.000
661.867; 2204.150;  245.350;    0.000
661.981; 2127.150;  225.350;    0.000
662.095; 2096.150;  262.350;    0.000
662.209; 2098.150;  225.350;    0.000
662.323; 2044.150;  228.350;    0.000
662.437; 2088.150;  230.350;    0.000
662.551; 2094.150;  234.350;    0.000
662.665; 2122.150;  212.350;    0.000
662.779; 1991.150;  254.350;    0.000
662.893; 2132.150;  269.350;    0.000
663.007; 1970.150;  196.350;    0.000
663.121; 2041.150;  262.350;    0.000
663.235; 2067.150;  263.350;    0.000
663.349; 2056.150;  242.350;    0.000
663.462; 2000.150;  234.350;    0.000
663.576; 2001.150;  219.350;    0.000
663.690; 2061.150;  234.350;    0.000
663.804; 2028.150;  205.350;    0.000
663.917; 1992.150;  224.350;    0.000
664.031; 1954.150;  208.350;    0.000
664.145; 2019.150;  241.350;    0.000
664.258; 1881.150;  188.350;    0.000
664.372; 1948.150;  214.350;    0.000
664.486; 1896.150;  203.350;    0.000
664.599; 1987.150;  217.350;    0.000
664.713; 1954.150;  286.350;    0.000
664.827; 1903.150;  199.350;    0.000
664.940; 1888.150;  250.350;    0.000
665.054; 1944.150;  261.350;    0.000
665.167; 1974.150;  258.350;    0.000
665.281; 1995.150;  234.350;    0.000
665.394; 1882.150;  213.350;    0.000
665.508; 1868.150;  222.350;    0.000
665.621; 1886.150;  254.350;    0.000
665.735; 1907.150;  252.350;    0.000
665.848; 1934.150;  248.350;    0.000
665.961; 1881.150;  234.350;    0.000
666.075; 1870.150;  262.350;    0.000
666.188; 1833.150;  270.350;    0.000
666.301; 1964.150;  237.350;    0.000
666.415; 1885.150;  245.350;    0.000
666.528; 1903.150;  248.350;    0.000
666.641; 1871.150;  210.350;    0.000
666.755; 1813.150;  218.350;    0.000
666.868; 1890.150;  224.350;    0.000
666.981; 1875.150;  244.350;    0.000
667.094; 1886.150;  279.350;    0.000
667.207; 1818.150;  190.350;    0.000
667.321; 1747.150;  210.350;    0.000
667.434; 1815.150;  205.350;    0.000
667.547; 1814.150;  253.350;    0.000
667.660; 1857.150;  243.350;    0.000
667.773; 1875.150;  242.350;    0.000
667.886; 1778.150;  218.350;    0.000
667.999; 1878.150;  226.350;    0.000
668.112; 1857.150;  258.350;    0.000
668.225; 1849.150;  243.350;    0.000
668.338; 1790.150;  224.350;    0.000
668.451; 1803.150;  250.350;    0.000
668.564; 1829.150;  260.350;    0.000
668.677; 1751.150;  204.350;    0.000
668.790; 1793.150;  229.350;    0.000
668.903; 1731.150;  269.350;    0.000
669.016; 1698.150;  228.350;    0.000
669.129; 1779.150;  253.350;    0.000
669.242; 1720.150;  245.350;    0.000
669.354; 1749.150;  234.350;    0.000
669.467; 1732.150;  256.350;    0.000
669.580; 1831.150;  223.350;    0.000
669.693; 1744.150;  252.350;    0.000
669.806; 1760.150;  212.350;    0.000
669.918; 1697.150;  228.350;    0.000
670.031; 1756.150;  265.350;    0.000
670.144; 1814.150;  255.350;    0.000
670.256; 1728.150;  229.350;    0.000
670.369; 1784.150;  301.350;    0.000
670.482; 1731.150;  263.350;    0.000
670.594; 1730.150;  246.350;    0.000
670.707; 1743.150;  255.350;    0.000
670.820; 1664.150;  256.350;    0.000
670.932; 1638.150;  210.350;    0.000
671.045; 1780.150;  249.350;    0.000
671.157; 1745.150;  254.350;    0.000
671.270; 1782.150;  265.350;    0.000
671.382; 1762.150;  219.350;    0.000
671.495; 1733.150;  242.350;    0.000
671.607; 1742.150;  266.350;    0.000
671.720; 1695.150;  238.350;    0.000
671.832; 1767.150;  220.350;    0.000
671.944; 1739.150;  251.350;    0.000
672.057; 1707.150;  232.350;    0.000
672.169; 1741.150;  240.350;    0.000
672.281; 1760.150;  270.350;    0.000
672.394; 1694.150;  257.350;    0.000
672.506; 1616.150;  247.350;    0.000
672.618; 1694.150;  229.350;    0.000
672.731; 1737.150;  227.350;    0.000
672.843; 1692.150;  282.350;    0.000
672.955; 1685.150;  262.350;    0.000
673.067; 1662.150;  277.350;    0.000
673.180; 1727.150;  280.350;    0.000
673.292; 1655.150;  241.350;    0.000
673.404; 1688.150;  234.350;    0.000
673.516; 1691.150;  224.350;    0.000
673.628; 1661.150;  272.350;    0.000
673.740; 1712.150;  249.350;    0.000
673.852; 1654.150;  288.350;    0.000
673.964; 1780.150;  278.350;    0.000
674.076; 1704.150;  273.350;    0.000
674.188; 1761.150;  251.350;    0.000
674.300; 1758.150;  244.350;    0.000
674.412; 1745.150;  267.350;    0.000
674.524; 1752.150;  276.350;    0.000
674.636; 1722.150;  234.350;    0.000
674.748; 1675.150;  267.350;    0.000
674.860; 1673.150;  255.350;    0.000
674.972; 1645.150;  253.350;    0.000
675.084; 1662.150;  253.350;    0.000
675.196; 1663.150;  300.350;    0.000
675.307; 1632.150;  307.350;    0.000
675.419; 1667.150;  245.350;    0.000
675.531; 1735.150;  292.350;    0.000
675.643; 1683.150;  244.350;    0.000
675.755; 1654.150;  265.350;    0.000
675.866; 1682.150;  281.350;    0.000
675.978; 1656.150;  266.350;    0.000
676.090; 1630.150;  267.350;    0.000
676.201; 1664.150;  265.350;    0.000
676.313; 1745.150;  222.350;    0.000
676.425; 1649.150;  248.350;    0.000
676.536; 1688.150;  234.350;    0.000
676.648; 1643.150;  261.350;    0.000
676.759; 1698.150;  280.350;    0.000
676.871; 1697.150;  260.350;    0.000
676.983; 1681.150;  277.350;    0.000
677.094; 1656.150;  252.350;    0.000
677.206; 1666.150;  238.350;    0.000
677.317; 1645.150;  269.350;    0.000
677.429; 1535.150;  245.350;    0.000
677.540; 1593.150;  244.350;    0.000
677.651; 1590.150;  225.350;    0.000
677.763; 1613.150;  216.350;    0.000
677.874; 1617.150;  226.350;    0.000
677.986; 1568.150;  234.350;    0.000
678.097; 1559.150;  237.350;    0.000
678.208; 1693.150;  278.350;    0.000
678.320; 1661.150;  243.350;    0.000
678.431; 1567.150;  248.350;    0.000
678.542; 1548.150;  240.350;    0.000
678.653; 1542.150;  250.350;    0.000
678.765; 1581.150;  258.350;    0.000
678.876; 1599.150;  221.350;    0.000
678.987; 1580.150;  229.350;    0.000
679.098; 1590.150;  233.350;    0.000
679.209; 1547.150;  274.350;    0.000
679.320; 1545.150;  216.350;    0.000
679.432; 1570.150;  246.350;    0.000
679.543; 1514.150;  226.350;    0.000
679.654; 1543.150;  232.350;    0.000
679.765; 1580.150;  246.350;    0.000
679.876; 1599.150;  263.350;    0.000
679.987; 1539.150;  216.350;    0.000
680.098; 1563.150;  262.350;    0.000
680.209; 1574.150;  219.350;    0.000
680.320; 1572.150;  232.350;    0.000
680.431; 1590.150;  261.350;    0.000
680.542; 1602.150;  219.350;    0.000
680.653; 1536.150;  238.350;    0.000
680.763; 1513.150;  191.350;    0.000
680.874; 1524.150;  267.350;    0.000
680.985; 1533.150;  240.350;    0.000
681.096; 1523.150;  251.350;    0.000
681.207; 1598.150;  232.350;    0.000
681.318; 1531.150;  211.350;    0.000
681.428; 1606.150;  233.350;    0.000
681.539; 1447.150;  197.350;    0.000
681.650; 1552.150;  197.350;    0.000
681.760; 1525.150;  243.350;    0.000
681.871; 1596.150;  245.350;    0.000
681.982; 1537.150;  218.350;    0.000
682.093; 1574.150;  262.350;    0.000
682.203; 1602.150;  250.350;    0.000
682.314; 1605.150;  239.350;    0.000
682.424; 1604.150;  250.350;    0.000
682.535; 1495.150;  206.350;    0.000
682.646; 1577.150;  302.350;    0.000
682.756; 1511.150;  258.350;    0.000
682.867; 1569.150;  265.350;    0.000
682.977; 1512.150;  218.350;    0.000
683.088; 1472.150;  264.350;    0.000
683.198; 1463.150;  236.350;    0.000
683.308; 1594.150;  246.350;    0.000
683.419; 1577.150;  296.350;    0.000
683.529; 1578.150;  242.350;    0.000
683.640; 1530.150;  245.350;    0.000
683.750; 1490.150;  213.350;    0.000
683.860; 1565.150;  256.350;    0.000
683.971; 1541.150;  251.350;    0.000
684.081; 1531.150;  232.350;    0.000
684.191; 1559.150;  252.350;    0.000
684.301; 1539.150;  214.350;    0.000
684.412; 1553.150;  261.350;    0.000
684.522; 1591.150;  243.350;    0.000
684.632; 1542.150;  257.350;    0.000
684.742; 1512.150;  271.350;    0.000
684.852; 1514.150;  258.350;    0.000
684.963; 1517.150;  262.350;    0.000
685.073; 1512.150;  219.350;    0.000
685.183; 1467.150;  270.350;    0.000
685.293; 1518.150;  233.350;    0.000
685.403; 1521.150;  274.350;    0.000
685.513; 1503.150;  280.350;    0.000
685.623; 1510.150;  267.350;    0.000
685.733; 1546.150;  274.350;    0.000
685.843; 1489.150;  274.350;    0.000
685.953; 1529.150;  244.350;    0.000
686.063; 1516.150;  261.350;    0.000
686.173; 1487.150;  283.350;    0.000
686.283; 1503.150;  260.350;    0.000
686.393; 1567.150;  256.350;    0.000
686.503; 1509.150;  295.350;    0.000
686.612; 1526.150;  294.350;    0.000
686.722; 1574.150;  263.350;    0.000
686.832; 1534.150;  291.350;    0.000
686.942; 1500.150;  229.350;    0.000
687.052; 1469.150;  241.350;    0.000
687.161; 1481.150;  304.350;    0.000
687.271; 1501.150;  223.350;    0.000
687.381; 1479.150;  273.350;    0.000
687.491; 1516.150;  246.350;    0.000
687.600; 1561.150;  242.350;    0.000
687.710; 1515.150;  225.350;    0.000
687.820; 1549.150;  259.350;    0.000
687.929; 1456.150;  232.350;    0.000
688.039; 1512.150;  248.350;    0.000
688.148; 1511.150;  250.350;    0.000
688.258; 1466.150;  240.350;    0.000
688.367; 1519.150;  253.350;    0.000
688.477; 1478.150;  229.350;    0.000
688.586; 1510.150;  259.350;    0.000
688.696; 1514.150;  250.350;    0.000
688.805; 1507.150;  279.350;    0.000
688.915; 1446.150;  250.350;    0.000
689.024; 1485.150;  240.350;    0.000
689.134; 1477.150;  269.350;    0.000
689.243; 1467.150;  214.350;    0.000
689.352; 1514.150;  257.350;    0.000
689.462; 1451.150;  248.350;    0.000
689.571; 1507.150;  233.350;    0.000
689.680; 1537.150;  236.350;    0.000
689.790; 1442.150;  238.350;    0.000
689.899; 1565.150;  232.350;    0.000
690.008; 1504.150;  259.350;    0.000
690.117; 1488.150;  254.350;    0.000
690.227; 1525.150;  251.350;    0.000
690.336; 1485.150;  240.350;    0.000
690.445; 1487.150;  235.350;    0.000
690.554; 1478.150;  243.350;    0.000
690.663; 1494.150;  214.350;    0.000
690.772; 1531.150;  247.350;    0.000
690.881; 1509.150;  249.350;    0.000
690.990; 1472.150;  265.350;    0.000
691.099; 1505.150;  217.350;    0.000
691.209; 1501.150;  272.350;    0.000
691.318; 1452.150;  223.350;    0.000
691.427; 1399.150;  212.350;    0.000
691.536; 1482.150;  260.350;    0.000
691.644; 1481.150;  246.350;    0.000
691.753; 1427.150;  251.350;    0.000
691.862; 1454.150;  239.350;    0.000
691.971; 1448.150;  253.350;    0.000
692.080; 1483.150;  255.350;    0.000
692.189; 1457.150;  228.350;    0.000
692.298; 1506.150;  243.350;    0.000
692.406; 1525.150;  269.350;    0.000
692.515; 1538.150;  254.350;    0.000
692.624; 1448.150;  225.350;    0.000
692.733; 1469.150;  245.350;    0.000
692.842; 1539.150;  259.350;    0.000
692.950; 1491.150;  226.350;    0.000
693.059; 1435.150;  216.350;    0.000
693.168; 1480.150;  266.350;    0.000
693.276; 1487.150;  236.350;    0.000
693.385; 1454.150;  257.350;    0.000
693.494; 1486.150;  268.350;    0.000
693.602; 1452.150;  239.350;    0.000
693.711; 1440.150;  224.350;    0.000
693.819; 1502.150;  263.350;    0.000
693.928; 1443.150;  270.350;    0.000
694.036; 1401.150;  247.350;    0.000
694.145; 1408.150;  261.350;    0.000
694.253; 1456.150;  261.350;    0.000
694.362; 1477.150;  253.350;    0.000
694.470; 1480.150;  270.350;    0.000
694.579; 1423.150;  233.350;    0.000
694.687; 1498.150;  260.350;    0.000
694.795; 1494.150;  228.350;    0.000
694.904; 1459.150;  228.350;    0.000
695.012; 1466.150;  288.350;    0.000
695.120; 1428.150;  230.350;    0.000
695.229; 1525.150;  287.350;    0.000
695.337; 1443.150;  249.350;    0.000
695.445; 1502.150;  283.350;    0.000
695.553; 1455.150;  251.350;    0.000
695.662; 1468.150;  236.350;    0.000
695.770; 1481.150;  267.350;    0.000
695.878; 1506.150;  268.350;    0.000
695.986; 1479.150;  297.350;    0.000
696.094; 1442.150;  275.350;    0.000
696.202; 1460.150;  201.350;    0.000
696.310; 1443.150;  283.350;    0.000
696.419; 1481.150;  261.350;    0.000
696.527; 1506.150;  252.350;    0.000
696.635; 1575.150;  249.350;    0.000
696.743; 1452.150;  236.350;    0.000
696.851; 1500.150;  241.350;    0.000
696.959; 1459.150;  278.350;    0.000
697.067; 1515.150;  239.350;    0.000
697.174; 1466.150;  260.350;    0.000
697.282; 1452.150;  259.350;    0.000
697.390; 1492.150;  302.350;    0.000
697.498; 1522.150;  216.350;    0.000
697.606; 1450.150;  245.350;    0.000
697.714; 1469.150;  279.350;    0.000
697.822; 1494.150;  267.350;    0.000
697.929; 1406.150;  234.350;    0.000
698.037; 1403.150;  255.350;    0.000
698.145; 1459.150;  226.350;    0.000
698.253; 1465.150;  261.350;    0.000
698.360; 1459.150;  299.350;    0.000
698.468; 1411.150;  254.350;    0.000
698.576; 1430.150;  307.350;    0.000
698.683; 1508.150;  280.350;    0.000
698.791; 1483.150;  284.350;    0.000
698.899; 1506.150;  279.350;    0.000
699.006; 1492.150;  264.350;    0.000
699.114; 1465.150;  263.350;    0.000
699.221; 1474.150;  291.350;    0.000
699.329; 1508.150;  309.350;    0.000
699.436; 1455.150;  261.350;    0.000
699.544; 1526.150;  259.350;    0.000
699.651; 1427.150;  251.350;    0.000
699.759; 1519.150;  251.350;    0.000
699.866; 1508.150;  266.350;    0.000
699.974; 1458.150;  264.350;    0.000
700.081; 1465.150;  295.350;    0.000
700.188; 1464.150;  293.350;    0.000
700.296; 1484.150;  233.350;    0.000
700.403; 1498.150;  290.350;    0.000
700.510; 1421.150;  275.350;    0.000
700.618; 1539.150;  273.350;    0.000
700.725; 1452.150;  262.350;    0.000
700.832; 1448.150;  250.350;    0.000
700.940; 1479.150;  300.350;    0.000
701.047; 1459.150;  245.350;    0.000
701.154; 1372.150;  280.350;    0.000
701.261; 1452.150;  270.350;    0.000
701.368; 1452.150;  286.350;    0.000
701.475; 1410.150;  301.350;    0.000
701.582; 1436.150;  286.350;    0.000
701.690; 1464.150;  279.350;    0.000
701.797; 1438.150;  292.350;    0.000
701.904; 1568.150;  314.350;    0.000
702.011; 1527.150;  340.350;    0.000
702.118; 1480.150;  276.350;    0.000
702.225; 1566.150;  351.350;    0.000
702.332; 1525.150;  301.350;    0.000
702.439; 1526.150;  334.350;    0.000
702.546; 1512.150;  325.350;    0.000
702.652; 1482.150;  343.350;    0.000
702.759; 1495.150;  339.350;    0.000
702.866; 1489.150;  344.350;    0.000
702.973; 1519.150;  330.350;    0.000
703.080; 1550.150;  322.350;    0.000
703.187; 1457.150;  327.350;    0.000
703.294; 1524.150;  339.350;    0.000
703.400; 1411.150;  325.350;    0.000
703.507;  404.150;  372.350;    0.000
703.614;  311.150;  348.350;    0.000
703.720;  311.150;  333.350;    0.000
703.827;  318.150;  331.350;    0.000
703.934;  328.150;  330.350;    0.000
704.040;  300.150;  327.350;    0.000
704.147;  292.150;  327.350;    0.000
704.254;  360.150;  354.350;    0.000
704.360;  307.150;  337.350;    0.000
704.467;  306.150;  370.350;    0.000
704.573;  318.150;  367.350;    0.000
704.680;  334.150;  339.350;    0.000
704.786;  302.150;  356.350;    0.000
704.893;  342.150;  352.350;    0.000
704.999;  303.150;  332.350;    0.000
705.106;  349.150;  359.350;    0.000

