
Integration time [ms]:   0.300
Averaging Nr. [scans]: 1
Smoothing Nr. [pixels]: 0
Data measured with spectrometer [name]: UV2
Wave   ;Sample   ;Dark     ;Reference
[nm]   ;[counts] ;[counts] ;[counts] 

353.533;  218.325;  235.675;    0.000
353.597;  207.325;  239.675;    0.000
353.660;  189.325;  203.675;    0.000
353.723;  166.325;  225.675;    0.000
353.786;  178.325;  178.675;    0.000
353.850;  231.325;  199.675;    0.000
353.913;  198.325;  179.675;    0.000
353.976;  199.325;  209.675;    0.000
354.039;  203.325;  188.675;    0.000
354.102;  233.325;  219.675;    0.000
354.166;  226.325;  237.675;    0.000
354.229;  205.325;  179.675;    0.000
354.292;  204.325;  210.675;    0.000
354.355;  228.325;  214.675;    0.000
354.418;  181.325;  173.675;    0.000
354.481;  235.325;  170.675;    0.000
354.545;  479.325;  229.675;    0.000
354.608;  540.325;  233.675;    0.000
354.671;  492.325;  183.675;    0.000
354.734;  539.325;  208.675;    0.000
354.797;  528.325;  263.675;    0.000
354.860;  554.325;  208.675;    0.000
354.923;  548.325;  202.675;    0.000
354.986;  568.325;  207.675;    0.000
355.050;  570.325;  180.675;    0.000
355.113;  528.325;  189.675;    0.000
355.176;  589.325;  214.675;    0.000
355.239;  554.325;  199.675;    0.000
355.302;  564.325;  229.675;    0.000
355.365;  621.325;  220.675;    0.000
355.428;  632.325;  196.675;    0.000
355.491;  643.325;  243.675;    0.000
355.554;  581.325;  191.675;    0.000
355.617;  590.325;  200.675;    0.000
355.680;  605.325;  190.675;    0.000
355.743;  578.325;  236.675;    0.000
355.806;  584.325;  193.675;    0.000
355.869;  591.325;  223.675;    0.000
355.932;  567.325;  208.675;    0.000
355.995;  645.325;  231.675;    0.000
356.058;  599.325;  202.675;    0.000
356.121;  664.325;  198.675;    0.000
356.184;  660.325;  209.675;    0.000
356.247;  634.325;  224.675;    0.000
356.310;  635.325;  149.675;    0.000
356.373;  672.325;  211.675;    0.000
356.436;  628.325;  195.675;    0.000
356.498;  632.325;  176.675;    0.000
356.561;  665.325;  186.675;    0.000
356.624;  624.325;  184.675;    0.000
356.687;  652.325;  179.675;    0.000
356.750;  640.325;  213.675;    0.000
356.813;  654.325;  172.675;    0.000
356.876;  659.325;  189.675;    0.000
356.939;  648.325;  204.675;    0.000
357.001;  710.325;  195.675;    0.000
357.064;  690.325;  202.675;    0.000
357.127;  703.325;  176.675;    0.000
357.190;  650.325;  186.675;    0.000
357.253;  698.325;  178.675;    0.000
357.316;  697.325;  187.675;    0.000
357.378;  737.325;  181.675;    0.000
357.441;  664.325;  142.675;    0.000
357.504;  643.325;  161.675;    0.000
357.567;  613.325;  113.675;    0.000
357.629;  681.325;  193.675;    0.000
357.692;  635.325;  144.675;    0.000
357.755;  672.325;  177.675;    0.000
357.818;  654.325;  144.675;    0.000
357.880;  675.325;  182.675;    0.000
357.943;  637.325;  166.675;    0.000
358.006;  684.325;  184.675;    0.000
358.069;  664.325;  200.675;    0.000
358.131;  685.325;  148.675;    0.000
358.194;  634.325;  155.675;    0.000
358.257;  655.325;  173.675;    0.000
358.319;  652.325;  178.675;    0.000
358.382;  716.325;  184.675;    0.000
358.445;  669.325;  156.675;    0.000
358.507;  659.325;  199.675;    0.000
358.570;  756.325;  182.675;    0.000
358.633;  684.325;  167.675;    0.000
358.695;  678.325;  124.675;    0.000
358.758;  615.325;  164.675;    0.000
358.821;  666.325;  147.675;    0.000
358.883;  702.325;  153.675;    0.000
358.946;  696.325;  171.675;    0.000
359.008;  717.325;  196.675;    0.000
359.071;  720.325;  178.675;    0.000
359.134;  689.325;  123.675;    0.000
359.196;  667.325;  166.675;    0.000
359.259;  696.325;  173.675;    0.000
359.321;  729.325;  164.675;    0.000
359.384;  754.325;  155.675;    0.000
359.446;  695.325;  157.675;    0.000
359.509;  736.325;  153.675;    0.000
359.571;  734.325;  184.675;    0.000
359.634;  747.325;  138.675;    0.000
359.696;  725.325;  169.675;    0.000
359.759;  746.325;  152.675;    0.000
359.821;  770.325;  150.675;    0.000
359.884;  699.325;  166.675;    0.000
359.946;  780.325;  165.675;    0.000
360.009;  705.325;  176.675;    0.000
360.071;  733.325;  148.675;    0.000
360.134;  747.325;  193.675;    0.000
360.196;  746.325;  151.675;    0.000
360.259;  728.325;  182.675;    0.000
360.321;  751.325;  168.675;    0.000
360.384;  743.325;  176.675;    0.000
360.446;  702.325;  156.675;    0.000
360.508;  757.325;  183.675;    0.000
360.571;  770.325;  193.675;    0.000
360.633;  784.325;  184.675;    0.000
360.696;  708.325;  136.675;    0.000
360.758;  753.325;  186.675;    0.000
360.820;  775.325;  127.675;    0.000
360.883;  733.325;  146.675;    0.000
360.945;  772.325;  144.675;    0.000
361.007;  752.325;  160.675;    0.000
361.070;  769.325;  175.675;    0.000
361.132;  764.325;  195.675;    0.000
361.194;  733.325;  167.675;    0.000
361.257;  714.325;  140.675;    0.000
361.319;  758.325;  154.675;    0.000
361.381;  755.325;  181.675;    0.000
361.443;  758.325;  137.675;    0.000
361.506;  739.325;  159.675;    0.000
361.568;  743.325;  144.675;    0.000
361.630;  781.325;  189.675;    0.000
361.693;  772.325;  162.675;    0.000
361.755;  785.325;  156.675;    0.000
361.817;  826.325;  225.675;    0.000
361.879;  794.325;  172.675;    0.000
361.941;  793.325;  138.675;    0.000
362.004;  802.325;  163.675;    0.000
362.066;  749.325;  164.675;    0.000
362.128;  787.325;  160.675;    0.000
362.190;  775.325;  168.675;    0.000
362.252;  809.325;  177.675;    0.000
362.315;  817.325;  169.675;    0.000
362.377;  807.325;  188.675;    0.000
362.439;  756.325;  158.675;    0.000
362.501;  816.325;  168.675;    0.000
362.563;  821.325;  168.675;    0.000
362.625;  779.325;  188.675;    0.000
362.688;  790.325;  162.675;    0.000
362.750;  850.325;  209.675;    0.000
362.812;  800.325;  154.675;    0.000
362.874;  789.325;  190.675;    0.000
362.936;  848.325;  190.675;    0.000
362.998;  843.325;  143.675;    0.000
363.060;  827.325;  186.675;    0.000
363.122;  810.325;  167.675;    0.000
363.184;  795.325;  163.675;    0.000
363.246;  802.325;  169.675;    0.000
363.308;  780.325;  165.675;    0.000
363.370;  848.325;  177.675;    0.000
363.432;  787.325;  139.675;    0.000
363.494;  818.325;  177.675;    0.000
363.556;  785.325;  164.675;    0.000
363.618;  800.325;  170.675;    0.000
363.680;  810.325;  146.675;    0.000
363.742;  868.325;  179.675;    0.000
363.804;  829.325;  188.675;    0.000
363.866;  825.325;  186.675;    0.000
363.928;  834.325;  147.675;    0.000
363.990;  859.325;  185.675;    0.000
364.052;  870.325;  197.675;    0.000
364.114;  775.325;  150.675;    0.000
364.176;  855.325;  217.675;    0.000
364.238;  891.325;  159.675;    0.000
364.300;  790.325;  192.675;    0.000
364.362;  815.325;  130.675;    0.000
364.424;  782.325;  131.675;    0.000
364.486;  846.325;  178.675;    0.000
364.548;  848.325;  203.675;    0.000
364.609;  857.325;  192.675;    0.000
364.671;  866.325;  169.675;    0.000
364.733;  871.325;  169.675;    0.000
364.795;  845.325;  157.675;    0.000
364.857;  810.325;  171.675;    0.000
364.919;  797.325;  134.675;    0.000
364.981;  783.325;  162.675;    0.000
365.042;  852.325;  136.675;    0.000
365.104;  861.325;  152.675;    0.000
365.166;  809.325;  149.675;    0.000
365.228;  887.325;  195.675;    0.000
365.290;  830.325;  147.675;    0.000
365.351;  886.325;  138.675;    0.000
365.413;  823.325;  168.675;    0.000
365.475;  773.325;  150.675;    0.000
365.537;  832.325;  179.675;    0.000
365.598;  873.325;  177.675;    0.000
365.660;  829.325;  149.675;    0.000
365.722;  844.325;  160.675;    0.000
365.784;  837.325;  175.675;    0.000
365.845;  860.325;  149.675;    0.000
365.907;  823.325;  154.675;    0.000
365.969;  827.325;  128.675;    0.000
366.030;  900.325;  176.675;    0.000
366.092;  823.325;  181.675;    0.000
366.154;  828.325;  194.675;    0.000
366.215;  856.325;  149.675;    0.000
366.277;  846.325;  144.675;    0.000
366.339;  862.325;  160.675;    0.000
366.400;  882.325;  144.675;    0.000
366.462;  796.325;  145.675;    0.000
366.524;  870.325;  148.675;    0.000
366.585;  879.325;  128.675;    0.000
366.647;  895.325;  156.675;    0.000
366.708;  867.325;  128.675;    0.000
366.770;  856.325;  188.675;    0.000
366.832;  899.325;  170.675;    0.000
366.893;  862.325;  158.675;    0.000
366.955;  862.325;  150.675;    0.000
367.016;  924.325;  160.675;    0.000
367.078;  872.325;  144.675;    0.000
367.139;  852.325;  109.675;    0.000
367.201;  881.325;  155.675;    0.000
367.262;  895.325;  165.675;    0.000
367.324;  898.325;  180.675;    0.000
367.385;  864.325;  150.675;    0.000
367.447;  928.325;  164.675;    0.000
367.508;  863.325;  137.675;    0.000
367.570;  856.325;  174.675;    0.000
367.631;  873.325;  126.675;    0.000
367.693;  886.325;  153.675;    0.000
367.754;  878.325;  194.675;    0.000
367.816;  802.325;  154.675;    0.000
367.877;  872.325;  183.675;    0.000
367.939;  933.325;  179.675;    0.000
368.000;  847.325;  142.675;    0.000
368.062;  881.325;  147.675;    0.000
368.123;  847.325;  155.675;    0.000
368.184;  900.325;  169.675;    0.000
368.246;  869.325;  145.675;    0.000
368.307;  942.325;  165.675;    0.000
368.369;  827.325;  177.675;    0.000
368.430;  898.325;  161.675;    0.000
368.491;  910.325;  156.675;    0.000
368.553;  937.325;  156.675;    0.000
368.614;  867.325;  186.675;    0.000
368.675;  894.325;  154.675;    0.000
368.737;  881.325;  162.675;    0.000
368.798;  911.325;  202.675;    0.000
368.859;  917.325;  162.675;    0.000
368.921;  940.325;  171.675;    0.000
368.982;  889.325;  193.675;    0.000
369.043;  909.325;  207.675;    0.000
369.104;  910.325;  143.675;    0.000
369.166;  907.325;  203.675;    0.000
369.227;  894.325;  125.675;    0.000
369.288;  915.325;  154.675;    0.000
369.349;  909.325;  187.675;    0.000
369.411;  897.325;  191.675;    0.000
369.472;  930.325;  175.675;    0.000
369.533;  899.325;  180.675;    0.000
369.594;  900.325;  161.675;    0.000
369.656;  913.325;  169.675;    0.000
369.717;  863.325;  103.675;    0.000
369.778;  959.325;  159.675;    0.000
369.839;  856.325;  146.675;    0.000
369.900;  958.325;  218.675;    0.000
369.961;  933.325;  200.675;    0.000
370.023;  924.325;  177.675;    0.000
370.084;  888.325;  149.675;    0.000
370.145;  908.325;  179.675;    0.000
370.206;  947.325;  179.675;    0.000
370.267;  941.325;  166.675;    0.000
370.328;  882.325;  164.675;    0.000
370.389;  908.325;  162.675;    0.000
370.451;  934.325;  179.675;    0.000
370.512;  886.325;  181.675;    0.000
370.573;  935.325;  173.675;    0.000
370.634;  893.325;  162.675;    0.000
370.695;  862.325;  167.675;    0.000
370.756;  899.325;  177.675;    0.000
370.817;  901.325;  178.675;    0.000
370.878;  954.325;  152.675;    0.000
370.939;  881.325;  185.675;    0.000
371.000;  963.325;  173.675;    0.000
371.061;  928.325;  176.675;    0.000
371.122;  951.325;  169.675;    0.000
371.183;  905.325;  116.675;    0.000
371.244;  961.325;  174.675;    0.000
371.305;  954.325;  152.675;    0.000
371.366;  948.325;  168.675;    0.000
371.427;  902.325;  188.675;    0.000
371.488;  893.325;  180.675;    0.000
371.549;  895.325;  145.675;    0.000
371.610;  913.325;  160.675;    0.000
371.671;  898.325;  164.675;    0.000
371.732;  971.325;  158.675;    0.000
371.793;  959.325;  162.675;    0.000
371.853;  956.325;  130.675;    0.000
371.914;  971.325;  172.675;    0.000
371.975;  959.325;   98.675;    0.000
372.036;  904.325;  161.675;    0.000
372.097;  876.325;  143.675;    0.000
372.158; 1024.325;  175.675;    0.000
372.219;  960.325;  196.675;    0.000
372.280;  918.325;  175.675;    0.000
372.340;  994.325;  160.675;    0.000
372.401;  990.325;  163.675;    0.000
372.462;  934.325;  147.675;    0.000
372.523;  886.325;  146.675;    0.000
372.584;  933.325;  173.675;    0.000
372.645;  869.325;  126.675;    0.000
372.705;  989.325;  179.675;    0.000
372.766;  943.325;  173.675;    0.000
372.827;  967.325;  171.675;    0.000
372.888;  955.325;  134.675;    0.000
372.948;  939.325;  167.675;    0.000
373.009;  915.325;  167.675;    0.000
373.070;  984.325;  152.675;    0.000
373.131;  930.325;  177.675;    0.000
373.191; 1026.325;  225.675;    0.000
373.252;  980.325;  165.675;    0.000
373.313;  980.325;  171.675;    0.000
373.373;  940.325;  160.675;    0.000
373.434; 1011.325;  172.675;    0.000
373.495;  927.325;  150.675;    0.000
373.555;  952.325;  130.675;    0.000
373.616;  962.325;  155.675;    0.000
373.677;  946.325;  212.675;    0.000
373.737;  922.325;  188.675;    0.000
373.798;  964.325;  203.675;    0.000
373.859;  948.325;  169.675;    0.000
373.919; 1011.325;  197.675;    0.000
373.980;  947.325;  134.675;    0.000
374.041;  963.325;  186.675;    0.000
374.101;  978.325;  207.675;    0.000
374.162;  934.325;  190.675;    0.000
374.222;  974.325;  182.675;    0.000
374.283;  984.325;  213.675;    0.000
374.343;  976.325;  191.675;    0.000
374.404; 1027.325;  181.675;    0.000
374.465; 1001.325;  193.675;    0.000
374.525; 1013.325;  153.675;    0.000
374.586;  948.325;  190.675;    0.000
374.646;  994.325;  173.675;    0.000
374.707; 1046.325;  210.675;    0.000
374.767;  967.325;  218.675;    0.000
374.828;  939.325;  174.675;    0.000
374.888;  980.325;  197.675;    0.000
374.949; 1065.325;  196.675;    0.000
375.009;  969.325;  169.675;    0.000
375.070;  966.325;  157.675;    0.000
375.130;  982.325;  203.675;    0.000
375.190;  970.325;  174.675;    0.000
375.251; 1037.325;  230.675;    0.000
375.311;  927.325;  198.675;    0.000
375.372;  987.325;  160.675;    0.000
375.432; 1045.325;  169.675;    0.000
375.493; 1009.325;  159.675;    0.000
375.553;  957.325;  179.675;    0.000
375.613;  986.325;  157.675;    0.000
375.674; 1010.325;  174.675;    0.000
375.734; 1009.325;  180.675;    0.000
375.794;  965.325;  175.675;    0.000
375.855; 1017.325;  193.675;    0.000
375.915; 1019.325;  148.675;    0.000
375.975;  995.325;  183.675;    0.000
376.036;  987.325;  144.675;    0.000
376.096; 1015.325;  195.675;    0.000
376.156;  997.325;  200.675;    0.000
376.217; 1010.325;  160.675;    0.000
376.277;  986.325;  193.675;    0.000
376.337;  986.325;  168.675;    0.000
376.398;  986.325;  183.675;    0.000
376.458; 1003.325;  168.675;    0.000
376.518;  959.325;  184.675;    0.000
376.578; 1039.325;  176.675;    0.000
376.639; 1033.325;  158.675;    0.000
376.699;  997.325;  157.675;    0.000
376.759; 1024.325;  184.675;    0.000
376.819;  958.325;  166.675;    0.000
376.880; 1034.325;  220.675;    0.000
376.940; 1031.325;  195.675;    0.000
377.000; 1035.325;  178.675;    0.000
377.060; 1024.325;  212.675;    0.000
377.120;  971.325;  161.675;    0.000
377.180; 1027.325;  168.675;    0.000
377.241;  942.325;  167.675;    0.000
377.301; 1026.325;  171.675;    0.000
377.361;  974.325;  174.675;    0.000
377.421; 1016.325;  216.675;    0.000
377.481; 1010.325;  164.675;    0.000
377.541; 1005.325;  163.675;    0.000
377.601; 1013.325;  197.675;    0.000
377.661; 1007.325;  175.675;    0.000
377.722; 1040.325;  196.675;    0.000
377.782; 1057.325;  162.675;    0.000
377.842; 1097.325;  179.675;    0.000
377.902; 1021.325;  140.675;    0.000
377.962;  970.325;  121.675;    0.000
378.022; 1094.325;  174.675;    0.000
378.082; 1011.325;  167.675;    0.000
378.142; 1003.325;  151.675;    0.000
378.202;  987.325;  174.675;    0.000
378.262; 1079.325;  168.675;    0.000
378.322; 1045.325;  183.675;    0.000
378.382; 1026.325;  159.675;    0.000
378.442; 1040.325;  177.675;    0.000
378.502; 1012.325;  137.675;    0.000
378.562; 1014.325;  140.675;    0.000
378.622; 1097.325;  197.675;    0.000
378.682; 1041.325;  205.675;    0.000
378.742; 1006.325;  160.675;    0.000
378.802; 1024.325;  132.675;    0.000
378.862; 1067.325;  222.675;    0.000
378.921; 1109.325;  178.675;    0.000
378.981; 1085.325;  160.675;    0.000
379.041; 1045.325;  136.675;    0.000
379.101; 1048.325;  184.675;    0.000
379.161; 1066.325;  147.675;    0.000
379.221; 1029.325;  139.675;    0.000
379.281; 1043.325;  204.675;    0.000
379.341; 1095.325;  142.675;    0.000
379.401; 1122.325;  136.675;    0.000
379.460; 1085.325;  161.675;    0.000
379.520; 1113.325;  171.675;    0.000
379.580; 1148.325;  168.675;    0.000
379.640; 1114.325;  183.675;    0.000
379.700; 1085.325;  182.675;    0.000
379.759; 1123.325;  190.675;    0.000
379.819; 1093.325;  149.675;    0.000
379.879; 1140.325;  140.675;    0.000
379.939; 1121.325;  155.675;    0.000
379.999; 1097.325;  199.675;    0.000
380.058; 1116.325;  163.675;    0.000
380.118; 1125.325;  190.675;    0.000
380.178; 1058.325;  220.675;    0.000
380.237; 1151.325;  181.675;    0.000
380.297; 1149.325;  187.675;    0.000
380.357; 1126.325;  193.675;    0.000
380.417; 1157.325;  157.675;    0.000
380.476; 1159.325;  176.675;    0.000
380.536; 1128.325;  180.675;    0.000
380.596; 1151.325;  191.675;    0.000
380.655; 1137.325;  190.675;    0.000
380.715; 1099.325;  180.675;    0.000
380.775; 1162.325;  202.675;    0.000
380.834; 1154.325;  190.675;    0.000
380.894; 1166.325;  163.675;    0.000
380.954; 1143.325;  181.675;    0.000
381.013; 1152.325;  218.675;    0.000
381.073; 1191.325;  181.675;    0.000
381.132; 1183.325;  193.675;    0.000
381.192; 1189.325;  209.675;    0.000
381.252; 1174.325;  206.675;    0.000
381.311; 1188.325;  173.675;    0.000
381.371; 1268.325;  188.675;    0.000
381.430; 1168.325;  162.675;    0.000
381.490; 1251.325;  168.675;    0.000
381.549; 1235.325;  213.675;    0.000
381.609; 1252.325;  194.675;    0.000
381.668; 1256.325;  190.675;    0.000
381.728; 1202.325;  183.675;    0.000
381.787; 1242.325;  172.675;    0.000
381.847; 1234.325;  198.675;    0.000
381.906; 1218.325;  197.675;    0.000
381.966; 1238.325;  201.675;    0.000
382.025; 1271.325;  219.675;    0.000
382.085; 1261.325;  194.675;    0.000
382.144; 1247.325;  187.675;    0.000
382.204; 1385.325;  196.675;    0.000
382.263; 1309.325;  168.675;    0.000
382.323; 1310.325;  135.675;    0.000
382.382; 1309.325;  173.675;    0.000
382.441; 1292.325;  155.675;    0.000
382.501; 1365.325;  168.675;    0.000
382.560; 1417.325;  200.675;    0.000
382.619; 1403.325;  155.675;    0.000
382.679; 1481.325;  198.675;    0.000
382.738; 1542.325;  211.675;    0.000
382.798; 1571.325;  214.675;    0.000
382.857; 1615.325;  146.675;    0.000
382.916; 1724.325;  183.675;    0.000
382.976; 1819.325;  173.675;    0.000
383.035; 1693.325;  165.675;    0.000
383.094; 1698.325;  173.675;    0.000
383.154; 1882.325;  143.675;    0.000
383.213; 2044.325;  173.675;    0.000
383.272; 1952.325;  166.675;    0.000
383.331; 1761.325;  154.675;    0.000
383.391; 1727.325;  232.675;    0.000
383.450; 1693.325;  185.675;    0.000
383.509; 1650.325;  204.675;    0.000
383.568; 1748.325;  197.675;    0.000
383.628; 1817.325;  171.675;    0.000
383.687; 1968.325;  202.675;    0.000
383.746; 2097.325;  116.675;    0.000
383.805; 2331.325;  156.675;    0.000
383.864; 2240.325;  150.675;    0.000
383.924; 1931.325;  195.675;    0.000
383.983; 1648.325;  157.675;    0.000
384.042; 1563.325;  184.675;    0.000
384.101; 1524.325;  210.675;    0.000
384.160; 1438.325;  123.675;    0.000
384.219; 1446.325;  191.675;    0.000
384.279; 1420.325;  184.675;    0.000
384.338; 1314.325;  172.675;    0.000
384.397; 1346.325;  153.675;    0.000
384.456; 1317.325;  181.675;    0.000
384.515; 1365.325;  171.675;    0.000
384.574; 1422.325;  172.675;    0.000
384.633; 1331.325;  174.675;    0.000
384.692; 1327.325;  178.675;    0.000
384.751; 1321.325;  180.675;    0.000
384.810; 1283.325;  161.675;    0.000
384.869; 1259.325;  162.675;    0.000
384.929; 1304.325;  157.675;    0.000
384.988; 1230.325;  153.675;    0.000
385.047; 1345.325;  178.675;    0.000
385.106; 1278.325;  164.675;    0.000
385.165; 1176.325;  127.675;    0.000
385.224; 1302.325;  156.675;    0.000
385.283; 1231.325;  178.675;    0.000
385.342; 1283.325;  177.675;    0.000
385.401; 1335.325;  178.675;    0.000
385.459; 1254.325;  177.675;    0.000
385.518; 1293.325;  152.675;    0.000
385.577; 1248.325;  133.675;    0.000
385.636; 1300.325;  204.675;    0.000
385.695; 1268.325;  161.675;    0.000
385.754; 1257.325;  190.675;    0.000
385.813; 1279.325;  160.675;    0.000
385.872; 1288.325;  138.675;    0.000
385.931; 1250.325;  192.675;    0.000
385.990; 1230.325;  158.675;    0.000
386.049; 1383.325;  187.675;    0.000
386.107; 1308.325;  140.675;    0.000
386.166; 1280.325;  139.675;    0.000
386.225; 1285.325;  182.675;    0.000
386.284; 1245.325;  123.675;    0.000
386.343; 1222.325;  207.675;    0.000
386.402; 1194.325;  150.675;    0.000
386.460; 1234.325;  185.675;    0.000
386.519; 1323.325;  145.675;    0.000
386.578; 1297.325;  153.675;    0.000
386.637; 1259.325;  153.675;    0.000
386.696; 1265.325;  189.675;    0.000
386.754; 1281.325;  128.675;    0.000
386.813; 1226.325;  202.675;    0.000
386.872; 1267.325;  152.675;    0.000
386.931; 1274.325;  166.675;    0.000
386.989; 1289.325;  194.675;    0.000
387.048; 1237.325;  176.675;    0.000
387.107; 1351.325;  203.675;    0.000
387.165; 1224.325;  136.675;    0.000
387.224; 1279.325;  193.675;    0.000
387.283; 1257.325;  157.675;    0.000
387.342; 1307.325;  194.675;    0.000
387.400; 1230.325;  191.675;    0.000
387.459; 1258.325;  142.675;    0.000
387.517; 1258.325;  202.675;    0.000
387.576; 1305.325;  164.675;    0.000
387.635; 1290.325;  147.675;    0.000
387.693; 1323.325;  199.675;    0.000
387.752; 1243.325;  181.675;    0.000
387.811; 1253.325;  161.675;    0.000
387.869; 1299.325;  184.675;    0.000
387.928; 1209.325;  175.675;    0.000
387.986; 1314.325;  143.675;    0.000
388.045; 1308.325;  146.675;    0.000
388.103; 1285.325;  164.675;    0.000
388.162; 1242.325;  170.675;    0.000
388.221; 1231.325;  169.675;    0.000
388.279; 1191.325;  151.675;    0.000
388.338; 1258.325;  175.675;    0.000
388.396; 1249.325;  170.675;    0.000
388.455; 1229.325;  193.675;    0.000
388.513; 1254.325;  134.675;    0.000
388.572; 1262.325;  201.675;    0.000
388.630; 1231.325;  181.675;    0.000
388.689; 1237.325;  165.675;    0.000
388.747; 1303.325;  164.675;    0.000
388.806; 1237.325;  155.675;    0.000
388.864; 1219.325;  172.675;    0.000
388.922; 1288.325;  190.675;    0.000
388.981; 1285.325;  170.675;    0.000
389.039; 1254.325;  142.675;    0.000
389.098; 1307.325;  177.675;    0.000
389.156; 1284.325;  184.675;    0.000
389.214; 1246.325;  197.675;    0.000
389.273; 1259.325;  141.675;    0.000
389.331; 1231.325;  145.675;    0.000
389.390; 1272.325;  160.675;    0.000
389.448; 1288.325;  142.675;    0.000
389.506; 1287.325;  192.675;    0.000
389.565; 1282.325;  176.675;    0.000
389.623; 1216.325;  174.675;    0.000
389.681; 1294.325;  184.675;    0.000
389.740; 1286.325;  193.675;    0.000
389.798; 1224.325;  130.675;    0.000
389.856; 1295.325;  224.675;    0.000
389.914; 1226.325;  223.675;    0.000
389.973; 1287.325;  164.675;    0.000
390.031; 1269.325;  198.675;    0.000
390.089; 1262.325;  177.675;    0.000
390.147; 1246.325;  158.675;    0.000
390.206; 1243.325;  213.675;    0.000
390.264; 1284.325;  178.675;    0.000
390.322; 1237.325;  181.675;    0.000
390.380; 1239.325;  148.675;    0.000
390.439; 1253.325;  185.675;    0.000
390.497; 1304.325;  208.675;    0.000
390.555; 1300.325;  175.675;    0.000
390.613; 1231.325;  178.675;    0.000
390.671; 1290.325;  190.675;    0.000
390.729; 1239.325;  172.675;    0.000
390.788; 1216.325;  194.675;    0.000
390.846; 1294.325;  187.675;    0.000
390.904; 1332.325;  207.675;    0.000
390.962; 1273.325;  211.675;    0.000
391.020; 1292.325;  218.675;    0.000
391.078; 1284.325;  179.675;    0.000
391.136; 1313.325;  223.675;    0.000
391.194; 1328.325;  209.675;    0.000
391.253; 1287.325;  217.675;    0.000
391.311; 1362.325;  217.675;    0.000
391.369; 1308.325;  217.675;    0.000
391.427; 1329.325;  253.675;    0.000
391.485; 1354.325;  176.675;    0.000
391.543; 1270.325;  252.675;    0.000
391.601; 1275.325;  168.675;    0.000
391.659; 1316.325;  206.675;    0.000
391.717; 1313.325;  172.675;    0.000
391.775; 1261.325;  170.675;    0.000
391.833; 1267.325;  196.675;    0.000
391.891; 1282.325;  180.675;    0.000
391.949; 1246.325;  201.675;    0.000
392.007; 1347.325;  196.675;    0.000
392.065; 1287.325;  191.675;    0.000
392.123; 1368.325;  158.675;    0.000
392.180; 1331.325;  192.675;    0.000
392.238; 1353.325;  186.675;    0.000
392.296; 1294.325;  150.675;    0.000
392.354; 1368.325;  175.675;    0.000
392.412; 1328.325;  219.675;    0.000
392.470; 1344.325;  200.675;    0.000
392.528; 1323.325;  177.675;    0.000
392.586; 1315.325;  169.675;    0.000
392.644; 1352.325;  155.675;    0.000
392.701; 1350.325;  215.675;    0.000
392.759; 1324.325;  218.675;    0.000
392.817; 1386.325;  178.675;    0.000
392.875; 1330.325;  190.675;    0.000
392.933; 1326.325;  197.675;    0.000
392.991; 1323.325;  179.675;    0.000
393.048; 1350.325;  205.675;    0.000
393.106; 1355.325;  229.675;    0.000
393.164; 1295.325;  167.675;    0.000
393.222; 1395.325;  156.675;    0.000
393.279; 1392.325;  203.675;    0.000
393.337; 1389.325;  216.675;    0.000
393.395; 1394.325;  180.675;    0.000
393.453; 1368.325;  163.675;    0.000
393.510; 1290.325;  194.675;    0.000
393.568; 1362.325;  207.675;    0.000
393.626; 1351.325;  200.675;    0.000
393.684; 1365.325;  234.675;    0.000
393.741; 1294.325;  197.675;    0.000
393.799; 1415.325;  201.675;    0.000
393.857; 1335.325;  185.675;    0.000
393.914; 1332.325;  200.675;    0.000
393.972; 1353.325;  181.675;    0.000
394.030; 1427.325;  188.675;    0.000
394.087; 1402.325;  202.675;    0.000
394.145; 1416.325;  214.675;    0.000
394.202; 1322.325;  204.675;    0.000
394.260; 1397.325;  178.675;    0.000
394.318; 1320.325;  208.675;    0.000
394.375; 1333.325;  183.675;    0.000
394.433; 1396.325;  175.675;    0.000
394.490; 1313.325;  170.675;    0.000
394.548; 1351.325;  161.675;    0.000
394.605; 1386.325;  196.675;    0.000
394.663; 1357.325;  191.675;    0.000
394.720; 1408.325;  179.675;    0.000
394.778; 1419.325;  193.675;    0.000
394.836; 1344.325;  160.675;    0.000
394.893; 1363.325;  152.675;    0.000
394.951; 1411.325;  179.675;    0.000
395.008; 1416.325;  185.675;    0.000
395.065; 1384.325;  154.675;    0.000
395.123; 1386.325;  176.675;    0.000
395.180; 1402.325;  202.675;    0.000
395.238; 1358.325;  135.675;    0.000
395.295; 1416.325;  178.675;    0.000
395.353; 1446.325;  181.675;    0.000
395.410; 1413.325;  160.675;    0.000
395.468; 1417.325;  179.675;    0.000
395.525; 1399.325;  187.675;    0.000
395.582; 1444.325;  221.675;    0.000
395.640; 1427.325;  220.675;    0.000
395.697; 1409.325;  174.675;    0.000
395.754; 1381.325;  177.675;    0.000
395.812; 1422.325;  193.675;    0.000
395.869; 1442.325;  220.675;    0.000
395.927; 1484.325;  206.675;    0.000
395.984; 1403.325;  213.675;    0.000
396.041; 1397.325;  194.675;    0.000
396.098; 1449.325;  144.675;    0.000
396.156; 1435.325;  168.675;    0.000
396.213; 1424.325;  181.675;    0.000
396.270; 1416.325;  186.675;    0.000
396.328; 1447.325;  165.675;    0.000
396.385; 1453.325;  192.675;    0.000
396.442; 1502.325;  196.675;    0.000
396.499; 1370.325;  162.675;    0.000
396.557; 1390.325;  177.675;    0.000
396.614; 1444.325;  184.675;    0.000
396.671; 1407.325;  180.675;    0.000
396.728; 1505.325;  194.675;    0.000
396.785; 1461.325;  173.675;    0.000
396.843; 1453.325;  154.675;    0.000
396.900; 1454.325;  200.675;    0.000
396.957; 1454.325;  158.675;    0.000
397.014; 1473.325;  203.675;    0.000
397.071; 1457.325;  178.675;    0.000
397.128; 1487.325;  201.675;    0.000
397.186; 1477.325;  200.675;    0.000
397.243; 1505.325;  187.675;    0.000
397.300; 1475.325;  173.675;    0.000
397.357; 1481.325;  189.675;    0.000
397.414; 1460.325;  202.675;    0.000
397.471; 1505.325;  156.675;    0.000
397.528; 1513.325;  197.675;    0.000
397.585; 1484.325;  174.675;    0.000
397.642; 1465.325;  202.675;    0.000
397.699; 1570.325;  197.675;    0.000
397.756; 1501.325;  188.675;    0.000
397.814; 1487.325;  210.675;    0.000
397.871; 1522.325;  203.675;    0.000
397.928; 1533.325;  189.675;    0.000
397.985; 1559.325;  192.675;    0.000
398.042; 1525.325;  198.675;    0.000
398.099; 1510.325;  181.675;    0.000
398.156; 1527.325;  201.675;    0.000
398.212; 1507.325;  216.675;    0.000
398.269; 1512.325;  206.675;    0.000
398.326; 1495.325;  213.675;    0.000
398.383; 1525.325;  168.675;    0.000
398.440; 1572.325;  184.675;    0.000
398.497; 1568.325;  194.675;    0.000
398.554; 1480.325;  219.675;    0.000
398.611; 1476.325;  190.675;    0.000
398.668; 1505.325;  138.675;    0.000
398.725; 1550.325;  170.675;    0.000
398.782; 1588.325;  223.675;    0.000
398.839; 1552.325;  211.675;    0.000
398.895; 1612.325;  173.675;    0.000
398.952; 1547.325;  207.675;    0.000
399.009; 1573.325;  173.675;    0.000
399.066; 1558.325;  171.675;    0.000
399.123; 1600.325;  189.675;    0.000
399.180; 1644.325;  170.675;    0.000
399.236; 1580.325;  193.675;    0.000
399.293; 1579.325;  222.675;    0.000
399.350; 1631.325;  195.675;    0.000
399.407; 1616.325;  214.675;    0.000
399.463; 1598.325;  181.675;    0.000
399.520; 1526.325;  168.675;    0.000
399.577; 1656.325;  231.675;    0.000
399.634; 1662.325;  215.675;    0.000
399.690; 1644.325;  177.675;    0.000
399.747; 1651.325;  212.675;    0.000
399.804; 1621.325;  208.675;    0.000
399.861; 1640.325;  225.675;    0.000
399.917; 1677.325;  191.675;    0.000
399.974; 1630.325;  182.675;    0.000
400.031; 1716.325;  218.675;    0.000
400.087; 1617.325;  202.675;    0.000
400.144; 1642.325;  192.675;    0.000
400.201; 1619.325;  187.675;    0.000
400.257; 1577.325;  193.675;    0.000
400.314; 1686.325;  185.675;    0.000
400.370; 1591.325;  201.675;    0.000
400.427; 1701.325;  208.675;    0.000
400.484; 1618.325;  201.675;    0.000
400.540; 1643.325;  204.675;    0.000
400.597; 1607.325;  210.675;    0.000
400.653; 1608.325;  224.675;    0.000
400.710; 1641.325;  196.675;    0.000
400.766; 1609.325;  224.675;    0.000
400.823; 1620.325;  210.675;    0.000
400.879; 1660.325;  213.675;    0.000
400.936; 1638.325;  182.675;    0.000
400.993; 1575.325;  184.675;    0.000
401.049; 1567.325;  216.675;    0.000
401.105; 1644.325;  235.675;    0.000
401.162; 1642.325;  196.675;    0.000
401.218; 1639.325;  221.675;    0.000
401.275; 1668.325;  216.675;    0.000
401.331; 1668.325;  198.675;    0.000
401.388; 1616.325;  205.675;    0.000
401.444; 1703.325;  154.675;    0.000
401.501; 1628.325;  208.675;    0.000
401.557; 1596.325;  162.675;    0.000
401.614; 1584.325;  157.675;    0.000
401.670; 1596.325;  198.675;    0.000
401.726; 1616.325;  195.675;    0.000
401.783; 1624.325;  186.675;    0.000
401.839; 1658.325;  205.675;    0.000
401.895; 1638.325;  202.675;    0.000
401.952; 1558.325;  143.675;    0.000
402.008; 1654.325;  177.675;    0.000
402.064; 1620.325;  177.675;    0.000
402.121; 1661.325;  194.675;    0.000
402.177; 1667.325;  181.675;    0.000
402.233; 1667.325;  205.675;    0.000
402.290; 1603.325;  190.675;    0.000
402.346; 1610.325;  190.675;    0.000
402.402; 1681.325;  151.675;    0.000
402.458; 1560.325;  194.675;    0.000
402.515; 1608.325;  212.675;    0.000
402.571; 1646.325;  209.675;    0.000
402.627; 1655.325;  199.675;    0.000
402.683; 1651.325;  213.675;    0.000
402.740; 1624.325;  165.675;    0.000
402.796; 1588.325;  168.675;    0.000
402.852; 1679.325;  200.675;    0.000
402.908; 1676.325;  193.675;    0.000
402.964; 1616.325;  166.675;    0.000
403.021; 1704.325;  196.675;    0.000
403.077; 1606.325;  212.675;    0.000
403.133; 1638.325;  186.675;    0.000
403.189; 1674.325;  206.675;    0.000
403.245; 1656.325;  207.675;    0.000
403.301; 1698.325;  204.675;    0.000
403.357; 1643.325;  246.675;    0.000
403.414; 1681.325;  227.675;    0.000
403.470; 1691.325;  207.675;    0.000
403.526; 1686.325;  171.675;    0.000
403.582; 1665.325;  200.675;    0.000
403.638; 1706.325;  213.675;    0.000
403.694; 1655.325;  239.675;    0.000
403.750; 1698.325;  221.675;    0.000
403.806; 1695.325;  197.675;    0.000
403.862; 1719.325;  222.675;    0.000
403.918; 1659.325;  174.675;    0.000
403.974; 1666.325;  183.675;    0.000
404.030; 1719.325;  184.675;    0.000
404.086; 1660.325;  170.675;    0.000
404.142; 1768.325;  215.675;    0.000
404.198; 1704.325;  189.675;    0.000
404.254; 1675.325;  195.675;    0.000
404.310; 1690.325;  206.675;    0.000
404.366; 1662.325;  179.675;    0.000
404.422; 1726.325;  197.675;    0.000
404.478; 1686.325;  176.675;    0.000
404.534; 1720.325;  165.675;    0.000
404.590; 1637.325;  203.675;    0.000
404.646; 1677.325;  195.675;    0.000
404.701; 1653.325;  180.675;    0.000
404.757; 1721.325;  218.675;    0.000
404.813; 1700.325;  160.675;    0.000
404.869; 1753.325;  213.675;    0.000
404.925; 1713.325;  171.675;    0.000
404.981; 1695.325;  194.675;    0.000
405.037; 1701.325;  211.675;    0.000
405.092; 1692.325;  158.675;    0.000
405.148; 1717.325;  140.675;    0.000
405.204; 1709.325;  161.675;    0.000
405.260; 1752.325;  161.675;    0.000
405.316; 1683.325;  155.675;    0.000
405.371; 1714.325;  151.675;    0.000
405.427; 1779.325;  186.675;    0.000
405.483; 1787.325;  206.675;    0.000
405.539; 1730.325;  162.675;    0.000
405.594; 1722.325;  205.675;    0.000
405.650; 1729.325;  153.675;    0.000
405.706; 1736.325;  185.675;    0.000
405.761; 1710.325;  205.675;    0.000
405.817; 1747.325;  185.675;    0.000
405.873; 1687.325;  160.675;    0.000
405.928; 1841.325;  182.675;    0.000
405.984; 1832.325;  206.675;    0.000
406.040; 1817.325;  200.675;    0.000
406.095; 1784.325;  138.675;    0.000
406.151; 1756.325;  178.675;    0.000
406.207; 1827.325;  225.675;    0.000
406.262; 1796.325;  161.675;    0.000
406.318; 1733.325;  186.675;    0.000
406.374; 1770.325;  173.675;    0.000
406.429; 1756.325;  197.675;    0.000
406.485; 1804.325;  260.675;    0.000
406.540; 1778.325;  184.675;    0.000
406.596; 1819.325;  193.675;    0.000
406.651; 1743.325;  176.675;    0.000
406.707; 1840.325;  158.675;    0.000
406.763; 1880.325;  174.675;    0.000
406.818; 1773.325;  188.675;    0.000
406.874; 1858.325;  176.675;    0.000
406.929; 1902.325;  220.675;    0.000
406.985; 1844.325;  167.675;    0.000
407.040; 1838.325;  191.675;    0.000
407.095; 1859.325;  190.675;    0.000
407.151; 1891.325;  196.675;    0.000
407.206; 1827.325;  184.675;    0.000
407.262; 1886.325;  167.675;    0.000
407.317; 1957.325;  199.675;    0.000
407.373; 1944.325;  211.675;    0.000
407.428; 1950.325;  202.675;    0.000
407.484; 1888.325;  172.675;    0.000
407.539; 1925.325;  171.675;    0.000
407.594; 1905.325;  219.675;    0.000
407.650; 1864.325;  179.675;    0.000
407.705; 1953.325;  141.675;    0.000
407.760; 1932.325;  182.675;    0.000
407.816; 1943.325;  203.675;    0.000
407.871; 1931.325;  219.675;    0.000
407.926; 1922.325;  197.675;    0.000
407.982; 1871.325;  176.675;    0.000
408.037; 1810.325;  187.675;    0.000
408.092; 1902.325;  161.675;    0.000
408.148; 1926.325;  185.675;    0.000
408.203; 1805.325;  196.675;    0.000
408.258; 1868.325;  188.675;    0.000
408.314; 1905.325;  225.675;    0.000
408.369; 1867.325;  172.675;    0.000
408.424; 1893.325;  204.675;    0.000
408.479; 1945.325;  182.675;    0.000
408.534; 1978.325;  220.675;    0.000
408.590; 1907.325;  196.675;    0.000
408.645; 1896.325;  170.675;    0.000
408.700; 1961.325;  204.675;    0.000
408.755; 1889.325;  219.675;    0.000
408.810; 1851.325;  174.675;    0.000
408.866; 1876.325;  212.675;    0.000
408.921; 1900.325;  233.675;    0.000
408.976; 1913.325;  198.675;    0.000
409.031; 1839.325;  179.675;    0.000
409.086; 1890.325;  181.675;    0.000
409.141; 1926.325;  192.675;    0.000
409.196; 1904.325;  172.675;    0.000
409.252; 1921.325;  199.675;    0.000
409.307; 1908.325;  159.675;    0.000
409.362; 1805.325;  158.675;    0.000
409.417; 1903.325;  164.675;    0.000
409.472; 1878.325;  186.675;    0.000
409.527; 1863.325;  215.675;    0.000
409.582; 1910.325;  227.675;    0.000
409.637; 1953.325;  211.675;    0.000
409.692; 1900.325;  224.675;    0.000
409.747; 1873.325;  147.675;    0.000
409.802; 1902.325;  203.675;    0.000
409.857; 1869.325;  203.675;    0.000
409.912; 1951.325;  219.675;    0.000
409.967; 1922.325;  200.675;    0.000
410.022; 1879.325;  199.675;    0.000
410.077; 1885.325;  171.675;    0.000
410.132; 1877.325;  193.675;    0.000
410.187; 1890.325;  167.675;    0.000
410.242; 1891.325;  188.675;    0.000
410.297; 1914.325;  195.675;    0.000
410.351; 1915.325;  225.675;    0.000
410.406; 1895.325;  188.675;    0.000
410.461; 1867.325;  197.675;    0.000
410.516; 1902.325;  212.675;    0.000
410.571; 1921.325;  173.675;    0.000
410.626; 1898.325;  180.675;    0.000
410.681; 1882.325;  198.675;    0.000
410.736; 1866.325;  190.675;    0.000
410.790; 1917.325;  204.675;    0.000
410.845; 1907.325;  214.675;    0.000
410.900; 1995.325;  184.675;    0.000
410.955; 1887.325;  231.675;    0.000
411.010; 1887.325;  211.675;    0.000
411.064; 1921.325;  204.675;    0.000
411.119; 1930.325;  219.675;    0.000
411.174; 1892.325;  208.675;    0.000
411.229; 1958.325;  207.675;    0.000
411.283; 1838.325;  199.675;    0.000
411.338; 1923.325;  198.675;    0.000
411.393; 2017.325;  155.675;    0.000
411.447; 1914.325;  200.675;    0.000
411.502; 1999.325;  229.675;    0.000
411.557; 1905.325;  197.675;    0.000
411.612; 1896.325;  171.675;    0.000
411.666; 1957.325;  201.675;    0.000
411.721; 1929.325;  174.675;    0.000
411.776; 1962.325;  222.675;    0.000
411.830; 1941.325;  150.675;    0.000
411.885; 1908.325;  169.675;    0.000
411.939; 2003.325;  216.675;    0.000
411.994; 1983.325;  215.675;    0.000
412.049; 1949.325;  219.675;    0.000
412.103; 1865.325;  225.675;    0.000
412.158; 2006.325;  216.675;    0.000
412.212; 2016.325;  218.675;    0.000
412.267; 1962.325;  219.675;    0.000
412.322; 1921.325;  235.675;    0.000
412.376; 1951.325;  208.675;    0.000
412.431; 1891.325;  232.675;    0.000
412.485; 2004.325;  223.675;    0.000
412.540; 1935.325;  217.675;    0.000
412.594; 1879.325;  195.675;    0.000
412.649; 2000.325;  236.675;    0.000
412.703; 1948.325;  216.675;    0.000
412.758; 1868.325;  201.675;    0.000
412.812; 1850.325;  176.675;    0.000
412.866; 1958.325;  179.675;    0.000
412.921; 1896.325;  196.675;    0.000
412.975; 1878.325;  238.675;    0.000
413.030; 1960.325;  272.675;    0.000
413.084; 1917.325;  208.675;    0.000
413.139; 1917.325;  201.675;    0.000
413.193; 1934.325;  198.675;    0.000
413.247; 1917.325;  213.675;    0.000
413.302; 1930.325;  202.675;    0.000
413.356; 1961.325;  184.675;    0.000
413.410; 1873.325;  202.675;    0.000
413.465; 1915.325;  145.675;    0.000
413.519; 1855.325;  200.675;    0.000
413.573; 1895.325;  197.675;    0.000
413.628; 1929.325;  224.675;    0.000
413.682; 1977.325;  211.675;    0.000
413.736; 1936.325;  202.675;    0.000
413.791; 1884.325;  228.675;    0.000
413.845; 1888.325;  184.675;    0.000
413.899; 1915.325;  226.675;    0.000
413.953; 1887.325;  213.675;    0.000
414.008; 1898.325;  175.675;    0.000
414.062; 1934.325;  216.675;    0.000
414.116; 1860.325;  206.675;    0.000
414.170; 1884.325;  229.675;    0.000
414.225; 1890.325;  196.675;    0.000
414.279; 1905.325;  199.675;    0.000
414.333; 1959.325;  220.675;    0.000
414.387; 1994.325;  217.675;    0.000
414.441; 1988.325;  206.675;    0.000
414.496; 2031.325;  264.675;    0.000
414.550; 1963.325;  217.675;    0.000
414.604; 2040.325;  224.675;    0.000
414.658; 1937.325;  156.675;    0.000
414.712; 1978.325;  203.675;    0.000
414.766; 1958.325;  216.675;    0.000
414.820; 1870.325;  218.675;    0.000
414.874; 1990.325;  240.675;    0.000
414.928; 1935.325;  204.675;    0.000
414.982; 1973.325;  195.675;    0.000
415.037; 1889.325;  212.675;    0.000
415.091; 1959.325;  211.675;    0.000
415.145; 1935.325;  230.675;    0.000
415.199; 1926.325;  208.675;    0.000
415.253; 1965.325;  213.675;    0.000
415.307; 1963.325;  208.675;    0.000
415.361; 1990.325;  193.675;    0.000
415.415; 2012.325;  207.675;    0.000
415.469; 2041.325;  214.675;    0.000
415.523; 1999.325;  226.675;    0.000
415.577; 1940.325;  194.675;    0.000
415.631; 2021.325;  258.675;    0.000
415.684; 1940.325;  239.675;    0.000
415.738; 1873.325;  191.675;    0.000
415.792; 1972.325;  185.675;    0.000
415.846; 1878.325;  239.675;    0.000
415.900; 1893.325;  209.675;    0.000
415.954; 1982.325;  215.675;    0.000
416.008; 1967.325;  229.675;    0.000
416.062; 1860.325;  200.675;    0.000
416.116; 1909.325;  195.675;    0.000
416.169; 1879.325;  238.675;    0.000
416.223; 1927.325;  271.675;    0.000
416.277; 1864.325;  232.675;    0.000
416.331; 1958.325;  226.675;    0.000
416.385; 1955.325;  207.675;    0.000
416.439; 2034.325;  221.675;    0.000
416.492; 1932.325;  269.675;    0.000
416.546; 1928.325;  254.675;    0.000
416.600; 1937.325;  225.675;    0.000
416.654; 1962.325;  269.675;    0.000
416.707; 1941.325;  232.675;    0.000
416.761; 1940.325;  226.675;    0.000
416.815; 1964.325;  219.675;    0.000
416.869; 1979.325;  234.675;    0.000
416.922; 1845.325;  230.675;    0.000
416.976; 1969.325;  216.675;    0.000
417.030; 1874.325;  271.675;    0.000
417.083; 1964.325;  229.675;    0.000
417.137; 2006.325;  249.675;    0.000
417.191; 1941.325;  241.675;    0.000
417.244; 1933.325;  230.675;    0.000
417.298; 1883.325;  215.675;    0.000
417.352; 1884.325;  188.675;    0.000
417.405; 2003.325;  248.675;    0.000
417.459; 1897.325;  256.675;    0.000
417.512; 1993.325;  263.675;    0.000
417.566; 1892.325;  227.675;    0.000
417.620; 1966.325;  270.675;    0.000
417.673; 1854.325;  216.675;    0.000
417.727; 1927.325;  234.675;    0.000
417.780; 1927.325;  215.675;    0.000
417.834; 1950.325;  203.675;    0.000
417.887; 1841.325;  257.675;    0.000
417.941; 1905.325;  216.675;    0.000
417.994; 1870.325;  245.675;    0.000
418.048; 1878.325;  209.675;    0.000
418.101; 1869.325;  207.675;    0.000
418.155; 1901.325;  204.675;    0.000
418.208; 2017.325;  270.675;    0.000
418.262; 1925.325;  228.675;    0.000
418.315; 1903.325;  254.675;    0.000
418.369; 1955.325;  245.675;    0.000
418.422; 1925.325;  224.675;    0.000
418.476; 1977.325;  221.675;    0.000
418.529; 1945.325;  234.675;    0.000
418.582; 1862.325;  249.675;    0.000
418.636; 1906.325;  224.675;    0.000
418.689; 1965.325;  228.675;    0.000
418.743; 1935.325;  240.675;    0.000
418.796; 1959.325;  197.675;    0.000
418.849; 1923.325;  220.675;    0.000
418.903; 1923.325;  246.675;    0.000
418.956; 1921.325;  250.675;    0.000
419.009; 1948.325;  276.675;    0.000
419.063; 1918.325;  232.675;    0.000
419.116; 1942.325;  228.675;    0.000
419.169; 1960.325;  249.675;    0.000
419.222; 1919.325;  215.675;    0.000
419.276; 1948.325;  228.675;    0.000
419.329; 1903.325;  246.675;    0.000
419.382; 1891.325;  188.675;    0.000
419.435; 1880.325;  240.675;    0.000
419.489; 1954.325;  261.675;    0.000
419.542; 1882.325;  224.675;    0.000
419.595; 1876.325;  251.675;    0.000
419.648; 1922.325;  236.675;    0.000
419.701; 1914.325;  244.675;    0.000
419.755; 1931.325;  242.675;    0.000
419.808; 1963.325;  242.675;    0.000
419.861; 1872.325;  189.675;    0.000
419.914; 1829.325;  258.675;    0.000
419.967; 1945.325;  230.675;    0.000
420.020; 1958.325;  223.675;    0.000
420.073; 1808.325;  221.675;    0.000
420.127; 1926.325;  252.675;    0.000
420.180; 1931.325;  219.675;    0.000
420.233; 1917.325;  201.675;    0.000
420.286; 1907.325;  221.675;    0.000
420.339; 1888.325;  250.675;    0.000
420.392; 1877.325;  268.675;    0.000
420.445; 1814.325;  223.675;    0.000
420.498; 1859.325;  240.675;    0.000
420.551; 1792.325;  220.675;    0.000
420.604; 1828.325;  231.675;    0.000
420.657; 1873.325;  228.675;    0.000
420.710; 1845.325;  219.675;    0.000
420.763; 1848.325;  280.675;    0.000
420.816; 1792.325;  202.675;    0.000
420.869; 1808.325;  219.675;    0.000
420.922; 1763.325;  218.675;    0.000
420.975; 1813.325;  237.675;    0.000
421.028; 1814.325;  242.675;    0.000
421.081; 1878.325;  247.675;    0.000
421.134; 1806.325;  239.675;    0.000
421.187; 1798.325;  229.675;    0.000
421.239; 1873.325;  200.675;    0.000
421.292; 1819.325;  205.675;    0.000
421.345; 1801.325;  219.675;    0.000
421.398; 1821.325;  187.675;    0.000
421.451; 1841.325;  226.675;    0.000
421.504; 1851.325;  206.675;    0.000
421.557; 1760.325;  226.675;    0.000
421.609; 1781.325;  209.675;    0.000
421.662; 1827.325;  229.675;    0.000
421.715; 1809.325;  231.675;    0.000
421.768; 1766.325;  215.675;    0.000
421.821; 1802.325;  211.675;    0.000
421.873; 1861.325;  220.675;    0.000
421.926; 1864.325;  212.675;    0.000
421.979; 1805.325;  209.675;    0.000
422.032; 1869.325;  203.675;    0.000
422.084; 1819.325;  213.675;    0.000
422.137; 1749.325;  196.675;    0.000
422.190; 1854.325;  246.675;    0.000
422.243; 1881.325;  194.675;    0.000
422.295; 1815.325;  225.675;    0.000
422.348; 1752.325;  248.675;    0.000
422.401; 1811.325;  252.675;    0.000
422.453; 1805.325;  249.675;    0.000
422.506; 1735.325;  233.675;    0.000
422.559; 1760.325;  228.675;    0.000
422.611; 1850.325;  224.675;    0.000
422.664; 1826.325;  226.675;    0.000
422.716; 1817.325;  226.675;    0.000
422.769; 1776.325;  216.675;    0.000
422.822; 1800.325;  256.675;    0.000
422.874; 1801.325;  206.675;    0.000
422.927; 1859.325;  257.675;    0.000
422.979; 1737.325;  209.675;    0.000
423.032; 1748.325;  244.675;    0.000
423.084; 1838.325;  244.675;    0.000
423.137; 1795.325;  213.675;    0.000
423.189; 1840.325;  208.675;    0.000
423.242; 1755.325;  226.675;    0.000
423.294; 1776.325;  250.675;    0.000
423.347; 1851.325;  206.675;    0.000
423.399; 1754.325;  268.675;    0.000
423.452; 1794.325;  262.675;    0.000
423.504; 1770.325;  237.675;    0.000
423.557; 1798.325;  245.675;    0.000
423.609; 1774.325;  211.675;    0.000
423.662; 1731.325;  222.675;    0.000
423.714; 1775.325;  219.675;    0.000
423.766; 1779.325;  250.675;    0.000
423.819; 1789.325;  220.675;    0.000
423.871; 1801.325;  229.675;    0.000
423.923; 1766.325;  219.675;    0.000
423.976; 1750.325;  221.675;    0.000
424.028; 1796.325;  211.675;    0.000
424.081; 1783.325;  254.675;    0.000
424.133; 1853.325;  230.675;    0.000
424.185; 1805.325;  241.675;    0.000
424.238; 1757.325;  182.675;    0.000
424.290; 1750.325;  215.675;    0.000
424.342; 1724.325;  235.675;    0.000
424.394; 1769.325;  225.675;    0.000
424.447; 1775.325;  264.675;    0.000
424.499; 1735.325;  225.675;    0.000
424.551; 1785.325;  237.675;    0.000
424.603; 1746.325;  219.675;    0.000
424.656; 1745.325;  240.675;    0.000
424.708; 1684.325;  266.675;    0.000
424.760; 1784.325;  230.675;    0.000
424.812; 1837.325;  284.675;    0.000
424.864; 1757.325;  189.675;    0.000
424.917; 1741.325;  226.675;    0.000
424.969; 1822.325;  253.675;    0.000
425.021; 1766.325;  233.675;    0.000
425.073; 1781.325;  246.675;    0.000
425.125; 1767.325;  238.675;    0.000
425.177; 1781.325;  253.675;    0.000
425.229; 1725.325;  254.675;    0.000
425.282; 1675.325;  252.675;    0.000
425.334; 1673.325;  261.675;    0.000
425.386; 1754.325;  227.675;    0.000
425.438; 1739.325;  246.675;    0.000
425.490; 1693.325;  249.675;    0.000
425.542; 1724.325;  236.675;    0.000
425.594; 1629.325;  236.675;    0.000
425.646; 1727.325;  237.675;    0.000
425.698; 1720.325;  271.675;    0.000
425.750; 1809.325;  240.675;    0.000
425.802; 1794.325;  238.675;    0.000
425.854; 1717.325;  256.675;    0.000
425.906; 1686.325;  230.675;    0.000
425.958; 1704.325;  231.675;    0.000
426.010; 1733.325;  268.675;    0.000
426.062; 1745.325;  227.675;    0.000
426.114; 1687.325;  234.675;    0.000
426.166; 1655.325;  239.675;    0.000
426.218; 1740.325;  255.675;    0.000
426.270; 1757.325;  196.675;    0.000
426.321; 1699.325;  231.675;    0.000
426.373; 1672.325;  199.675;    0.000
426.425; 1708.325;  245.675;    0.000
426.477; 1736.325;  259.675;    0.000
426.529; 1735.325;  274.675;    0.000
426.581; 1716.325;  221.675;    0.000
426.633; 1708.325;  231.675;    0.000
426.684; 1638.325;  248.675;    0.000
426.736; 1702.325;  237.675;    0.000
426.788; 1662.325;  191.675;    0.000
426.840; 1620.325;  180.675;    0.000
426.892; 1648.325;  259.675;    0.000
426.943; 1725.325;  256.675;    0.000
426.995; 1677.325;  212.675;    0.000
427.047; 1671.325;  233.675;    0.000
427.099; 1582.325;  222.675;    0.000
427.150; 1700.325;  203.675;    0.000
427.202; 1643.325;  218.675;    0.000
427.254; 1719.325;  198.675;    0.000
427.306; 1674.325;  248.675;    0.000
427.357; 1689.325;  239.675;    0.000
427.409; 1702.325;  193.675;    0.000
427.461; 1688.325;  215.675;    0.000
427.512; 1684.325;  251.675;    0.000
427.564; 1713.325;  210.675;    0.000
427.616; 1675.325;  251.675;    0.000
427.667; 1615.325;  246.675;    0.000
427.719; 1656.325;  227.675;    0.000
427.770; 1652.325;  247.675;    0.000
427.822; 1673.325;  261.675;    0.000
427.874; 1630.325;  231.675;    0.000
427.925; 1646.325;  231.675;    0.000
427.977; 1626.325;  243.675;    0.000
428.028; 1610.325;  249.675;    0.000
428.080; 1615.325;  224.675;    0.000
428.131; 1669.325;  247.675;    0.000
428.183; 1631.325;  213.675;    0.000
428.234; 1627.325;  213.675;    0.000
428.286; 1657.325;  224.675;    0.000
428.337; 1628.325;  212.675;    0.000
428.389; 1601.325;  231.675;    0.000
428.440; 1694.325;  248.675;    0.000
428.492; 1694.325;  242.675;    0.000
428.543; 1541.325;  220.675;    0.000
428.595; 1590.325;  212.675;    0.000
428.646; 1617.325;  231.675;    0.000
428.697; 1583.325;  232.675;    0.000
428.749; 1579.325;  231.675;    0.000
428.800; 1643.325;  270.675;    0.000
428.852; 1721.325;  266.675;    0.000
428.903; 1647.325;  215.675;    0.000
428.954; 1638.325;  200.675;    0.000
429.006; 1630.325;  247.675;    0.000
429.057; 1646.325;  247.675;    0.000
429.108; 1591.325;  193.675;    0.000
429.160; 1664.325;  249.675;    0.000
429.211; 1709.325;  228.675;    0.000
429.262; 1543.325;  243.675;    0.000
429.314; 1605.325;  227.675;    0.000
429.365; 1552.325;  242.675;    0.000
429.416; 1640.325;  240.675;    0.000
429.467; 1607.325;  222.675;    0.000
429.519; 1638.325;  233.675;    0.000
429.570; 1655.325;  223.675;    0.000
429.621; 1642.325;  257.675;    0.000
429.672; 1644.325;  220.675;    0.000
429.724; 1564.325;  203.675;    0.000
429.775; 1619.325;  242.675;    0.000
429.826; 1658.325;  195.675;    0.000
429.877; 1601.325;  248.675;    0.000
429.928; 1542.325;  226.675;    0.000
429.980; 1562.325;  189.675;    0.000
430.031; 1584.325;  223.675;    0.000
430.082; 1589.325;  217.675;    0.000
430.133; 1571.325;  210.675;    0.000
430.184; 1553.325;  271.675;    0.000
430.235; 1617.325;  190.675;    0.000
430.286; 1574.325;  233.675;    0.000
430.337; 1623.325;  232.675;    0.000
430.388; 1580.325;  221.675;    0.000
430.439; 1585.325;  221.675;    0.000
430.490; 1597.325;  229.675;    0.000
430.542; 1551.325;  196.675;    0.000
430.593; 1622.325;  214.675;    0.000
430.644; 1498.325;  224.675;    0.000
430.695; 1511.325;  216.675;    0.000
430.746; 1641.325;  228.675;    0.000
430.797; 1574.325;  190.675;    0.000
430.848; 1515.325;  231.675;    0.000
430.898; 1561.325;  232.675;    0.000
430.949; 1602.325;  224.675;    0.000
431.000; 1589.325;  236.675;    0.000
431.051; 1613.325;  251.675;    0.000
431.102; 1568.325;  205.675;    0.000
431.153; 1605.325;  212.675;    0.000
431.204; 1599.325;  200.675;    0.000
431.255; 1517.325;  220.675;    0.000
431.306; 1545.325;  223.675;    0.000
431.357; 1588.325;  240.675;    0.000
431.408; 1609.325;  232.675;    0.000
431.458; 1522.325;  204.675;    0.000
431.509; 1509.325;  196.675;    0.000
431.560; 1587.325;  243.675;    0.000
431.611; 1618.325;  222.675;    0.000
431.662; 1615.325;  246.675;    0.000
431.713; 1631.325;  188.675;    0.000
431.763; 1607.325;  226.675;    0.000
431.814; 1584.325;  239.675;    0.000
431.865; 1567.325;  245.675;    0.000
431.916; 1568.325;  173.675;    0.000
431.966; 1520.325;  220.675;    0.000
432.017; 1544.325;  247.675;    0.000
432.068; 1632.325;  241.675;    0.000
432.118; 1634.325;  220.675;    0.000
432.169; 1576.325;  244.675;    0.000
432.220; 1626.325;  246.675;    0.000
432.271; 1560.325;  203.675;    0.000
432.321; 1598.325;  244.675;    0.000
432.372; 1617.325;  254.675;    0.000
432.423; 1556.325;  224.675;    0.000
432.473; 1587.325;  211.675;    0.000
432.524; 1576.325;  227.675;    0.000
432.574; 1571.325;  228.675;    0.000
432.625; 1565.325;  223.675;    0.000
432.676; 1526.325;  220.675;    0.000
432.726; 1656.325;  257.675;    0.000
432.777; 1550.325;  257.675;    0.000
432.827; 1616.325;  240.675;    0.000
432.878; 1529.325;  219.675;    0.000
432.928; 1587.325;  234.675;    0.000
432.979; 1532.325;  226.675;    0.000
433.029; 1531.325;  216.675;    0.000
433.080; 1552.325;  232.675;    0.000
433.130; 1543.325;  257.675;    0.000
433.181; 1576.325;  243.675;    0.000
433.231; 1526.325;  239.675;    0.000
433.282; 1608.325;  232.675;    0.000
433.332; 1570.325;  256.675;    0.000
433.383; 1586.325;  268.675;    0.000
433.433; 1518.325;  291.675;    0.000
433.484; 1579.325;  263.675;    0.000
433.534; 1576.325;  248.675;    0.000
433.585; 1593.325;  244.675;    0.000
433.635; 1589.325;  242.675;    0.000
433.685; 1511.325;  243.675;    0.000
433.736; 1582.325;  283.675;    0.000
433.786; 1510.325;  264.675;    0.000
433.836; 1595.325;  282.675;    0.000
433.887; 1559.325;  265.675;    0.000
433.937; 1574.325;  255.675;    0.000
433.987; 1561.325;  245.675;    0.000
434.038; 1545.325;  276.675;    0.000
434.088; 1564.325;  249.675;    0.000
434.138; 1526.325;  260.675;    0.000
434.189; 1579.325;  241.675;    0.000
434.239; 1495.325;  232.675;    0.000
434.289; 1599.325;  272.675;    0.000
434.339; 1566.325;  288.675;    0.000
434.389; 1567.325;  258.675;    0.000
434.440; 1554.325;  244.675;    0.000
434.490; 1580.325;  288.675;    0.000
434.540; 1618.325;  252.675;    0.000
434.590; 1521.325;  256.675;    0.000
434.640; 1594.325;  259.675;    0.000
434.691; 1635.325;  220.675;    0.000
434.741; 1610.325;  238.675;    0.000
434.791; 1591.325;  276.675;    0.000
434.841; 1587.325;  256.675;    0.000
434.891; 1551.325;  297.675;    0.000
434.941; 1596.325;  290.675;    0.000
434.991; 1589.325;  261.675;    0.000
435.042; 1584.325;  300.675;    0.000
435.092; 1558.325;  248.675;    0.000
435.142; 1518.325;  246.675;    0.000
435.192; 1582.325;  201.675;    0.000
435.242; 1547.325;  234.675;    0.000
435.292; 1554.325;  266.675;    0.000
435.342; 1567.325;  250.675;    0.000
435.392; 1525.325;  279.675;    0.000
435.442; 1581.325;  242.675;    0.000
435.492; 1564.325;  265.675;    0.000
435.542; 1573.325;  243.675;    0.000
435.592; 1514.325;  243.675;    0.000
435.642; 1545.325;  241.675;    0.000
435.692; 1495.325;  263.675;    0.000
435.742; 1514.325;  264.675;    0.000
435.792; 1537.325;  291.675;    0.000
435.842; 1503.325;  257.675;    0.000
435.891; 1489.325;  224.675;    0.000
435.941; 1512.325;  243.675;    0.000
435.991; 1537.325;  300.675;    0.000
436.041; 1523.325;  197.675;    0.000
436.091; 1522.325;  238.675;    0.000
436.141; 1515.325;  222.675;    0.000
436.191; 1434.325;  249.675;    0.000
436.241; 1507.325;  208.675;    0.000
436.290; 1514.325;  282.675;    0.000
436.340; 1513.325;  233.675;    0.000
436.390; 1412.325;  223.675;    0.000
436.440; 1573.325;  252.675;    0.000
436.490; 1506.325;  254.675;    0.000
436.539; 1575.325;  271.675;    0.000
436.589; 1539.325;  248.675;    0.000
436.639; 1480.325;  235.675;    0.000
436.689; 1507.325;  238.675;    0.000
436.738; 1501.325;  267.675;    0.000
436.788; 1430.325;  239.675;    0.000
436.838; 1508.325;  244.675;    0.000
436.887; 1488.325;  265.675;    0.000
436.937; 1484.325;  261.675;    0.000
436.987; 1475.325;  235.675;    0.000
437.036; 1509.325;  267.675;    0.000
437.086; 1502.325;  258.675;    0.000
437.136; 1506.325;  250.675;    0.000
437.185; 1494.325;  214.675;    0.000
437.235; 1490.325;  257.675;    0.000
437.285; 1537.325;  259.675;    0.000
437.334; 1525.325;  241.675;    0.000
437.384; 1473.325;  231.675;    0.000
437.433; 1451.325;  239.675;    0.000
437.483; 1483.325;  260.675;    0.000
437.532; 1483.325;  277.675;    0.000
437.582; 1479.325;  268.675;    0.000
437.631; 1443.325;  239.675;    0.000
437.681; 1506.325;  251.675;    0.000
437.730; 1494.325;  246.675;    0.000
437.780; 1444.325;  226.675;    0.000
437.829; 1526.325;  256.675;    0.000
437.879; 1434.325;  239.675;    0.000
437.928; 1387.325;  253.675;    0.000
437.978; 1429.325;  245.675;    0.000
438.027; 1426.325;  277.675;    0.000
438.077; 1439.325;  248.675;    0.000
438.126; 1433.325;  201.675;    0.000
438.176; 1430.325;  220.675;    0.000
438.225; 1433.325;  250.675;    0.000
438.274; 1483.325;  234.675;    0.000
438.324; 1428.325;  276.675;    0.000
438.373; 1379.325;  226.675;    0.000
438.422; 1479.325;  228.675;    0.000
438.472; 1423.325;  225.675;    0.000
438.521; 1430.325;  227.675;    0.000
438.570; 1418.325;  242.675;    0.000
438.620; 1458.325;  277.675;    0.000
438.669; 1456.325;  256.675;    0.000
438.718; 1416.325;  248.675;    0.000
438.768; 1385.325;  225.675;    0.000
438.817; 1377.325;  229.675;    0.000
438.866; 1387.325;  218.675;    0.000
438.915; 1488.325;  256.675;    0.000
438.965; 1388.325;  242.675;    0.000
439.014; 1483.325;  260.675;    0.000
439.063; 1519.325;  238.675;    0.000
439.112; 1508.325;  209.675;    0.000
439.162; 1544.325;  258.675;    0.000
439.211; 1468.325;  275.675;    0.000
439.260; 1420.325;  238.675;    0.000
439.309; 1402.325;  237.675;    0.000
439.358; 1458.325;  252.675;    0.000
439.407; 1462.325;  239.675;    0.000
439.456; 1454.325;  211.675;    0.000
439.506; 1464.325;  261.675;    0.000
439.555; 1431.325;  274.675;    0.000
439.604; 1445.325;  262.675;    0.000
439.653; 1441.325;  245.675;    0.000
439.702; 1405.325;  247.675;    0.000
439.751; 1346.325;  228.675;    0.000
439.800; 1402.325;  253.675;    0.000
439.849; 1503.325;  219.675;    0.000
439.898; 1421.325;  246.675;    0.000
439.947; 1375.325;  229.675;    0.000
439.996; 1429.325;  274.675;    0.000
440.045; 1485.325;  224.675;    0.000
440.094; 1424.325;  225.675;    0.000
440.143; 1467.325;  277.675;    0.000
440.192; 1476.325;  252.675;    0.000
440.241; 1471.325;  253.675;    0.000
440.290; 1399.325;  242.675;    0.000
440.339; 1448.325;  220.675;    0.000
440.388; 1414.325;  244.675;    0.000
440.437; 1374.325;  268.675;    0.000
440.486; 1442.325;  242.675;    0.000
440.535; 1476.325;  269.675;    0.000
440.583; 1418.325;  258.675;    0.000
440.632; 1469.325;  286.675;    0.000
440.681; 1427.325;  238.675;    0.000
440.730; 1473.325;  271.675;    0.000
440.779; 1422.325;  226.675;    0.000
440.828; 1399.325;  213.675;    0.000
440.876; 1451.325;  207.675;    0.000
440.925; 1514.325;  247.675;    0.000
440.974; 1399.325;  229.675;    0.000
441.023; 1473.325;  227.675;    0.000
441.072; 1466.325;  222.675;    0.000
441.120; 1508.325;  273.675;    0.000
441.169; 1471.325;  263.675;    0.000
441.218; 1430.325;  264.675;    0.000
441.267; 1445.325;  287.675;    0.000
441.315; 1499.325;  251.675;    0.000
441.364; 1528.325;  252.675;    0.000
441.413; 1456.325;  227.675;    0.000
441.461; 1473.325;  198.675;    0.000
441.510; 1509.325;  273.675;    0.000
441.559; 1482.325;  245.675;    0.000
441.607; 1498.325;  218.675;    0.000
441.656; 1492.325;  261.675;    0.000
441.705; 1483.325;  259.675;    0.000
441.753; 1475.325;  272.675;    0.000
441.802; 1455.325;  246.675;    0.000
441.850; 1423.325;  255.675;    0.000
441.899; 1472.325;  236.675;    0.000
441.948; 1506.325;  267.675;    0.000
441.996; 1432.325;  246.675;    0.000
442.045; 1476.325;  279.675;    0.000
442.093; 1458.325;  251.675;    0.000
442.142; 1484.325;  274.675;    0.000
442.190; 1519.325;  279.675;    0.000
442.239; 1438.325;  295.675;    0.000
442.287; 1480.325;  229.675;    0.000
442.336; 1501.325;  265.675;    0.000
442.384; 1468.325;  219.675;    0.000
442.433; 1514.325;  287.675;    0.000
442.481; 1465.325;  271.675;    0.000
442.529; 1482.325;  262.675;    0.000
442.578; 1469.325;  282.675;    0.000
442.626; 1494.325;  245.675;    0.000
442.675; 1519.325;  283.675;    0.000
442.723; 1481.325;  247.675;    0.000
442.771; 1497.325;  221.675;    0.000
442.820; 1421.325;  253.675;    0.000
442.868; 1415.325;  204.675;    0.000
442.917; 1440.325;  263.675;    0.000
442.965; 1503.325;  255.675;    0.000
443.013; 1477.325;  282.675;    0.000
443.062; 1427.325;  258.675;    0.000
443.110; 1476.325;  268.675;    0.000
443.158; 1424.325;  247.675;    0.000
443.206; 1432.325;  243.675;    0.000
443.255; 1459.325;  271.675;    0.000
443.303; 1464.325;  279.675;    0.000
443.351; 1508.325;  264.675;    0.000
443.399; 1486.325;  245.675;    0.000
443.448; 1442.325;  259.675;    0.000
443.496; 1546.325;  281.675;    0.000
443.544; 1460.325;  213.675;    0.000
443.592; 1502.325;  290.675;    0.000
443.640; 1527.325;  270.675;    0.000
443.689; 1467.325;  229.675;    0.000
443.737; 1533.325;  254.675;    0.000
443.785; 1508.325;  234.675;    0.000
443.833; 1551.325;  287.675;    0.000
443.881; 1482.325;  229.675;    0.000
443.929; 1518.325;  260.675;    0.000
443.977; 1517.325;  265.675;    0.000
444.025; 1430.325;  257.675;    0.000
444.074; 1502.325;  245.675;    0.000
444.122; 1507.325;  282.675;    0.000
444.170; 1479.325;  240.675;    0.000
444.218; 1485.325;  270.675;    0.000
444.266; 1503.325;  254.675;    0.000
444.314; 1463.325;  264.675;    0.000
444.362; 1484.325;  287.675;    0.000
444.410; 1516.325;  236.675;    0.000
444.458; 1561.325;  273.675;    0.000
444.506; 1478.325;  235.675;    0.000
444.554; 1458.325;  242.675;    0.000
444.602; 1554.325;  283.675;    0.000
444.650; 1480.325;  266.675;    0.000
444.698; 1529.325;  248.675;    0.000
444.746; 1399.325;  247.675;    0.000
444.793; 1463.325;  211.675;    0.000
444.841; 1603.325;  259.675;    0.000
444.889; 1516.325;  253.675;    0.000
444.937; 1535.325;  248.675;    0.000
444.985; 1434.325;  233.675;    0.000
445.033; 1470.325;  245.675;    0.000
445.081; 1468.325;  243.675;    0.000
445.129; 1456.325;  238.675;    0.000
445.176; 1470.325;  204.675;    0.000
445.224; 1537.325;  262.675;    0.000
445.272; 1435.325;  256.675;    0.000
445.320; 1472.325;  235.675;    0.000
445.368; 1444.325;  251.675;    0.000
445.415; 1513.325;  250.675;    0.000
445.463; 1507.325;  225.675;    0.000
445.511; 1526.325;  226.675;    0.000
445.559; 1514.325;  251.675;    0.000
445.606; 1474.325;  213.675;    0.000
445.654; 1487.325;  261.675;    0.000
445.702; 1438.325;  222.675;    0.000
445.749; 1515.325;  257.675;    0.000
445.797; 1477.325;  263.675;    0.000
445.845; 1471.325;  218.675;    0.000
445.892; 1482.325;  228.675;    0.000
445.940; 1447.325;  249.675;    0.000
445.988; 1432.325;  276.675;    0.000
446.035; 1477.325;  229.675;    0.000
446.083; 1462.325;  255.675;    0.000
446.130; 1431.325;  200.675;    0.000
446.178; 1482.325;  256.675;    0.000
446.226; 1496.325;  238.675;    0.000
446.273; 1489.325;  250.675;    0.000
446.321; 1459.325;  233.675;    0.000
446.368; 1546.325;  244.675;    0.000
446.416; 1469.325;  214.675;    0.000
446.463; 1458.325;  225.675;    0.000
446.511; 1475.325;  253.675;    0.000
446.558; 1482.325;  246.675;    0.000
446.606; 1479.325;  238.675;    0.000
446.653; 1529.325;  215.675;    0.000
446.701; 1517.325;  248.675;    0.000
446.748; 1468.325;  258.675;    0.000
446.796; 1501.325;  259.675;    0.000
446.843; 1558.325;  269.675;    0.000
446.891; 1449.325;  259.675;    0.000
446.938; 1537.325;  226.675;    0.000
446.985; 1510.325;  225.675;    0.000
447.033; 1575.325;  269.675;    0.000
447.080; 1531.325;  258.675;    0.000
447.128; 1525.325;  225.675;    0.000
447.175; 1571.325;  259.675;    0.000
447.222; 1551.325;  238.675;    0.000
447.270; 1530.325;  250.675;    0.000
447.317; 1522.325;  217.675;    0.000
447.364; 1525.325;  262.675;    0.000
447.411; 1566.325;  269.675;    0.000
447.459; 1500.325;  251.675;    0.000
447.506; 1457.325;  227.675;    0.000
447.553; 1617.325;  250.675;    0.000
447.601; 1535.325;  251.675;    0.000
447.648; 1549.325;  276.675;    0.000
447.695; 1558.325;  229.675;    0.000
447.742; 1519.325;  245.675;    0.000
447.789; 1563.325;  243.675;    0.000
447.837; 1640.325;  267.675;    0.000
447.884; 1631.325;  246.675;    0.000
447.931; 1657.325;  266.675;    0.000
447.978; 1664.325;  242.675;    0.000
448.025; 1592.325;  267.675;    0.000
448.072; 1626.325;  257.675;    0.000
448.120; 1662.325;  279.675;    0.000
448.167; 1675.325;  275.675;    0.000
448.214; 1636.325;  241.675;    0.000
448.261; 1644.325;  271.675;    0.000
448.308; 1647.325;  256.675;    0.000
448.355; 1569.325;  253.675;    0.000
448.402; 1622.325;  267.675;    0.000
448.449; 1548.325;  252.675;    0.000
448.496; 1642.325;  241.675;    0.000
448.543; 1492.325;  250.675;    0.000
448.590; 1643.325;  288.675;    0.000
448.637; 1567.325;  255.675;    0.000
448.684; 1572.325;  284.675;    0.000
448.731; 1547.325;  244.675;    0.000
448.778; 1584.325;  257.675;    0.000
448.825; 1514.325;  252.675;    0.000
448.872; 1482.325;  205.675;    0.000
448.919; 1576.325;  244.675;    0.000
448.966; 1546.325;  278.675;    0.000
449.013; 1560.325;  262.675;    0.000
449.060; 1471.325;  278.675;    0.000
449.107; 1431.325;  248.675;    0.000
449.154; 1502.325;  230.675;    0.000
449.200; 1567.325;  211.675;    0.000
449.247; 1450.325;  283.675;    0.000
449.294; 1482.325;  251.675;    0.000
449.341; 1468.325;  280.675;    0.000
449.388; 1461.325;  247.675;    0.000
449.435; 1474.325;  267.675;    0.000
449.481; 1479.325;  303.675;    0.000
449.528; 1527.325;  279.675;    0.000
449.575; 1498.325;  226.675;    0.000
449.622; 1427.325;  263.675;    0.000
449.668; 1453.325;  249.675;    0.000
449.715; 1552.325;  257.675;    0.000
449.762; 1484.325;  251.675;    0.000
449.809; 1519.325;  289.675;    0.000
449.855; 1478.325;  239.675;    0.000
449.902; 1537.325;  262.675;    0.000
449.949; 1464.325;  262.675;    0.000
449.995; 1472.325;  265.675;    0.000
450.042; 1430.325;  280.675;    0.000
450.089; 1543.325;  277.675;    0.000
450.135; 1501.325;  285.675;    0.000
450.182; 1466.325;  275.675;    0.000
450.229; 1432.325;  278.675;    0.000
450.275; 1489.325;  288.675;    0.000
450.322; 1444.325;  238.675;    0.000
450.368; 1447.325;  276.675;    0.000
450.415; 1447.325;  295.675;    0.000
450.462; 1452.325;  283.675;    0.000
450.508; 1479.325;  264.675;    0.000
450.555; 1466.325;  275.675;    0.000
450.601; 1412.325;  278.675;    0.000
450.648; 1456.325;  251.675;    0.000
450.694; 1470.325;  237.675;    0.000
450.741; 1422.325;  280.675;    0.000
450.787; 1427.325;  279.675;    0.000
450.834; 1338.325;  287.675;    0.000
450.880; 1394.325;  265.675;    0.000
450.927; 1453.325;  270.675;    0.000
450.973; 1459.325;  308.675;    0.000
451.019; 1426.325;  253.675;    0.000
451.066; 1423.325;  261.675;    0.000
451.112; 1479.325;  276.675;    0.000
451.159; 1421.325;  235.675;    0.000
451.205; 1488.325;  284.675;    0.000
451.251; 1447.325;  264.675;    0.000
451.298; 1432.325;  262.675;    0.000
451.344; 1454.325;  278.675;    0.000
451.390; 1499.325;  273.675;    0.000
451.437; 1510.325;  272.675;    0.000
451.483; 1464.325;  302.675;    0.000
451.529; 1448.325;  255.675;    0.000
451.576; 1405.325;  287.675;    0.000
451.622; 1360.325;  254.675;    0.000
451.668; 1419.325;  260.675;    0.000
451.714; 1460.325;  289.675;    0.000
451.761; 1410.325;  273.675;    0.000
451.807; 1411.325;  307.675;    0.000
451.853; 1456.325;  281.675;    0.000
451.899; 1380.325;  246.675;    0.000
451.945; 1550.325;  258.675;    0.000
451.992; 1381.325;  276.675;    0.000
452.038; 1428.325;  287.675;    0.000
452.084; 1438.325;  288.675;    0.000
452.130; 1444.325;  259.675;    0.000
452.176; 1367.325;  265.675;    0.000
452.222; 1375.325;  222.675;    0.000
452.268; 1428.325;  271.675;    0.000
452.315; 1437.325;  258.675;    0.000
452.361; 1426.325;  233.675;    0.000
452.407; 1384.325;  270.675;    0.000
452.453; 1410.325;  261.675;    0.000
452.499; 1422.325;  279.675;    0.000
452.545; 1387.325;  269.675;    0.000
452.591; 1411.325;  288.675;    0.000
452.637; 1428.325;  279.675;    0.000
452.683; 1459.325;  232.675;    0.000
452.729; 1421.325;  285.675;    0.000
452.775; 1422.325;  280.675;    0.000
452.821; 1420.325;  260.675;    0.000
452.867; 1396.325;  239.675;    0.000
452.913; 1378.325;  240.675;    0.000
452.959; 1393.325;  214.675;    0.000
453.005; 1421.325;  266.675;    0.000
453.051; 1472.325;  258.675;    0.000
453.097; 1344.325;  253.675;    0.000
453.142; 1325.325;  244.675;    0.000
453.188; 1471.325;  241.675;    0.000
453.234; 1369.325;  257.675;    0.000
453.280; 1384.325;  231.675;    0.000
453.326; 1370.325;  240.675;    0.000
453.372; 1361.325;  208.675;    0.000
453.418; 1400.325;  266.675;    0.000
453.463; 1411.325;  232.675;    0.000
453.509; 1408.325;  221.675;    0.000
453.555; 1427.325;  268.675;    0.000
453.601; 1337.325;  242.675;    0.000
453.647; 1374.325;  283.675;    0.000
453.692; 1292.325;  242.675;    0.000
453.738; 1390.325;  294.675;    0.000
453.784; 1382.325;  256.675;    0.000
453.829; 1399.325;  267.675;    0.000
453.875; 1353.325;  233.675;    0.000
453.921; 1368.325;  247.675;    0.000
453.967; 1385.325;  249.675;    0.000
454.012; 1397.325;  274.675;    0.000
454.058; 1390.325;  249.675;    0.000
454.104; 1385.325;  272.675;    0.000
454.149; 1400.325;  277.675;    0.000
454.195; 1399.325;  256.675;    0.000
454.240; 1409.325;  263.675;    0.000
454.286; 1401.325;  276.675;    0.000
454.332; 1377.325;  290.675;    0.000
454.377; 1396.325;  274.675;    0.000
454.423; 1360.325;  282.675;    0.000
454.468; 1353.325;  275.675;    0.000
454.514; 1365.325;  270.675;    0.000
454.559; 1431.325;  249.675;    0.000
454.605; 1374.325;  241.675;    0.000
454.650; 1398.325;  269.675;    0.000
454.696; 1335.325;  253.675;    0.000
454.741; 1403.325;  279.675;    0.000
454.787; 1436.325;  252.675;    0.000
454.832; 1411.325;  246.675;    0.000
454.878; 1399.325;  264.675;    0.000
454.923; 1362.325;  268.675;    0.000
454.969; 1494.325;  253.675;    0.000
455.014; 1344.325;  264.675;    0.000
455.060; 1366.325;  265.675;    0.000
455.105; 1380.325;  270.675;    0.000
455.150; 1405.325;  284.675;    0.000
455.196; 1349.325;  278.675;    0.000
455.241; 1440.325;  248.675;    0.000
455.286; 1405.325;  274.675;    0.000
455.332; 1346.325;  269.675;    0.000
455.377; 1397.325;  218.675;    0.000
455.422; 1429.325;  261.675;    0.000
455.468; 1396.325;  278.675;    0.000
455.513; 1401.325;  235.675;    0.000
455.558; 1299.325;  232.675;    0.000
455.604; 1395.325;  285.675;    0.000
455.649; 1335.325;  264.675;    0.000
455.694; 1364.325;  235.675;    0.000
455.739; 1381.325;  265.675;    0.000
455.785; 1422.325;  266.675;    0.000
455.830; 1412.325;  272.675;    0.000
455.875; 1448.325;  256.675;    0.000
455.920; 1402.325;  191.675;    0.000
455.965; 1345.325;  280.675;    0.000
456.010; 1363.325;  267.675;    0.000
456.056; 1380.325;  270.675;    0.000
456.101; 1346.325;  248.675;    0.000
456.146; 1425.325;  287.675;    0.000
456.191; 1379.325;  280.675;    0.000
456.236; 1408.325;  229.675;    0.000
456.281; 1400.325;  241.675;    0.000
456.326; 1391.325;  248.675;    0.000
456.371; 1337.325;  233.675;    0.000
456.416; 1412.325;  284.675;    0.000
456.461; 1314.325;  256.675;    0.000
456.507; 1396.325;  250.675;    0.000
456.552; 1386.325;  290.675;    0.000
456.597; 1407.325;  260.675;    0.000
456.642; 1374.325;  252.675;    0.000
456.687; 1407.325;  272.675;    0.000
456.732; 1434.325;  303.675;    0.000
456.776; 1409.325;  269.675;    0.000
456.821; 1428.325;  256.675;    0.000
456.866; 1369.325;  278.675;    0.000
456.911; 1376.325;  230.675;    0.000
456.956; 1333.325;  275.675;    0.000
457.001; 1391.325;  248.675;    0.000
457.046; 1430.325;  222.675;    0.000
457.091; 1419.325;  251.675;    0.000
457.136; 1442.325;  231.675;    0.000
457.181; 1383.325;  245.675;    0.000
457.225; 1438.325;  262.675;    0.000
457.270; 1385.325;  277.675;    0.000
457.315; 1404.325;  235.675;    0.000
457.360; 1305.325;  231.675;    0.000
457.405; 1384.325;  214.675;    0.000
457.450; 1433.325;  255.675;    0.000
457.494; 1397.325;  220.675;    0.000
457.539; 1346.325;  257.675;    0.000
457.584; 1405.325;  279.675;    0.000
457.629; 1358.325;  249.675;    0.000
457.673; 1389.325;  237.675;    0.000
457.718; 1365.325;  232.675;    0.000
457.763; 1407.325;  278.675;    0.000
457.807; 1379.325;  279.675;    0.000
457.852; 1399.325;  246.675;    0.000
457.897; 1385.325;  284.675;    0.000
457.941; 1457.325;  272.675;    0.000
457.986; 1434.325;  285.675;    0.000
458.031; 1406.325;  235.675;    0.000
458.075; 1406.325;  299.675;    0.000
458.120; 1417.325;  284.675;    0.000
458.165; 1301.325;  212.675;    0.000
458.209; 1401.325;  254.675;    0.000
458.254; 1379.325;  257.675;    0.000
458.298; 1463.325;  265.675;    0.000
458.343; 1403.325;  278.675;    0.000
458.387; 1457.325;  316.675;    0.000
458.432; 1429.325;  279.675;    0.000
458.476; 1444.325;  272.675;    0.000
458.521; 1418.325;  240.675;    0.000
458.565; 1480.325;  307.675;    0.000
458.610; 1355.325;  246.675;    0.000
458.654; 1415.325;  275.675;    0.000
458.699; 1524.325;  288.675;    0.000
458.743; 1533.325;  244.675;    0.000
458.788; 1438.325;  245.675;    0.000
458.832; 1466.325;  277.675;    0.000
458.877; 1534.325;  285.675;    0.000
458.921; 1406.325;  216.675;    0.000
458.965; 1489.325;  260.675;    0.000
459.010; 1459.325;  284.675;    0.000
459.054; 1479.325;  272.675;    0.000
459.099; 1463.325;  262.675;    0.000
459.143; 1535.325;  276.675;    0.000
459.187; 1471.325;  258.675;    0.000
459.231; 1510.325;  278.675;    0.000
459.276; 1510.325;  262.675;    0.000
459.320; 1466.325;  291.675;    0.000
459.364; 1498.325;  294.675;    0.000
459.409; 1538.325;  269.675;    0.000
459.453; 1539.325;  257.675;    0.000
459.497; 1543.325;  283.675;    0.000
459.541; 1545.325;  275.675;    0.000
459.586; 1467.325;  261.675;    0.000
459.630; 1541.325;  284.675;    0.000
459.674; 1524.325;  244.675;    0.000
459.718; 1486.325;  309.675;    0.000
459.762; 1521.325;  281.675;    0.000
459.807; 1530.325;  250.675;    0.000
459.851; 1495.325;  286.675;    0.000
459.895; 1484.325;  230.675;    0.000
459.939; 1587.325;  262.675;    0.000
459.983; 1557.325;  250.675;    0.000
460.027; 1517.325;  275.675;    0.000
460.071; 1482.325;  301.675;    0.000
460.115; 1520.325;  279.675;    0.000
460.159; 1508.325;  301.675;    0.000
460.204; 1553.325;  287.675;    0.000
460.248; 1509.325;  293.675;    0.000
460.292; 1501.325;  310.675;    0.000
460.336; 1532.325;  263.675;    0.000
460.380; 1584.325;  268.675;    0.000
460.424; 1569.325;  281.675;    0.000
460.468; 1593.325;  310.675;    0.000
460.512; 1527.325;  273.675;    0.000
460.556; 1572.325;  291.675;    0.000
460.599; 1534.325;  240.675;    0.000
460.643; 1553.325;  260.675;    0.000
460.687; 1557.325;  283.675;    0.000
460.731; 1576.325;  254.675;    0.000
460.775; 1510.325;  265.675;    0.000
460.819; 1517.325;  280.675;    0.000
460.863; 1609.325;  316.675;    0.000
460.907; 1489.325;  231.675;    0.000
460.951; 1498.325;  275.675;    0.000
460.995; 1497.325;  290.675;    0.000
461.038; 1581.325;  284.675;    0.000
461.082; 1545.325;  278.675;    0.000
461.126; 1557.325;  321.675;    0.000
461.170; 1515.325;  273.675;    0.000
461.214; 1469.325;  289.675;    0.000
461.257; 1601.325;  296.675;    0.000
461.301; 1569.325;  287.675;    0.000
461.345; 1553.325;  290.675;    0.000
461.389; 1472.325;  260.675;    0.000
461.432; 1589.325;  262.675;    0.000
461.476; 1563.325;  254.675;    0.000
461.520; 1541.325;  305.675;    0.000
461.563; 1575.325;  289.675;    0.000
461.607; 1534.325;  286.675;    0.000
461.651; 1549.325;  271.675;    0.000
461.694; 1562.325;  245.675;    0.000
461.738; 1515.325;  278.675;    0.000
461.782; 1600.325;  284.675;    0.000
461.825; 1525.325;  305.675;    0.000
461.869; 1567.325;  293.675;    0.000
461.913; 1547.325;  280.675;    0.000
461.956; 1652.325;  237.675;    0.000
462.000; 1616.325;  288.675;    0.000
462.043; 1647.325;  282.675;    0.000
462.087; 1596.325;  268.675;    0.000
462.130; 1562.325;  286.675;    0.000
462.174; 1604.325;  312.675;    0.000
462.217; 1596.325;  270.675;    0.000
462.261; 1578.325;  281.675;    0.000
462.304; 1600.325;  248.675;    0.000
462.348; 1561.325;  267.675;    0.000
462.391; 1520.325;  270.675;    0.000
462.435; 1642.325;  287.675;    0.000
462.478; 1549.325;  290.675;    0.000
462.522; 1626.325;  296.675;    0.000
462.565; 1601.325;  275.675;    0.000
462.608; 1696.325;  325.675;    0.000
462.652; 1677.325;  303.675;    0.000
462.695; 1733.325;  355.675;    0.000
462.739; 1577.325;  272.675;    0.000
462.782; 1619.325;  295.675;    0.000
462.825; 1588.325;  300.675;    0.000
462.869; 1715.325;  319.675;    0.000
462.912; 1721.325;  363.675;    0.000
462.955; 1687.325;  298.675;    0.000
462.998; 1660.325;  321.675;    0.000
463.042; 1648.325;  310.675;    0.000
463.085; 1650.325;  305.675;    0.000
463.128; 1691.325;  345.675;    0.000
463.172; 1616.325;  341.675;    0.000
463.215;  396.325;  300.675;    0.000
463.258;  316.325;  287.675;    0.000
463.301;  317.325;  290.675;    0.000
463.344;  330.325;  320.675;    0.000
463.388;  322.325;  340.675;    0.000
463.431;  288.325;  278.675;    0.000
463.474;  354.325;  353.675;    0.000
463.517;  323.325;  295.675;    0.000
463.560;  333.325;  328.675;    0.000
463.603;  315.325;  316.675;    0.000
463.646;  320.325;  295.675;    0.000
463.690;  305.325;  334.675;    0.000
463.733;  322.325;  343.675;    0.000
463.776;  305.325;  300.675;    0.000
463.819;  358.325;  368.675;    0.000
463.862;  290.325;  327.675;    0.000

