
Integration time [ms]:   0.300
Averaging Nr. [scans]: 1
Smoothing Nr. [pixels]: 0
Data measured with spectrometer [name]: UV1
Wave   ;Sample   ;Dark     ;Reference
[nm]   ;[counts] ;[counts] ;[counts] 

236.381;  150.000;  149.925;    0.000
236.451;  200.000;  206.925;    0.000
236.520;  160.000;  212.925;    0.000
236.590;  208.000;  189.925;    0.000
236.660;  194.000;  184.925;    0.000
236.730;  187.000;  186.925;    0.000
236.799;  198.000;  191.925;    0.000
236.869;  202.000;  184.925;    0.000
236.939;  186.000;  176.925;    0.000
237.009;  147.000;  184.925;    0.000
237.078;  190.000;  189.925;    0.000
237.148;  147.000;  217.925;    0.000
237.218;  197.000;  192.925;    0.000
237.287;  171.000;  182.925;    0.000
237.357;  176.000;  196.925;    0.000
237.427;  193.000;  144.925;    0.000
237.496;  728.000;  224.925;    0.000
237.566;  729.000;  210.925;    0.000
237.636;  730.000;  165.925;    0.000
237.705;  778.000;  214.925;    0.000
237.775;  695.000;  194.925;    0.000
237.845;  716.000;  214.925;    0.000
237.914;  717.000;  191.925;    0.000
237.984;  767.000;  218.925;    0.000
238.054;  655.000;  187.925;    0.000
238.123;  750.000;  179.925;    0.000
238.193;  730.000;  177.925;    0.000
238.263;  735.000;  225.925;    0.000
238.332;  702.000;  197.925;    0.000
238.402;  728.000;  183.925;    0.000
238.471;  701.000;  181.925;    0.000
238.541;  729.000;  200.925;    0.000
238.611;  684.000;  170.925;    0.000
238.680;  725.000;  170.925;    0.000
238.750;  690.000;  175.925;    0.000
238.819;  685.000;  180.925;    0.000
238.889;  743.000;  190.925;    0.000
238.958;  732.000;  207.925;    0.000
239.028;  719.000;  201.925;    0.000
239.097;  689.000;  181.925;    0.000
239.167;  699.000;  222.925;    0.000
239.237;  770.000;  221.925;    0.000
239.306;  702.000;  147.925;    0.000
239.376;  702.000;  188.925;    0.000
239.445;  691.000;  198.925;    0.000
239.515;  696.000;  191.925;    0.000
239.584;  715.000;  178.925;    0.000
239.654;  731.000;  147.925;    0.000
239.723;  729.000;  212.925;    0.000
239.793;  696.000;  185.925;    0.000
239.862;  684.000;  157.925;    0.000
239.932;  682.000;  181.925;    0.000
240.001;  690.000;  163.925;    0.000
240.070;  679.000;  194.925;    0.000
240.140;  720.000;  202.925;    0.000
240.209;  680.000;  180.925;    0.000
240.279;  679.000;  188.925;    0.000
240.348;  689.000;  189.925;    0.000
240.418;  634.000;  143.925;    0.000
240.487;  686.000;  195.925;    0.000
240.556;  702.000;  170.925;    0.000
240.626;  694.000;  172.925;    0.000
240.695;  711.000;  202.925;    0.000
240.765;  669.000;  191.925;    0.000
240.834;  675.000;  177.925;    0.000
240.903;  685.000;  189.925;    0.000
240.973;  673.000;  196.925;    0.000
241.042;  698.000;  183.925;    0.000
241.112;  709.000;  189.925;    0.000
241.181;  700.000;  186.925;    0.000
241.250;  613.000;  168.925;    0.000
241.320;  679.000;  200.925;    0.000
241.389;  687.000;  185.925;    0.000
241.458;  683.000;  194.925;    0.000
241.528;  682.000;  165.925;    0.000
241.597;  715.000;  200.925;    0.000
241.666;  662.000;  184.925;    0.000
241.736;  718.000;  176.925;    0.000
241.805;  652.000;  165.925;    0.000
241.874;  661.000;  200.925;    0.000
241.943;  694.000;  184.925;    0.000
242.013;  661.000;  212.925;    0.000
242.082;  679.000;  200.925;    0.000
242.151;  680.000;  196.925;    0.000
242.221;  669.000;  182.925;    0.000
242.290;  683.000;  222.925;    0.000
242.359;  625.000;  142.925;    0.000
242.428;  706.000;  180.925;    0.000
242.498;  648.000;  180.925;    0.000
242.567;  705.000;  181.925;    0.000
242.636;  672.000;  203.925;    0.000
242.705;  669.000;  209.925;    0.000
242.774;  687.000;  172.925;    0.000
242.844;  714.000;  218.925;    0.000
242.913;  671.000;  188.925;    0.000
242.982;  670.000;  193.925;    0.000
243.051;  693.000;  202.925;    0.000
243.120;  640.000;  174.925;    0.000
243.190;  669.000;  165.925;    0.000
243.259;  684.000;  206.925;    0.000
243.328;  715.000;  166.925;    0.000
243.397;  659.000;  167.925;    0.000
243.466;  668.000;  163.925;    0.000
243.535;  609.000;  162.925;    0.000
243.605;  638.000;  159.925;    0.000
243.674;  710.000;  171.925;    0.000
243.743;  724.000;  189.925;    0.000
243.812;  632.000;  169.925;    0.000
243.881;  665.000;  145.925;    0.000
243.950;  631.000;  197.925;    0.000
244.019;  699.000;  189.925;    0.000
244.088;  660.000;  200.925;    0.000
244.158;  718.000;  208.925;    0.000
244.227;  633.000;  154.925;    0.000
244.296;  574.000;  142.925;    0.000
244.365;  646.000;  198.925;    0.000
244.434;  626.000;  162.925;    0.000
244.503;  621.000;  186.925;    0.000
244.572;  643.000;  143.925;    0.000
244.641;  631.000;  145.925;    0.000
244.710;  619.000;  159.925;    0.000
244.779;  597.000;  175.925;    0.000
244.848;  647.000;  163.925;    0.000
244.917;  638.000;  157.925;    0.000
244.986;  644.000;  166.925;    0.000
245.055;  650.000;  211.925;    0.000
245.124;  601.000;  155.925;    0.000
245.193;  650.000;  187.925;    0.000
245.262;  661.000;  152.925;    0.000
245.331;  626.000;  177.925;    0.000
245.400;  619.000;  157.925;    0.000
245.469;  647.000;  195.925;    0.000
245.538;  639.000;  199.925;    0.000
245.607;  597.000;  194.925;    0.000
245.676;  577.000;  170.925;    0.000
245.745;  618.000;  208.925;    0.000
245.814;  674.000;  185.925;    0.000
245.883;  600.000;  165.925;    0.000
245.952;  607.000;  151.925;    0.000
246.021;  599.000;  171.925;    0.000
246.090;  613.000;  174.925;    0.000
246.159;  549.000;  192.925;    0.000
246.227;  598.000;  178.925;    0.000
246.296;  566.000;  159.925;    0.000
246.365;  612.000;  189.925;    0.000
246.434;  641.000;  205.925;    0.000
246.503;  601.000;  174.925;    0.000
246.572;  637.000;  203.925;    0.000
246.641;  639.000;  169.925;    0.000
246.710;  570.000;  186.925;    0.000
246.779;  595.000;  196.925;    0.000
246.847;  579.000;  209.925;    0.000
246.916;  557.000;  177.925;    0.000
246.985;  598.000;  188.925;    0.000
247.054;  557.000;  189.925;    0.000
247.123;  566.000;  196.925;    0.000
247.192;  570.000;  210.925;    0.000
247.260;  545.000;  164.925;    0.000
247.329;  619.000;  204.925;    0.000
247.398;  557.000;  204.925;    0.000
247.467;  557.000;  160.925;    0.000
247.536;  593.000;  193.925;    0.000
247.604;  593.000;  208.925;    0.000
247.673;  582.000;  168.925;    0.000
247.742;  601.000;  182.925;    0.000
247.811;  571.000;  186.925;    0.000
247.879;  565.000;  166.925;    0.000
247.948;  575.000;  192.925;    0.000
248.017;  615.000;  178.925;    0.000
248.086;  577.000;  193.925;    0.000
248.154;  574.000;  191.925;    0.000
248.223;  551.000;  207.925;    0.000
248.292;  566.000;  168.925;    0.000
248.361;  600.000;  211.925;    0.000
248.429;  611.000;  196.925;    0.000
248.498;  541.000;  163.925;    0.000
248.567;  542.000;  159.925;    0.000
248.635;  587.000;  194.925;    0.000
248.704;  576.000;  205.925;    0.000
248.773;  572.000;  190.925;    0.000
248.841;  565.000;  179.925;    0.000
248.910;  603.000;  193.925;    0.000
248.979;  576.000;  167.925;    0.000
249.047;  574.000;  166.925;    0.000
249.116;  556.000;  191.925;    0.000
249.185;  611.000;  203.925;    0.000
249.253;  552.000;  140.925;    0.000
249.322;  582.000;  173.925;    0.000
249.390;  543.000;  165.925;    0.000
249.459;  538.000;  173.925;    0.000
249.528;  552.000;  203.925;    0.000
249.596;  584.000;  204.925;    0.000
249.665;  497.000;  176.925;    0.000
249.733;  536.000;  178.925;    0.000
249.802;  511.000;  190.925;    0.000
249.871;  530.000;  171.925;    0.000
249.939;  572.000;  160.925;    0.000
250.008;  543.000;  220.925;    0.000
250.076;  558.000;  211.925;    0.000
250.145;  556.000;  145.925;    0.000
250.213;  493.000;  177.925;    0.000
250.282;  546.000;  186.925;    0.000
250.350;  542.000;  170.925;    0.000
250.419;  531.000;  195.925;    0.000
250.487;  540.000;  194.925;    0.000
250.556;  607.000;  178.925;    0.000
250.624;  531.000;  193.925;    0.000
250.693;  539.000;  167.925;    0.000
250.761;  590.000;  253.925;    0.000
250.830;  558.000;  241.925;    0.000
250.898;  512.000;  161.925;    0.000
250.967;  522.000;  178.925;    0.000
251.035;  578.000;  189.925;    0.000
251.104;  543.000;  166.925;    0.000
251.172;  495.000;  178.925;    0.000
251.241;  512.000;  174.925;    0.000
251.309;  551.000;  197.925;    0.000
251.378;  571.000;  172.925;    0.000
251.446;  508.000;  157.925;    0.000
251.514;  588.000;  197.925;    0.000
251.583;  508.000;  191.925;    0.000
251.651;  484.000;  154.925;    0.000
251.720;  558.000;  198.925;    0.000
251.788;  576.000;  226.925;    0.000
251.856;  478.000;  164.925;    0.000
251.925;  510.000;  181.925;    0.000
251.993;  502.000;  203.925;    0.000
252.062;  569.000;  211.925;    0.000
252.130;  504.000;  185.925;    0.000
252.198;  543.000;  190.925;    0.000
252.267;  481.000;  176.925;    0.000
252.335;  537.000;  179.925;    0.000
252.403;  487.000;  173.925;    0.000
252.472;  496.000;  172.925;    0.000
252.540;  488.000;  187.925;    0.000
252.608;  527.000;  204.925;    0.000
252.677;  501.000;  179.925;    0.000
252.745;  550.000;  192.925;    0.000
252.813;  480.000;  168.925;    0.000
252.881;  424.000;  157.925;    0.000
252.950;  524.000;  188.925;    0.000
253.018;  503.000;  191.925;    0.000
253.086;  443.000;  164.925;    0.000
253.155;  480.000;  172.925;    0.000
253.223;  422.000;  168.925;    0.000
253.291;  464.000;  190.925;    0.000
253.359;  462.000;  205.925;    0.000
253.428;  412.000;  228.925;    0.000
253.496;  454.000;  170.925;    0.000
253.564;  403.000;  164.925;    0.000
253.632;  422.000;  159.925;    0.000
253.700;  425.000;  166.925;    0.000
253.769;  424.000;  172.925;    0.000
253.837;  429.000;  157.925;    0.000
253.905;  412.000;  168.925;    0.000
253.973;  429.000;  179.925;    0.000
254.041;  429.000;  187.925;    0.000
254.110;  452.000;  186.925;    0.000
254.178;  445.000;  156.925;    0.000
254.246;  390.000;  132.925;    0.000
254.314;  431.000;  191.925;    0.000
254.382;  433.000;  189.925;    0.000
254.450;  418.000;  163.925;    0.000
254.518;  455.000;  172.925;    0.000
254.587;  411.000;  162.925;    0.000
254.655;  456.000;  191.925;    0.000
254.723;  405.000;  184.925;    0.000
254.791;  443.000;  169.925;    0.000
254.859;  442.000;  186.925;    0.000
254.927;  434.000;  207.925;    0.000
254.995;  406.000;  143.925;    0.000
255.063;  453.000;  198.925;    0.000
255.131;  426.000;  168.925;    0.000
255.199;  431.000;  183.925;    0.000
255.267;  423.000;  159.925;    0.000
255.336;  415.000;  197.925;    0.000
255.404;  409.000;  177.925;    0.000
255.472;  449.000;  204.925;    0.000
255.540;  464.000;  169.925;    0.000
255.608;  436.000;  141.925;    0.000
255.676;  472.000;  176.925;    0.000
255.744;  479.000;  184.925;    0.000
255.812;  451.000;  158.925;    0.000
255.880;  460.000;  202.925;    0.000
255.948;  472.000;  184.925;    0.000
256.016;  464.000;  192.925;    0.000
256.084;  522.000;  204.925;    0.000
256.152;  466.000;  191.925;    0.000
256.220;  458.000;  187.925;    0.000
256.288;  480.000;  176.925;    0.000
256.356;  458.000;  146.925;    0.000
256.424;  471.000;  164.925;    0.000
256.491;  465.000;  161.925;    0.000
256.559;  515.000;  167.925;    0.000
256.627;  524.000;  180.925;    0.000
256.695;  477.000;  159.925;    0.000
256.763;  510.000;  166.925;    0.000
256.831;  505.000;  166.925;    0.000
256.899;  502.000;  161.925;    0.000
256.967;  470.000;  116.925;    0.000
257.035;  519.000;  195.925;    0.000
257.103;  573.000;  227.925;    0.000
257.171;  485.000;  147.925;    0.000
257.238;  535.000;  158.925;    0.000
257.306;  539.000;  188.925;    0.000
257.374;  556.000;  153.925;    0.000
257.442;  523.000;  159.925;    0.000
257.510;  531.000;  201.925;    0.000
257.578;  530.000;  137.925;    0.000
257.646;  518.000;  172.925;    0.000
257.713;  554.000;  164.925;    0.000
257.781;  514.000;  163.925;    0.000
257.849;  596.000;  174.925;    0.000
257.917;  545.000;  164.925;    0.000
257.985;  549.000;  126.925;    0.000
258.052;  561.000;  158.925;    0.000
258.120;  599.000;  151.925;    0.000
258.188;  676.000;  169.925;    0.000
258.256;  601.000;  110.925;    0.000
258.324;  601.000;  193.925;    0.000
258.391;  611.000;  157.925;    0.000
258.459;  632.000;  193.925;    0.000
258.527;  618.000;  150.925;    0.000
258.595;  639.000;  173.925;    0.000
258.662;  567.000;  168.925;    0.000
258.730;  644.000;  190.925;    0.000
258.798;  626.000;  164.925;    0.000
258.865;  657.000;  165.925;    0.000
258.933;  684.000;  162.925;    0.000
259.001;  692.000;  174.925;    0.000
259.069;  646.000;  139.925;    0.000
259.136;  697.000;  160.925;    0.000
259.204;  701.000;  174.925;    0.000
259.272;  684.000;  161.925;    0.000
259.339;  630.000;  157.925;    0.000
259.407;  719.000;  159.925;    0.000
259.475;  679.000;  134.925;    0.000
259.542;  721.000;  179.925;    0.000
259.610;  742.000;  172.925;    0.000
259.677;  749.000;  152.925;    0.000
259.745;  740.000;  131.925;    0.000
259.813;  750.000;  185.925;    0.000
259.880;  779.000;  183.925;    0.000
259.948;  809.000;  168.925;    0.000
260.016;  815.000;  160.925;    0.000
260.083;  792.000;  163.925;    0.000
260.151;  791.000;  162.925;    0.000
260.218;  854.000;  171.925;    0.000
260.286;  777.000;  154.925;    0.000
260.353;  826.000;  182.925;    0.000
260.421;  852.000;  187.925;    0.000
260.489;  870.000;  185.925;    0.000
260.556;  843.000;  165.925;    0.000
260.624;  801.000;  185.925;    0.000
260.691;  897.000;  175.925;    0.000
260.759;  894.000;  201.925;    0.000
260.826;  835.000;  150.925;    0.000
260.894;  902.000;  142.925;    0.000
260.961;  911.000;  156.925;    0.000
261.029;  907.000;  161.925;    0.000
261.096;  993.000;  172.925;    0.000
261.164;  910.000;  149.925;    0.000
261.231;  921.000;  191.925;    0.000
261.299;  904.000;  182.925;    0.000
261.366;  910.000;  156.925;    0.000
261.434;  965.000;  188.925;    0.000
261.501;  961.000;  170.925;    0.000
261.568; 1059.000;  167.925;    0.000
261.636;  982.000;  169.925;    0.000
261.703; 1021.000;  200.925;    0.000
261.771;  965.000;  170.925;    0.000
261.838; 1017.000;  175.925;    0.000
261.906;  966.000;  135.925;    0.000
261.973;  979.000;  184.925;    0.000
262.040; 1093.000;  176.925;    0.000
262.108;  981.000;  201.925;    0.000
262.175;  991.000;  141.925;    0.000
262.243;  981.000;  175.925;    0.000
262.310; 1058.000;  112.925;    0.000
262.377; 1007.000;  158.925;    0.000
262.445; 1025.000;  162.925;    0.000
262.512; 1048.000;  184.925;    0.000
262.579; 1071.000;  185.925;    0.000
262.647; 1145.000;  158.925;    0.000
262.714; 1094.000;  197.925;    0.000
262.781; 1037.000;  133.925;    0.000
262.849; 1092.000;  146.925;    0.000
262.916; 1184.000;  204.925;    0.000
262.983; 1161.000;  191.925;    0.000
263.051; 1097.000;  140.925;    0.000
263.118; 1143.000;  154.925;    0.000
263.185; 1048.000;  169.925;    0.000
263.252; 1154.000;  150.925;    0.000
263.320; 1183.000;  145.925;    0.000
263.387; 1155.000;  144.925;    0.000
263.454; 1198.000;  193.925;    0.000
263.522; 1156.000;  160.925;    0.000
263.589; 1199.000;  153.925;    0.000
263.656; 1168.000;  178.925;    0.000
263.723; 1236.000;  136.925;    0.000
263.790; 1207.000;  162.925;    0.000
263.858; 1188.000;  164.925;    0.000
263.925; 1192.000;  146.925;    0.000
263.992; 1222.000;  191.925;    0.000
264.059; 1300.000;  180.925;    0.000
264.126; 1244.000;  183.925;    0.000
264.194; 1210.000;  174.925;    0.000
264.261; 1290.000;  187.925;    0.000
264.328; 1341.000;  179.925;    0.000
264.395; 1274.000;  166.925;    0.000
264.462; 1336.000;  197.925;    0.000
264.529; 1317.000;  209.925;    0.000
264.597; 1339.000;  173.925;    0.000
264.664; 1309.000;  193.925;    0.000
264.731; 1271.000;  165.925;    0.000
264.798; 1256.000;  148.925;    0.000
264.865; 1367.000;  186.925;    0.000
264.932; 1340.000;  152.925;    0.000
264.999; 1323.000;  166.925;    0.000
265.066; 1404.000;  186.925;    0.000
265.133; 1370.000;  172.925;    0.000
265.201; 1372.000;  159.925;    0.000
265.268; 1396.000;  164.925;    0.000
265.335; 1324.000;  161.925;    0.000
265.402; 1340.000;  157.925;    0.000
265.469; 1445.000;  134.925;    0.000
265.536; 1400.000;  191.925;    0.000
265.603; 1432.000;  170.925;    0.000
265.670; 1404.000;  162.925;    0.000
265.737; 1354.000;  172.925;    0.000
265.804; 1381.000;  151.925;    0.000
265.871; 1452.000;  191.925;    0.000
265.938; 1434.000;  173.925;    0.000
266.005; 1484.000;  201.925;    0.000
266.072; 1489.000;  156.925;    0.000
266.139; 1473.000;  191.925;    0.000
266.206; 1450.000;  151.925;    0.000
266.273; 1483.000;  194.925;    0.000
266.340; 1534.000;  120.925;    0.000
266.407; 1427.000;  130.925;    0.000
266.474; 1507.000;  137.925;    0.000
266.541; 1443.000;  139.925;    0.000
266.608; 1462.000;  139.925;    0.000
266.675; 1495.000;  198.925;    0.000
266.742; 1516.000;  165.925;    0.000
266.808; 1514.000;  174.925;    0.000
266.875; 1488.000;  169.925;    0.000
266.942; 1501.000;  137.925;    0.000
267.009; 1572.000;  181.925;    0.000
267.076; 1608.000;  204.925;    0.000
267.143; 1529.000;  179.925;    0.000
267.210; 1562.000;  160.925;    0.000
267.277; 1509.000;  154.925;    0.000
267.344; 1536.000;  178.925;    0.000
267.410; 1584.000;  190.925;    0.000
267.477; 1593.000;  193.925;    0.000
267.544; 1641.000;  168.925;    0.000
267.611; 1563.000;  177.925;    0.000
267.678; 1582.000;  205.925;    0.000
267.745; 1606.000;  205.925;    0.000
267.811; 1595.000;  164.925;    0.000
267.878; 1589.000;  166.925;    0.000
267.945; 1576.000;  160.925;    0.000
268.012; 1669.000;  172.925;    0.000
268.079; 1565.000;  186.925;    0.000
268.145; 1608.000;  188.925;    0.000
268.212; 1559.000;  181.925;    0.000
268.279; 1596.000;  158.925;    0.000
268.346; 1599.000;  192.925;    0.000
268.412; 1537.000;  159.925;    0.000
268.479; 1606.000;  176.925;    0.000
268.546; 1544.000;  170.925;    0.000
268.613; 1612.000;  133.925;    0.000
268.679; 1690.000;  170.925;    0.000
268.746; 1565.000;  185.925;    0.000
268.813; 1593.000;  170.925;    0.000
268.879; 1594.000;  149.925;    0.000
268.946; 1616.000;  176.925;    0.000
269.013; 1613.000;  153.925;    0.000
269.079; 1543.000;  156.925;    0.000
269.146; 1563.000;  143.925;    0.000
269.213; 1519.000;  170.925;    0.000
269.280; 1592.000;  202.925;    0.000
269.346; 1591.000;  180.925;    0.000
269.413; 1618.000;  162.925;    0.000
269.479; 1634.000;  175.925;    0.000
269.546; 1572.000;  151.925;    0.000
269.613; 1596.000;  159.925;    0.000
269.679; 1622.000;  190.925;    0.000
269.746; 1601.000;  159.925;    0.000
269.813; 1535.000;  151.925;    0.000
269.879; 1534.000;  169.925;    0.000
269.946; 1574.000;  169.925;    0.000
270.012; 1575.000;  185.925;    0.000
270.079; 1529.000;  133.925;    0.000
270.145; 1592.000;  161.925;    0.000
270.212; 1633.000;  156.925;    0.000
270.279; 1605.000;  176.925;    0.000
270.345; 1536.000;  140.925;    0.000
270.412; 1557.000;  162.925;    0.000
270.478; 1628.000;  148.925;    0.000
270.545; 1609.000;  146.925;    0.000
270.611; 1551.000;  168.925;    0.000
270.678; 1570.000;  164.925;    0.000
270.744; 1539.000;  117.925;    0.000
270.811; 1552.000;  196.925;    0.000
270.877; 1533.000;  151.925;    0.000
270.944; 1574.000;  174.925;    0.000
271.010; 1503.000;  180.925;    0.000
271.077; 1534.000;  162.925;    0.000
271.143; 1520.000;  178.925;    0.000
271.210; 1517.000;  159.925;    0.000
271.276; 1515.000;  143.925;    0.000
271.342; 1572.000;  196.925;    0.000
271.409; 1543.000;  161.925;    0.000
271.475; 1528.000;  153.925;    0.000
271.542; 1499.000;  147.925;    0.000
271.608; 1538.000;  175.925;    0.000
271.675; 1566.000;  134.925;    0.000
271.741; 1548.000;  182.925;    0.000
271.807; 1444.000;  174.925;    0.000
271.874; 1532.000;  169.925;    0.000
271.940; 1613.000;  179.925;    0.000
272.007; 1653.000;  173.925;    0.000
272.073; 1534.000;  133.925;    0.000
272.139; 1566.000;  191.925;    0.000
272.206; 1594.000;  168.925;    0.000
272.272; 1531.000;  179.925;    0.000
272.338; 1603.000;  224.925;    0.000
272.405; 1461.000;  156.925;    0.000
272.471; 1499.000;  175.925;    0.000
272.537; 1559.000;  190.925;    0.000
272.604; 1514.000;  199.925;    0.000
272.670; 1506.000;  156.925;    0.000
272.736; 1665.000;  198.925;    0.000
272.802; 1600.000;  169.925;    0.000
272.869; 1598.000;  141.925;    0.000
272.935; 1495.000;  145.925;    0.000
273.001; 1603.000;  156.925;    0.000
273.068; 1609.000;  157.925;    0.000
273.134; 1586.000;  184.925;    0.000
273.200; 1591.000;  158.925;    0.000
273.266; 1562.000;  150.925;    0.000
273.333; 1602.000;  176.925;    0.000
273.399; 1581.000;  118.925;    0.000
273.465; 1569.000;  184.925;    0.000
273.531; 1570.000;  179.925;    0.000
273.597; 1559.000;  167.925;    0.000
273.664; 1619.000;  186.925;    0.000
273.730; 1557.000;  137.925;    0.000
273.796; 1657.000;  148.925;    0.000
273.862; 1567.000;  183.925;    0.000
273.928; 1536.000;  179.925;    0.000
273.995; 1588.000;  189.925;    0.000
274.061; 1623.000;  188.925;    0.000
274.127; 1713.000;  132.925;    0.000
274.193; 1566.000;  135.925;    0.000
274.259; 1610.000;  177.925;    0.000
274.325; 1612.000;  178.925;    0.000
274.391; 1630.000;  140.925;    0.000
274.457; 1595.000;  158.925;    0.000
274.524; 1635.000;  175.925;    0.000
274.590; 1585.000;  182.925;    0.000
274.656; 1680.000;  165.925;    0.000
274.722; 1647.000;  152.925;    0.000
274.788; 1796.000;  159.925;    0.000
274.854; 1718.000;  143.925;    0.000
274.920; 1735.000;  117.925;    0.000
274.986; 1588.000;  140.925;    0.000
275.052; 1682.000;  174.925;    0.000
275.118; 1698.000;  129.925;    0.000
275.184; 1703.000;  173.925;    0.000
275.250; 1742.000;  196.925;    0.000
275.316; 1784.000;  142.925;    0.000
275.382; 1709.000;  149.925;    0.000
275.448; 1729.000;  178.925;    0.000
275.514; 1784.000;  136.925;    0.000
275.580; 1757.000;  140.925;    0.000
275.646; 1730.000;  133.925;    0.000
275.712; 1781.000;  162.925;    0.000
275.778; 1817.000;  129.925;    0.000
275.844; 1760.000;  156.925;    0.000
275.910; 1881.000;  172.925;    0.000
275.976; 1863.000;  158.925;    0.000
276.042; 1871.000;  141.925;    0.000
276.108; 1883.000;  212.925;    0.000
276.174; 1916.000;  148.925;    0.000
276.240; 1961.000;  134.925;    0.000
276.306; 1982.000;  149.925;    0.000
276.372; 1940.000;  126.925;    0.000
276.437; 2008.000;  168.925;    0.000
276.503; 2088.000;  158.925;    0.000
276.569; 2109.000;  191.925;    0.000
276.635; 2115.000;  130.925;    0.000
276.701; 2080.000;  161.925;    0.000
276.767; 2098.000;  148.925;    0.000
276.833; 2142.000;  147.925;    0.000
276.899; 2163.000;  149.925;    0.000
276.964; 2336.000;  181.925;    0.000
277.030; 2252.000;  186.925;    0.000
277.096; 2295.000;  132.925;    0.000
277.162; 2389.000;  181.925;    0.000
277.228; 2428.000;  166.925;    0.000
277.293; 2518.000;  154.925;    0.000
277.359; 2544.000;  181.925;    0.000
277.425; 2678.000;  184.925;    0.000
277.491; 2795.000;  150.925;    0.000
277.557; 3198.000;  159.925;    0.000
277.622; 4147.000;  129.925;    0.000
277.688; 4186.000;  184.925;    0.000
277.754; 4185.000;  182.925;    0.000
277.820; 4480.000;  149.925;    0.000
277.885; 5309.000;  185.925;    0.000
277.951; 6546.000;  164.925;    0.000
278.017; 5629.000;  162.925;    0.000
278.083; 4927.000;  189.925;    0.000
278.148; 4716.000;  184.925;    0.000
278.214; 4915.000;  188.925;    0.000
278.280; 5053.000;  206.925;    0.000
278.345; 4679.000;  187.925;    0.000
278.411; 4322.000;  174.925;    0.000
278.477; 4494.000;  190.925;    0.000
278.542; 4716.000;  154.925;    0.000
278.608; 5033.000;  191.925;    0.000
278.674; 5396.000;  243.925;    0.000
278.739; 6005.000;  141.925;    0.000
278.805; 6733.000;  171.925;    0.000
278.871; 7746.000;  181.925;    0.000
278.936; 9497.000;  191.925;    0.000
279.002;13558.000;  201.925;    0.000
279.067;17805.000;  174.925;    0.000
279.133;17809.000;  165.925;    0.000
279.199;16651.000;  122.925;    0.000
279.264;17391.000;  159.925;    0.000
279.330;20755.000;  170.925;    0.000
279.395;27555.000;  173.925;    0.000
279.461;35737.000;  200.925;    0.000
279.527;40154.000;  199.925;    0.000
279.592;37454.000;  203.925;    0.000
279.658;30970.000;  209.925;    0.000
279.723;29166.000;  188.925;    0.000
279.789;29971.000;  180.925;    0.000
279.854;26921.000;  137.925;    0.000
279.920;22623.000;  223.925;    0.000
279.985;19991.000;  186.925;    0.000
280.051;20507.000;  198.925;    0.000
280.116;24382.000;  178.925;    0.000
280.182;33125.000;  176.925;    0.000
280.247;37864.000;  195.925;    0.000
280.313;31866.000;  165.925;    0.000
280.378;22360.000;  153.925;    0.000
280.444;16511.000;  181.925;    0.000
280.509;13071.000;  188.925;    0.000
280.574;10932.000;  149.925;    0.000
280.640; 9337.000;  164.925;    0.000
280.705; 8462.000;  166.925;    0.000
280.771; 7766.000;  188.925;    0.000
280.836; 7180.000;  188.925;    0.000
280.902; 6850.000;  168.925;    0.000
280.967; 6113.000;  202.925;    0.000
281.032; 5809.000;  197.925;    0.000
281.098; 5567.000;  138.925;    0.000
281.163; 5184.000;  160.925;    0.000
281.229; 5109.000;  212.925;    0.000
281.294; 4951.000;  227.925;    0.000
281.359; 4849.000;  200.925;    0.000
281.425; 4540.000;  189.925;    0.000
281.490; 4398.000;  176.925;    0.000
281.555; 4389.000;  182.925;    0.000
281.621; 4138.000;  169.925;    0.000
281.686; 3963.000;  182.925;    0.000
281.751; 3892.000;  208.925;    0.000
281.816; 3881.000;  166.925;    0.000
281.882; 3783.000;  181.925;    0.000
281.947; 3821.000;  178.925;    0.000
282.012; 3620.000;  167.925;    0.000
282.078; 3558.000;  170.925;    0.000
282.143; 3533.000;  157.925;    0.000
282.208; 3466.000;  158.925;    0.000
282.273; 3337.000;  187.925;    0.000
282.339; 3260.000;  185.925;    0.000
282.404; 3203.000;  201.925;    0.000
282.469; 3257.000;  202.925;    0.000
282.534; 3381.000;  185.925;    0.000
282.600; 3257.000;  125.925;    0.000
282.665; 3084.000;  162.925;    0.000
282.730; 3156.000;  174.925;    0.000
282.795; 3149.000;  179.925;    0.000
282.860; 3141.000;  190.925;    0.000
282.926; 3049.000;  200.925;    0.000
282.991; 3092.000;  161.925;    0.000
283.056; 3026.000;  175.925;    0.000
283.121; 2893.000;  181.925;    0.000
283.186; 2881.000;  221.925;    0.000
283.251; 2999.000;  168.925;    0.000
283.316; 2952.000;  156.925;    0.000
283.382; 2793.000;  197.925;    0.000
283.447; 2969.000;  210.925;    0.000
283.512; 2793.000;  164.925;    0.000
283.577; 2956.000;  212.925;    0.000
283.642; 2962.000;  186.925;    0.000
283.707; 2823.000;  182.925;    0.000
283.772; 2821.000;  127.925;    0.000
283.837; 2741.000;  160.925;    0.000
283.902; 2840.000;  162.925;    0.000
283.967; 2769.000;  151.925;    0.000
284.032; 2906.000;  175.925;    0.000
284.097; 2953.000;  235.925;    0.000
284.163; 2909.000;  136.925;    0.000
284.228; 2924.000;  209.925;    0.000
284.293; 2837.000;  163.925;    0.000
284.358; 2857.000;  169.925;    0.000
284.423; 2921.000;  145.925;    0.000
284.488; 2943.000;  134.925;    0.000
284.553; 3068.000;  158.925;    0.000
284.618; 3165.000;  163.925;    0.000
284.683; 3125.000;  168.925;    0.000
284.748; 3313.000;  170.925;    0.000
284.812; 3400.000;  151.925;    0.000
284.877; 3770.000;  169.925;    0.000
284.942; 4245.000;  179.925;    0.000
285.007; 4941.000;  202.925;    0.000
285.072; 6383.000;  171.925;    0.000
285.137; 9514.000;  173.925;    0.000
285.202;12245.000;  196.925;    0.000
285.267;11175.000;  193.925;    0.000
285.332; 7723.000;  151.925;    0.000
285.397; 6024.000;  183.925;    0.000
285.462; 4723.000;  168.925;    0.000
285.527; 4289.000;  166.925;    0.000
285.591; 3856.000;  124.925;    0.000
285.656; 3522.000;  145.925;    0.000
285.721; 3408.000;  155.925;    0.000
285.786; 3256.000;  170.925;    0.000
285.851; 3129.000;  175.925;    0.000
285.916; 3042.000;  186.925;    0.000
285.981; 3049.000;  204.925;    0.000
286.045; 2980.000;  237.925;    0.000
286.110; 2898.000;  197.925;    0.000
286.175; 2917.000;  143.925;    0.000
286.240; 2857.000;  167.925;    0.000
286.305; 2843.000;  202.925;    0.000
286.369; 2728.000;  214.925;    0.000
286.434; 2809.000;  206.925;    0.000
286.499; 2785.000;  177.925;    0.000
286.564; 2831.000;  201.925;    0.000
286.628; 2812.000;  153.925;    0.000
286.693; 2708.000;  161.925;    0.000
286.758; 2653.000;  181.925;    0.000
286.823; 2709.000;  176.925;    0.000
286.887; 2672.000;  158.925;    0.000
286.952; 2590.000;  198.925;    0.000
287.017; 2596.000;  196.925;    0.000
287.082; 2629.000;  154.925;    0.000
287.146; 2609.000;  178.925;    0.000
287.211; 2636.000;  165.925;    0.000
287.276; 2599.000;  165.925;    0.000
287.340; 2622.000;  178.925;    0.000
287.405; 2569.000;  177.925;    0.000
287.470; 2545.000;  141.925;    0.000
287.534; 2584.000;  224.925;    0.000
287.599; 2484.000;  184.925;    0.000
287.663; 2621.000;  177.925;    0.000
287.728; 2489.000;  144.925;    0.000
287.793; 2601.000;  210.925;    0.000
287.857; 2488.000;  198.925;    0.000
287.922; 2458.000;  168.925;    0.000
287.987; 2551.000;  168.925;    0.000
288.051; 2557.000;  200.925;    0.000
288.116; 2513.000;  199.925;    0.000
288.180; 2526.000;  211.925;    0.000
288.245; 2581.000;  182.925;    0.000
288.309; 2572.000;  180.925;    0.000
288.374; 2519.000;  196.925;    0.000
288.439; 2621.000;  187.925;    0.000
288.503; 2493.000;  159.925;    0.000
288.568; 2551.000;  207.925;    0.000
288.632; 2532.000;  210.925;    0.000
288.697; 2514.000;  196.925;    0.000
288.761; 2443.000;  175.925;    0.000
288.826; 2441.000;  159.925;    0.000
288.890; 2518.000;  183.925;    0.000
288.955; 2402.000;  149.925;    0.000
289.019; 2573.000;  194.925;    0.000
289.084; 2528.000;  171.925;    0.000
289.148; 2545.000;  191.925;    0.000
289.212; 2461.000;  217.925;    0.000
289.277; 2517.000;  196.925;    0.000
289.341; 2539.000;  211.925;    0.000
289.406; 2394.000;  165.925;    0.000
289.470; 2529.000;  197.925;    0.000
289.535; 2467.000;  208.925;    0.000
289.599; 2493.000;  192.925;    0.000
289.663; 2428.000;  169.925;    0.000
289.728; 2429.000;  168.925;    0.000
289.792; 2489.000;  192.925;    0.000
289.857; 2508.000;  202.925;    0.000
289.921; 2441.000;  176.925;    0.000
289.985; 2464.000;  164.925;    0.000
290.050; 2497.000;  166.925;    0.000
290.114; 2511.000;  192.925;    0.000
290.178; 2464.000;  155.925;    0.000
290.243; 2449.000;  158.925;    0.000
290.307; 2492.000;  192.925;    0.000
290.371; 2457.000;  161.925;    0.000
290.436; 2528.000;  182.925;    0.000
290.500; 2446.000;  147.925;    0.000
290.564; 2455.000;  209.925;    0.000
290.629; 2444.000;  172.925;    0.000
290.693; 2425.000;  192.925;    0.000
290.757; 2446.000;  147.925;    0.000
290.821; 2431.000;  139.925;    0.000
290.886; 2580.000;  186.925;    0.000
290.950; 2452.000;  196.925;    0.000
291.014; 2519.000;  166.925;    0.000
291.078; 2501.000;  143.925;    0.000
291.143; 2554.000;  171.925;    0.000
291.207; 2416.000;  187.925;    0.000
291.271; 2560.000;  208.925;    0.000
291.335; 2548.000;  195.925;    0.000
291.399; 2525.000;  139.925;    0.000
291.464; 2565.000;  139.925;    0.000
291.528; 2634.000;  183.925;    0.000
291.592; 2668.000;  152.925;    0.000
291.656; 2604.000;  155.925;    0.000
291.720; 2499.000;  191.925;    0.000
291.784; 2573.000;  185.925;    0.000
291.849; 2593.000;  175.925;    0.000
291.913; 2618.000;  152.925;    0.000
291.977; 2578.000;  203.925;    0.000
292.041; 2568.000;  181.925;    0.000
292.105; 2559.000;  168.925;    0.000
292.169; 2561.000;  133.925;    0.000
292.233; 2635.000;  156.925;    0.000
292.297; 2741.000;  173.925;    0.000
292.361; 2694.000;  124.925;    0.000
292.425; 2612.000;  138.925;    0.000
292.490; 2693.000;  110.925;    0.000
292.554; 2758.000;  180.925;    0.000
292.618; 2875.000;  178.925;    0.000
292.682; 3005.000;  156.925;    0.000
292.746; 3310.000;  151.925;    0.000
292.810; 3925.000;  183.925;    0.000
292.874; 4501.000;  156.925;    0.000
292.938; 4722.000;  195.925;    0.000
293.002; 4325.000;  200.925;    0.000
293.066; 3913.000;  171.925;    0.000
293.130; 3741.000;  163.925;    0.000
293.194; 3701.000;  174.925;    0.000
293.258; 3597.000;  167.925;    0.000
293.322; 3613.000;  212.925;    0.000
293.386; 3711.000;  189.925;    0.000
293.450; 3845.000;  169.925;    0.000
293.514; 4145.000;  175.925;    0.000
293.577; 4843.000;  169.925;    0.000
293.641; 6343.000;  186.925;    0.000
293.705; 6726.000;  222.925;    0.000
293.769; 6187.000;  150.925;    0.000
293.833; 5519.000;  165.925;    0.000
293.897; 5204.000;  152.925;    0.000
293.961; 4592.000;  179.925;    0.000
294.025; 4279.000;  159.925;    0.000
294.089; 3968.000;  181.925;    0.000
294.152; 3804.000;  188.925;    0.000
294.216; 3698.000;  170.925;    0.000
294.280; 3452.000;  167.925;    0.000
294.344; 3332.000;  151.925;    0.000
294.408; 3272.000;  180.925;    0.000
294.472; 3116.000;  144.925;    0.000
294.536; 3079.000;  171.925;    0.000
294.599; 3132.000;  157.925;    0.000
294.663; 2912.000;  139.925;    0.000
294.727; 3020.000;  208.925;    0.000
294.791; 2918.000;  152.925;    0.000
294.855; 2808.000;  181.925;    0.000
294.918; 2900.000;  136.925;    0.000
294.982; 2788.000;  155.925;    0.000
295.046; 2806.000;  200.925;    0.000
295.110; 2707.000;  190.925;    0.000
295.173; 2656.000;  156.925;    0.000
295.237; 2612.000;  160.925;    0.000
295.301; 2638.000;  145.925;    0.000
295.364; 2635.000;  166.925;    0.000
295.428; 2592.000;  125.925;    0.000
295.492; 2648.000;  154.925;    0.000
295.556; 2616.000;  172.925;    0.000
295.619; 2613.000;  210.925;    0.000
295.683; 2656.000;  181.925;    0.000
295.747; 2524.000;  176.925;    0.000
295.810; 2630.000;  181.925;    0.000
295.874; 2500.000;  160.925;    0.000
295.938; 2483.000;  119.925;    0.000
296.001; 2524.000;  206.925;    0.000
296.065; 2376.000;  136.925;    0.000
296.128; 2491.000;  156.925;    0.000
296.192; 2486.000;  174.925;    0.000
296.256; 2456.000;  145.925;    0.000
296.319; 2472.000;  167.925;    0.000
296.383; 2342.000;  168.925;    0.000
296.447; 2378.000;  190.925;    0.000
296.510; 2463.000;  165.925;    0.000
296.574; 2432.000;  184.925;    0.000
296.637; 2406.000;  155.925;    0.000
296.701; 2417.000;  168.925;    0.000
296.764; 2395.000;  161.925;    0.000
296.828; 2416.000;  218.925;    0.000
296.891; 2318.000;  176.925;    0.000
296.955; 2459.000;  169.925;    0.000
297.018; 2401.000;  168.925;    0.000
297.082; 2352.000;  176.925;    0.000
297.145; 2332.000;  171.925;    0.000
297.209; 2307.000;  196.925;    0.000
297.272; 2352.000;  170.925;    0.000
297.336; 2339.000;  156.925;    0.000
297.399; 2370.000;  168.925;    0.000
297.463; 2376.000;  203.925;    0.000
297.526; 2392.000;  164.925;    0.000
297.590; 2314.000;  175.925;    0.000
297.653; 2212.000;  170.925;    0.000
297.717; 2323.000;  156.925;    0.000
297.780; 2260.000;  149.925;    0.000
297.843; 2306.000;  156.925;    0.000
297.907; 2299.000;  129.925;    0.000
297.970; 2286.000;  163.925;    0.000
298.034; 2252.000;  162.925;    0.000
298.097; 2306.000;  182.925;    0.000
298.160; 2271.000;  194.925;    0.000
298.224; 2210.000;  178.925;    0.000
298.287; 2239.000;  147.925;    0.000
298.350; 2308.000;  187.925;    0.000
298.414; 2209.000;  193.925;    0.000
298.477; 2206.000;  127.925;    0.000
298.540; 2203.000;  181.925;    0.000
298.604; 2318.000;  163.925;    0.000
298.667; 2208.000;  177.925;    0.000
298.730; 2251.000;  192.925;    0.000
298.794; 2193.000;  183.925;    0.000
298.857; 2188.000;  194.925;    0.000
298.920; 2215.000;  147.925;    0.000
298.984; 2208.000;  184.925;    0.000
299.047; 2116.000;  218.925;    0.000
299.110; 2199.000;  171.925;    0.000
299.173; 2078.000;  177.925;    0.000
299.237; 2146.000;  181.925;    0.000
299.300; 2080.000;  170.925;    0.000
299.363; 2106.000;  185.925;    0.000
299.426; 2122.000;  193.925;    0.000
299.489; 2109.000;  184.925;    0.000
299.553; 2077.000;  194.925;    0.000
299.616; 2078.000;  171.925;    0.000
299.679; 2089.000;  182.925;    0.000
299.742; 2011.000;  138.925;    0.000
299.805; 2079.000;  172.925;    0.000
299.868; 2049.000;  191.925;    0.000
299.932; 2047.000;  193.925;    0.000
299.995; 2111.000;  201.925;    0.000
300.058; 2038.000;  177.925;    0.000
300.121; 2096.000;  178.925;    0.000
300.184; 2103.000;  171.925;    0.000
300.247; 2076.000;  184.925;    0.000
300.310; 2020.000;  200.925;    0.000
300.374; 2077.000;  172.925;    0.000
300.437; 2092.000;  187.925;    0.000
300.500; 2016.000;  211.925;    0.000
300.563; 2014.000;  190.925;    0.000
300.626; 2026.000;  196.925;    0.000
300.689; 2019.000;  162.925;    0.000
300.752; 1996.000;  163.925;    0.000
300.815; 2012.000;  207.925;    0.000
300.878; 2033.000;  221.925;    0.000
300.941; 2011.000;  176.925;    0.000
301.004; 1960.000;  193.925;    0.000
301.067; 2048.000;  165.925;    0.000
301.130; 1998.000;  179.925;    0.000
301.193; 2025.000;  196.925;    0.000
301.256; 2060.000;  210.925;    0.000
301.319; 1972.000;  196.925;    0.000
301.382; 2000.000;  162.925;    0.000
301.445; 1987.000;  233.925;    0.000
301.508; 1943.000;  176.925;    0.000
301.571; 1960.000;  185.925;    0.000
301.634; 2070.000;  202.925;    0.000
301.697; 2012.000;  189.925;    0.000
301.760; 1998.000;  224.925;    0.000
301.823; 1916.000;  212.925;    0.000
301.885; 1976.000;  196.925;    0.000
301.948; 1999.000;  169.925;    0.000
302.011; 2050.000;  160.925;    0.000
302.074; 1999.000;  202.925;    0.000
302.137; 1974.000;  130.925;    0.000
302.200; 1938.000;  188.925;    0.000
302.263; 1898.000;  196.925;    0.000
302.326; 1979.000;  172.925;    0.000
302.388; 1916.000;  197.925;    0.000
302.451; 1933.000;  203.925;    0.000
302.514; 1941.000;  164.925;    0.000
302.577; 1977.000;  170.925;    0.000
302.640; 1948.000;  156.925;    0.000
302.703; 1962.000;  188.925;    0.000
302.765; 1981.000;  213.925;    0.000
302.828; 2107.000;  212.925;    0.000
302.891; 1907.000;  203.925;    0.000
302.954; 1964.000;  148.925;    0.000
303.016; 1961.000;  168.925;    0.000
303.079; 1927.000;  206.925;    0.000
303.142; 1978.000;  210.925;    0.000
303.205; 2030.000;  189.925;    0.000
303.267; 1960.000;  174.925;    0.000
303.330; 2005.000;  198.925;    0.000
303.393; 1978.000;  207.925;    0.000
303.456; 2039.000;  177.925;    0.000
303.518; 1925.000;  192.925;    0.000
303.581; 1968.000;  171.925;    0.000
303.644; 1965.000;  193.925;    0.000
303.706; 1957.000;  185.925;    0.000
303.769; 2002.000;  198.925;    0.000
303.832; 1903.000;  192.925;    0.000
303.894; 1914.000;  199.925;    0.000
303.957; 1993.000;  160.925;    0.000
304.020; 1877.000;  184.925;    0.000
304.082; 1911.000;  191.925;    0.000
304.145; 1928.000;  216.925;    0.000
304.207; 1995.000;  175.925;    0.000
304.270; 2009.000;  192.925;    0.000
304.333; 1973.000;  218.925;    0.000
304.395; 1986.000;  195.925;    0.000
304.458; 1956.000;  206.925;    0.000
304.520; 2010.000;  229.925;    0.000
304.583; 1999.000;  202.925;    0.000
304.646; 2003.000;  159.925;    0.000
304.708; 1935.000;  167.925;    0.000
304.771; 1952.000;  141.925;    0.000
304.833; 1999.000;  184.925;    0.000
304.896; 1888.000;  197.925;    0.000
304.958; 1970.000;  179.925;    0.000
305.021; 2002.000;  175.925;    0.000
305.083; 1936.000;  182.925;    0.000
305.146; 1974.000;  182.925;    0.000
305.208; 1966.000;  174.925;    0.000
305.271; 1903.000;  157.925;    0.000
305.333; 2027.000;  185.925;    0.000
305.396; 2002.000;  199.925;    0.000
305.458; 1901.000;  203.925;    0.000
305.520; 1953.000;  195.925;    0.000
305.583; 1998.000;  152.925;    0.000
305.645; 1938.000;  200.925;    0.000
305.708; 1969.000;  149.925;    0.000
305.770; 2009.000;  211.925;    0.000
305.833; 1945.000;  189.925;    0.000
305.895; 1975.000;  200.925;    0.000
305.957; 1917.000;  166.925;    0.000
306.020; 1971.000;  186.925;    0.000
306.082; 2065.000;  197.925;    0.000
306.144; 1987.000;  200.925;    0.000
306.207; 2012.000;  180.925;    0.000
306.269; 1975.000;  209.925;    0.000
306.331; 2006.000;  205.925;    0.000
306.394; 1989.000;  176.925;    0.000
306.456; 1936.000;  184.925;    0.000
306.518; 2020.000;  210.925;    0.000
306.581; 1976.000;  162.925;    0.000
306.643; 1951.000;  196.925;    0.000
306.705; 2001.000;  204.925;    0.000
306.768; 2020.000;  158.925;    0.000
306.830; 2034.000;  205.925;    0.000
306.892; 2010.000;  189.925;    0.000
306.954; 2088.000;  188.925;    0.000
307.017; 2055.000;  180.925;    0.000
307.079; 2004.000;  197.925;    0.000
307.141; 2083.000;  184.925;    0.000
307.203; 2027.000;  182.925;    0.000
307.266; 1998.000;  166.925;    0.000
307.328; 2012.000;  186.925;    0.000
307.390; 2058.000;  176.925;    0.000
307.452; 2090.000;  194.925;    0.000
307.514; 2114.000;  225.925;    0.000
307.577; 2111.000;  209.925;    0.000
307.639; 2098.000;  203.925;    0.000
307.701; 2069.000;  214.925;    0.000
307.763; 2197.000;  203.925;    0.000
307.825; 2167.000;  202.925;    0.000
307.887; 2122.000;  244.925;    0.000
307.949; 2089.000;  173.925;    0.000
308.012; 2215.000;  219.925;    0.000
308.074; 2065.000;  157.925;    0.000
308.136; 2124.000;  215.925;    0.000
308.198; 2085.000;  186.925;    0.000
308.260; 2079.000;  186.925;    0.000
308.322; 2160.000;  201.925;    0.000
308.384; 2165.000;  218.925;    0.000
308.446; 2126.000;  159.925;    0.000
308.508; 2199.000;  191.925;    0.000
308.570; 2168.000;  185.925;    0.000
308.632; 2210.000;  208.925;    0.000
308.694; 2175.000;  161.925;    0.000
308.756; 2237.000;  169.925;    0.000
308.818; 2184.000;  187.925;    0.000
308.880; 2186.000;  192.925;    0.000
308.942; 2265.000;  194.925;    0.000
309.004; 2292.000;  206.925;    0.000
309.066; 2311.000;  204.925;    0.000
309.128; 2222.000;  181.925;    0.000
309.190; 2329.000;  166.925;    0.000
309.252; 2315.000;  213.925;    0.000
309.314; 2344.000;  249.925;    0.000
309.376; 2308.000;  238.925;    0.000
309.438; 2371.000;  206.925;    0.000
309.500; 2345.000;  185.925;    0.000
309.562; 2482.000;  214.925;    0.000
309.624; 2318.000;  216.925;    0.000
309.686; 2456.000;  197.925;    0.000
309.747; 2364.000;  171.925;    0.000
309.809; 2377.000;  198.925;    0.000
309.871; 2431.000;  185.925;    0.000
309.933; 2377.000;  172.925;    0.000
309.995; 2312.000;  168.925;    0.000
310.057; 2292.000;  177.925;    0.000
310.119; 2261.000;  207.925;    0.000
310.180; 2246.000;  180.925;    0.000
310.242; 2189.000;  202.925;    0.000
310.304; 2320.000;  200.925;    0.000
310.366; 2296.000;  222.925;    0.000
310.428; 2233.000;  179.925;    0.000
310.489; 2267.000;  196.925;    0.000
310.551; 2185.000;  203.925;    0.000
310.613; 2204.000;  198.925;    0.000
310.675; 2246.000;  203.925;    0.000
310.737; 2221.000;  195.925;    0.000
310.798; 2220.000;  204.925;    0.000
310.860; 2077.000;  195.925;    0.000
310.922; 2138.000;  195.925;    0.000
310.983; 2233.000;  225.925;    0.000
311.045; 2201.000;  203.925;    0.000
311.107; 2174.000;  194.925;    0.000
311.169; 2103.000;  185.925;    0.000
311.230; 2143.000;  175.925;    0.000
311.292; 2137.000;  220.925;    0.000
311.354; 2117.000;  189.925;    0.000
311.415; 2243.000;  187.925;    0.000
311.477; 2096.000;  180.925;    0.000
311.539; 2238.000;  175.925;    0.000
311.600; 2181.000;  192.925;    0.000
311.662; 2229.000;  212.925;    0.000
311.724; 2190.000;  217.925;    0.000
311.785; 2264.000;  218.925;    0.000
311.847; 2155.000;  219.925;    0.000
311.908; 2153.000;  202.925;    0.000
311.970; 2249.000;  186.925;    0.000
312.032; 2241.000;  212.925;    0.000
312.093; 2280.000;  203.925;    0.000
312.155; 2152.000;  165.925;    0.000
312.216; 2223.000;  183.925;    0.000
312.278; 2115.000;  167.925;    0.000
312.339; 2225.000;  190.925;    0.000
312.401; 2184.000;  219.925;    0.000
312.462; 2112.000;  190.925;    0.000
312.524; 2174.000;  203.925;    0.000
312.585; 2174.000;  191.925;    0.000
312.647; 2131.000;  197.925;    0.000
312.708; 2178.000;  203.925;    0.000
312.770; 2248.000;  203.925;    0.000
312.831; 2193.000;  155.925;    0.000
312.893; 2259.000;  189.925;    0.000
312.954; 2274.000;  212.925;    0.000
313.016; 2313.000;  179.925;    0.000
313.077; 2240.000;  209.925;    0.000
313.139; 2233.000;  185.925;    0.000
313.200; 2218.000;  180.925;    0.000
313.261; 2219.000;  220.925;    0.000
313.323; 2229.000;  171.925;    0.000
313.384; 2230.000;  180.925;    0.000
313.446; 2301.000;  202.925;    0.000
313.507; 2221.000;  172.925;    0.000
313.568; 2266.000;  192.925;    0.000
313.630; 2207.000;  191.925;    0.000
313.691; 2213.000;  176.925;    0.000
313.752; 2175.000;  175.925;    0.000
313.814; 2175.000;  202.925;    0.000
313.875; 2275.000;  186.925;    0.000
313.936; 2226.000;  199.925;    0.000
313.998; 2255.000;  164.925;    0.000
314.059; 2256.000;  159.925;    0.000
314.120; 2210.000;  175.925;    0.000
314.182; 2278.000;  181.925;    0.000
314.243; 2189.000;  157.925;    0.000
314.304; 2206.000;  168.925;    0.000
314.365; 2264.000;  203.925;    0.000
314.427; 2239.000;  151.925;    0.000
314.488; 2287.000;  174.925;    0.000
314.549; 2299.000;  184.925;    0.000
314.610; 2207.000;  198.925;    0.000
314.672; 2212.000;  193.925;    0.000
314.733; 2180.000;  171.925;    0.000
314.794; 2210.000;  141.925;    0.000
314.855; 2200.000;  184.925;    0.000
314.917; 2176.000;  175.925;    0.000
314.978; 2190.000;  190.925;    0.000
315.039; 2260.000;  183.925;    0.000
315.100; 2177.000;  204.925;    0.000
315.161; 2216.000;  202.925;    0.000
315.222; 2130.000;  177.925;    0.000
315.283; 2133.000;  191.925;    0.000
315.345; 2232.000;  185.925;    0.000
315.406; 2203.000;  194.925;    0.000
315.467; 2220.000;  167.925;    0.000
315.528; 2217.000;  174.925;    0.000
315.589; 2185.000;  197.925;    0.000
315.650; 2128.000;  192.925;    0.000
315.711; 2154.000;  181.925;    0.000
315.772; 2078.000;  157.925;    0.000
315.833; 2213.000;  189.925;    0.000
315.894; 2171.000;  184.925;    0.000
315.955; 2092.000;  202.925;    0.000
316.016; 2207.000;  220.925;    0.000
316.078; 2223.000;  180.925;    0.000
316.139; 2205.000;  240.925;    0.000
316.200; 2116.000;  190.925;    0.000
316.261; 2288.000;  179.925;    0.000
316.322; 2184.000;  176.925;    0.000
316.383; 2132.000;  188.925;    0.000
316.444; 2233.000;  228.925;    0.000
316.504; 2178.000;  199.925;    0.000
316.565; 2250.000;  221.925;    0.000
316.626; 2216.000;  204.925;    0.000
316.687; 2208.000;  192.925;    0.000
316.748; 2257.000;  220.925;    0.000
316.809; 2225.000;  175.925;    0.000
316.870; 2285.000;  164.925;    0.000
316.931; 2198.000;  208.925;    0.000
316.992; 2244.000;  224.925;    0.000
317.053; 2139.000;  204.925;    0.000
317.114; 2227.000;  199.925;    0.000
317.175; 2237.000;  230.925;    0.000
317.235; 2105.000;  186.925;    0.000
317.296; 2226.000;  224.925;    0.000
317.357; 2178.000;  154.925;    0.000
317.418; 2204.000;  219.925;    0.000
317.479; 2213.000;  229.925;    0.000
317.540; 2167.000;  201.925;    0.000
317.601; 2183.000;  180.925;    0.000
317.661; 2177.000;  179.925;    0.000
317.722; 2204.000;  193.925;    0.000
317.783; 2189.000;  164.925;    0.000
317.844; 2162.000;  232.925;    0.000
317.904; 2190.000;  222.925;    0.000
317.965; 2153.000;  199.925;    0.000
318.026; 2242.000;  200.925;    0.000
318.087; 2271.000;  182.925;    0.000
318.148; 2193.000;  216.925;    0.000
318.208; 2237.000;  239.925;    0.000
318.269; 2267.000;  163.925;    0.000
318.330; 2153.000;  204.925;    0.000
318.390; 2106.000;  191.925;    0.000
318.451; 2161.000;  200.925;    0.000
318.512; 2161.000;  181.925;    0.000
318.572; 2194.000;  233.925;    0.000
318.633; 2253.000;  220.925;    0.000
318.694; 2155.000;  179.925;    0.000
318.754; 2157.000;  214.925;    0.000
318.815; 2183.000;  214.925;    0.000
318.876; 2265.000;  220.925;    0.000
318.936; 2275.000;  212.925;    0.000
318.997; 2200.000;  201.925;    0.000
319.058; 2211.000;  215.925;    0.000
319.118; 2182.000;  251.925;    0.000
319.179; 2207.000;  240.925;    0.000
319.239; 2182.000;  240.925;    0.000
319.300; 2232.000;  232.925;    0.000
319.361; 2220.000;  211.925;    0.000
319.421; 2133.000;  219.925;    0.000
319.482; 2100.000;  228.925;    0.000
319.542; 2135.000;  216.925;    0.000
319.603; 2144.000;  190.925;    0.000
319.663; 2160.000;  227.925;    0.000
319.724; 2119.000;  191.925;    0.000
319.784; 2142.000;  196.925;    0.000
319.845; 2128.000;  190.925;    0.000
319.905; 2128.000;  221.925;    0.000
319.966; 2120.000;  219.925;    0.000
320.026; 2118.000;  233.925;    0.000
320.087; 2199.000;  204.925;    0.000
320.147; 2150.000;  189.925;    0.000
320.208; 2098.000;  200.925;    0.000
320.268; 2202.000;  217.925;    0.000
320.329; 2163.000;  216.925;    0.000
320.389; 2110.000;  228.925;    0.000
320.449; 2165.000;  236.925;    0.000
320.510; 2159.000;  234.925;    0.000
320.570; 2209.000;  176.925;    0.000
320.631; 2182.000;  228.925;    0.000
320.691; 2175.000;  228.925;    0.000
320.751; 2207.000;  188.925;    0.000
320.812; 2180.000;  223.925;    0.000
320.872; 2191.000;  268.925;    0.000
320.932; 2145.000;  226.925;    0.000
320.993; 2120.000;  216.925;    0.000
321.053; 2220.000;  236.925;    0.000
321.113; 2226.000;  197.925;    0.000
321.174; 2212.000;  218.925;    0.000
321.234; 2243.000;  229.925;    0.000
321.294; 2166.000;  208.925;    0.000
321.355; 2170.000;  248.925;    0.000
321.415; 2211.000;  218.925;    0.000
321.475; 2170.000;  173.925;    0.000
321.535; 2184.000;  234.925;    0.000
321.596; 2197.000;  202.925;    0.000
321.656; 2173.000;  246.925;    0.000
321.716; 2176.000;  235.925;    0.000
321.776; 2147.000;  210.925;    0.000
321.837; 2160.000;  217.925;    0.000
321.897; 2239.000;  215.925;    0.000
321.957; 2195.000;  239.925;    0.000
322.017; 2176.000;  173.925;    0.000
322.077; 2158.000;  263.925;    0.000
322.138; 2186.000;  232.925;    0.000
322.198; 2164.000;  211.925;    0.000
322.258; 2150.000;  213.925;    0.000
322.318; 2184.000;  168.925;    0.000
322.378; 2155.000;  251.925;    0.000
322.438; 2171.000;  212.925;    0.000
322.499; 2176.000;  265.925;    0.000
322.559; 2139.000;  210.925;    0.000
322.619; 2168.000;  242.925;    0.000
322.679; 2154.000;  229.925;    0.000
322.739; 2128.000;  216.925;    0.000
322.799; 2148.000;  238.925;    0.000
322.859; 2134.000;  249.925;    0.000
322.919; 2178.000;  211.925;    0.000
322.979; 2143.000;  244.925;    0.000
323.039; 2200.000;  226.925;    0.000
323.099; 2154.000;  223.925;    0.000
323.159; 2153.000;  232.925;    0.000
323.219; 2131.000;  203.925;    0.000
323.279; 2232.000;  218.925;    0.000
323.339; 2116.000;  231.925;    0.000
323.399; 2209.000;  255.925;    0.000
323.459; 2209.000;  244.925;    0.000
323.519; 2208.000;  213.925;    0.000
323.579; 2192.000;  193.925;    0.000
323.639; 2246.000;  191.925;    0.000
323.699; 2159.000;  199.925;    0.000
323.759; 2197.000;  246.925;    0.000
323.819; 2196.000;  206.925;    0.000
323.879; 2184.000;  238.925;    0.000
323.939; 2119.000;  229.925;    0.000
323.999; 2146.000;  219.925;    0.000
324.059; 2107.000;  177.925;    0.000
324.119; 2104.000;  235.925;    0.000
324.178; 2108.000;  211.925;    0.000
324.238; 2142.000;  168.925;    0.000
324.298; 2171.000;  205.925;    0.000
324.358; 2090.000;  224.925;    0.000
324.418; 2188.000;  235.925;    0.000
324.478; 2142.000;  187.925;    0.000
324.538; 2191.000;  230.925;    0.000
324.597; 2134.000;  206.925;    0.000
324.657; 2105.000;  180.925;    0.000
324.717; 2158.000;  175.925;    0.000
324.777; 2157.000;  169.925;    0.000
324.837; 2148.000;  165.925;    0.000
324.896; 2129.000;  205.925;    0.000
324.956; 2203.000;  216.925;    0.000
325.016; 2099.000;  197.925;    0.000
325.076; 2133.000;  220.925;    0.000
325.135; 2146.000;  242.925;    0.000
325.195; 2155.000;  186.925;    0.000
325.255; 2042.000;  160.925;    0.000
325.315; 2170.000;  198.925;    0.000
325.374; 2123.000;  208.925;    0.000
325.434; 2055.000;  209.925;    0.000
325.494; 2250.000;  191.925;    0.000
325.553; 2033.000;  190.925;    0.000
325.613; 2199.000;  229.925;    0.000
325.673; 2066.000;  172.925;    0.000
325.732; 2078.000;  160.925;    0.000
325.792; 2149.000;  177.925;    0.000
325.852; 2089.000;  201.925;    0.000
325.911; 2082.000;  226.925;    0.000
325.971; 2155.000;  224.925;    0.000
326.031; 2101.000;  202.925;    0.000
326.090; 2123.000;  232.925;    0.000
326.150; 2025.000;  230.925;    0.000
326.209; 2099.000;  201.925;    0.000
326.269; 2126.000;  202.925;    0.000
326.328; 2091.000;  203.925;    0.000
326.388; 2124.000;  194.925;    0.000
326.448; 2165.000;  233.925;    0.000
326.507; 2068.000;  192.925;    0.000
326.567; 2075.000;  163.925;    0.000
326.626; 2168.000;  227.925;    0.000
326.686; 2088.000;  177.925;    0.000
326.745; 2113.000;  210.925;    0.000
326.805; 2080.000;  198.925;    0.000
326.864; 2142.000;  185.925;    0.000
326.924; 2116.000;  255.925;    0.000
326.983; 2080.000;  208.925;    0.000
327.043; 2147.000;  241.925;    0.000
327.102; 2098.000;  183.925;    0.000
327.161; 2067.000;  210.925;    0.000
327.221; 2116.000;  213.925;    0.000
327.280; 2050.000;  194.925;    0.000
327.340; 2080.000;  212.925;    0.000
327.399; 2097.000;  209.925;    0.000
327.459; 2094.000;  229.925;    0.000
327.518; 2062.000;  196.925;    0.000
327.577; 2057.000;  197.925;    0.000
327.637; 2074.000;  210.925;    0.000
327.696; 2107.000;  196.925;    0.000
327.755; 2123.000;  216.925;    0.000
327.815; 2159.000;  240.925;    0.000
327.874; 2131.000;  250.925;    0.000
327.933; 2037.000;  229.925;    0.000
327.993; 2096.000;  202.925;    0.000
328.052; 2086.000;  178.925;    0.000
328.111; 2172.000;  230.925;    0.000
328.171; 2018.000;  207.925;    0.000
328.230; 2085.000;  170.925;    0.000
328.289; 2064.000;  205.925;    0.000
328.349; 2077.000;  235.925;    0.000
328.408; 2114.000;  231.925;    0.000
328.467; 2139.000;  217.925;    0.000
328.526; 2095.000;  239.925;    0.000
328.586; 2048.000;  214.925;    0.000
328.645; 2027.000;  205.925;    0.000
328.704; 2041.000;  211.925;    0.000
328.763; 2104.000;  208.925;    0.000
328.822; 2070.000;  251.925;    0.000
328.882; 2084.000;  211.925;    0.000
328.941; 2176.000;  232.925;    0.000
329.000; 2105.000;  235.925;    0.000
329.059; 2054.000;  222.925;    0.000
329.118; 2157.000;  265.925;    0.000
329.177; 2072.000;  237.925;    0.000
329.237; 2074.000;  258.925;    0.000
329.296; 2127.000;  225.925;    0.000
329.355; 2061.000;  227.925;    0.000
329.414; 2205.000;  212.925;    0.000
329.473; 2162.000;  250.925;    0.000
329.532; 2155.000;  263.925;    0.000
329.591; 2232.000;  212.925;    0.000
329.650; 2275.000;  219.925;    0.000
329.709; 2235.000;  218.925;    0.000
329.768; 2223.000;  195.925;    0.000
329.827; 2366.000;  223.925;    0.000
329.886; 2354.000;  230.925;    0.000
329.945; 2440.000;  211.925;    0.000
330.004; 2490.000;  247.925;    0.000
330.063; 2576.000;  193.925;    0.000
330.122; 2881.000;  229.925;    0.000
330.181; 3061.000;  223.925;    0.000
330.240; 3088.000;  199.925;    0.000
330.299; 2803.000;  211.925;    0.000
330.358; 2434.000;  198.925;    0.000
330.417; 2365.000;  190.925;    0.000
330.476; 2317.000;  237.925;    0.000
330.535; 2184.000;  239.925;    0.000
330.594; 2238.000;  207.925;    0.000
330.653; 2113.000;  193.925;    0.000
330.712; 2131.000;  225.925;    0.000
330.771; 2129.000;  236.925;    0.000
330.830; 2102.000;  219.925;    0.000
330.889; 2057.000;  211.925;    0.000
330.948; 2073.000;  194.925;    0.000
331.006; 2032.000;  190.925;    0.000
331.065; 1991.000;  192.925;    0.000
331.124; 2077.000;  195.925;    0.000
331.183; 2081.000;  191.925;    0.000
331.242; 1995.000;  203.925;    0.000
331.301; 2024.000;  183.925;    0.000
331.359; 2122.000;  196.925;    0.000
331.418; 2037.000;  209.925;    0.000
331.477; 2075.000;  255.925;    0.000
331.536; 2092.000;  237.925;    0.000
331.595; 2030.000;  217.925;    0.000
331.653; 2003.000;  198.925;    0.000
331.712; 2033.000;  194.925;    0.000
331.771; 1950.000;  229.925;    0.000
331.830; 1930.000;  254.925;    0.000
331.888; 2007.000;  218.925;    0.000
331.947; 2012.000;  211.925;    0.000
332.006; 2003.000;  261.925;    0.000
332.065; 1975.000;  204.925;    0.000
332.123; 1907.000;  225.925;    0.000
332.182; 1986.000;  193.925;    0.000
332.241; 1988.000;  201.925;    0.000
332.299; 1962.000;  182.925;    0.000
332.358; 1990.000;  244.925;    0.000
332.417; 2048.000;  218.925;    0.000
332.475; 1965.000;  218.925;    0.000
332.534; 2024.000;  228.925;    0.000
332.592; 1941.000;  199.925;    0.000
332.651; 2035.000;  204.925;    0.000
332.710; 2066.000;  217.925;    0.000
332.768; 2039.000;  195.925;    0.000
332.827; 2010.000;  182.925;    0.000
332.885; 2015.000;  247.925;    0.000
332.944; 1936.000;  170.925;    0.000
333.003; 2105.000;  200.925;    0.000
333.061; 1932.000;  243.925;    0.000
333.120; 2049.000;  235.925;    0.000
333.178; 2070.000;  195.925;    0.000
333.237; 2114.000;  217.925;    0.000
333.295; 2141.000;  252.925;    0.000
333.354; 2028.000;  201.925;    0.000
333.412; 2027.000;  181.925;    0.000
333.471; 2133.000;  239.925;    0.000
333.529; 2107.000;  214.925;    0.000
333.588; 2149.000;  232.925;    0.000
333.646; 2148.000;  202.925;    0.000
333.705; 2200.000;  232.925;    0.000
333.763; 2171.000;  215.925;    0.000
333.822; 2178.000;  187.925;    0.000
333.880; 2069.000;  186.925;    0.000
333.938; 2050.000;  185.925;    0.000
333.997; 2094.000;  234.925;    0.000
334.055; 2086.000;  255.925;    0.000
334.114; 2141.000;  225.925;    0.000
334.172; 1929.000;  209.925;    0.000
334.230; 2087.000;  194.925;    0.000
334.289; 2063.000;  213.925;    0.000
334.347; 2075.000;  235.925;    0.000
334.405; 2045.000;  242.925;    0.000
334.464; 1991.000;  208.925;    0.000
334.522; 2038.000;  197.925;    0.000
334.580; 2036.000;  204.925;    0.000
334.639; 2070.000;  217.925;    0.000
334.697; 1977.000;  183.925;    0.000
334.755; 1988.000;  196.925;    0.000
334.814; 2007.000;  216.925;    0.000
334.872; 1930.000;  190.925;    0.000
334.930; 2005.000;  162.925;    0.000
334.988; 2063.000;  261.925;    0.000
335.047; 2034.000;  220.925;    0.000
335.105; 2054.000;  190.925;    0.000
335.163; 1993.000;  201.925;    0.000
335.221; 2121.000;  213.925;    0.000
335.280; 2000.000;  202.925;    0.000
335.338; 2079.000;  210.925;    0.000
335.396; 2043.000;  255.925;    0.000
335.454; 1959.000;  216.925;    0.000
335.512; 2033.000;  242.925;    0.000
335.570; 2074.000;  227.925;    0.000
335.629; 2126.000;  225.925;    0.000
335.687; 2138.000;  227.925;    0.000
335.745; 2096.000;  194.925;    0.000
335.803; 2193.000;  221.925;    0.000
335.861; 2085.000;  217.925;    0.000
335.919; 2085.000;  214.925;    0.000
335.977; 2115.000;  209.925;    0.000
336.035; 2064.000;  215.925;    0.000
336.094; 2021.000;  198.925;    0.000
336.152; 2047.000;  222.925;    0.000
336.210; 2141.000;  225.925;    0.000
336.268; 2040.000;  234.925;    0.000
336.326; 2084.000;  209.925;    0.000
336.384; 2127.000;  271.925;    0.000
336.442; 2058.000;  207.925;    0.000
336.500; 2091.000;  226.925;    0.000
336.558; 2014.000;  219.925;    0.000
336.616; 2066.000;  260.925;    0.000
336.674; 2050.000;  205.925;    0.000
336.732; 2071.000;  225.925;    0.000
336.790; 2030.000;  191.925;    0.000
336.848; 2069.000;  219.925;    0.000
336.906; 2053.000;  230.925;    0.000
336.964; 2127.000;  226.925;    0.000
337.022; 2022.000;  266.925;    0.000
337.080; 2091.000;  231.925;    0.000
337.138; 2067.000;  249.925;    0.000
337.195; 2009.000;  207.925;    0.000
337.253; 2002.000;  207.925;    0.000
337.311; 1989.000;  225.925;    0.000
337.369; 2108.000;  211.925;    0.000
337.427; 1964.000;  196.925;    0.000
337.485; 1905.000;  269.925;    0.000
337.543; 2049.000;  227.925;    0.000
337.601; 2059.000;  260.925;    0.000
337.658; 2022.000;  237.925;    0.000
337.716; 2010.000;  222.925;    0.000
337.774; 2031.000;  256.925;    0.000
337.832; 2041.000;  223.925;    0.000
337.890; 1912.000;  188.925;    0.000
337.947; 2033.000;  212.925;    0.000
338.005; 1921.000;  217.925;    0.000
338.063; 1964.000;  200.925;    0.000
338.121; 2019.000;  217.925;    0.000
338.178; 2050.000;  236.925;    0.000
338.236; 2073.000;  218.925;    0.000
338.294; 2043.000;  238.925;    0.000
338.352; 2074.000;  266.925;    0.000
338.409; 2044.000;  240.925;    0.000
338.467; 1963.000;  210.925;    0.000
338.525; 2005.000;  255.925;    0.000
338.583; 1998.000;  239.925;    0.000
338.640; 1977.000;  243.925;    0.000
338.698; 1898.000;  204.925;    0.000
338.756; 2036.000;  219.925;    0.000
338.813; 1961.000;  227.925;    0.000
338.871; 2007.000;  227.925;    0.000
338.928; 2023.000;  211.925;    0.000
338.986; 1979.000;  254.925;    0.000
339.044; 1948.000;  207.925;    0.000
339.101; 2011.000;  229.925;    0.000
339.159; 2018.000;  237.925;    0.000
339.216; 1990.000;  231.925;    0.000
339.274; 1988.000;  301.925;    0.000
339.332; 2032.000;  259.925;    0.000
339.389; 1942.000;  258.925;    0.000
339.447; 1991.000;  226.925;    0.000
339.504; 1969.000;  229.925;    0.000
339.562; 2040.000;  244.925;    0.000
339.619; 2008.000;  265.925;    0.000
339.677; 2017.000;  253.925;    0.000
339.734; 2044.000;  191.925;    0.000
339.792; 2083.000;  238.925;    0.000
339.849; 2006.000;  236.925;    0.000
339.907; 2046.000;  254.925;    0.000
339.964; 1991.000;  196.925;    0.000
340.022; 1962.000;  247.925;    0.000
340.079; 1920.000;  275.925;    0.000
340.137; 1933.000;  248.925;    0.000
340.194; 1943.000;  263.925;    0.000
340.252; 1998.000;  266.925;    0.000
340.309; 2003.000;  211.925;    0.000
340.366; 1928.000;  237.925;    0.000
340.424; 1909.000;  260.925;    0.000
340.481; 1922.000;  255.925;    0.000
340.538; 1979.000;  235.925;    0.000
340.596; 2050.000;  225.925;    0.000
340.653; 1992.000;  230.925;    0.000
340.711; 2043.000;  272.925;    0.000
340.768; 2037.000;  253.925;    0.000
340.825; 2022.000;  201.925;    0.000
340.883; 2071.000;  232.925;    0.000
340.940; 2048.000;  247.925;    0.000
340.997; 2060.000;  244.925;    0.000
341.054; 2015.000;  244.925;    0.000
341.112; 2003.000;  258.925;    0.000
341.169; 2034.000;  238.925;    0.000
341.226; 1976.000;  213.925;    0.000
341.284; 2028.000;  240.925;    0.000
341.341; 2046.000;  194.925;    0.000
341.398; 2078.000;  191.925;    0.000
341.455; 2105.000;  227.925;    0.000
341.512; 1998.000;  238.925;    0.000
341.570; 2086.000;  236.925;    0.000
341.627; 1979.000;  241.925;    0.000
341.684; 1991.000;  225.925;    0.000
341.741; 2161.000;  299.925;    0.000
341.798; 2011.000;  265.925;    0.000
341.856; 2043.000;  230.925;    0.000
341.913; 2054.000;  234.925;    0.000
341.970; 2020.000;  260.925;    0.000
342.027; 2047.000;  255.925;    0.000
342.084; 2150.000;  260.925;    0.000
342.141; 2016.000;  263.925;    0.000
342.198; 2029.000;  245.925;    0.000
342.255; 1994.000;  210.925;    0.000
342.313; 2052.000;  251.925;    0.000
342.370; 2063.000;  234.925;    0.000
342.427; 2010.000;  249.925;    0.000
342.484; 2055.000;  254.925;    0.000
342.541; 1959.000;  229.925;    0.000
342.598; 2028.000;  255.925;    0.000
342.655; 1990.000;  225.925;    0.000
342.712; 2009.000;  224.925;    0.000
342.769; 2020.000;  215.925;    0.000
342.826; 2012.000;  240.925;    0.000
342.883; 1978.000;  233.925;    0.000
342.940; 1969.000;  212.925;    0.000
342.997; 2011.000;  236.925;    0.000
343.054; 1948.000;  255.925;    0.000
343.111; 1896.000;  228.925;    0.000
343.168; 2043.000;  230.925;    0.000
343.225; 2043.000;  258.925;    0.000
343.282; 2120.000;  202.925;    0.000
343.339; 2144.000;  253.925;    0.000
343.395; 2072.000;  232.925;    0.000
343.452; 2090.000;  253.925;    0.000
343.509; 2096.000;  213.925;    0.000
343.566; 2072.000;  259.925;    0.000
343.623; 2110.000;  244.925;    0.000
343.680; 2084.000;  232.925;    0.000
343.737; 2107.000;  222.925;    0.000
343.794; 2076.000;  204.925;    0.000
343.850; 2110.000;  249.925;    0.000
343.907; 2081.000;  212.925;    0.000
343.964; 2074.000;  226.925;    0.000
344.021; 2124.000;  251.925;    0.000
344.078; 2102.000;  246.925;    0.000
344.134; 2115.000;  218.925;    0.000
344.191; 2177.000;  244.925;    0.000
344.248; 2151.000;  211.925;    0.000
344.305; 2154.000;  221.925;    0.000
344.361; 2101.000;  247.925;    0.000
344.418; 2184.000;  265.925;    0.000
344.475; 2123.000;  254.925;    0.000
344.532; 2112.000;  233.925;    0.000
344.588; 2131.000;  236.925;    0.000
344.645; 2115.000;  249.925;    0.000
344.702; 2074.000;  220.925;    0.000
344.758; 2148.000;  255.925;    0.000
344.815; 2116.000;  236.925;    0.000
344.872; 2104.000;  218.925;    0.000
344.928; 2164.000;  230.925;    0.000
344.985; 2163.000;  222.925;    0.000
345.042; 2146.000;  199.925;    0.000
345.098; 2098.000;  226.925;    0.000
345.155; 2046.000;  245.925;    0.000
345.212; 2134.000;  225.925;    0.000
345.268; 2094.000;  237.925;    0.000
345.325; 2139.000;  213.925;    0.000
345.381; 2109.000;  267.925;    0.000
345.438; 2141.000;  240.925;    0.000
345.495; 2213.000;  254.925;    0.000
345.551; 2189.000;  248.925;    0.000
345.608; 2100.000;  196.925;    0.000
345.664; 2143.000;  245.925;    0.000
345.721; 2069.000;  252.925;    0.000
345.777; 2061.000;  245.925;    0.000
345.834; 1951.000;  210.925;    0.000
345.890; 2076.000;  244.925;    0.000
345.947; 2122.000;  238.925;    0.000
346.003; 2215.000;  224.925;    0.000
346.060; 2147.000;  206.925;    0.000
346.116; 2106.000;  237.925;    0.000
346.173; 2080.000;  242.925;    0.000
346.229; 2127.000;  269.925;    0.000
346.285; 2158.000;  262.925;    0.000
346.342; 2122.000;  263.925;    0.000
346.398; 2173.000;  224.925;    0.000
346.455; 2256.000;  237.925;    0.000
346.511; 2240.000;  216.925;    0.000
346.567; 2197.000;  211.925;    0.000
346.624; 2135.000;  225.925;    0.000
346.680; 2175.000;  242.925;    0.000
346.737; 2130.000;  244.925;    0.000
346.793; 2204.000;  260.925;    0.000
346.849; 2133.000;  251.925;    0.000
346.906; 2198.000;  260.925;    0.000
346.962; 2216.000;  267.925;    0.000
347.018; 2189.000;  246.925;    0.000
347.074; 2220.000;  272.925;    0.000
347.131; 2113.000;  211.925;    0.000
347.187; 2263.000;  240.925;    0.000
347.243; 2240.000;  233.925;    0.000
347.300; 2139.000;  225.925;    0.000
347.356; 2168.000;  236.925;    0.000
347.412; 2175.000;  237.925;    0.000
347.468; 2236.000;  284.925;    0.000
347.524; 2204.000;  252.925;    0.000
347.581; 2142.000;  278.925;    0.000
347.637; 2226.000;  262.925;    0.000
347.693; 2190.000;  268.925;    0.000
347.749; 2230.000;  260.925;    0.000
347.805; 2096.000;  224.925;    0.000
347.862; 2115.000;  243.925;    0.000
347.918; 2195.000;  257.925;    0.000
347.974; 2215.000;  248.925;    0.000
348.030; 2235.000;  242.925;    0.000
348.086; 2126.000;  234.925;    0.000
348.142; 2224.000;  239.925;    0.000
348.198; 2148.000;  260.925;    0.000
348.254; 2180.000;  262.925;    0.000
348.311; 2198.000;  263.925;    0.000
348.367; 2173.000;  235.925;    0.000
348.423; 2174.000;  205.925;    0.000
348.479; 2112.000;  234.925;    0.000
348.535; 2158.000;  257.925;    0.000
348.591; 2163.000;  267.925;    0.000
348.647; 2063.000;  243.925;    0.000
348.703; 2127.000;  278.925;    0.000
348.759; 2144.000;  259.925;    0.000
348.815; 2193.000;  288.925;    0.000
348.871; 2118.000;  269.925;    0.000
348.927; 2126.000;  239.925;    0.000
348.983; 2228.000;  289.925;    0.000
349.039; 2126.000;  221.925;    0.000
349.095; 2193.000;  252.925;    0.000
349.151; 2193.000;  226.925;    0.000
349.207; 2219.000;  263.925;    0.000
349.263; 2184.000;  194.925;    0.000
349.319; 2177.000;  212.925;    0.000
349.374; 2175.000;  236.925;    0.000
349.430; 2207.000;  229.925;    0.000
349.486; 2354.000;  247.925;    0.000
349.542; 2270.000;  263.925;    0.000
349.598; 2265.000;  248.925;    0.000
349.654; 2214.000;  252.925;    0.000
349.710; 2190.000;  230.925;    0.000
349.766; 2207.000;  201.925;    0.000
349.821; 2237.000;  229.925;    0.000
349.877; 2211.000;  282.925;    0.000
349.933; 2209.000;  240.925;    0.000
349.989; 2219.000;  251.925;    0.000
350.045; 2254.000;  240.925;    0.000
350.100; 2237.000;  256.925;    0.000
350.156; 2114.000;  243.925;    0.000
350.212; 2209.000;  250.925;    0.000
350.268; 2100.000;  251.925;    0.000
350.323; 2167.000;  208.925;    0.000
350.379; 2161.000;  244.925;    0.000
350.435; 2193.000;  237.925;    0.000
350.491; 2217.000;  201.925;    0.000
350.546; 2192.000;  225.925;    0.000
350.602; 2220.000;  260.925;    0.000
350.658; 2263.000;  224.925;    0.000
350.713; 2195.000;  264.925;    0.000
350.769; 2169.000;  196.925;    0.000
350.825; 2138.000;  202.925;    0.000
350.880; 2172.000;  232.925;    0.000
350.936; 2236.000;  242.925;    0.000
350.992; 2210.000;  238.925;    0.000
351.047; 2283.000;  242.925;    0.000
351.103; 2241.000;  199.925;    0.000
351.158; 2250.000;  242.925;    0.000
351.214; 2250.000;  225.925;    0.000
351.270; 2169.000;  197.925;    0.000
351.325; 2124.000;  231.925;    0.000
351.381; 2205.000;  215.925;    0.000
351.436; 2215.000;  233.925;    0.000
351.492; 2257.000;  216.925;    0.000
351.547; 2305.000;  244.925;    0.000
351.603; 2284.000;  249.925;    0.000
351.658; 2269.000;  249.925;    0.000
351.714; 2246.000;  222.925;    0.000
351.769; 2257.000;  222.925;    0.000
351.825; 2325.000;  226.925;    0.000
351.880; 2278.000;  238.925;    0.000
351.936; 2287.000;  230.925;    0.000
351.991; 2329.000;  243.925;    0.000
352.047; 2225.000;  201.925;    0.000
352.102; 2271.000;  243.925;    0.000
352.158; 2269.000;  193.925;    0.000
352.213; 2232.000;  219.925;    0.000
352.268; 2203.000;  205.925;    0.000
352.324; 2245.000;  246.925;    0.000
352.379; 2256.000;  247.925;    0.000
352.434; 2237.000;  252.925;    0.000
352.490; 2280.000;  205.925;    0.000
352.545; 2250.000;  262.925;    0.000
352.601; 2199.000;  229.925;    0.000
352.656; 2178.000;  207.925;    0.000
352.711; 2233.000;  228.925;    0.000
352.767; 2200.000;  216.925;    0.000
352.822; 2287.000;  219.925;    0.000
352.877; 2232.000;  234.925;    0.000
352.932; 2215.000;  249.925;    0.000
352.988; 2185.000;  196.925;    0.000
353.043; 2256.000;  228.925;    0.000
353.098; 2228.000;  231.925;    0.000
353.153; 2302.000;  235.925;    0.000
353.209; 2208.000;  250.925;    0.000
353.264; 2287.000;  212.925;    0.000
353.319; 2200.000;  234.925;    0.000
353.374; 2264.000;  245.925;    0.000
353.430; 2249.000;  261.925;    0.000
353.485; 2292.000;  249.925;    0.000
353.540; 2296.000;  260.925;    0.000
353.595; 2288.000;  219.925;    0.000
353.650; 2254.000;  242.925;    0.000
353.705; 2201.000;  244.925;    0.000
353.761; 2254.000;  242.925;    0.000
353.816; 2234.000;  214.925;    0.000
353.871; 2274.000;  237.925;    0.000
353.926; 2219.000;  233.925;    0.000
353.981; 2287.000;  250.925;    0.000
354.036; 2309.000;  239.925;    0.000
354.091; 2253.000;  289.925;    0.000
354.146; 2255.000;  282.925;    0.000
354.201; 2202.000;  244.925;    0.000
354.256; 2240.000;  257.925;    0.000
354.311; 2283.000;  305.925;    0.000
354.367; 2283.000;  220.925;    0.000
354.422; 2272.000;  261.925;    0.000
354.477; 2251.000;  212.925;    0.000
354.532; 2262.000;  254.925;    0.000
354.587; 2364.000;  252.925;    0.000
354.642; 2258.000;  210.925;    0.000
354.697; 2276.000;  232.925;    0.000
354.751; 2196.000;  254.925;    0.000
354.806; 2257.000;  233.925;    0.000
354.861; 2270.000;  244.925;    0.000
354.916; 2217.000;  235.925;    0.000
354.971; 2322.000;  258.925;    0.000
355.026; 2280.000;  251.925;    0.000
355.081; 2219.000;  254.925;    0.000
355.136; 2161.000;  212.925;    0.000
355.191; 2233.000;  211.925;    0.000
355.246; 2275.000;  237.925;    0.000
355.301; 2290.000;  255.925;    0.000
355.355; 2192.000;  231.925;    0.000
355.410; 2263.000;  224.925;    0.000
355.465; 2169.000;  235.925;    0.000
355.520; 2264.000;  244.925;    0.000
355.575; 2269.000;  267.925;    0.000
355.630; 2244.000;  255.925;    0.000
355.684; 2224.000;  254.925;    0.000
355.739; 2257.000;  217.925;    0.000
355.794; 2304.000;  206.925;    0.000
355.849; 2189.000;  221.925;    0.000
355.904; 2190.000;  257.925;    0.000
355.958; 2268.000;  221.925;    0.000
356.013; 2107.000;  192.925;    0.000
356.068; 2234.000;  267.925;    0.000
356.123; 2293.000;  218.925;    0.000
356.177; 2287.000;  236.925;    0.000
356.232; 2298.000;  236.925;    0.000
356.287; 2306.000;  246.925;    0.000
356.341; 2279.000;  241.925;    0.000
356.396; 2293.000;  219.925;    0.000
356.451; 2220.000;  244.925;    0.000
356.505; 2239.000;  248.925;    0.000
356.560; 2289.000;  267.925;    0.000
356.615; 2220.000;  258.925;    0.000
356.669; 2307.000;  291.925;    0.000
356.724; 2296.000;  272.925;    0.000
356.778; 2234.000;  244.925;    0.000
356.833; 2289.000;  223.925;    0.000
356.888; 2200.000;  245.925;    0.000
356.942; 2176.000;  221.925;    0.000
356.997; 2284.000;  254.925;    0.000
357.051; 2261.000;  244.925;    0.000
357.106; 2231.000;  227.925;    0.000
357.160; 2196.000;  176.925;    0.000
357.215; 2194.000;  234.925;    0.000
357.269; 2216.000;  233.925;    0.000
357.324; 2221.000;  232.925;    0.000
357.378; 2192.000;  211.925;    0.000
357.433; 2268.000;  252.925;    0.000
357.487; 2267.000;  227.925;    0.000
357.542; 2260.000;  246.925;    0.000
357.596; 2295.000;  260.925;    0.000
357.651; 2318.000;  301.925;    0.000
357.705; 2264.000;  230.925;    0.000
357.760; 2328.000;  211.925;    0.000
357.814; 2212.000;  265.925;    0.000
357.868; 2228.000;  220.925;    0.000
357.923; 2237.000;  220.925;    0.000
357.977; 2154.000;  245.925;    0.000
358.032; 2246.000;  247.925;    0.000
358.086; 2304.000;  242.925;    0.000
358.140; 2230.000;  270.925;    0.000
358.195; 2225.000;  242.925;    0.000
358.249; 2265.000;  238.925;    0.000
358.303; 2239.000;  285.925;    0.000
358.358; 2276.000;  265.925;    0.000
358.412; 2187.000;  265.925;    0.000
358.466; 2275.000;  257.925;    0.000
358.521; 2229.000;  251.925;    0.000
358.575; 2190.000;  254.925;    0.000
358.629; 2244.000;  278.925;    0.000
358.683; 2282.000;  288.925;    0.000
358.738; 2272.000;  302.925;    0.000
358.792; 2247.000;  239.925;    0.000
358.846; 2237.000;  293.925;    0.000
358.900; 2276.000;  271.925;    0.000
358.954; 2239.000;  300.925;    0.000
359.009; 2234.000;  279.925;    0.000
359.063; 2256.000;  249.925;    0.000
359.117; 2241.000;  264.925;    0.000
359.171; 2286.000;  279.925;    0.000
359.225; 2246.000;  276.925;    0.000
359.280; 2257.000;  237.925;    0.000
359.334; 2308.000;  280.925;    0.000
359.388; 2271.000;  282.925;    0.000
359.442; 2213.000;  243.925;    0.000
359.496; 2149.000;  204.925;    0.000
359.550; 2277.000;  308.925;    0.000
359.604; 2246.000;  264.925;    0.000
359.658; 2236.000;  247.925;    0.000
359.712; 2173.000;  273.925;    0.000
359.766; 2241.000;  212.925;    0.000
359.820; 2183.000;  228.925;    0.000
359.875; 2287.000;  248.925;    0.000
359.929; 2298.000;  271.925;    0.000
359.983; 2215.000;  274.925;    0.000
360.037; 2191.000;  262.925;    0.000
360.091; 2276.000;  302.925;    0.000
360.145; 2208.000;  244.925;    0.000
360.199; 2207.000;  253.925;    0.000
360.253; 2248.000;  285.925;    0.000
360.306; 2166.000;  287.925;    0.000
360.360; 2172.000;  267.925;    0.000
360.414; 2210.000;  250.925;    0.000
360.468; 2244.000;  270.925;    0.000
360.522; 2198.000;  276.925;    0.000
360.576; 2185.000;  269.925;    0.000
360.630; 2288.000;  281.925;    0.000
360.684; 2257.000;  291.925;    0.000
360.738; 2342.000;  325.925;    0.000
360.792; 2219.000;  320.925;    0.000
360.846; 2173.000;  276.925;    0.000
360.899; 2212.000;  314.925;    0.000
360.953; 2287.000;  275.925;    0.000
361.007; 2219.000;  292.925;    0.000
361.061; 2238.000;  278.925;    0.000
361.115; 2275.000;  264.925;    0.000
361.168; 2304.000;  317.925;    0.000
361.222; 2188.000;  277.925;    0.000
361.276; 2218.000;  274.925;    0.000
361.330; 2231.000;  269.925;    0.000
361.384; 2168.000;  280.925;    0.000
361.437; 2252.000;  304.925;    0.000
361.491; 2174.000;  256.925;    0.000
361.545; 2323.000;  293.925;    0.000
361.599; 2214.000;  284.925;    0.000
361.652; 2238.000;  274.925;    0.000
361.706; 2270.000;  284.925;    0.000
361.760; 2235.000;  260.925;    0.000
361.813; 2332.000;  272.925;    0.000
361.867; 2259.000;  300.925;    0.000
361.921; 2223.000;  275.925;    0.000
361.974; 2195.000;  258.925;    0.000
362.028; 2244.000;  248.925;    0.000
362.082; 2258.000;  252.925;    0.000
362.135; 2192.000;  240.925;    0.000
362.189; 2206.000;  259.925;    0.000
362.242; 2206.000;  267.925;    0.000
362.296; 2320.000;  280.925;    0.000
362.350; 2175.000;  282.925;    0.000
362.403; 2270.000;  288.925;    0.000
362.457; 2249.000;  253.925;    0.000
362.510; 2287.000;  323.925;    0.000
362.564; 2164.000;  286.925;    0.000
362.617; 2214.000;  317.925;    0.000
362.671; 2297.000;  286.925;    0.000
362.724; 2219.000;  274.925;    0.000
362.778; 2230.000;  295.925;    0.000
362.831; 2304.000;  289.925;    0.000
362.885; 2213.000;  318.925;    0.000
362.938; 2189.000;  271.925;    0.000
362.992;  338.000;  285.925;    0.000
363.045;  253.000;  291.925;    0.000
363.099;  252.000;  276.925;    0.000
363.152;  283.000;  309.925;    0.000
363.205;  247.000;  263.925;    0.000
363.259;  317.000;  288.925;    0.000
363.312;  271.000;  333.925;    0.000
363.366;  266.000;  328.925;    0.000
363.419;  304.000;  328.925;    0.000
363.472;  308.000;  295.925;    0.000
363.526;  333.000;  334.925;    0.000
363.579;  292.000;  312.925;    0.000
363.632;  281.000;  274.925;    0.000
363.686;  276.000;  282.925;    0.000
363.739;  254.000;  289.925;    0.000
363.792;  283.000;  287.925;    0.000

