
Integration time [ms]:   0.300
Averaging Nr. [scans]: 1
Smoothing Nr. [pixels]: 0
Data measured with spectrometer [name]: NIR
Wave   ;Sample   ;Dark     ;Reference
[nm]   ;[counts] ;[counts] ;[counts] 

691.496;  -16.050;  102.875;    0.000
691.696;   -0.050;  181.875;    0.000
691.896;  -60.050;  138.875;    0.000
692.096;  -19.050;  182.875;    0.000
692.296;  -96.050;  145.875;    0.000
692.496;  -24.050;  154.875;    0.000
692.695;  -60.050;  108.875;    0.000
692.895;  -20.050;  176.875;    0.000
693.095;  -46.050;  138.875;    0.000
693.295;  -44.050;  192.875;    0.000
693.495;  -18.050;  170.875;    0.000
693.695;  -46.050;  147.875;    0.000
693.894;   -6.050;  191.875;    0.000
694.094;  -67.050;  148.875;    0.000
694.294;  -72.050;  147.875;    0.000
694.494;  188.950;  140.875;    0.000
694.693; 2156.950;  137.875;    0.000
694.893; 2418.950;  141.875;    0.000
695.093; 2465.950;  105.875;    0.000
695.293; 2549.950;  115.875;    0.000
695.492; 2487.950;   81.875;    0.000
695.692; 2597.950;  162.875;    0.000
695.891; 2578.950;  162.875;    0.000
696.091; 2620.950;  166.875;    0.000
696.291; 2602.950;  143.875;    0.000
696.490; 2629.950;  170.875;    0.000
696.690; 2602.950;  142.875;    0.000
696.889; 2674.950;  186.875;    0.000
697.089; 2557.950;  120.875;    0.000
697.288; 2730.950;  215.875;    0.000
697.488; 2552.950;  178.875;    0.000
697.687; 2690.950;  170.875;    0.000
697.887; 2604.950;  140.875;    0.000
698.086; 2590.950;  131.875;    0.000
698.286; 2640.950;  117.875;    0.000
698.485; 2671.950;  136.875;    0.000
698.684; 2704.950;  126.875;    0.000
698.884; 2655.950;  161.875;    0.000
699.083; 2570.950;   95.875;    0.000
699.282; 2687.950;  120.875;    0.000
699.482; 2679.950;  131.875;    0.000
699.681; 2631.950;  168.875;    0.000
699.880; 2671.950;  154.875;    0.000
700.080; 2762.950;  149.875;    0.000
700.279; 2709.950;   99.875;    0.000
700.478; 2565.950;  157.875;    0.000
700.677; 2649.950;  111.875;    0.000
700.877; 2681.950;  126.875;    0.000
701.076; 2756.950;  142.875;    0.000
701.275; 2662.950;  107.875;    0.000
701.474; 2714.950;   72.875;    0.000
701.673; 2674.950;   87.875;    0.000
701.872; 2808.950;  170.875;    0.000
702.071; 2753.950;  136.875;    0.000
702.271; 2704.950;  121.875;    0.000
702.470; 2808.950;  139.875;    0.000
702.669; 2748.950;  121.875;    0.000
702.868; 2609.950;  146.875;    0.000
703.067; 2828.950;  159.875;    0.000
703.266; 2757.950;  122.875;    0.000
703.465; 2735.950;  121.875;    0.000
703.664; 2653.950;  144.875;    0.000
703.863; 2810.950;  140.875;    0.000
704.062; 2743.950;  109.875;    0.000
704.260; 2666.950;  164.875;    0.000
704.459; 2779.950;  124.875;    0.000
704.658; 2828.950;  109.875;    0.000
704.857; 2812.950;  149.875;    0.000
705.056; 2813.950;  112.875;    0.000
705.255; 2786.950;   95.875;    0.000
705.454; 2779.950;  105.875;    0.000
705.652; 2813.950;  134.875;    0.000
705.851; 2789.950;   92.875;    0.000
706.050; 2912.950;  127.875;    0.000
706.249; 2848.950;  111.875;    0.000
706.447; 2853.950;   98.875;    0.000
706.646; 2828.950;  108.875;    0.000
706.845; 2874.950;   95.875;    0.000
707.043; 2807.950;   95.875;    0.000
707.242; 2911.950;   97.875;    0.000
707.441; 2834.950;  142.875;    0.000
707.639; 2903.950;  121.875;    0.000
707.838; 2816.950;  141.875;    0.000
708.037; 2899.950;  125.875;    0.000
708.235; 2813.950;  100.875;    0.000
708.434; 2858.950;  106.875;    0.000
708.632; 2881.950;   86.875;    0.000
708.831; 2915.950;  138.875;    0.000
709.029; 2869.950;   86.875;    0.000
709.228; 2868.950;  103.875;    0.000
709.426; 3012.950;  146.875;    0.000
709.625; 3020.950;  136.875;    0.000
709.823; 2897.950;  114.875;    0.000
710.022; 3010.950;  144.875;    0.000
710.220; 3001.950;  109.875;    0.000
710.418; 2981.950;  116.875;    0.000
710.617; 2879.950;   67.875;    0.000
710.815; 3050.950;  104.875;    0.000
711.013; 2958.950;  109.875;    0.000
711.212; 2976.950;  106.875;    0.000
711.410; 3004.950;   95.875;    0.000
711.608; 2973.950;  155.875;    0.000
711.807; 2918.950;  103.875;    0.000
712.005; 3070.950;  104.875;    0.000
712.203; 2993.950;   94.875;    0.000
712.401; 3023.950;  125.875;    0.000
712.599; 3056.950;  127.875;    0.000
712.798; 3156.950;  141.875;    0.000
712.996; 3068.950;   85.875;    0.000
713.194; 3044.950;   96.875;    0.000
713.392; 3041.950;   54.875;    0.000
713.590; 3163.950;  123.875;    0.000
713.788; 3297.950;  130.875;    0.000
713.986; 3123.950;  104.875;    0.000
714.184; 3059.950;   91.875;    0.000
714.382; 3204.950;  120.875;    0.000
714.580; 3175.950;   71.875;    0.000
714.778; 3242.950;   92.875;    0.000
714.976; 3175.950;  129.875;    0.000
715.174; 3285.950;   99.875;    0.000
715.372; 3345.950;  119.875;    0.000
715.570; 3421.950;   95.875;    0.000
715.768; 3688.950;  113.875;    0.000
715.966; 3661.950;   64.875;    0.000
716.164; 3576.950;  135.875;    0.000
716.362; 3660.950;  125.875;    0.000
716.560; 3494.950;  135.875;    0.000
716.758; 3467.950;   84.875;    0.000
716.955; 3496.950;  109.875;    0.000
717.153; 3431.950;   73.875;    0.000
717.351; 3417.950;  110.875;    0.000
717.549; 3398.950;  149.875;    0.000
717.746; 3395.950;  121.875;    0.000
717.944; 3441.950;  128.875;    0.000
718.142; 3479.950;  124.875;    0.000
718.340; 3356.950;   96.875;    0.000
718.537; 3294.950;  138.875;    0.000
718.735; 3427.950;  144.875;    0.000
718.933; 3354.950;   97.875;    0.000
719.130; 3395.950;  109.875;    0.000
719.328; 3365.950;  123.875;    0.000
719.525; 3384.950;  118.875;    0.000
719.723; 3409.950;  117.875;    0.000
719.920; 3420.950;   72.875;    0.000
720.118; 3431.950;   92.875;    0.000
720.316; 3342.950;  141.875;    0.000
720.513; 3375.950;   98.875;    0.000
720.711; 3482.950;  146.875;    0.000
720.908; 3273.950;  113.875;    0.000
721.105; 3349.950;  157.875;    0.000
721.303; 3338.950;  106.875;    0.000
721.500; 3363.950;   88.875;    0.000
721.698; 3372.950;   88.875;    0.000
721.895; 3376.950;   94.875;    0.000
722.092; 3406.950;   82.875;    0.000
722.290; 3386.950;  136.875;    0.000
722.487; 3451.950;   67.875;    0.000
722.684; 3357.950;  115.875;    0.000
722.882; 3333.950;  104.875;    0.000
723.079; 3462.950;  122.875;    0.000
723.276; 3368.950;   91.875;    0.000
723.473; 3367.950;   89.875;    0.000
723.671; 3384.950;   97.875;    0.000
723.868; 3388.950;  117.875;    0.000
724.065; 3424.950;  102.875;    0.000
724.262; 3371.950;  137.875;    0.000
724.459; 3401.950;   48.875;    0.000
724.656; 3389.950;  122.875;    0.000
724.854; 3561.950;   96.875;    0.000
725.051; 3443.950;  120.875;    0.000
725.248; 3405.950;  146.875;    0.000
725.445; 3496.950;  117.875;    0.000
725.642; 3430.950;  106.875;    0.000
725.839; 3532.950;  143.875;    0.000
726.036; 3431.950;   79.875;    0.000
726.233; 3484.950;   90.875;    0.000
726.430; 3539.950;  124.875;    0.000
726.627; 3536.950;   98.875;    0.000
726.824; 3517.950;   91.875;    0.000
727.021; 3557.950;  131.875;    0.000
727.218; 3533.950;  110.875;    0.000
727.414; 3555.950;   83.875;    0.000
727.611; 3567.950;   86.875;    0.000
727.808; 3444.950;  131.875;    0.000
728.005; 3396.950;  105.875;    0.000
728.202; 3378.950;  128.875;    0.000
728.399; 3569.950;  113.875;    0.000
728.595; 3525.950;  102.875;    0.000
728.792; 3547.950;   91.875;    0.000
728.989; 3439.950;  122.875;    0.000
729.186; 3560.950;  103.875;    0.000
729.382; 3460.950;  106.875;    0.000
729.579; 3694.950;  114.875;    0.000
729.776; 3523.950;  115.875;    0.000
729.972; 3551.950;  108.875;    0.000
730.169; 3627.950;  111.875;    0.000
730.366; 3589.950;  100.875;    0.000
730.562; 3624.950;   86.875;    0.000
730.759; 3481.950;   93.875;    0.000
730.955; 3593.950;  127.875;    0.000
731.152; 3643.950;   99.875;    0.000
731.348; 3564.950;   97.875;    0.000
731.545; 3567.950;   98.875;    0.000
731.741; 3576.950;  130.875;    0.000
731.938; 3608.950;  115.875;    0.000
732.134; 3583.950;  107.875;    0.000
732.331; 3589.950;   80.875;    0.000
732.527; 3667.950;  108.875;    0.000
732.724; 3647.950;  104.875;    0.000
732.920; 3587.950;  109.875;    0.000
733.116; 3463.950;  117.875;    0.000
733.313; 3644.950;   81.875;    0.000
733.509; 3591.950;   87.875;    0.000
733.705; 3685.950;  143.875;    0.000
733.902; 3667.950;   74.875;    0.000
734.098; 3641.950;   90.875;    0.000
734.294; 3717.950;  104.875;    0.000
734.490; 3599.950;  139.875;    0.000
734.687; 3632.950;  113.875;    0.000
734.883; 3665.950;   72.875;    0.000
735.079; 3596.950;  100.875;    0.000
735.275; 3690.950;  113.875;    0.000
735.471; 3681.950;   55.875;    0.000
735.667; 3671.950;  106.875;    0.000
735.863; 3708.950;  131.875;    0.000
736.060; 3681.950;  127.875;    0.000
736.256; 3702.950;   76.875;    0.000
736.452; 3646.950;  127.875;    0.000
736.648; 3707.950;  136.875;    0.000
736.844; 3773.950;  113.875;    0.000
737.040; 3774.950;  125.875;    0.000
737.236; 3764.950;   99.875;    0.000
737.432; 3762.950;   75.875;    0.000
737.628; 3745.950;  155.875;    0.000
737.824; 3802.950;  116.875;    0.000
738.019; 3832.950;   92.875;    0.000
738.215; 3821.950;  113.875;    0.000
738.411; 3740.950;  135.875;    0.000
738.607; 3694.950;   53.875;    0.000
738.803; 3810.950;   79.875;    0.000
738.999; 3803.950;  117.875;    0.000
739.195; 3882.950;  106.875;    0.000
739.390; 3917.950;  125.875;    0.000
739.586; 3932.950;  102.875;    0.000
739.782; 3970.950;  125.875;    0.000
739.978; 3877.950;  124.875;    0.000
740.173; 3972.950;   96.875;    0.000
740.369; 3878.950;  118.875;    0.000
740.565; 3967.950;  128.875;    0.000
740.760; 4040.950;  118.875;    0.000
740.956; 3944.950;  109.875;    0.000
741.152; 3965.950;  151.875;    0.000
741.347; 3982.950;  112.875;    0.000
741.543; 4065.950;  113.875;    0.000
741.738; 4073.950;  128.875;    0.000
741.934; 4233.950;  144.875;    0.000
742.129; 4364.950;  105.875;    0.000
742.325; 4688.950;  137.875;    0.000
742.520; 4974.950;  128.875;    0.000
742.716; 4824.950;  121.875;    0.000
742.911; 4600.950;   75.875;    0.000
743.107; 4645.950;  100.875;    0.000
743.302; 4497.950;   72.875;    0.000
743.498; 4662.950;  137.875;    0.000
743.693; 4801.950;  124.875;    0.000
743.888; 4793.950;  121.875;    0.000
744.084; 5298.950;   93.875;    0.000
744.279; 6030.950;   75.875;    0.000
744.474; 5934.950;  136.875;    0.000
744.670; 5642.950;  109.875;    0.000
744.865; 5340.950;  142.875;    0.000
745.060; 5098.950;   84.875;    0.000
745.255; 5048.950;  149.875;    0.000
745.451; 4952.950;  101.875;    0.000
745.646; 4856.950;  132.875;    0.000
745.841; 4815.950;  126.875;    0.000
746.036; 4950.950;  125.875;    0.000
746.231; 4897.950;  150.875;    0.000
746.426; 5079.950;  118.875;    0.000
746.622; 5671.950;  135.875;    0.000
746.817; 6925.950;  122.875;    0.000
747.012; 7606.950;  134.875;    0.000
747.207; 6914.950;  124.875;    0.000
747.402; 6421.950;  122.875;    0.000
747.597; 6011.950;   95.875;    0.000
747.792; 5952.950;  168.875;    0.000
747.987; 5674.950;  110.875;    0.000
748.182; 5502.950;  119.875;    0.000
748.377; 5390.950;   70.875;    0.000
748.572; 5221.950;  113.875;    0.000
748.767; 5117.950;  123.875;    0.000
748.961; 4990.950;  110.875;    0.000
749.156; 4944.950;  135.875;    0.000
749.351; 4890.950;   98.875;    0.000
749.546; 4868.950;  126.875;    0.000
749.741; 4666.950;  129.875;    0.000
749.936; 4772.950;   86.875;    0.000
750.130; 4525.950;   97.875;    0.000
750.325; 4624.950;  110.875;    0.000
750.520; 4583.950;  120.875;    0.000
750.715; 4562.950;  122.875;    0.000
750.909; 4547.950;  120.875;    0.000
751.104; 4558.950;  118.875;    0.000
751.299; 4523.950;  122.875;    0.000
751.493; 4511.950;  129.875;    0.000
751.688; 4602.950;  138.875;    0.000
751.882; 4427.950;   87.875;    0.000
752.077; 4444.950;  142.875;    0.000
752.272; 4305.950;  110.875;    0.000
752.466; 4351.950;  154.875;    0.000
752.661; 4452.950;   96.875;    0.000
752.855; 4349.950;   93.875;    0.000
753.050; 4321.950;  122.875;    0.000
753.244; 4262.950;  110.875;    0.000
753.439; 4323.950;  116.875;    0.000
753.633; 4233.950;  131.875;    0.000
753.828; 4240.950;  130.875;    0.000
754.022; 4236.950;   96.875;    0.000
754.216; 4180.950;  114.875;    0.000
754.411; 4291.950;  145.875;    0.000
754.605; 4212.950;   65.875;    0.000
754.799; 4241.950;  116.875;    0.000
754.994; 4197.950;  117.875;    0.000
755.188; 4201.950;  124.875;    0.000
755.382; 4243.950;   80.875;    0.000
755.576; 4243.950;   90.875;    0.000
755.771; 4062.950;  115.875;    0.000
755.965; 4158.950;  106.875;    0.000
756.159; 4206.950;   87.875;    0.000
756.353; 4221.950;  125.875;    0.000
756.547; 4013.950;  146.875;    0.000
756.742; 4094.950;  111.875;    0.000
756.936; 4190.950;  108.875;    0.000
757.130; 4258.950;  101.875;    0.000
757.324; 4196.950;  114.875;    0.000
757.518; 4264.950;  136.875;    0.000
757.712; 4240.950;  123.875;    0.000
757.906; 4242.950;  115.875;    0.000
758.100; 4216.950;  186.875;    0.000
758.294; 4205.950;  118.875;    0.000
758.488; 4247.950;  167.875;    0.000
758.682; 4089.950;  137.875;    0.000
758.876; 4158.950;  135.875;    0.000
759.070; 4175.950;  132.875;    0.000
759.264; 4104.950;  118.875;    0.000
759.458; 4063.950;  111.875;    0.000
759.651; 4132.950;  142.875;    0.000
759.845; 4108.950;  105.875;    0.000
760.039; 4037.950;   73.875;    0.000
760.233; 4095.950;  156.875;    0.000
760.427; 4015.950;  119.875;    0.000
760.620; 4193.950;  136.875;    0.000
760.814; 4165.950;  126.875;    0.000
761.008; 4182.950;  126.875;    0.000
761.202; 4233.950;  123.875;    0.000
761.395; 4109.950;  141.875;    0.000
761.589; 4084.950;  107.875;    0.000
761.783; 4100.950;  122.875;    0.000
761.976; 4212.950;  120.875;    0.000
762.170; 4284.950;  147.875;    0.000
762.363; 4090.950;  144.875;    0.000
762.557; 4147.950;  119.875;    0.000
762.750; 4219.950;  118.875;    0.000
762.944; 4247.950;  145.875;    0.000
763.138; 4153.950;  123.875;    0.000
763.331; 4190.950;  129.875;    0.000
763.524; 4279.950;  109.875;    0.000
763.718; 4271.950;  150.875;    0.000
763.911; 4137.950;  140.875;    0.000
764.105; 4234.950;   97.875;    0.000
764.298; 4056.950;  128.875;    0.000
764.492; 4189.950;  132.875;    0.000
764.685; 4237.950;   92.875;    0.000
764.878; 4210.950;  111.875;    0.000
765.072; 4252.950;  116.875;    0.000
765.265; 4267.950;  135.875;    0.000
765.458; 4242.950;   69.875;    0.000
765.651; 4214.950;  145.875;    0.000
765.845; 4204.950;   95.875;    0.000
766.038; 4351.950;  147.875;    0.000
766.231; 4991.950;  119.875;    0.000
766.424; 7374.950;  126.875;    0.000
766.617; 7656.950;   92.875;    0.000
766.811; 4717.950;  109.875;    0.000
767.004; 4469.950;  107.875;    0.000
767.197; 4443.950;  171.875;    0.000
767.390; 4324.950;  114.875;    0.000
767.583; 4283.950;  109.875;    0.000
767.776; 4298.950;  130.875;    0.000
767.969; 4540.950;  103.875;    0.000
768.162; 4405.950;  139.875;    0.000
768.355; 4347.950;  142.875;    0.000
768.548; 4345.950;  140.875;    0.000
768.741; 4334.950;   82.875;    0.000
768.934; 4449.950;  107.875;    0.000
769.127; 4468.950;  121.875;    0.000
769.320; 4491.950;  106.875;    0.000
769.513; 4508.950;  145.875;    0.000
769.706; 5086.950;  120.875;    0.000
769.898; 7012.950;  135.875;    0.000
770.091; 5645.950;  146.875;    0.000
770.284; 4619.950;  108.875;    0.000
770.477; 4523.950;  148.875;    0.000
770.670; 4560.950;  163.875;    0.000
770.862; 4629.950;   97.875;    0.000
771.055; 4540.950;  116.875;    0.000
771.248; 4697.950;  143.875;    0.000
771.441; 4637.950;  125.875;    0.000
771.633; 4635.950;  125.875;    0.000
771.826; 4848.950;  132.875;    0.000
772.018; 4831.950;  123.875;    0.000
772.211; 4790.950;  143.875;    0.000
772.404; 4696.950;  144.875;    0.000
772.596; 4811.950;  130.875;    0.000
772.789; 4851.950;  109.875;    0.000
772.981; 4901.950;  151.875;    0.000
773.174; 4908.950;  119.875;    0.000
773.366; 5019.950;  179.875;    0.000
773.559; 5007.950;  106.875;    0.000
773.751; 5135.950;  120.875;    0.000
773.944; 5260.950;  159.875;    0.000
774.136; 5321.950;  131.875;    0.000
774.329; 5503.950;  141.875;    0.000
774.521; 5507.950;  114.875;    0.000
774.713; 5653.950;  169.875;    0.000
774.906; 5815.950;  151.875;    0.000
775.098; 6056.950;   99.875;    0.000
775.290; 6361.950;  166.875;    0.000
775.483; 6491.950;  146.875;    0.000
775.675; 6782.950;  106.875;    0.000
775.867; 7185.950;   91.875;    0.000
776.059; 7691.950;  137.875;    0.000
776.251; 8404.950;  124.875;    0.000
776.444; 9367.950;  168.875;    0.000
776.636;10458.950;  138.875;    0.000
776.828;13010.950;  155.875;    0.000
777.020;17403.949;  160.875;    0.000
777.212;25111.949;  153.875;    0.000
777.404;28329.949;  135.875;    0.000
777.596;26470.949;  144.875;    0.000
777.788;20228.949;  127.875;    0.000
777.980;15833.950;  141.875;    0.000
778.172;13253.950;  138.875;    0.000
778.364;11464.950;  143.875;    0.000
778.556;10134.950;  123.875;    0.000
778.748; 9445.950;  103.875;    0.000
778.940; 8562.950;  176.875;    0.000
779.132; 7966.950;  144.875;    0.000
779.324; 7461.950;   75.875;    0.000
779.516; 7074.950;  117.875;    0.000
779.708; 6642.950;  151.875;    0.000
779.900; 6468.950;  127.875;    0.000
780.091; 6254.950;  155.875;    0.000
780.283; 6002.950;  157.875;    0.000
780.475; 5796.950;  140.875;    0.000
780.667; 5696.950;  141.875;    0.000
780.859; 5607.950;  113.875;    0.000
781.050; 5392.950;  153.875;    0.000
781.242; 5294.950;  118.875;    0.000
781.434; 5123.950;  121.875;    0.000
781.625; 5165.950;  146.875;    0.000
781.817; 5059.950;  154.875;    0.000
782.008; 4917.950;  144.875;    0.000
782.200; 4902.950;  152.875;    0.000
782.392; 4893.950;  160.875;    0.000
782.583; 4874.950;  122.875;    0.000
782.775; 4581.950;  144.875;    0.000
782.966; 4674.950;  143.875;    0.000
783.158; 4656.950;  125.875;    0.000
783.349; 4690.950;  173.875;    0.000
783.541; 4610.950;  166.875;    0.000
783.732; 4622.950;  163.875;    0.000
783.924; 4450.950;  157.875;    0.000
784.115; 4539.950;  158.875;    0.000
784.306; 4426.950;  160.875;    0.000
784.498; 4394.950;  132.875;    0.000
784.689; 4454.950;  181.875;    0.000
784.880; 4316.950;  156.875;    0.000
785.072; 4411.950;  134.875;    0.000
785.263; 4422.950;  155.875;    0.000
785.454; 4328.950;  141.875;    0.000
785.645; 4290.950;  114.875;    0.000
785.837; 4295.950;  137.875;    0.000
786.028; 4175.950;  158.875;    0.000
786.219; 4232.950;  135.875;    0.000
786.410; 4317.950;  152.875;    0.000
786.601; 4180.950;  132.875;    0.000
786.792; 4237.950;  152.875;    0.000
786.984; 4237.950;  162.875;    0.000
787.175; 4205.950;   97.875;    0.000
787.366; 4148.950;  129.875;    0.000
787.557; 4269.950;  135.875;    0.000
787.748; 4198.950;  127.875;    0.000
787.939; 4268.950;  152.875;    0.000
788.130; 4250.950;  182.875;    0.000
788.321; 4195.950;  130.875;    0.000
788.512; 4326.950;  161.875;    0.000
788.703; 4278.950;  127.875;    0.000
788.894; 4199.950;  121.875;    0.000
789.084; 4236.950;  134.875;    0.000
789.275; 4195.950;  108.875;    0.000
789.466; 4306.950;  152.875;    0.000
789.657; 4250.950;  115.875;    0.000
789.848; 4279.950;  150.875;    0.000
790.039; 4215.950;  132.875;    0.000
790.229; 4269.950;  169.875;    0.000
790.420; 4296.950;  159.875;    0.000
790.611; 4168.950;  123.875;    0.000
790.801; 4297.950;  144.875;    0.000
790.992; 4251.950;  177.875;    0.000
791.183; 4178.950;  128.875;    0.000
791.373; 4155.950;  123.875;    0.000
791.564; 4239.950;  131.875;    0.000
791.755; 4286.950;  103.875;    0.000
791.945; 4221.950;  104.875;    0.000
792.136; 4178.950;  115.875;    0.000
792.326; 4257.950;   99.875;    0.000
792.517; 4299.950;  139.875;    0.000
792.707; 4344.950;  155.875;    0.000
792.898; 4266.950;  139.875;    0.000
793.088; 4366.950;  153.875;    0.000
793.279; 4288.950;  137.875;    0.000
793.469; 4343.950;  109.875;    0.000
793.660; 4475.950;  119.875;    0.000
793.850; 4528.950;  119.875;    0.000
794.040; 4574.950;  132.875;    0.000
794.231; 4827.950;  122.875;    0.000
794.421; 5097.950;  124.875;    0.000
794.611; 5497.950;  151.875;    0.000
794.802; 6261.950;  121.875;    0.000
794.992; 6494.950;  139.875;    0.000
795.182; 6513.950;  132.875;    0.000
795.372; 6256.950;  149.875;    0.000
795.563; 5836.950;  153.875;    0.000
795.753; 5342.950;  120.875;    0.000
795.943; 5102.950;  121.875;    0.000
796.133; 4912.950;   97.875;    0.000
796.323; 4823.950;  122.875;    0.000
796.513; 4593.950;  142.875;    0.000
796.703; 4608.950;  125.875;    0.000
796.893; 4496.950;  126.875;    0.000
797.083; 4453.950;  150.875;    0.000
797.273; 4379.950;  108.875;    0.000
797.463; 4354.950;  156.875;    0.000
797.653; 4251.950;   80.875;    0.000
797.843; 4195.950;   88.875;    0.000
798.033; 4234.950;   96.875;    0.000
798.223; 4123.950;  159.875;    0.000
798.413; 4074.950;  155.875;    0.000
798.603; 4075.950;  125.875;    0.000
798.793; 3981.950;  141.875;    0.000
798.983; 3952.950;  113.875;    0.000
799.172; 4001.950;   85.875;    0.000
799.362; 3906.950;  141.875;    0.000
799.552; 4003.950;  122.875;    0.000
799.742; 3940.950;  124.875;    0.000
799.932; 3945.950;  102.875;    0.000
800.121; 3804.950;  146.875;    0.000
800.311; 3778.950;  122.875;    0.000
800.501; 3839.950;  120.875;    0.000
800.690; 3801.950;  141.875;    0.000
800.880; 3858.950;  146.875;    0.000
801.070; 3969.950;  122.875;    0.000
801.259; 3874.950;  138.875;    0.000
801.449; 3705.950;  115.875;    0.000
801.638; 3940.950;  132.875;    0.000
801.828; 3852.950;   92.875;    0.000
802.017; 3890.950;  150.875;    0.000
802.207; 3758.950;  134.875;    0.000
802.396; 3882.950;  133.875;    0.000
802.586; 3747.950;  117.875;    0.000
802.775; 3827.950;  155.875;    0.000
802.965; 3896.950;  132.875;    0.000
803.154; 3776.950;  176.875;    0.000
803.343; 3860.950;  106.875;    0.000
803.533; 3681.950;  154.875;    0.000
803.722; 3733.950;   97.875;    0.000
803.911; 3719.950;  107.875;    0.000
804.101; 3733.950;  145.875;    0.000
804.290; 3665.950;  130.875;    0.000
804.479; 3768.950;  152.875;    0.000
804.668; 3724.950;  160.875;    0.000
804.857; 3647.950;  161.875;    0.000
805.047; 3850.950;  126.875;    0.000
805.236; 3780.950;  136.875;    0.000
805.425; 3833.950;  153.875;    0.000
805.614; 3761.950;  139.875;    0.000
805.803; 3855.950;  144.875;    0.000
805.992; 3720.950;  160.875;    0.000
806.181; 3781.950;  139.875;    0.000
806.370; 3792.950;  104.875;    0.000
806.559; 3784.950;  103.875;    0.000
806.748; 3783.950;  145.875;    0.000
806.937; 3867.950;  151.875;    0.000
807.126; 3828.950;  119.875;    0.000
807.315; 3785.950;  139.875;    0.000
807.504; 3841.950;  143.875;    0.000
807.693; 3875.950;  164.875;    0.000
807.882; 3835.950;  135.875;    0.000
808.071; 3853.950;  131.875;    0.000
808.260; 3834.950;  113.875;    0.000
808.448; 3842.950;  161.875;    0.000
808.637; 4001.950;  125.875;    0.000
808.826; 3847.950;  155.875;    0.000
809.015; 3968.950;  113.875;    0.000
809.203; 4016.950;  152.875;    0.000
809.392; 3910.950;   90.875;    0.000
809.581; 4136.950;  186.875;    0.000
809.770; 3953.950;   99.875;    0.000
809.958; 4029.950;  146.875;    0.000
810.147; 4075.950;  115.875;    0.000
810.335; 4098.950;  122.875;    0.000
810.524; 4181.950;  150.875;    0.000
810.713; 4082.950;  121.875;    0.000
810.901; 4180.950;  156.875;    0.000
811.090; 4269.950;  161.875;    0.000
811.278; 4166.950;  138.875;    0.000
811.467; 4344.950;  184.875;    0.000
811.655; 4516.950;  150.875;    0.000
811.844; 4437.950;  137.875;    0.000
812.032; 4432.950;  142.875;    0.000
812.220; 4478.950;  134.875;    0.000
812.409; 4491.950;  143.875;    0.000
812.597; 4543.950;  164.875;    0.000
812.785; 4606.950;  188.875;    0.000
812.974; 4655.950;  156.875;    0.000
813.162; 4636.950;  166.875;    0.000
813.350; 4567.950;  115.875;    0.000
813.539; 4707.950;  167.875;    0.000
813.727; 4830.950;  165.875;    0.000
813.915; 4763.950;  137.875;    0.000
814.103; 4873.950;  166.875;    0.000
814.291; 5041.950;  151.875;    0.000
814.479; 5105.950;  147.875;    0.000
814.668; 5090.950;  166.875;    0.000
814.856; 5251.950;  160.875;    0.000
815.044; 5360.950;  172.875;    0.000
815.232; 5478.950;  193.875;    0.000
815.420; 5554.950;  173.875;    0.000
815.608; 5650.950;  134.875;    0.000
815.796; 5867.950;  105.875;    0.000
815.984; 5917.950;  125.875;    0.000
816.172; 6222.950;  160.875;    0.000
816.360; 6404.950;  162.875;    0.000
816.548; 6788.950;  160.875;    0.000
816.736; 7005.950;  132.875;    0.000
816.924; 7378.950;  184.875;    0.000
817.111; 7834.950;  145.875;    0.000
817.299; 8441.950;  132.875;    0.000
817.487; 9219.950;  193.875;    0.000
817.675;10466.950;  153.875;    0.000
817.863;12496.950;  153.875;    0.000
818.050;16766.949;  172.875;    0.000
818.238;26864.949;  131.875;    0.000
818.426;35765.949;  160.875;    0.000
818.613;28312.949;  136.875;    0.000
818.801;23529.949;  162.875;    0.000
818.989;22500.949;  153.875;    0.000
819.176;24267.949;  181.875;    0.000
819.364;32758.949;  165.875;    0.000
819.552;42419.949;  111.875;    0.000
819.739;34556.949;  192.875;    0.000
819.927;27383.949;  146.875;    0.000
820.114;22937.949;  154.875;    0.000
820.302;19754.949;  144.875;    0.000
820.489;17529.949;  133.875;    0.000
820.677;15979.950;  135.875;    0.000
820.864;14905.950;  130.875;    0.000
821.052;14344.950;   88.875;    0.000
821.239;13672.950;  143.875;    0.000
821.426;13630.950;  186.875;    0.000
821.614;14255.950;  171.875;    0.000
821.801;14518.950;   90.875;    0.000
821.988;13159.950;  143.875;    0.000
822.176;12743.950;   95.875;    0.000
822.363;12396.950;  148.875;    0.000
822.550;11843.950;  139.875;    0.000
822.737;10816.950;  122.875;    0.000
822.924;10007.950;  171.875;    0.000
823.112; 9879.950;  147.875;    0.000
823.299; 9265.950;  111.875;    0.000
823.486; 8845.950;  161.875;    0.000
823.673; 8457.950;  124.875;    0.000
823.860; 8181.950;  151.875;    0.000
824.047; 8187.950;  145.875;    0.000
824.234; 8384.950;  139.875;    0.000
824.421; 8380.950;  110.875;    0.000
824.608; 7784.950;  145.875;    0.000
824.795; 7228.950;  115.875;    0.000
824.982; 6841.950;  148.875;    0.000
825.169; 6683.950;  135.875;    0.000
825.356; 6273.950;  122.875;    0.000
825.543; 6125.950;  142.875;    0.000
825.730; 5973.950;   89.875;    0.000
825.917; 5812.950;  127.875;    0.000
826.104; 5611.950;  187.875;    0.000
826.290; 5582.950;  138.875;    0.000
826.477; 5412.950;  140.875;    0.000
826.664; 5198.950;  106.875;    0.000
826.851; 5205.950;  155.875;    0.000
827.038; 5053.950;  125.875;    0.000
827.224; 4846.950;  126.875;    0.000
827.411; 4863.950;  163.875;    0.000
827.598; 4756.950;  140.875;    0.000
827.784; 4580.950;  117.875;    0.000
827.971; 4650.950;  114.875;    0.000
828.157; 4520.950;  146.875;    0.000
828.344; 4467.950;  161.875;    0.000
828.531; 4335.950;  155.875;    0.000
828.717; 4329.950;  130.875;    0.000
828.904; 4270.950;  138.875;    0.000
829.090; 4215.950;  176.875;    0.000
829.277; 4185.950;  152.875;    0.000
829.463; 4079.950;  139.875;    0.000
829.650; 4022.950;  168.875;    0.000
829.836; 3924.950;  176.875;    0.000
830.022; 4019.950;  159.875;    0.000
830.209; 4028.950;  135.875;    0.000
830.395; 3973.950;  177.875;    0.000
830.581; 3806.950;  125.875;    0.000
830.768; 3771.950;  155.875;    0.000
830.954; 3749.950;  187.875;    0.000
831.140; 3755.950;  135.875;    0.000
831.327; 3782.950;  158.875;    0.000
831.513; 3732.950;  126.875;    0.000
831.699; 3599.950;  167.875;    0.000
831.885; 3604.950;  165.875;    0.000
832.071; 3535.950;  167.875;    0.000
832.257; 3386.950;  144.875;    0.000
832.444; 3457.950;  158.875;    0.000
832.630; 3483.950;  167.875;    0.000
832.816; 3591.950;  150.875;    0.000
833.002; 3467.950;  157.875;    0.000
833.188; 3482.950;  169.875;    0.000
833.374; 3358.950;  144.875;    0.000
833.560; 3423.950;  179.875;    0.000
833.746; 3287.950;  134.875;    0.000
833.932; 3211.950;  150.875;    0.000
834.118; 3174.950;   98.875;    0.000
834.303; 3284.950;  121.875;    0.000
834.489; 3139.950;  179.875;    0.000
834.675; 3287.950;  136.875;    0.000
834.861; 3133.950;  130.875;    0.000
835.047; 3158.950;  132.875;    0.000
835.233; 3099.950;  104.875;    0.000
835.418; 3211.950;  143.875;    0.000
835.604; 3087.950;  127.875;    0.000
835.790; 3086.950;  138.875;    0.000
835.976; 3060.950;  137.875;    0.000
836.161; 3133.950;  155.875;    0.000
836.347; 2991.950;  101.875;    0.000
836.533; 2927.950;  121.875;    0.000
836.718; 3034.950;  150.875;    0.000
836.904; 3003.950;  168.875;    0.000
837.089; 2980.950;  169.875;    0.000
837.275; 3019.950;  172.875;    0.000
837.460; 2983.950;  140.875;    0.000
837.646; 3078.950;  144.875;    0.000
837.831; 3047.950;  137.875;    0.000
838.017; 2959.950;  176.875;    0.000
838.202; 3039.950;  107.875;    0.000
838.388; 3001.950;  181.875;    0.000
838.573; 2934.950;  151.875;    0.000
838.759; 3011.950;  160.875;    0.000
838.944; 2899.950;  121.875;    0.000
839.129; 2911.950;  145.875;    0.000
839.315; 2854.950;  166.875;    0.000
839.500; 2908.950;  143.875;    0.000
839.685; 2867.950;   93.875;    0.000
839.870; 2923.950;  160.875;    0.000
840.056; 2865.950;  132.875;    0.000
840.241; 2940.950;  154.875;    0.000
840.426; 2967.950;  161.875;    0.000
840.611; 2893.950;  186.875;    0.000
840.796; 2929.950;  135.875;    0.000
840.981; 2966.950;  147.875;    0.000
841.166; 2989.950;  138.875;    0.000
841.352; 2947.950;  156.875;    0.000
841.537; 3054.950;  170.875;    0.000
841.722; 2928.950;  143.875;    0.000
841.907; 3010.950;  143.875;    0.000
842.092; 3114.950;  166.875;    0.000
842.277; 3067.950;  113.875;    0.000
842.461; 3184.950;  126.875;    0.000
842.646; 3243.950;  145.875;    0.000
842.831; 3282.950;  193.875;    0.000
843.016; 3260.950;  162.875;    0.000
843.201; 3407.950;  144.875;    0.000
843.386; 3383.950;  160.875;    0.000
843.571; 3557.950;  136.875;    0.000
843.755; 3622.950;  134.875;    0.000
843.940; 3931.950;  136.875;    0.000
844.125; 4231.950;  169.875;    0.000
844.310; 4949.950;  189.875;    0.000
844.494; 6162.950;  167.875;    0.000
844.679; 8058.950;  184.875;    0.000
844.864; 7951.950;  147.875;    0.000
845.048; 6787.950;  140.875;    0.000
845.233; 5754.950;  178.875;    0.000
845.418; 5192.950;  145.875;    0.000
845.602; 4602.950;  147.875;    0.000
845.787; 4263.950;  147.875;    0.000
845.971; 3995.950;  165.875;    0.000
846.156; 3826.950;  106.875;    0.000
846.340; 3793.950;  168.875;    0.000
846.525; 3608.950;  155.875;    0.000
846.709; 3371.950;  157.875;    0.000
846.893; 3303.950;  166.875;    0.000
847.078; 3246.950;  138.875;    0.000
847.262; 3174.950;  171.875;    0.000
847.447; 3003.950;  135.875;    0.000
847.631; 2931.950;  136.875;    0.000
847.815; 2847.950;  136.875;    0.000
848.000; 2818.950;  126.875;    0.000
848.184; 2960.950;  131.875;    0.000
848.368; 2801.950;  153.875;    0.000
848.552; 2763.950;  137.875;    0.000
848.736; 2795.950;  151.875;    0.000
848.921; 2668.950;  156.875;    0.000
849.105; 2751.950;  153.875;    0.000
849.289; 2710.950;  180.875;    0.000
849.473; 2613.950;  156.875;    0.000
849.657; 2663.950;  157.875;    0.000
849.841; 2695.950;  147.875;    0.000
850.025; 2605.950;  194.875;    0.000
850.209; 2606.950;  147.875;    0.000
850.393; 2520.950;  141.875;    0.000
850.577; 2501.950;  156.875;    0.000
850.761; 2567.950;  157.875;    0.000
850.945; 2508.950;  128.875;    0.000
851.129; 2560.950;  151.875;    0.000
851.313; 2543.950;  180.875;    0.000
851.497; 2506.950;  123.875;    0.000
851.680; 2483.950;  188.875;    0.000
851.864; 2419.950;  177.875;    0.000
852.048; 2443.950;  163.875;    0.000
852.232; 2521.950;  149.875;    0.000
852.416; 2460.950;  187.875;    0.000
852.599; 2511.950;  169.875;    0.000
852.783; 2493.950;  154.875;    0.000
852.967; 2467.950;  191.875;    0.000
853.150; 2462.950;  170.875;    0.000
853.334; 2467.950;  173.875;    0.000
853.518; 2379.950;  186.875;    0.000
853.701; 2390.950;  142.875;    0.000
853.885; 2371.950;  153.875;    0.000
854.068; 2450.950;  132.875;    0.000
854.252; 2387.950;  184.875;    0.000
854.435; 2433.950;  152.875;    0.000
854.619; 2322.950;  152.875;    0.000
854.802; 2411.950;  164.875;    0.000
854.986; 2434.950;  151.875;    0.000
855.169; 2427.950;  153.875;    0.000
855.353; 2454.950;  183.875;    0.000
855.536; 2344.950;  113.875;    0.000
855.719; 2329.950;  181.875;    0.000
855.903; 2474.950;  159.875;    0.000
856.086; 2419.950;  142.875;    0.000
856.269; 2408.950;  171.875;    0.000
856.452; 2373.950;  132.875;    0.000
856.636; 2462.950;  140.875;    0.000
856.819; 2482.950;  165.875;    0.000
857.002; 2625.950;  170.875;    0.000
857.185; 2503.950;  173.875;    0.000
857.368; 2524.950;  129.875;    0.000
857.552; 2470.950;  151.875;    0.000
857.735; 2502.950;  146.875;    0.000
857.918; 2478.950;  114.875;    0.000
858.101; 2443.950;  152.875;    0.000
858.284; 2531.950;  164.875;    0.000
858.467; 2568.950;  147.875;    0.000
858.650; 2494.950;  146.875;    0.000
858.833; 2546.950;  118.875;    0.000
859.016; 2601.950;  161.875;    0.000
859.199; 2679.950;  135.875;    0.000
859.382; 2863.950;  157.875;    0.000
859.564; 3012.950;  124.875;    0.000
859.747; 2948.950;  154.875;    0.000
859.930; 2778.950;  138.875;    0.000
860.113; 2749.950;  153.875;    0.000
860.296; 2743.950;  180.875;    0.000
860.478; 2685.950;  145.875;    0.000
860.661; 2731.950;  160.875;    0.000
860.844; 2580.950;   96.875;    0.000
861.027; 2614.950;  128.875;    0.000
861.209; 2623.950;  127.875;    0.000
861.392; 2680.950;  126.875;    0.000
861.575; 2653.950;  155.875;    0.000
861.757; 2659.950;  141.875;    0.000
861.940; 2684.950;  181.875;    0.000
862.122; 2647.950;  145.875;    0.000
862.305; 2575.950;  124.875;    0.000
862.487; 2792.950;  151.875;    0.000
862.670; 3031.950;  132.875;    0.000
862.852; 3195.950;  112.875;    0.000
863.035; 3767.950;  116.875;    0.000
863.217; 3731.950;  131.875;    0.000
863.400; 3559.950;  145.875;    0.000
863.582; 3351.950;  147.875;    0.000
863.764; 3245.950;  163.875;    0.000
863.947; 3031.950;  129.875;    0.000
864.129; 3059.950;  159.875;    0.000
864.311; 2965.950;  144.875;    0.000
864.493; 3025.950;  141.875;    0.000
864.676; 2992.950;  159.875;    0.000
864.858; 2853.950;  146.875;    0.000
865.040; 2877.950;  163.875;    0.000
865.222; 2926.950;  133.875;    0.000
865.404; 2906.950;  148.875;    0.000
865.587; 3069.950;  177.875;    0.000
865.769; 3142.950;  172.875;    0.000
865.951; 3106.950;  145.875;    0.000
866.133; 3084.950;  168.875;    0.000
866.315; 3098.950;  147.875;    0.000
866.497; 3122.950;  164.875;    0.000
866.679; 3238.950;  143.875;    0.000
866.861; 3282.950;  170.875;    0.000
867.043; 3401.950;  185.875;    0.000
867.225; 3586.950;  149.875;    0.000
867.407; 3874.950;  143.875;    0.000
867.589; 4210.950;  169.875;    0.000
867.770; 4900.950;  166.875;    0.000
867.952; 6498.950;  158.875;    0.000
868.134; 8002.950;  170.875;    0.000
868.316; 8202.950;  157.875;    0.000
868.498; 7924.950;  186.875;    0.000
868.679; 7049.950;  158.875;    0.000
868.861; 6110.950;  180.875;    0.000
869.043; 5142.950;  164.875;    0.000
869.224; 4568.950;  156.875;    0.000
869.406; 4309.950;  176.875;    0.000
869.588; 4154.950;  152.875;    0.000
869.769; 3898.950;  131.875;    0.000
869.951; 3910.950;  203.875;    0.000
870.132; 3903.950;  143.875;    0.000
870.314; 4210.950;  129.875;    0.000
870.495; 4270.950;  175.875;    0.000
870.677; 3984.950;  165.875;    0.000
870.858; 3798.950;  151.875;    0.000
871.040; 3957.950;  155.875;    0.000
871.221; 4270.950;  144.875;    0.000
871.403; 4262.950;  131.875;    0.000
871.584; 3981.950;  174.875;    0.000
871.765; 4024.950;  169.875;    0.000
871.947; 4202.950;  187.875;    0.000
872.128; 3794.950;  181.875;    0.000
872.309; 3352.950;  129.875;    0.000
872.491; 3196.950;  142.875;    0.000
872.672; 3137.950;  158.875;    0.000
872.853; 3042.950;  179.875;    0.000
873.034; 2972.950;  164.875;    0.000
873.215; 2903.950;  168.875;    0.000
873.396; 2785.950;  114.875;    0.000
873.578; 2578.950;  126.875;    0.000
873.759; 2632.950;  177.875;    0.000
873.940; 2557.950;  169.875;    0.000
874.121; 2451.950;  133.875;    0.000
874.302; 2418.950;  164.875;    0.000
874.483; 2390.950;  162.875;    0.000
874.664; 2557.950;  140.875;    0.000
874.845; 2354.950;  124.875;    0.000
875.026; 2433.950;  146.875;    0.000
875.207; 2364.950;  147.875;    0.000
875.388; 2246.950;  174.875;    0.000
875.568; 2366.950;  179.875;    0.000
875.749; 2284.950;  155.875;    0.000
875.930; 2330.950;  166.875;    0.000
876.111; 2253.950;  153.875;    0.000
876.292; 2246.950;  146.875;    0.000
876.472; 2188.950;  167.875;    0.000
876.653; 2193.950;  145.875;    0.000
876.834; 2120.950;  172.875;    0.000
877.015; 2154.950;  184.875;    0.000
877.195; 2144.950;  160.875;    0.000
877.376; 2145.950;  163.875;    0.000
877.556; 2188.950;  164.875;    0.000
877.737; 2165.950;  179.875;    0.000
877.918; 2038.950;  137.875;    0.000
878.098; 2047.950;  117.875;    0.000
878.279; 2084.950;  135.875;    0.000
878.459; 2045.950;  149.875;    0.000
878.640; 2056.950;  171.875;    0.000
878.820; 2018.950;  142.875;    0.000
879.000; 1969.950;  166.875;    0.000
879.181; 2035.950;  177.875;    0.000
879.361; 2026.950;  176.875;    0.000
879.542; 2045.950;  159.875;    0.000
879.722; 2034.950;  122.875;    0.000
879.902; 2090.950;  166.875;    0.000
880.083; 2121.950;  164.875;    0.000
880.263; 2096.950;  139.875;    0.000
880.443; 2152.950;  179.875;    0.000
880.623; 2314.950;  154.875;    0.000
880.803; 2528.950;  160.875;    0.000
880.984; 2296.950;  181.875;    0.000
881.164; 2243.950;  167.875;    0.000
881.344; 2167.950;  141.875;    0.000
881.524; 2212.950;  190.875;    0.000
881.704; 2119.950;  165.875;    0.000
881.884; 2189.950;  144.875;    0.000
882.064; 2317.950;  135.875;    0.000
882.244; 2383.950;  186.875;    0.000
882.424; 2221.950;  150.875;    0.000
882.604; 2237.950;  168.875;    0.000
882.784; 2156.950;  155.875;    0.000
882.964; 2138.950;  137.875;    0.000
883.144; 2065.950;  136.875;    0.000
883.324; 2122.950;  200.875;    0.000
883.504; 2078.950;  203.875;    0.000
883.683; 1947.950;  149.875;    0.000
883.863; 1982.950;  160.875;    0.000
884.043; 1970.950;  161.875;    0.000
884.223; 1952.950;  147.875;    0.000
884.402; 1972.950;  175.875;    0.000
884.582; 2001.950;  188.875;    0.000
884.762; 1930.950;  173.875;    0.000
884.941; 1926.950;  164.875;    0.000
885.121; 1963.950;  147.875;    0.000
885.301; 1949.950;  135.875;    0.000
885.480; 2022.950;  145.875;    0.000
885.660; 1930.950;  144.875;    0.000
885.839; 1884.950;  155.875;    0.000
886.019; 1927.950;  207.875;    0.000
886.198; 1898.950;  165.875;    0.000
886.378; 1894.950;  120.875;    0.000
886.557; 1930.950;  133.875;    0.000
886.737; 1761.950;  119.875;    0.000
886.916; 1881.950;  129.875;    0.000
887.095; 1894.950;  158.875;    0.000
887.275; 1864.950;  169.875;    0.000
887.454; 1914.950;  184.875;    0.000
887.633; 1864.950;  143.875;    0.000
887.813; 1922.950;  154.875;    0.000
887.992; 1858.950;  188.875;    0.000
888.171; 1817.950;  176.875;    0.000
888.350; 1892.950;  161.875;    0.000
888.530; 1869.950;  163.875;    0.000
888.709; 1860.950;  136.875;    0.000
888.888; 1876.950;  177.875;    0.000
889.067; 1796.950;  169.875;    0.000
889.246; 1929.950;  188.875;    0.000
889.425; 1834.950;  187.875;    0.000
889.604; 1919.950;  169.875;    0.000
889.783; 1807.950;  182.875;    0.000
889.962; 1811.950;  112.875;    0.000
890.141; 1810.950;  231.875;    0.000
890.320; 1852.950;  161.875;    0.000
890.499; 1803.950;  164.875;    0.000
890.678; 1865.950;  176.875;    0.000
890.857; 1825.950;  163.875;    0.000
891.036; 1786.950;  161.875;    0.000
891.214; 1823.950;  156.875;    0.000
891.393; 1873.950;  167.875;    0.000
891.572; 1832.950;  163.875;    0.000
891.751; 1864.950;  205.875;    0.000
891.930; 1838.950;  162.875;    0.000
892.108; 1883.950;  153.875;    0.000
892.287; 1876.950;  153.875;    0.000
892.466; 1805.950;  201.875;    0.000
892.644; 1727.950;  158.875;    0.000
892.823; 1830.950;  122.875;    0.000
893.001; 1887.950;  148.875;    0.000
893.180; 1783.950;  142.875;    0.000
893.359; 1792.950;  192.875;    0.000
893.537; 1841.950;  166.875;    0.000
893.716; 1868.950;  144.875;    0.000
893.894; 1843.950;  145.875;    0.000
894.073; 1799.950;  180.875;    0.000
894.251; 1789.950;  165.875;    0.000
894.429; 1810.950;  182.875;    0.000
894.608; 1741.950;  181.875;    0.000
894.786; 1783.950;  180.875;    0.000
894.964; 1907.950;  207.875;    0.000
895.143; 1796.950;  190.875;    0.000
895.321; 1738.950;  206.875;    0.000
895.499; 1900.950;  164.875;    0.000
895.677; 1869.950;  199.875;    0.000
895.856; 1869.950;  203.875;    0.000
896.034; 1813.950;  200.875;    0.000
896.212; 1850.950;  198.875;    0.000
896.390; 1773.950;  161.875;    0.000
896.568; 1854.950;  205.875;    0.000
896.746; 1916.950;  185.875;    0.000
896.924; 1824.950;  179.875;    0.000
897.102; 1894.950;  190.875;    0.000
897.280; 1844.950;  160.875;    0.000
897.458; 1888.950;  196.875;    0.000
897.636; 1857.950;  168.875;    0.000
897.814; 1845.950;  159.875;    0.000
897.992; 1864.950;  216.875;    0.000
898.170; 1835.950;  195.875;    0.000
898.348; 1891.950;  185.875;    0.000
898.526; 1908.950;  199.875;    0.000
898.704; 1936.950;  215.875;    0.000
898.882; 1895.950;  195.875;    0.000
899.059; 1883.950;  197.875;    0.000
899.237; 1927.950;  168.875;    0.000
899.415; 1853.950;  221.875;    0.000
899.593; 1851.950;  171.875;    0.000
899.770; 1933.950;  191.875;    0.000
899.948; 1859.950;  206.875;    0.000
900.125; 1937.950;  175.875;    0.000
900.303; 1946.950;  176.875;    0.000
900.481; 1825.950;  199.875;    0.000
900.658; 1896.950;  217.875;    0.000
900.836; 1915.950;  192.875;    0.000
901.013; 1910.950;  221.875;    0.000
901.191; 1910.950;  203.875;    0.000
901.368; 1950.950;  189.875;    0.000
901.546; 1957.950;  212.875;    0.000
901.723; 2059.950;  189.875;    0.000
901.901; 2046.950;  198.875;    0.000
902.078; 2044.950;  193.875;    0.000
902.255; 2016.950;  176.875;    0.000
902.433; 2098.950;  201.875;    0.000
902.610; 2089.950;  170.875;    0.000
902.787; 2062.950;  164.875;    0.000
902.964; 2109.950;  216.875;    0.000
903.142; 2121.950;  153.875;    0.000
903.319; 2152.950;  204.875;    0.000
903.496; 2186.950;  188.875;    0.000
903.673; 2248.950;  209.875;    0.000
903.850; 2148.950;  173.875;    0.000
904.027; 2272.950;  186.875;    0.000
904.204; 2365.950;  241.875;    0.000
904.381; 2460.950;  187.875;    0.000
904.558; 2639.950;  196.875;    0.000
904.735; 2875.950;  206.875;    0.000
904.912; 2837.950;  228.875;    0.000
905.089; 2892.950;  172.875;    0.000
905.266; 2727.950;  175.875;    0.000
905.443; 2649.950;  239.875;    0.000
905.620; 2587.950;  176.875;    0.000
905.797; 2414.950;  205.875;    0.000
905.974; 2311.950;  187.875;    0.000
906.151; 2397.950;  135.875;    0.000
906.327; 2426.950;  209.875;    0.000
906.504; 2283.950;  145.875;    0.000
906.681; 2240.950;  178.875;    0.000
906.858; 2225.950;  179.875;    0.000
907.034; 2254.950;  221.875;    0.000
907.211; 2192.950;  166.875;    0.000
907.388; 2177.950;  206.875;    0.000
907.564; 2223.950;  150.875;    0.000
907.741; 2134.950;  187.875;    0.000
907.917; 2096.950;  180.875;    0.000
908.094; 2063.950;  206.875;    0.000
908.271; 2098.950;  184.875;    0.000
908.447; 2077.950;  212.875;    0.000
908.623; 2048.950;  193.875;    0.000
908.800; 1971.950;  185.875;    0.000
908.976; 2001.950;  202.875;    0.000
909.153; 2042.950;  175.875;    0.000
909.329; 1954.950;  193.875;    0.000
909.505; 1941.950;  154.875;    0.000
909.682; 1935.950;  188.875;    0.000
909.858; 1972.950;  162.875;    0.000
910.034; 1956.950;  181.875;    0.000
910.211; 1902.950;  142.875;    0.000
910.387; 1990.950;  200.875;    0.000
910.563; 1879.950;  163.875;    0.000
910.739; 1897.950;  156.875;    0.000
910.915; 1935.950;  202.875;    0.000
911.091; 1934.950;  186.875;    0.000
911.268; 1938.950;  167.875;    0.000
911.444; 1891.950;  193.875;    0.000
911.620; 1908.950;  175.875;    0.000
911.796; 1931.950;  168.875;    0.000
911.972; 1906.950;  154.875;    0.000
912.148; 1926.950;  201.875;    0.000
912.324; 1935.950;  146.875;    0.000
912.500; 1901.950;  185.875;    0.000
912.676; 1971.950;  183.875;    0.000
912.851; 1962.950;  204.875;    0.000
913.027; 1924.950;  196.875;    0.000
913.203; 1895.950;  174.875;    0.000
913.379; 1890.950;  210.875;    0.000
913.555; 1899.950;  197.875;    0.000
913.730; 1860.950;  209.875;    0.000
913.906; 1923.950;  169.875;    0.000
914.082; 1911.950;  236.875;    0.000
914.258; 1960.950;  216.875;    0.000
914.433; 1917.950;  212.875;    0.000
914.609; 1937.950;  180.875;    0.000
914.784; 1899.950;  176.875;    0.000
914.960; 1931.950;  227.875;    0.000
915.136; 1921.950;  149.875;    0.000
915.311; 1922.950;  165.875;    0.000
915.487; 1892.950;  167.875;    0.000
915.662; 1927.950;  225.875;    0.000
915.838; 1907.950;  165.875;    0.000
916.013; 1928.950;  188.875;    0.000
916.189; 1930.950;  200.875;    0.000
916.364; 1945.950;  201.875;    0.000
916.539; 1959.950;  240.875;    0.000
916.715; 1871.950;  180.875;    0.000
916.890; 1967.950;  191.875;    0.000
917.065; 1902.950;  211.875;    0.000
917.240; 1842.950;  212.875;    0.000
917.416; 1933.950;  207.875;    0.000
917.591; 1921.950;  189.875;    0.000
917.766; 2015.950;  205.875;    0.000
917.941; 1938.950;  191.875;    0.000
918.116; 1878.950;  195.875;    0.000
918.292; 1924.950;  183.875;    0.000
918.467; 1908.950;  206.875;    0.000
918.642; 1857.950;  190.875;    0.000
918.817; 2024.950;  193.875;    0.000
918.992; 1846.950;  171.875;    0.000
919.167; 1947.950;  191.875;    0.000
919.342; 2021.950;  202.875;    0.000
919.517; 1976.950;  182.875;    0.000
919.692; 1967.950;  190.875;    0.000
919.867; 1950.950;  221.875;    0.000
920.041; 1987.950;  195.875;    0.000
920.216; 2000.950;  226.875;    0.000
920.391; 2057.950;  230.875;    0.000
920.566; 2047.950;  210.875;    0.000
920.741; 2132.950;  204.875;    0.000
920.915; 2243.950;  213.875;    0.000
921.090; 2343.950;  194.875;    0.000
921.265; 2708.950;  234.875;    0.000
921.439; 3021.950;  228.875;    0.000
921.614; 2763.950;  199.875;    0.000
921.789; 2557.950;  194.875;    0.000
921.963; 2357.950;  236.875;    0.000
922.138; 2345.950;  192.875;    0.000
922.312; 2412.950;  203.875;    0.000
922.487; 2377.950;  207.875;    0.000
922.661; 2502.950;  216.875;    0.000
922.836; 2672.950;  199.875;    0.000
923.010; 2816.950;  179.875;    0.000
923.185; 2567.950;  241.875;    0.000
923.359; 2404.950;  199.875;    0.000
923.534; 2410.950;  227.875;    0.000
923.708; 2497.950;  213.875;    0.000
923.882; 2593.950;  203.875;    0.000
924.057; 2529.950;  194.875;    0.000
924.231; 2389.950;  185.875;    0.000
924.405; 2374.950;  223.875;    0.000
924.579; 2322.950;  196.875;    0.000
924.753; 2296.950;  209.875;    0.000
924.928; 2270.950;  202.875;    0.000
925.102; 2222.950;  184.875;    0.000
925.276; 2284.950;  191.875;    0.000
925.450; 2246.950;  199.875;    0.000
925.624; 2319.950;  190.875;    0.000
925.798; 2278.950;  214.875;    0.000
925.972; 2384.950;  193.875;    0.000
926.146; 2403.950;  191.875;    0.000
926.320; 2618.950;  177.875;    0.000
926.494; 2701.950;  190.875;    0.000
926.668; 2878.950;  182.875;    0.000
926.842; 2855.950;  182.875;    0.000
927.016; 3007.950;  235.875;    0.000
927.190; 2986.950;  234.875;    0.000
927.363; 2836.950;  214.875;    0.000
927.537; 2748.950;  198.875;    0.000
927.711; 2655.950;  154.875;    0.000
927.885; 2577.950;  167.875;    0.000
928.058; 2638.950;  210.875;    0.000
928.232; 2545.950;  206.875;    0.000
928.406; 2513.950;  176.875;    0.000
928.579; 2515.950;  182.875;    0.000
928.753; 2446.950;  179.875;    0.000
928.927; 2354.950;  186.875;    0.000
929.100; 2378.950;  188.875;    0.000
929.274; 2350.950;  167.875;    0.000
929.447; 2223.950;  152.875;    0.000
929.621; 2308.950;  195.875;    0.000
929.794; 2260.950;  200.875;    0.000
929.968; 2226.950;  203.875;    0.000
930.141; 2234.950;  237.875;    0.000
930.315; 2179.950;  165.875;    0.000
930.488; 2211.950;  175.875;    0.000
930.661; 2243.950;  173.875;    0.000
930.835; 2228.950;  171.875;    0.000
931.008; 2170.950;  210.875;    0.000
931.181; 2105.950;  206.875;    0.000
931.354; 2089.950;  195.875;    0.000
931.528; 2083.950;  178.875;    0.000
931.701; 2131.950;  179.875;    0.000
931.874; 2048.950;  150.875;    0.000
932.047; 2016.950;  154.875;    0.000
932.220; 1998.950;  185.875;    0.000
932.393; 1999.950;  166.875;    0.000
932.566; 2017.950;  171.875;    0.000
932.739; 1949.950;  196.875;    0.000
932.912; 1959.950;  212.875;    0.000
933.085; 1974.950;  234.875;    0.000
933.258; 1983.950;  212.875;    0.000
933.431; 1996.950;  181.875;    0.000
933.604; 1960.950;  201.875;    0.000
933.777; 1955.950;  201.875;    0.000
933.950; 1888.950;  176.875;    0.000
934.123; 1913.950;  175.875;    0.000
934.296; 1887.950;  174.875;    0.000
934.468; 1959.950;  186.875;    0.000
934.641; 1873.950;  192.875;    0.000
934.814; 1911.950;  187.875;    0.000
934.987; 1916.950;  165.875;    0.000
935.159; 1903.950;  162.875;    0.000
935.332; 2027.950;  210.875;    0.000
935.505; 1964.950;  191.875;    0.000
935.677; 1887.950;  159.875;    0.000
935.850; 1917.950;  170.875;    0.000
936.022; 1907.950;  172.875;    0.000
936.195; 1989.950;  202.875;    0.000
936.367; 1919.950;  179.875;    0.000
936.540; 1909.950;  207.875;    0.000
936.712; 2034.950;  200.875;    0.000
936.885; 1981.950;  219.875;    0.000
937.057; 1944.950;  150.875;    0.000
937.229; 1901.950;  187.875;    0.000
937.402; 1980.950;  169.875;    0.000
937.574; 1990.950;  127.875;    0.000
937.746; 2002.950;  171.875;    0.000
937.919; 2099.950;  176.875;    0.000
938.091; 2130.950;  193.875;    0.000
938.263; 2269.950;  200.875;    0.000
938.435; 2382.950;  181.875;    0.000
938.608; 2534.950;  191.875;    0.000
938.780; 2837.950;  173.875;    0.000
938.952; 2896.950;  184.875;    0.000
939.124; 2902.950;  171.875;    0.000
939.296; 3222.950;  156.875;    0.000
939.468; 3298.950;  147.875;    0.000
939.640; 2980.950;  186.875;    0.000
939.812; 2909.950;  217.875;    0.000
939.984; 2580.950;  155.875;    0.000
940.156; 2584.950;  191.875;    0.000
940.328; 2416.950;  201.875;    0.000
940.500; 2293.950;  176.875;    0.000
940.672; 2320.950;  190.875;    0.000
940.843; 2195.950;  143.875;    0.000
941.015; 2193.950;  189.875;    0.000
941.187; 2139.950;  172.875;    0.000
941.359; 2164.950;  175.875;    0.000
941.531; 2145.950;  154.875;    0.000
941.702; 2125.950;  183.875;    0.000
941.874; 2070.950;  140.875;    0.000
942.046; 2033.950;  177.875;    0.000
942.217; 1999.950;  147.875;    0.000
942.389; 2050.950;  196.875;    0.000
942.560; 2002.950;  163.875;    0.000
942.732; 2032.950;  187.875;    0.000
942.904; 1898.950;  226.875;    0.000
943.075; 1909.950;  159.875;    0.000
943.247; 1812.950;  209.875;    0.000
943.418; 1780.950;  167.875;    0.000
943.589; 1881.950;  195.875;    0.000
943.761; 1892.950;  190.875;    0.000
943.932; 1910.950;  187.875;    0.000
944.104; 1879.950;  194.875;    0.000
944.275; 1843.950;  177.875;    0.000
944.446; 1794.950;  155.875;    0.000
944.617; 1761.950;  176.875;    0.000
944.789; 1842.950;  171.875;    0.000
944.960; 1825.950;  172.875;    0.000
945.131; 1837.950;  158.875;    0.000
945.302; 1826.950;  201.875;    0.000
945.473; 1764.950;  141.875;    0.000
945.645; 1808.950;  197.875;    0.000
945.816; 1826.950;  165.875;    0.000
945.987; 1824.950;  190.875;    0.000
946.158; 1874.950;  158.875;    0.000
946.329; 1901.950;  160.875;    0.000
946.500; 1801.950;  190.875;    0.000
946.671; 1738.950;  152.875;    0.000
946.842; 1797.950;  182.875;    0.000
947.013; 1810.950;  160.875;    0.000
947.183; 1804.950;  203.875;    0.000
947.354; 1750.950;  174.875;    0.000
947.525; 1718.950;  173.875;    0.000
947.696; 1752.950;  170.875;    0.000
947.867; 1780.950;  187.875;    0.000
948.037; 1677.950;  165.875;    0.000
948.208; 1734.950;  154.875;    0.000
948.379; 1728.950;  176.875;    0.000
948.550; 1779.950;  176.875;    0.000
948.720; 1721.950;  169.875;    0.000
948.891; 1770.950;  216.875;    0.000
949.061; 1714.950;  200.875;    0.000
949.232; 1763.950;  163.875;    0.000
949.403; 1715.950;  157.875;    0.000
949.573; 1690.950;  158.875;    0.000
949.744; 1714.950;  213.875;    0.000
949.914; 1664.950;  177.875;    0.000
950.085; 1701.950;  195.875;    0.000
950.255; 1703.950;  166.875;    0.000
950.425; 1686.950;  196.875;    0.000
950.596; 1730.950;  176.875;    0.000
950.766; 1681.950;  228.875;    0.000
950.936; 1748.950;  185.875;    0.000
951.107; 1637.950;  178.875;    0.000
951.277; 1666.950;  227.875;    0.000
951.447; 1714.950;  219.875;    0.000
951.617; 1720.950;  219.875;    0.000
951.788; 1693.950;  198.875;    0.000
951.958; 1688.950;  202.875;    0.000
952.128; 1650.950;  197.875;    0.000
952.298; 1648.950;  211.875;    0.000
952.468; 1685.950;  233.875;    0.000
952.638; 1668.950;  222.875;    0.000
952.808; 1555.950;  210.875;    0.000
952.978; 1656.950;  216.875;    0.000
953.148; 1687.950;  203.875;    0.000
953.318; 1682.950;  212.875;    0.000
953.488; 1647.950;  156.875;    0.000
953.658; 1645.950;  226.875;    0.000
953.828; 1585.950;  223.875;    0.000
953.998; 1619.950;  209.875;    0.000
954.167; 1668.950;  203.875;    0.000
954.337; 1593.950;  209.875;    0.000
954.507; 1756.950;  252.875;    0.000
954.677; 1640.950;  207.875;    0.000
954.846; 1637.950;  240.875;    0.000
955.016; 1653.950;  197.875;    0.000
955.186; 1624.950;  208.875;    0.000
955.355; 1611.950;  243.875;    0.000
955.525; 1637.950;  211.875;    0.000
955.695; 1588.950;  187.875;    0.000
955.864; 1680.950;  204.875;    0.000
956.034; 1607.950;  199.875;    0.000
956.203; 1567.950;  257.875;    0.000
956.373; 1468.950;  193.875;    0.000
956.542; 1633.950;  187.875;    0.000
956.711; 1615.950;  259.875;    0.000
956.881; 1589.950;  227.875;    0.000
957.050; 1631.950;  260.875;    0.000
957.220; 1669.950;  246.875;    0.000
957.389; 1552.950;  211.875;    0.000
957.558; 1605.950;  197.875;    0.000
957.727; 1594.950;  227.875;    0.000
957.897; 1615.950;  219.875;    0.000
958.066; 1654.950;  180.875;    0.000
958.235; 1581.950;  179.875;    0.000
958.404; 1566.950;  194.875;    0.000
958.573; 1618.950;  235.875;    0.000
958.743; 1543.950;  191.875;    0.000
958.912; 1554.950;  181.875;    0.000
959.081; 1596.950;  193.875;    0.000
959.250; 1550.950;  180.875;    0.000
959.419; 1594.950;  205.875;    0.000
959.588; 1569.950;  241.875;    0.000
959.757; 1512.950;  202.875;    0.000
959.926; 1545.950;  212.875;    0.000
960.094; 1526.950;  199.875;    0.000
960.263; 1568.950;  226.875;    0.000
960.432; 1534.950;  188.875;    0.000
960.601; 1415.950;  200.875;    0.000
960.770; 1484.950;  197.875;    0.000
960.939; 1560.950;  195.875;    0.000
961.107; 1531.950;  198.875;    0.000
961.276; 1512.950;  151.875;    0.000
961.445; 1553.950;  227.875;    0.000
961.613; 1497.950;  186.875;    0.000
961.782; 1533.950;  187.875;    0.000
961.951; 1465.950;  194.875;    0.000
962.119; 1527.950;  227.875;    0.000
962.288; 1502.950;  181.875;    0.000
962.456; 1456.950;  206.875;    0.000
962.625; 1478.950;  181.875;    0.000
962.793; 1500.950;  216.875;    0.000
962.962; 1527.950;  237.875;    0.000
963.130; 1526.950;  194.875;    0.000
963.298; 1487.950;  190.875;    0.000
963.467; 1512.950;  204.875;    0.000
963.635; 1509.950;  159.875;    0.000
963.803; 1517.950;  208.875;    0.000
963.972; 1518.950;  206.875;    0.000
964.140; 1485.950;  178.875;    0.000
964.308; 1519.950;  185.875;    0.000
964.477; 1478.950;  189.875;    0.000
964.645; 1520.950;  201.875;    0.000
964.813; 1458.950;  200.875;    0.000
964.981; 1530.950;  160.875;    0.000
965.149; 1523.950;  230.875;    0.000
965.317; 1608.950;  214.875;    0.000
965.485; 1511.950;  190.875;    0.000
965.653; 1506.950;  239.875;    0.000
965.821; 1516.950;  211.875;    0.000
965.989; 1489.950;  216.875;    0.000
966.157; 1463.950;  198.875;    0.000
966.325; 1579.950;  200.875;    0.000
966.493; 1500.950;  187.875;    0.000
966.661; 1481.950;  181.875;    0.000
966.829; 1474.950;  181.875;    0.000
966.996; 1465.950;  220.875;    0.000
967.164; 1501.950;  179.875;    0.000
967.332; 1565.950;  203.875;    0.000
967.500; 1552.950;  200.875;    0.000
967.667; 1608.950;  196.875;    0.000
967.835; 1498.950;  199.875;    0.000
968.003; 1560.950;  191.875;    0.000
968.170; 1502.950;  141.875;    0.000
968.338; 1527.950;  185.875;    0.000
968.505; 1483.950;  199.875;    0.000
968.673; 1578.950;  191.875;    0.000
968.841; 1449.950;  165.875;    0.000
969.008; 1556.950;  192.875;    0.000
969.175; 1487.950;  172.875;    0.000
969.343; 1515.950;  191.875;    0.000
969.510; 1498.950;  199.875;    0.000
969.678; 1520.950;  156.875;    0.000
969.845; 1491.950;  191.875;    0.000
970.012; 1589.950;  205.875;    0.000
970.180; 1499.950;  201.875;    0.000
970.347; 1512.950;  229.875;    0.000
970.514; 1523.950;  207.875;    0.000
970.681; 1551.950;  169.875;    0.000
970.849; 1494.950;  196.875;    0.000
971.016; 1529.950;  212.875;    0.000
971.183; 1487.950;  178.875;    0.000
971.350; 1527.950;  193.875;    0.000
971.517; 1573.950;  190.875;    0.000
971.684; 1534.950;  261.875;    0.000
971.851; 1504.950;  203.875;    0.000
972.018; 1571.950;  184.875;    0.000
972.185; 1509.950;  226.875;    0.000
972.352; 1470.950;  180.875;    0.000
972.519; 1512.950;  226.875;    0.000
972.686; 1493.950;  233.875;    0.000
972.853; 1523.950;  173.875;    0.000
973.020; 1472.950;  208.875;    0.000
973.186; 1528.950;  173.875;    0.000
973.353; 1517.950;  218.875;    0.000
973.520; 1582.950;  218.875;    0.000
973.687; 1481.950;  176.875;    0.000
973.853; 1505.950;  203.875;    0.000
974.020; 1505.950;  196.875;    0.000
974.187; 1528.950;  188.875;    0.000
974.353; 1478.950;  230.875;    0.000
974.520; 1528.950;  195.875;    0.000
974.687; 1468.950;  209.875;    0.000
974.853; 1514.950;  189.875;    0.000
975.020; 1427.950;  179.875;    0.000
975.186; 1558.950;  204.875;    0.000
975.353; 1483.950;  201.875;    0.000
975.519; 1445.950;  200.875;    0.000
975.685; 1472.950;  176.875;    0.000
975.852; 1377.950;  197.875;    0.000
976.018; 1528.950;  201.875;    0.000
976.184; 1413.950;  176.875;    0.000
976.351; 1518.950;  221.875;    0.000
976.517; 1447.950;  203.875;    0.000
976.683; 1450.950;  236.875;    0.000
976.849; 1487.950;  190.875;    0.000
977.016; 1432.950;  173.875;    0.000
977.182; 1436.950;  200.875;    0.000
977.348; 1399.950;  179.875;    0.000
977.514; 1466.950;  159.875;    0.000
977.680; 1505.950;  200.875;    0.000
977.846; 1435.950;  206.875;    0.000
978.012; 1425.950;  219.875;    0.000
978.178; 1399.950;  229.875;    0.000
978.344; 1426.950;  195.875;    0.000
978.510; 1430.950;  209.875;    0.000
978.676; 1433.950;  190.875;    0.000
978.842; 1436.950;  195.875;    0.000
979.008; 1415.950;  186.875;    0.000
979.174; 1412.950;  185.875;    0.000
979.340; 1436.950;  198.875;    0.000
979.505; 1468.950;  214.875;    0.000
979.671; 1427.950;  159.875;    0.000
979.837; 1539.950;  202.875;    0.000
980.003; 1473.950;  190.875;    0.000
980.168; 1469.950;  216.875;    0.000
980.334; 1473.950;  194.875;    0.000
980.499; 1495.950;  229.875;    0.000
980.665; 1521.950;  240.875;    0.000
980.831; 1512.950;  202.875;    0.000
980.996; 1490.950;  179.875;    0.000
981.162; 1504.950;  212.875;    0.000
981.327; 1427.950;  202.875;    0.000
981.493; 1466.950;  219.875;    0.000
981.658; 1373.950;  218.875;    0.000
981.823; 1392.950;  207.875;    0.000
981.989; 1411.950;  207.875;    0.000
982.154; 1493.950;  224.875;    0.000
982.319; 1436.950;  217.875;    0.000
982.485; 1524.950;  266.875;    0.000
982.650; 1579.950;  245.875;    0.000
982.815; 1495.950;  229.875;    0.000
982.980; 1502.950;  203.875;    0.000
983.146; 1481.950;  242.875;    0.000
983.311; 1433.950;  144.875;    0.000
983.476; 1513.950;  222.875;    0.000
983.641; 1371.950;  206.875;    0.000
983.806; 1448.950;  217.875;    0.000
983.971; 1452.950;  254.875;    0.000
984.136; 1460.950;  217.875;    0.000
984.301; 1478.950;  202.875;    0.000
984.466; 1467.950;  206.875;    0.000
984.631; 1479.950;  224.875;    0.000
984.796; 1443.950;  218.875;    0.000
984.961; 1489.950;  202.875;    0.000
985.126; 1490.950;  238.875;    0.000
985.291; 1427.950;  220.875;    0.000
985.455; 1465.950;  223.875;    0.000
985.620; 1463.950;  218.875;    0.000
985.785; 1450.950;  228.875;    0.000
985.950; 1402.950;  212.875;    0.000
986.114; 1361.950;  215.875;    0.000
986.279; 1480.950;  243.875;    0.000
986.444; 1493.950;  222.875;    0.000
986.608; 1460.950;  243.875;    0.000
986.773; 1532.950;  213.875;    0.000
986.937; 1548.950;  267.875;    0.000
987.102; 1541.950;  235.875;    0.000
987.266; 1440.950;  210.875;    0.000
987.431; 1455.950;  239.875;    0.000
987.595; 1455.950;  230.875;    0.000
987.760; 1481.950;  229.875;    0.000
987.924; 1544.950;  217.875;    0.000
988.088; 1481.950;  210.875;    0.000
988.253; 1493.950;  215.875;    0.000
988.417; 1479.950;  186.875;    0.000
988.581; 1464.950;  214.875;    0.000
988.746; 1391.950;  212.875;    0.000
988.910; 1458.950;  192.875;    0.000
989.074; 1458.950;  195.875;    0.000
989.238; 1427.950;  226.875;    0.000
989.402; 1575.950;  214.875;    0.000
989.566; 1453.950;  201.875;    0.000
989.731; 1452.950;  199.875;    0.000
989.895; 1488.950;  205.875;    0.000
990.059; 1441.950;  204.875;    0.000
990.223; 1427.950;  182.875;    0.000
990.387; 1466.950;  220.875;    0.000
990.551; 1447.950;  199.875;    0.000
990.714; 1443.950;  202.875;    0.000
990.878; 1506.950;  201.875;    0.000
991.042; 1429.950;  202.875;    0.000
991.206; 1500.950;  215.875;    0.000
991.370; 1439.950;  217.875;    0.000
991.534; 1417.950;  152.875;    0.000
991.697; 1520.950;  194.875;    0.000
991.861; 1498.950;  208.875;    0.000
992.025; 1489.950;  209.875;    0.000
992.188; 1435.950;  182.875;    0.000
992.352; 1388.950;  181.875;    0.000
992.516; 1511.950;  192.875;    0.000
992.679; 1456.950;  183.875;    0.000
992.843; 1438.950;  156.875;    0.000
993.006; 1467.950;  192.875;    0.000
993.170; 1445.950;  172.875;    0.000
993.333; 1429.950;  195.875;    0.000
993.497; 1413.950;  185.875;    0.000
993.660; 1450.950;  155.875;    0.000
993.824; 1481.950;  199.875;    0.000
993.987; 1468.950;  211.875;    0.000
994.150; 1376.950;  173.875;    0.000
994.314; 1486.950;  202.875;    0.000
994.477; 1450.950;  171.875;    0.000
994.640; 1480.950;  191.875;    0.000
994.803; 1445.950;  203.875;    0.000
994.967; 1447.950;  198.875;    0.000
995.130; 1454.950;  192.875;    0.000
995.293; 1442.950;  211.875;    0.000
995.456; 1463.950;  207.875;    0.000
995.619; 1450.950;  207.875;    0.000
995.782; 1413.950;  186.875;    0.000
995.945; 1484.950;  203.875;    0.000
996.108; 1504.950;  195.875;    0.000
996.271; 1377.950;  195.875;    0.000
996.434; 1468.950;  179.875;    0.000
996.597; 1506.950;  170.875;    0.000
996.760; 1427.950;  161.875;    0.000
996.923; 1421.950;  177.875;    0.000
997.086; 1488.950;  199.875;    0.000
997.248; 1513.950;  225.875;    0.000
997.411; 1446.950;  194.875;    0.000
997.574; 1439.950;  204.875;    0.000
997.737; 1472.950;  236.875;    0.000
997.899; 1433.950;  191.875;    0.000
998.062; 1428.950;  178.875;    0.000
998.225; 1434.950;  176.875;    0.000
998.387; 1493.950;  203.875;    0.000
998.550; 1455.950;  155.875;    0.000
998.712; 1376.950;  169.875;    0.000
998.875; 1461.950;  234.875;    0.000
999.037; 1422.950;  211.875;    0.000
999.200; 1394.950;  185.875;    0.000
999.362; 1477.950;  199.875;    0.000
999.525; 1373.950;  234.875;    0.000
999.687; 1340.950;  194.875;    0.000
999.849; 1434.950;  223.875;    0.000
1000.012; 1466.950;  222.875;    0.000
1000.174; 1400.950;  187.875;    0.000
1000.336; 1492.950;  204.875;    0.000
1000.499; 1423.950;  240.875;    0.000
1000.661; 1480.950;  215.875;    0.000
1000.823; 1432.950;  206.875;    0.000
1000.985; 1429.950;  197.875;    0.000
1001.147; 1581.950;  221.875;    0.000
1001.309; 1459.950;  207.875;    0.000
1001.471; 1557.950;  227.875;    0.000
1001.633; 1461.950;  208.875;    0.000
1001.796; 1448.950;  158.875;    0.000
1001.958; 1562.950;  210.875;    0.000
1002.119; 1577.950;  223.875;    0.000
1002.281; 1572.950;  211.875;    0.000
1002.443; 1646.950;  227.875;    0.000
1002.605; 1719.950;  186.875;    0.000
1002.767; 1884.950;  242.875;    0.000
1002.929; 1862.950;  219.875;    0.000
1003.091; 1949.950;  191.875;    0.000
1003.252; 2128.950;  233.875;    0.000
1003.414; 2205.950;  214.875;    0.000
1003.576; 2229.950;  186.875;    0.000
1003.738; 2314.950;  175.875;    0.000
1003.899; 2464.950;  237.875;    0.000
1004.061; 2587.950;  220.875;    0.000
1004.222; 2678.950;  186.875;    0.000
1004.384; 2822.950;  216.875;    0.000
1004.546; 2836.950;  203.875;    0.000
1004.707; 2999.950;  216.875;    0.000
1004.869; 3073.950;  219.875;    0.000
1005.030; 2950.950;  188.875;    0.000
1005.191; 2894.950;  223.875;    0.000
1005.353; 2865.950;  227.875;    0.000
1005.514; 2733.950;  235.875;    0.000
1005.675; 2650.950;  201.875;    0.000
1005.837; 2474.950;  199.875;    0.000
1005.998; 2350.950;  219.875;    0.000
1006.159; 2396.950;  235.875;    0.000
1006.321; 2350.950;  199.875;    0.000
1006.482; 2394.950;  222.875;    0.000
1006.643; 2552.950;  195.875;    0.000
1006.804; 2662.950;  205.875;    0.000
1006.965; 2793.950;  199.875;    0.000
1007.126; 2730.950;  231.875;    0.000
1007.287; 2832.950;  208.875;    0.000
1007.448; 2703.950;  205.875;    0.000
1007.609; 2736.950;  256.875;    0.000
1007.770; 2470.950;  231.875;    0.000
1007.931; 2644.950;  223.875;    0.000
1008.092; 2557.950;  217.875;    0.000
1008.253; 2583.950;  236.875;    0.000
1008.414; 2661.950;  197.875;    0.000
1008.575; 2776.950;  233.875;    0.000
1008.736; 2727.950;  193.875;    0.000
1008.896; 2738.950;  238.875;    0.000
1009.057; 2713.950;  245.875;    0.000
1009.218; 2714.950;  240.875;    0.000
1009.379; 2673.950;  210.875;    0.000
1009.539; 2729.950;  234.875;    0.000
1009.700; 2792.950;  228.875;    0.000
1009.860; 2866.950;  238.875;    0.000
1010.021; 2798.950;  199.875;    0.000
1010.182; 2702.950;  214.875;    0.000
1010.342; 2690.950;  216.875;    0.000
1010.503; 2781.950;  207.875;    0.000
1010.663; 2908.950;  258.875;    0.000
1010.823; 2852.950;  243.875;    0.000
1010.984; 2992.950;  268.875;    0.000
1011.144; 2980.950;  217.875;    0.000
1011.305; 2972.950;  237.875;    0.000
1011.465; 3077.950;  216.875;    0.000
1011.625; 3143.950;  195.875;    0.000
1011.785; 3123.950;  201.875;    0.000
1011.946; 3171.950;  200.875;    0.000
1012.106; 3035.950;  206.875;    0.000
1012.266; 3162.950;  227.875;    0.000
1012.426; 3029.950;  221.875;    0.000
1012.586; 3167.950;  198.875;    0.000
1012.746; 3207.950;  215.875;    0.000
1012.906; 3109.950;  226.875;    0.000
1013.066; 3134.950;  221.875;    0.000
1013.226; 3224.950;  202.875;    0.000
1013.386; 3077.950;  210.875;    0.000
1013.546; 3109.950;  243.875;    0.000
1013.706; 3092.950;  200.875;    0.000
1013.866; 3190.950;  232.875;    0.000
1014.026; 3249.950;  206.875;    0.000
1014.186; 3140.950;  222.875;    0.000
1014.346; 3164.950;  233.875;    0.000
1014.505; 3299.950;  241.875;    0.000
1014.665; 3310.950;  225.875;    0.000
1014.825; 3214.950;  196.875;    0.000
1014.985; 3191.950;  234.875;    0.000
1015.144; 3321.950;  232.875;    0.000
1015.304; 3617.950;  214.875;    0.000
1015.464; 3560.950;  210.875;    0.000
1015.623; 3450.950;  219.875;    0.000
1015.783; 3775.950;  216.875;    0.000
1015.942; 4240.950;  267.875;    0.000
1016.102; 4110.950;  234.875;    0.000
1016.261; 3843.950;  230.875;    0.000
1016.420; 4426.950;  225.875;    0.000
1016.580; 4959.950;  205.875;    0.000
1016.739; 4813.950;  199.875;    0.000
1016.899; 4486.950;  218.875;    0.000
1017.058; 4769.950;  204.875;    0.000
1017.217; 5270.950;  196.875;    0.000
1017.376; 4957.950;  204.875;    0.000
1017.536; 4394.950;  195.875;    0.000
1017.695; 4494.950;  216.875;    0.000
1017.854; 4600.950;  235.875;    0.000
1018.013; 4356.950;  189.875;    0.000
1018.172; 4116.950;  217.875;    0.000
1018.331; 4060.950;  215.875;    0.000
1018.490; 4450.950;  233.875;    0.000
1018.649; 4629.950;  211.875;    0.000
1018.808; 4909.950;  196.875;    0.000
1018.967; 4837.950;  222.875;    0.000
1019.126; 4837.950;  221.875;    0.000
1019.285; 4872.950;  212.875;    0.000
1019.444; 5058.950;  231.875;    0.000
1019.603; 4810.950;  227.875;    0.000
1019.762; 4442.950;  192.875;    0.000
1019.921; 4504.950;  240.875;    0.000
1020.079; 4759.950;  209.875;    0.000
1020.238; 5220.950;  211.875;    0.000
1020.397; 5130.950;  253.875;    0.000
1020.555; 4632.950;  179.875;    0.000
1020.714; 4517.950;  225.875;    0.000
1020.873; 5041.950;  232.875;    0.000
1021.031; 5125.950;  245.875;    0.000
1021.190; 4894.950;  230.875;    0.000
1021.348; 4707.950;  221.875;    0.000
1021.507; 5096.950;  212.875;    0.000
1021.665; 5620.950;  211.875;    0.000
1021.824; 5158.950;  206.875;    0.000
1021.982; 4880.950;  218.875;    0.000
1022.141; 4847.950;  232.875;    0.000
1022.299; 5415.950;  193.875;    0.000
1022.457; 5793.950;  217.875;    0.000
1022.616; 5334.950;  248.875;    0.000
1022.774; 4795.950;  222.875;    0.000
1022.932; 4893.950;  211.875;    0.000
1023.090; 5645.950;  288.875;    0.000
1023.249; 5844.950;  214.875;    0.000
1023.407; 5448.950;  233.875;    0.000
1023.565; 4959.950;  208.875;    0.000
1023.723; 5040.950;  217.875;    0.000
1023.881; 5688.950;  235.875;    0.000
1024.039; 5761.950;  228.875;    0.000
1024.197; 5439.950;  216.875;    0.000
1024.355; 5053.950;  251.875;    0.000
1024.513; 5235.950;  232.875;    0.000
1024.671; 5821.950;  217.875;    0.000
1024.829; 5960.950;  255.875;    0.000
1024.987; 5619.950;  203.875;    0.000
1025.145; 5064.950;  239.875;    0.000
1025.302; 5331.950;  209.875;    0.000
1025.460; 5658.950;  224.875;    0.000
1025.618; 5989.950;  193.875;    0.000
1025.776; 5755.950;  209.875;    0.000
1025.933; 5335.950;  229.875;    0.000
1026.091; 5447.950;  218.875;    0.000
1026.249; 5766.950;  269.875;    0.000
1026.406; 6158.950;  264.875;    0.000
1026.564; 5913.950;  230.875;    0.000
1026.721; 5689.950;  198.875;    0.000
1026.879; 5347.950;  216.875;    0.000
1027.036; 5808.950;  226.875;    0.000
1027.194; 6130.950;  245.875;    0.000
1027.351; 6262.950;  236.875;    0.000
1027.509; 5924.950;  262.875;    0.000
1027.666; 5621.950;  227.875;    0.000
1027.823; 5899.950;  214.875;    0.000
1027.981; 5936.950;  258.875;    0.000
1028.138; 6428.950;  239.875;    0.000
1028.295; 5987.950;  226.875;    0.000
1028.452; 5786.950;  225.875;    0.000
1028.609; 5807.950;  276.875;    0.000
1028.767; 6121.950;  228.875;    0.000
1028.924; 6271.950;  213.875;    0.000
1029.081; 6191.950;  232.875;    0.000
1029.238; 5946.950;  250.875;    0.000
1029.395; 5823.950;  255.875;    0.000
1029.552; 5944.950;  217.875;    0.000
1029.709; 6547.950;  210.875;    0.000
1029.866; 6587.950;  243.875;    0.000
1030.023; 6416.950;  202.875;    0.000
1030.180; 5781.950;  233.875;    0.000
1030.337; 5983.950;  234.875;    0.000
1030.494; 6275.950;  222.875;    0.000
1030.650; 6689.950;  241.875;    0.000
1030.807; 6883.950;  206.875;    0.000
1030.964; 6098.950;  206.875;    0.000
1031.121; 6137.950;  228.875;    0.000
1031.277; 5951.950;  228.875;    0.000
1031.434; 6434.950;  234.875;    0.000
1031.591; 6991.950;  250.875;    0.000
1031.747; 6870.950;  246.875;    0.000
1031.904; 6860.950;  201.875;    0.000
1032.060; 6325.950;  237.875;    0.000
1032.217; 6352.950;  232.875;    0.000
1032.373; 7011.950;  210.875;    0.000
1032.530; 7154.950;  246.875;    0.000
1032.686; 7825.950;  196.875;    0.000
1032.843; 7966.950;  212.875;    0.000
1032.999; 7265.950;  243.875;    0.000
1033.155; 7639.950;  234.875;    0.000
1033.312; 7678.950;  246.875;    0.000
1033.468; 9042.950;  233.875;    0.000
1033.624; 9848.950;  237.875;    0.000
1033.780; 9894.950;  263.875;    0.000
1033.937;10037.950;  214.875;    0.000
1034.093; 9022.950;  230.875;    0.000
1034.249; 9466.950;  206.875;    0.000
1034.405; 9579.950;  238.875;    0.000
1034.561;10082.950;  231.875;    0.000
1034.717;10738.950;  228.875;    0.000
1034.873;10518.950;  262.875;    0.000
1035.029;10660.950;  252.875;    0.000
1035.185; 9823.950;  232.875;    0.000
1035.341; 9568.950;  245.875;    0.000
1035.497;10592.950;  253.875;    0.000
1035.653;10968.950;  252.875;    0.000
1035.809;12437.950;  245.875;    0.000
1035.964;12589.950;  229.875;    0.000
1036.120;12015.950;  226.875;    0.000
1036.276;11363.950;  236.875;    0.000
1036.432;11577.950;  203.875;    0.000
1036.587;10736.950;  228.875;    0.000
1036.743;12006.950;  240.875;    0.000
1036.899;13249.950;  220.875;    0.000
1037.054;13129.950;  153.875;    0.000
1037.210;14382.950;  219.875;    0.000
1037.365;14317.950;  229.875;    0.000
1037.521;12768.950;  257.875;    0.000
1037.676;12630.950;  211.875;    0.000
1037.832;12228.950;  234.875;    0.000
1037.987;12398.950;  235.875;    0.000
1038.143;12638.950;  176.875;    0.000
1038.298;15007.950;  262.875;    0.000
1038.453;14380.950;  209.875;    0.000
1038.609;15647.950;  230.875;    0.000
1038.764;16412.949;  253.875;    0.000
1038.919;14534.950;  195.875;    0.000
1039.074;14413.950;  234.875;    0.000
1039.229;13231.950;  234.875;    0.000
1039.385;13403.950;  266.875;    0.000
1039.540;13937.950;  252.875;    0.000
1039.695;15224.950;  231.875;    0.000
1039.850;16146.950;  208.875;    0.000
1040.005;17153.949;  232.875;    0.000
1040.160;19159.949;  214.875;    0.000
1040.315;18498.949;  221.875;    0.000
1040.470;16975.949;  207.875;    0.000
1040.625;16754.949;  249.875;    0.000
1040.780;15926.950;  251.875;    0.000
1040.935;15551.950;  254.875;    0.000
1041.089;16902.949;  210.875;    0.000
1041.244;19331.949;  225.875;    0.000
1041.399;19832.949;  208.875;    0.000
1041.554;20770.949;  249.875;    0.000
1041.708;22829.949;  254.875;    0.000
1041.863;22932.949;  248.875;    0.000
1042.018;20471.949;  280.875;    0.000
1042.172;20185.949;  233.875;    0.000
1042.327;19756.949;  256.875;    0.000
1042.481;19904.949;  210.875;    0.000
1042.636;20297.949;  229.875;    0.000
1042.791;20083.949;  215.875;    0.000
1042.945;23746.949;  256.875;    0.000
1043.099;25877.949;  251.875;    0.000
1043.254;25631.949;  204.875;    0.000
1043.408;26106.949;  278.875;    0.000
1043.563;27733.949;  211.875;    0.000
1043.717;27294.949;  259.875;    0.000
1043.871;25788.949;  233.875;    0.000
1044.025;25195.949;  221.875;    0.000
1044.180;24674.949;  208.875;    0.000
1044.334;25250.949;  255.875;    0.000
1044.488;24854.949;  269.875;    0.000
1044.642;26347.949;  228.875;    0.000
1044.796;29861.949;  232.875;    0.000
1044.950;33494.949;  249.875;    0.000
1045.104;35920.949;  205.875;    0.000
1045.258;36614.949;  206.875;    0.000
1045.412;34663.949;  251.875;    0.000
1045.566;34238.949;  249.875;    0.000
1045.720;33574.949;  206.875;    0.000
1045.874;30941.949;  232.875;    0.000
1046.028;29746.949;  266.875;    0.000
1046.182;28737.949;  217.875;    0.000
1046.336;30016.949;  216.875;    0.000
1046.489;28918.949;  236.875;    0.000
1046.643;29774.949;  253.875;    0.000
1046.797;33590.949;  244.875;    0.000
1046.951;35310.949;  234.875;    0.000
1047.104;36787.949;  281.875;    0.000
1047.258;38388.949;  253.875;    0.000
1047.411;40764.949;  228.875;    0.000
1047.565;39146.949;  273.875;    0.000
1047.719;37968.949;  232.875;    0.000
1047.872;37243.949;  230.875;    0.000
1048.026;34995.949;  282.875;    0.000
1048.179;34361.949;  225.875;    0.000
1048.332;34454.949;  234.875;    0.000
1048.486;34753.949;  223.875;    0.000
1048.639;35121.949;  248.875;    0.000
1048.792;35535.949;  244.875;    0.000
1048.946;36960.949;  210.875;    0.000
1049.099;40402.949;  242.875;    0.000
1049.252;42252.949;  269.875;    0.000
1049.406;39474.949;  285.875;    0.000
1049.559;42445.949;  277.875;    0.000
1049.712;45707.949;  254.875;    0.000
1049.865;49158.949;  252.875;    0.000
1050.018;47121.949;  270.875;    0.000
1050.171;43248.949;  230.875;    0.000
1050.324;41250.949;  268.875;    0.000
1050.477;44179.949;  262.875;    0.000
1050.630;48532.949;  243.875;    0.000
1050.783;49668.949;  216.875;    0.000
1050.936;47195.949;  250.875;    0.000
1051.089;42630.949;  247.875;    0.000
1051.242;43953.949;  300.875;    0.000
1051.394;49103.949;  233.875;    0.000
1051.547;53611.949;  263.875;    0.000
1051.700;50255.949;  238.875;    0.000
1051.853;45304.949;  299.875;    0.000
1052.005;47630.949;  275.875;    0.000
1052.158;52583.949;  304.875;    0.000
1052.311;58307.949;  251.875;    0.000
1052.463;55677.949;  276.875;    0.000
1052.616;49701.949;  271.875;    0.000
1052.768;44276.949;  285.875;    0.000
1052.921;43621.949;  261.875;    0.000
1053.073;48729.949;  333.875;    0.000
1053.226;54126.949;  271.875;    0.000
1053.378;61890.949;  309.875;    0.000
1053.531;64493.949;  266.875;    0.000
1053.683;61426.949;  278.875;    0.000
1053.835;53784.949;  274.875;    0.000
1053.988;41710.949;  287.875;    0.000
1054.140; 7672.950;  350.875;    0.000
1054.292; 1746.950;  338.875;    0.000
1054.444; 1412.950;  270.875;    0.000
1054.596; 1243.950;  294.875;    0.000
1054.749; 1158.950;  285.875;    0.000
1054.901; 1059.950;  254.875;    0.000
1055.053;  924.950;  320.875;    0.000
1055.205;  961.950;  284.875;    0.000
1055.357;  939.950;  298.875;    0.000
1055.509;  814.950;  304.875;    0.000
1055.661;  841.950;  350.875;    0.000
1055.813;  829.950;  289.875;    0.000
1055.965;  788.950;  277.875;    0.000
1056.116;  725.950;  288.875;    0.000
1056.268;  818.950;  311.875;    0.000
1056.420;  818.950;  308.875;    0.000

