
Integration time [ms]:   0.300
Averaging Nr. [scans]: 1
Smoothing Nr. [pixels]: 0
Data measured with spectrometer [name]: UV1
Wave   ;Sample   ;Dark     ;Reference
[nm]   ;[counts] ;[counts] ;[counts] 

236.381;  142.850;  149.925;    0.000
236.451;  187.850;  206.925;    0.000
236.520;  116.850;  212.925;    0.000
236.590;  191.850;  189.925;    0.000
236.660;  185.850;  184.925;    0.000
236.730;  164.850;  186.925;    0.000
236.799;  210.850;  191.925;    0.000
236.869;  159.850;  184.925;    0.000
236.939;  166.850;  176.925;    0.000
237.009;  199.850;  184.925;    0.000
237.078;  189.850;  189.925;    0.000
237.148;  148.850;  217.925;    0.000
237.218;  206.850;  192.925;    0.000
237.287;  172.850;  182.925;    0.000
237.357;  208.850;  196.925;    0.000
237.427;  199.850;  144.925;    0.000
237.496; 1677.850;  224.925;    0.000
237.566; 1638.850;  210.925;    0.000
237.636; 1607.850;  165.925;    0.000
237.705; 1651.850;  214.925;    0.000
237.775; 1670.850;  194.925;    0.000
237.845; 1661.850;  214.925;    0.000
237.914; 1676.850;  191.925;    0.000
237.984; 1702.850;  218.925;    0.000
238.054; 1584.850;  187.925;    0.000
238.123; 1640.850;  179.925;    0.000
238.193; 1675.850;  177.925;    0.000
238.263; 1641.850;  225.925;    0.000
238.332; 1664.850;  197.925;    0.000
238.402; 1583.850;  183.925;    0.000
238.471; 1635.850;  181.925;    0.000
238.541; 1600.850;  200.925;    0.000
238.611; 1675.850;  170.925;    0.000
238.680; 1571.850;  170.925;    0.000
238.750; 1612.850;  175.925;    0.000
238.819; 1712.850;  180.925;    0.000
238.889; 1557.850;  190.925;    0.000
238.958; 1636.850;  207.925;    0.000
239.028; 1664.850;  201.925;    0.000
239.097; 1707.850;  181.925;    0.000
239.167; 1637.850;  222.925;    0.000
239.237; 1675.850;  221.925;    0.000
239.306; 1585.850;  147.925;    0.000
239.376; 1615.850;  188.925;    0.000
239.445; 1646.850;  198.925;    0.000
239.515; 1597.850;  191.925;    0.000
239.584; 1608.850;  178.925;    0.000
239.654; 1589.850;  147.925;    0.000
239.723; 1576.850;  212.925;    0.000
239.793; 1660.850;  185.925;    0.000
239.862; 1569.850;  157.925;    0.000
239.932; 1609.850;  181.925;    0.000
240.001; 1639.850;  163.925;    0.000
240.070; 1569.850;  194.925;    0.000
240.140; 1669.850;  202.925;    0.000
240.209; 1577.850;  180.925;    0.000
240.279; 1553.850;  188.925;    0.000
240.348; 1606.850;  189.925;    0.000
240.418; 1503.850;  143.925;    0.000
240.487; 1609.850;  195.925;    0.000
240.556; 1613.850;  170.925;    0.000
240.626; 1607.850;  172.925;    0.000
240.695; 1636.850;  202.925;    0.000
240.765; 1598.850;  191.925;    0.000
240.834; 1543.850;  177.925;    0.000
240.903; 1507.850;  189.925;    0.000
240.973; 1596.850;  196.925;    0.000
241.042; 1569.850;  183.925;    0.000
241.112; 1594.850;  189.925;    0.000
241.181; 1554.850;  186.925;    0.000
241.250; 1584.850;  168.925;    0.000
241.320; 1601.850;  200.925;    0.000
241.389; 1597.850;  185.925;    0.000
241.458; 1500.850;  194.925;    0.000
241.528; 1538.850;  165.925;    0.000
241.597; 1533.850;  200.925;    0.000
241.666; 1525.850;  184.925;    0.000
241.736; 1587.850;  176.925;    0.000
241.805; 1609.850;  165.925;    0.000
241.874; 1530.850;  200.925;    0.000
241.943; 1583.850;  184.925;    0.000
242.013; 1541.850;  212.925;    0.000
242.082; 1542.850;  200.925;    0.000
242.151; 1505.850;  196.925;    0.000
242.221; 1524.850;  182.925;    0.000
242.290; 1558.850;  222.925;    0.000
242.359; 1517.850;  142.925;    0.000
242.428; 1622.850;  180.925;    0.000
242.498; 1483.850;  180.925;    0.000
242.567; 1563.850;  181.925;    0.000
242.636; 1512.850;  203.925;    0.000
242.705; 1507.850;  209.925;    0.000
242.774; 1604.850;  172.925;    0.000
242.844; 1534.850;  218.925;    0.000
242.913; 1550.850;  188.925;    0.000
242.982; 1529.850;  193.925;    0.000
243.051; 1534.850;  202.925;    0.000
243.120; 1465.850;  174.925;    0.000
243.190; 1444.850;  165.925;    0.000
243.259; 1588.850;  206.925;    0.000
243.328; 1517.850;  166.925;    0.000
243.397; 1522.850;  167.925;    0.000
243.466; 1457.850;  163.925;    0.000
243.535; 1561.850;  162.925;    0.000
243.605; 1505.850;  159.925;    0.000
243.674; 1591.850;  171.925;    0.000
243.743; 1492.850;  189.925;    0.000
243.812; 1561.850;  169.925;    0.000
243.881; 1553.850;  145.925;    0.000
243.950; 1487.850;  197.925;    0.000
244.019; 1580.850;  189.925;    0.000
244.088; 1467.850;  200.925;    0.000
244.158; 1539.850;  208.925;    0.000
244.227; 1497.850;  154.925;    0.000
244.296; 1534.850;  142.925;    0.000
244.365; 1487.850;  198.925;    0.000
244.434; 1452.850;  162.925;    0.000
244.503; 1484.850;  186.925;    0.000
244.572; 1457.850;  143.925;    0.000
244.641; 1446.850;  145.925;    0.000
244.710; 1444.850;  159.925;    0.000
244.779; 1463.850;  175.925;    0.000
244.848; 1433.850;  163.925;    0.000
244.917; 1459.850;  157.925;    0.000
244.986; 1372.850;  166.925;    0.000
245.055; 1461.850;  211.925;    0.000
245.124; 1470.850;  155.925;    0.000
245.193; 1511.850;  187.925;    0.000
245.262; 1452.850;  152.925;    0.000
245.331; 1361.850;  177.925;    0.000
245.400; 1423.850;  157.925;    0.000
245.469; 1438.850;  195.925;    0.000
245.538; 1444.850;  199.925;    0.000
245.607; 1379.850;  194.925;    0.000
245.676; 1397.850;  170.925;    0.000
245.745; 1380.850;  208.925;    0.000
245.814; 1352.850;  185.925;    0.000
245.883; 1349.850;  165.925;    0.000
245.952; 1316.850;  151.925;    0.000
246.021; 1339.850;  171.925;    0.000
246.090; 1387.850;  174.925;    0.000
246.159; 1347.850;  192.925;    0.000
246.227; 1373.850;  178.925;    0.000
246.296; 1323.850;  159.925;    0.000
246.365; 1310.850;  189.925;    0.000
246.434; 1358.850;  205.925;    0.000
246.503; 1326.850;  174.925;    0.000
246.572; 1293.850;  203.925;    0.000
246.641; 1316.850;  169.925;    0.000
246.710; 1266.850;  186.925;    0.000
246.779; 1280.850;  196.925;    0.000
246.847; 1338.850;  209.925;    0.000
246.916; 1329.850;  177.925;    0.000
246.985; 1235.850;  188.925;    0.000
247.054; 1284.850;  189.925;    0.000
247.123; 1241.850;  196.925;    0.000
247.192; 1282.850;  210.925;    0.000
247.260; 1309.850;  164.925;    0.000
247.329; 1250.850;  204.925;    0.000
247.398; 1261.850;  204.925;    0.000
247.467; 1265.850;  160.925;    0.000
247.536; 1286.850;  193.925;    0.000
247.604; 1295.850;  208.925;    0.000
247.673; 1202.850;  168.925;    0.000
247.742; 1271.850;  182.925;    0.000
247.811; 1253.850;  186.925;    0.000
247.879; 1272.850;  166.925;    0.000
247.948; 1246.850;  192.925;    0.000
248.017; 1268.850;  178.925;    0.000
248.086; 1226.850;  193.925;    0.000
248.154; 1263.850;  191.925;    0.000
248.223; 1221.850;  207.925;    0.000
248.292; 1280.850;  168.925;    0.000
248.361; 1167.850;  211.925;    0.000
248.429; 1266.850;  196.925;    0.000
248.498; 1178.850;  163.925;    0.000
248.567; 1283.850;  159.925;    0.000
248.635; 1261.850;  194.925;    0.000
248.704; 1256.850;  205.925;    0.000
248.773; 1188.850;  190.925;    0.000
248.841; 1246.850;  179.925;    0.000
248.910; 1274.850;  193.925;    0.000
248.979; 1217.850;  167.925;    0.000
249.047; 1161.850;  166.925;    0.000
249.116; 1171.850;  191.925;    0.000
249.185; 1282.850;  203.925;    0.000
249.253; 1200.850;  140.925;    0.000
249.322; 1223.850;  173.925;    0.000
249.390; 1195.850;  165.925;    0.000
249.459; 1240.850;  173.925;    0.000
249.528; 1192.850;  203.925;    0.000
249.596; 1159.850;  204.925;    0.000
249.665; 1148.850;  176.925;    0.000
249.733; 1168.850;  178.925;    0.000
249.802; 1199.850;  190.925;    0.000
249.871; 1189.850;  171.925;    0.000
249.939; 1162.850;  160.925;    0.000
250.008; 1155.850;  220.925;    0.000
250.076; 1237.850;  211.925;    0.000
250.145; 1226.850;  145.925;    0.000
250.213; 1123.850;  177.925;    0.000
250.282; 1170.850;  186.925;    0.000
250.350; 1178.850;  170.925;    0.000
250.419; 1131.850;  195.925;    0.000
250.487; 1176.850;  194.925;    0.000
250.556; 1158.850;  178.925;    0.000
250.624; 1152.850;  193.925;    0.000
250.693; 1130.850;  167.925;    0.000
250.761; 1172.850;  253.925;    0.000
250.830; 1141.850;  241.925;    0.000
250.898; 1112.850;  161.925;    0.000
250.967; 1177.850;  178.925;    0.000
251.035; 1146.850;  189.925;    0.000
251.104; 1157.850;  166.925;    0.000
251.172; 1149.850;  178.925;    0.000
251.241; 1053.850;  174.925;    0.000
251.309; 1093.850;  197.925;    0.000
251.378; 1100.850;  172.925;    0.000
251.446; 1087.850;  157.925;    0.000
251.514; 1137.850;  197.925;    0.000
251.583; 1105.850;  191.925;    0.000
251.651; 1093.850;  154.925;    0.000
251.720; 1141.850;  198.925;    0.000
251.788; 1150.850;  226.925;    0.000
251.856; 1093.850;  164.925;    0.000
251.925; 1157.850;  181.925;    0.000
251.993; 1159.850;  203.925;    0.000
252.062; 1157.850;  211.925;    0.000
252.130; 1090.850;  185.925;    0.000
252.198; 1095.850;  190.925;    0.000
252.267; 1035.850;  176.925;    0.000
252.335; 1108.850;  179.925;    0.000
252.403; 1099.850;  173.925;    0.000
252.472; 1096.850;  172.925;    0.000
252.540; 1102.850;  187.925;    0.000
252.608; 1080.850;  204.925;    0.000
252.677; 1045.850;  179.925;    0.000
252.745; 1098.850;  192.925;    0.000
252.813; 1077.850;  168.925;    0.000
252.881;  988.850;  157.925;    0.000
252.950; 1007.850;  188.925;    0.000
253.018; 1005.850;  191.925;    0.000
253.086;  968.850;  164.925;    0.000
253.155; 1051.850;  172.925;    0.000
253.223;  965.850;  168.925;    0.000
253.291;  958.850;  190.925;    0.000
253.359;  861.850;  205.925;    0.000
253.428;  925.850;  228.925;    0.000
253.496;  924.850;  170.925;    0.000
253.564;  865.850;  164.925;    0.000
253.632;  962.850;  159.925;    0.000
253.700;  821.850;  166.925;    0.000
253.769;  907.850;  172.925;    0.000
253.837;  831.850;  157.925;    0.000
253.905;  889.850;  168.925;    0.000
253.973;  862.850;  179.925;    0.000
254.041;  835.850;  187.925;    0.000
254.110;  850.850;  186.925;    0.000
254.178;  864.850;  156.925;    0.000
254.246;  789.850;  132.925;    0.000
254.314;  876.850;  191.925;    0.000
254.382;  860.850;  189.925;    0.000
254.450;  856.850;  163.925;    0.000
254.518;  861.850;  172.925;    0.000
254.587;  805.850;  162.925;    0.000
254.655;  809.850;  191.925;    0.000
254.723;  865.850;  184.925;    0.000
254.791;  915.850;  169.925;    0.000
254.859;  927.850;  186.925;    0.000
254.927;  969.850;  207.925;    0.000
254.995;  839.850;  143.925;    0.000
255.063;  877.850;  198.925;    0.000
255.131;  866.850;  168.925;    0.000
255.199;  900.850;  183.925;    0.000
255.267;  899.850;  159.925;    0.000
255.336;  932.850;  197.925;    0.000
255.404;  849.850;  177.925;    0.000
255.472;  872.850;  204.925;    0.000
255.540;  945.850;  169.925;    0.000
255.608;  914.850;  141.925;    0.000
255.676;  875.850;  176.925;    0.000
255.744;  903.850;  184.925;    0.000
255.812;  919.850;  158.925;    0.000
255.880;  901.850;  202.925;    0.000
255.948;  928.850;  184.925;    0.000
256.016;  956.850;  192.925;    0.000
256.084;  864.850;  204.925;    0.000
256.152;  920.850;  191.925;    0.000
256.220;  905.850;  187.925;    0.000
256.288;  927.850;  176.925;    0.000
256.356;  907.850;  146.925;    0.000
256.424;  953.850;  164.925;    0.000
256.491;  905.850;  161.925;    0.000
256.559;  919.850;  167.925;    0.000
256.627; 1002.850;  180.925;    0.000
256.695;  998.850;  159.925;    0.000
256.763; 1027.850;  166.925;    0.000
256.831; 1043.850;  166.925;    0.000
256.899; 1044.850;  161.925;    0.000
256.967; 1022.850;  116.925;    0.000
257.035; 1092.850;  195.925;    0.000
257.103; 1138.850;  227.925;    0.000
257.171; 1010.850;  147.925;    0.000
257.238; 1019.850;  158.925;    0.000
257.306; 1072.850;  188.925;    0.000
257.374; 1071.850;  153.925;    0.000
257.442; 1138.850;  159.925;    0.000
257.510; 1126.850;  201.925;    0.000
257.578; 1136.850;  137.925;    0.000
257.646; 1165.850;  172.925;    0.000
257.713; 1128.850;  164.925;    0.000
257.781; 1162.850;  163.925;    0.000
257.849; 1202.850;  174.925;    0.000
257.917; 1289.850;  164.925;    0.000
257.985; 1171.850;  126.925;    0.000
258.052; 1233.850;  158.925;    0.000
258.120; 1230.850;  151.925;    0.000
258.188; 1266.850;  169.925;    0.000
258.256; 1213.850;  110.925;    0.000
258.324; 1332.850;  193.925;    0.000
258.391; 1239.850;  157.925;    0.000
258.459; 1344.850;  193.925;    0.000
258.527; 1362.850;  150.925;    0.000
258.595; 1331.850;  173.925;    0.000
258.662; 1237.850;  168.925;    0.000
258.730; 1354.850;  190.925;    0.000
258.798; 1391.850;  164.925;    0.000
258.865; 1396.850;  165.925;    0.000
258.933; 1404.850;  162.925;    0.000
259.001; 1487.850;  174.925;    0.000
259.069; 1462.850;  139.925;    0.000
259.136; 1470.850;  160.925;    0.000
259.204; 1459.850;  174.925;    0.000
259.272; 1427.850;  161.925;    0.000
259.339; 1530.850;  157.925;    0.000
259.407; 1500.850;  159.925;    0.000
259.475; 1496.850;  134.925;    0.000
259.542; 1630.850;  179.925;    0.000
259.610; 1586.850;  172.925;    0.000
259.677; 1644.850;  152.925;    0.000
259.745; 1605.850;  131.925;    0.000
259.813; 1659.850;  185.925;    0.000
259.880; 1716.850;  183.925;    0.000
259.948; 1688.850;  168.925;    0.000
260.016; 1751.850;  160.925;    0.000
260.083; 1737.850;  163.925;    0.000
260.151; 1720.850;  162.925;    0.000
260.218; 1777.850;  171.925;    0.000
260.286; 1789.850;  154.925;    0.000
260.353; 1780.850;  182.925;    0.000
260.421; 1763.850;  187.925;    0.000
260.489; 1909.850;  185.925;    0.000
260.556; 1855.850;  165.925;    0.000
260.624; 1907.850;  185.925;    0.000
260.691; 1925.850;  175.925;    0.000
260.759; 1884.850;  201.925;    0.000
260.826; 1997.850;  150.925;    0.000
260.894; 1974.850;  142.925;    0.000
260.961; 2006.850;  156.925;    0.000
261.029; 1977.850;  161.925;    0.000
261.096; 2063.850;  172.925;    0.000
261.164; 1993.850;  149.925;    0.000
261.231; 2122.850;  191.925;    0.000
261.299; 2036.850;  182.925;    0.000
261.366; 2093.850;  156.925;    0.000
261.434; 2136.850;  188.925;    0.000
261.501; 2181.850;  170.925;    0.000
261.568; 2132.850;  167.925;    0.000
261.636; 2041.850;  169.925;    0.000
261.703; 2255.850;  200.925;    0.000
261.771; 2177.850;  170.925;    0.000
261.838; 2205.850;  175.925;    0.000
261.906; 2239.850;  135.925;    0.000
261.973; 2245.850;  184.925;    0.000
262.040; 2326.850;  176.925;    0.000
262.108; 2353.850;  201.925;    0.000
262.175; 2337.850;  141.925;    0.000
262.243; 2350.850;  175.925;    0.000
262.310; 2451.850;  112.925;    0.000
262.377; 2422.850;  158.925;    0.000
262.445; 2531.850;  162.925;    0.000
262.512; 2449.850;  184.925;    0.000
262.579; 2452.850;  185.925;    0.000
262.647; 2442.850;  158.925;    0.000
262.714; 2506.850;  197.925;    0.000
262.781; 2534.850;  133.925;    0.000
262.849; 2489.850;  146.925;    0.000
262.916; 2611.850;  204.925;    0.000
262.983; 2704.850;  191.925;    0.000
263.051; 2588.850;  140.925;    0.000
263.118; 2548.850;  154.925;    0.000
263.185; 2623.850;  169.925;    0.000
263.252; 2668.850;  150.925;    0.000
263.320; 2697.850;  145.925;    0.000
263.387; 2653.850;  144.925;    0.000
263.454; 2761.850;  193.925;    0.000
263.522; 2802.850;  160.925;    0.000
263.589; 2731.850;  153.925;    0.000
263.656; 2789.850;  178.925;    0.000
263.723; 2745.850;  136.925;    0.000
263.790; 2827.850;  162.925;    0.000
263.858; 2758.850;  164.925;    0.000
263.925; 2852.850;  146.925;    0.000
263.992; 2883.850;  191.925;    0.000
264.059; 2835.850;  180.925;    0.000
264.126; 2932.850;  183.925;    0.000
264.194; 2934.850;  174.925;    0.000
264.261; 2955.850;  187.925;    0.000
264.328; 2942.850;  179.925;    0.000
264.395; 3072.850;  166.925;    0.000
264.462; 3019.850;  197.925;    0.000
264.529; 3100.850;  209.925;    0.000
264.597; 3014.850;  173.925;    0.000
264.664; 2998.850;  193.925;    0.000
264.731; 3041.850;  165.925;    0.000
264.798; 3004.850;  148.925;    0.000
264.865; 2995.850;  186.925;    0.000
264.932; 3120.850;  152.925;    0.000
264.999; 3126.850;  166.925;    0.000
265.066; 3171.850;  186.925;    0.000
265.133; 3193.850;  172.925;    0.000
265.201; 3198.850;  159.925;    0.000
265.268; 3221.850;  164.925;    0.000
265.335; 3258.850;  161.925;    0.000
265.402; 3212.850;  157.925;    0.000
265.469; 3221.850;  134.925;    0.000
265.536; 3264.850;  191.925;    0.000
265.603; 3401.850;  170.925;    0.000
265.670; 3380.850;  162.925;    0.000
265.737; 3373.850;  172.925;    0.000
265.804; 3395.850;  151.925;    0.000
265.871; 3427.850;  191.925;    0.000
265.938; 3461.850;  173.925;    0.000
266.005; 3487.850;  201.925;    0.000
266.072; 3235.850;  156.925;    0.000
266.139; 3472.850;  191.925;    0.000
266.206; 3432.850;  151.925;    0.000
266.273; 3555.850;  194.925;    0.000
266.340; 3520.850;  120.925;    0.000
266.407; 3428.850;  130.925;    0.000
266.474; 3535.850;  137.925;    0.000
266.541; 3473.850;  139.925;    0.000
266.608; 3568.850;  139.925;    0.000
266.675; 3621.850;  198.925;    0.000
266.742; 3583.850;  165.925;    0.000
266.808; 3618.850;  174.925;    0.000
266.875; 3559.850;  169.925;    0.000
266.942; 3641.850;  137.925;    0.000
267.009; 3627.850;  181.925;    0.000
267.076; 3564.850;  204.925;    0.000
267.143; 3704.850;  179.925;    0.000
267.210; 3640.850;  160.925;    0.000
267.277; 3675.850;  154.925;    0.000
267.344; 3682.850;  178.925;    0.000
267.410; 3705.850;  190.925;    0.000
267.477; 3781.850;  193.925;    0.000
267.544; 3849.850;  168.925;    0.000
267.611; 3780.850;  177.925;    0.000
267.678; 3770.850;  205.925;    0.000
267.745; 3657.850;  205.925;    0.000
267.811; 3853.850;  164.925;    0.000
267.878; 3885.850;  166.925;    0.000
267.945; 3761.850;  160.925;    0.000
268.012; 3752.850;  172.925;    0.000
268.079; 3881.850;  186.925;    0.000
268.145; 3719.850;  188.925;    0.000
268.212; 3847.850;  181.925;    0.000
268.279; 3891.850;  158.925;    0.000
268.346; 3879.850;  192.925;    0.000
268.412; 3903.850;  159.925;    0.000
268.479; 3756.850;  176.925;    0.000
268.546; 3802.850;  170.925;    0.000
268.613; 3848.850;  133.925;    0.000
268.679; 3810.850;  170.925;    0.000
268.746; 3882.850;  185.925;    0.000
268.813; 3891.850;  170.925;    0.000
268.879; 3804.850;  149.925;    0.000
268.946; 3875.850;  176.925;    0.000
269.013; 3894.850;  153.925;    0.000
269.079; 3804.850;  156.925;    0.000
269.146; 3758.850;  143.925;    0.000
269.213; 3833.850;  170.925;    0.000
269.280; 3796.850;  202.925;    0.000
269.346; 3890.850;  180.925;    0.000
269.413; 3897.850;  162.925;    0.000
269.479; 3928.850;  175.925;    0.000
269.546; 3897.850;  151.925;    0.000
269.613; 3763.850;  159.925;    0.000
269.679; 3886.850;  190.925;    0.000
269.746; 3803.850;  159.925;    0.000
269.813; 3885.850;  151.925;    0.000
269.879; 3825.850;  169.925;    0.000
269.946; 3858.850;  169.925;    0.000
270.012; 3832.850;  185.925;    0.000
270.079; 3826.850;  133.925;    0.000
270.145; 3739.850;  161.925;    0.000
270.212; 3789.850;  156.925;    0.000
270.279; 3858.850;  176.925;    0.000
270.345; 3827.850;  140.925;    0.000
270.412; 3928.850;  162.925;    0.000
270.478; 3872.850;  148.925;    0.000
270.545; 3945.850;  146.925;    0.000
270.611; 3864.850;  168.925;    0.000
270.678; 3906.850;  164.925;    0.000
270.744; 3889.850;  117.925;    0.000
270.811; 3961.850;  196.925;    0.000
270.877; 3769.850;  151.925;    0.000
270.944; 3893.850;  174.925;    0.000
271.010; 3758.850;  180.925;    0.000
271.077; 3871.850;  162.925;    0.000
271.143; 3879.850;  178.925;    0.000
271.210; 3815.850;  159.925;    0.000
271.276; 3747.850;  143.925;    0.000
271.342; 3846.850;  196.925;    0.000
271.409; 3904.850;  161.925;    0.000
271.475; 3916.850;  153.925;    0.000
271.542; 3950.850;  147.925;    0.000
271.608; 3896.850;  175.925;    0.000
271.675; 3860.850;  134.925;    0.000
271.741; 3861.850;  182.925;    0.000
271.807; 3961.850;  174.925;    0.000
271.874; 3880.850;  169.925;    0.000
271.940; 3899.850;  179.925;    0.000
272.007; 3847.850;  173.925;    0.000
272.073; 3901.850;  133.925;    0.000
272.139; 3775.850;  191.925;    0.000
272.206; 3929.850;  168.925;    0.000
272.272; 3928.850;  179.925;    0.000
272.338; 3830.850;  224.925;    0.000
272.405; 3913.850;  156.925;    0.000
272.471; 3946.850;  175.925;    0.000
272.537; 3899.850;  190.925;    0.000
272.604; 3843.850;  199.925;    0.000
272.670; 3960.850;  156.925;    0.000
272.736; 3905.850;  198.925;    0.000
272.802; 3948.850;  169.925;    0.000
272.869; 3978.850;  141.925;    0.000
272.935; 3994.850;  145.925;    0.000
273.001; 4013.850;  156.925;    0.000
273.068; 4045.850;  157.925;    0.000
273.134; 3905.850;  184.925;    0.000
273.200; 4114.850;  158.925;    0.000
273.266; 4076.850;  150.925;    0.000
273.333; 4085.850;  176.925;    0.000
273.399; 4075.850;  118.925;    0.000
273.465; 4239.850;  184.925;    0.000
273.531; 4092.850;  179.925;    0.000
273.597; 4149.850;  167.925;    0.000
273.664; 4259.850;  186.925;    0.000
273.730; 4236.850;  137.925;    0.000
273.796; 4172.850;  148.925;    0.000
273.862; 4245.850;  183.925;    0.000
273.928; 4287.850;  179.925;    0.000
273.995; 4300.850;  189.925;    0.000
274.061; 4323.850;  188.925;    0.000
274.127; 4315.850;  132.925;    0.000
274.193; 4323.850;  135.925;    0.000
274.259; 4294.850;  177.925;    0.000
274.325; 4415.850;  178.925;    0.000
274.391; 4342.850;  140.925;    0.000
274.457; 4476.850;  158.925;    0.000
274.524; 4590.850;  175.925;    0.000
274.590; 4578.850;  182.925;    0.000
274.656; 4414.850;  165.925;    0.000
274.722; 4564.850;  152.925;    0.000
274.788; 4561.850;  159.925;    0.000
274.854; 4612.850;  143.925;    0.000
274.920; 4654.850;  117.925;    0.000
274.986; 4636.850;  140.925;    0.000
275.052; 4691.850;  174.925;    0.000
275.118; 4629.850;  129.925;    0.000
275.184; 4833.850;  173.925;    0.000
275.250; 4868.850;  196.925;    0.000
275.316; 4835.850;  142.925;    0.000
275.382; 4902.850;  149.925;    0.000
275.448; 4997.850;  178.925;    0.000
275.514; 5063.850;  136.925;    0.000
275.580; 4981.850;  140.925;    0.000
275.646; 4998.850;  133.925;    0.000
275.712; 5224.850;  162.925;    0.000
275.778; 5233.850;  129.925;    0.000
275.844; 5360.850;  156.925;    0.000
275.910; 5267.850;  172.925;    0.000
275.976; 5368.850;  158.925;    0.000
276.042; 5517.850;  141.925;    0.000
276.108; 5635.850;  212.925;    0.000
276.174; 5683.850;  148.925;    0.000
276.240; 5766.850;  134.925;    0.000
276.306; 5891.850;  149.925;    0.000
276.372; 5959.850;  126.925;    0.000
276.437; 5896.850;  168.925;    0.000
276.503; 6074.850;  158.925;    0.000
276.569; 6374.850;  191.925;    0.000
276.635; 6320.850;  130.925;    0.000
276.701; 6514.850;  161.925;    0.000
276.767; 6499.850;  148.925;    0.000
276.833; 6910.850;  147.925;    0.000
276.899; 6912.850;  149.925;    0.000
276.964; 7141.850;  181.925;    0.000
277.030; 7358.850;  186.925;    0.000
277.096; 7446.850;  132.925;    0.000
277.162; 7710.850;  181.925;    0.000
277.228; 7949.850;  166.925;    0.000
277.293; 8251.850;  154.925;    0.000
277.359; 8522.850;  181.925;    0.000
277.425; 9020.850;  184.925;    0.000
277.491; 9740.850;  150.925;    0.000
277.557;11605.850;  159.925;    0.000
277.622;15002.850;  129.925;    0.000
277.688;15122.850;  184.925;    0.000
277.754;15485.850;  182.925;    0.000
277.820;16781.850;  149.925;    0.000
277.885;19031.850;  185.925;    0.000
277.951;22208.850;  164.925;    0.000
278.017;19952.850;  162.925;    0.000
278.083;18249.850;  189.925;    0.000
278.148;17921.850;  184.925;    0.000
278.214;17916.850;  188.925;    0.000
278.280;18767.850;  206.925;    0.000
278.345;17483.850;  187.925;    0.000
278.411;16275.850;  174.925;    0.000
278.477;16789.850;  190.925;    0.000
278.542;17667.850;  154.925;    0.000
278.608;18894.850;  191.925;    0.000
278.674;20806.850;  243.925;    0.000
278.739;22672.850;  141.925;    0.000
278.805;24973.850;  171.925;    0.000
278.871;29440.850;  181.925;    0.000
278.936;35238.852;  191.925;    0.000
279.002;46674.852;  201.925;    0.000
279.067;55935.852;  174.925;    0.000
279.133;53871.852;  165.925;    0.000
279.199;49721.852;  122.925;    0.000
279.264;51658.852;  159.925;    0.000
279.330;55920.852;  170.925;    0.000
279.395;61984.852;  173.925;    0.000
279.461;62292.852;  200.925;    0.000
279.527;61547.852;  199.925;    0.000
279.592;65012.852;  203.925;    0.000
279.658;65305.852;  209.925;    0.000
279.723;65305.852;  188.925;    0.000
279.789;65305.852;  180.925;    0.000
279.854;64554.852;  137.925;    0.000
279.920;58215.852;  223.925;    0.000
279.985;55761.852;  186.925;    0.000
280.051;57152.852;  198.925;    0.000
280.116;61166.852;  178.925;    0.000
280.182;63582.852;  176.925;    0.000
280.247;63762.852;  195.925;    0.000
280.313;63583.852;  165.925;    0.000
280.378;57903.852;  153.925;    0.000
280.444;49390.852;  181.925;    0.000
280.509;42526.852;  188.925;    0.000
280.574;37080.852;  149.925;    0.000
280.640;32930.852;  164.925;    0.000
280.705;30104.850;  166.925;    0.000
280.771;27454.850;  188.925;    0.000
280.836;25620.850;  188.925;    0.000
280.902;23683.850;  168.925;    0.000
280.967;22526.850;  202.925;    0.000
281.032;21265.850;  197.925;    0.000
281.098;20032.850;  138.925;    0.000
281.163;19201.850;  160.925;    0.000
281.229;18274.850;  212.925;    0.000
281.294;17434.850;  227.925;    0.000
281.359;16781.850;  200.925;    0.000
281.425;16059.850;  189.925;    0.000
281.490;15391.850;  176.925;    0.000
281.555;14872.850;  182.925;    0.000
281.621;14510.850;  169.925;    0.000
281.686;14003.850;  182.925;    0.000
281.751;13588.850;  208.925;    0.000
281.816;13020.850;  166.925;    0.000
281.882;12881.850;  181.925;    0.000
281.947;12300.850;  178.925;    0.000
282.012;12006.850;  167.925;    0.000
282.078;11637.850;  170.925;    0.000
282.143;11411.850;  157.925;    0.000
282.208;11303.850;  158.925;    0.000
282.273;11103.850;  187.925;    0.000
282.339;10982.850;  185.925;    0.000
282.404;10697.850;  201.925;    0.000
282.469;10212.850;  202.925;    0.000
282.534;10314.850;  185.925;    0.000
282.600;10066.850;  125.925;    0.000
282.665; 9906.850;  162.925;    0.000
282.730; 9875.850;  174.925;    0.000
282.795; 9769.850;  179.925;    0.000
282.860; 9632.850;  190.925;    0.000
282.926; 9312.850;  200.925;    0.000
282.991; 9360.850;  161.925;    0.000
283.056; 9256.850;  175.925;    0.000
283.121; 9249.850;  181.925;    0.000
283.186; 9049.850;  221.925;    0.000
283.251; 8847.850;  168.925;    0.000
283.316; 8975.850;  156.925;    0.000
283.382; 8725.850;  197.925;    0.000
283.447; 8631.850;  210.925;    0.000
283.512; 8657.850;  164.925;    0.000
283.577; 8578.850;  212.925;    0.000
283.642; 8588.850;  186.925;    0.000
283.707; 8427.850;  182.925;    0.000
283.772; 8536.850;  127.925;    0.000
283.837; 8527.850;  160.925;    0.000
283.902; 8298.850;  162.925;    0.000
283.967; 8357.850;  151.925;    0.000
284.032; 8330.850;  175.925;    0.000
284.097; 8527.850;  235.925;    0.000
284.163; 8484.850;  136.925;    0.000
284.228; 8666.850;  209.925;    0.000
284.293; 8479.850;  163.925;    0.000
284.358; 8546.850;  169.925;    0.000
284.423; 8896.850;  145.925;    0.000
284.488; 8993.850;  134.925;    0.000
284.553; 9328.850;  158.925;    0.000
284.618; 9532.850;  163.925;    0.000
284.683;10086.850;  168.925;    0.000
284.748;10419.850;  170.925;    0.000
284.812;11137.850;  151.925;    0.000
284.877;12417.850;  169.925;    0.000
284.942;14203.850;  179.925;    0.000
285.007;16834.850;  202.925;    0.000
285.072;20810.850;  171.925;    0.000
285.137;24611.850;  173.925;    0.000
285.202;29175.850;  196.925;    0.000
285.267;30570.850;  193.925;    0.000
285.332;25968.850;  151.925;    0.000
285.397;20832.850;  183.925;    0.000
285.462;17104.850;  168.925;    0.000
285.527;14580.850;  166.925;    0.000
285.591;13084.850;  124.925;    0.000
285.656;11877.850;  145.925;    0.000
285.721;11157.850;  155.925;    0.000
285.786;10379.850;  170.925;    0.000
285.851; 9907.850;  175.925;    0.000
285.916; 9615.850;  186.925;    0.000
285.981; 9043.850;  204.925;    0.000
286.045; 9045.850;  237.925;    0.000
286.110; 8562.850;  197.925;    0.000
286.175; 8486.850;  143.925;    0.000
286.240; 8280.850;  167.925;    0.000
286.305; 8158.850;  202.925;    0.000
286.369; 8129.850;  214.925;    0.000
286.434; 7902.850;  206.925;    0.000
286.499; 7830.850;  177.925;    0.000
286.564; 7905.850;  201.925;    0.000
286.628; 7600.850;  153.925;    0.000
286.693; 7569.850;  161.925;    0.000
286.758; 7526.850;  181.925;    0.000
286.823; 7410.850;  176.925;    0.000
286.887; 7387.850;  158.925;    0.000
286.952; 7301.850;  198.925;    0.000
287.017; 7397.850;  196.925;    0.000
287.082; 7292.850;  154.925;    0.000
287.146; 7248.850;  178.925;    0.000
287.211; 7070.850;  165.925;    0.000
287.276; 7055.850;  165.925;    0.000
287.340; 7155.850;  178.925;    0.000
287.405; 7277.850;  177.925;    0.000
287.470; 7115.850;  141.925;    0.000
287.534; 7104.850;  224.925;    0.000
287.599; 6924.850;  184.925;    0.000
287.663; 7032.850;  177.925;    0.000
287.728; 6969.850;  144.925;    0.000
287.793; 6798.850;  210.925;    0.000
287.857; 6967.850;  198.925;    0.000
287.922; 6829.850;  168.925;    0.000
287.987; 6853.850;  168.925;    0.000
288.051; 6831.850;  200.925;    0.000
288.116; 6806.850;  199.925;    0.000
288.180; 6806.850;  211.925;    0.000
288.245; 6719.850;  182.925;    0.000
288.309; 6675.850;  180.925;    0.000
288.374; 6682.850;  196.925;    0.000
288.439; 6666.850;  187.925;    0.000
288.503; 6630.850;  159.925;    0.000
288.568; 6632.850;  207.925;    0.000
288.632; 6678.850;  210.925;    0.000
288.697; 6726.850;  196.925;    0.000
288.761; 6610.850;  175.925;    0.000
288.826; 6374.850;  159.925;    0.000
288.890; 6525.850;  183.925;    0.000
288.955; 6542.850;  149.925;    0.000
289.019; 6472.850;  194.925;    0.000
289.084; 6502.850;  171.925;    0.000
289.148; 6532.850;  191.925;    0.000
289.212; 6579.850;  217.925;    0.000
289.277; 6438.850;  196.925;    0.000
289.341; 6393.850;  211.925;    0.000
289.406; 6310.850;  165.925;    0.000
289.470; 6441.850;  197.925;    0.000
289.535; 6406.850;  208.925;    0.000
289.599; 6438.850;  192.925;    0.000
289.663; 6409.850;  169.925;    0.000
289.728; 6468.850;  168.925;    0.000
289.792; 6521.850;  192.925;    0.000
289.857; 6408.850;  202.925;    0.000
289.921; 6264.850;  176.925;    0.000
289.985; 6275.850;  164.925;    0.000
290.050; 6329.850;  166.925;    0.000
290.114; 6397.850;  192.925;    0.000
290.178; 6203.850;  155.925;    0.000
290.243; 6285.850;  158.925;    0.000
290.307; 6338.850;  192.925;    0.000
290.371; 6233.850;  161.925;    0.000
290.436; 6535.850;  182.925;    0.000
290.500; 6442.850;  147.925;    0.000
290.564; 6547.850;  209.925;    0.000
290.629; 6382.850;  172.925;    0.000
290.693; 6365.850;  192.925;    0.000
290.757; 6340.850;  147.925;    0.000
290.821; 6460.850;  139.925;    0.000
290.886; 6494.850;  186.925;    0.000
290.950; 6550.850;  196.925;    0.000
291.014; 6541.850;  166.925;    0.000
291.078; 6521.850;  143.925;    0.000
291.143; 6591.850;  171.925;    0.000
291.207; 6642.850;  187.925;    0.000
291.271; 6948.850;  208.925;    0.000
291.335; 6857.850;  195.925;    0.000
291.399; 7219.850;  139.925;    0.000
291.464; 7548.850;  139.925;    0.000
291.528; 8100.850;  183.925;    0.000
291.592; 7793.850;  152.925;    0.000
291.656; 7345.850;  155.925;    0.000
291.720; 7186.850;  191.925;    0.000
291.784; 7091.850;  185.925;    0.000
291.849; 7167.850;  175.925;    0.000
291.913; 7097.850;  152.925;    0.000
291.977; 7191.850;  203.925;    0.000
292.041; 7104.850;  181.925;    0.000
292.105; 7030.850;  168.925;    0.000
292.169; 7142.850;  133.925;    0.000
292.233; 7355.850;  156.925;    0.000
292.297; 7346.850;  173.925;    0.000
292.361; 7715.850;  124.925;    0.000
292.425; 7728.850;  138.925;    0.000
292.490; 8094.850;  110.925;    0.000
292.554; 8612.850;  180.925;    0.000
292.618; 9142.850;  178.925;    0.000
292.682; 9936.850;  156.925;    0.000
292.746;11515.850;  151.925;    0.000
292.810;15528.850;  183.925;    0.000
292.874;19597.850;  156.925;    0.000
292.938;19892.850;  195.925;    0.000
293.002;18019.850;  200.925;    0.000
293.066;16192.850;  171.925;    0.000
293.130;14635.850;  163.925;    0.000
293.194;13759.850;  174.925;    0.000
293.258;13427.850;  167.925;    0.000
293.322;13198.850;  212.925;    0.000
293.386;13513.850;  189.925;    0.000
293.450;14434.850;  169.925;    0.000
293.514;16130.850;  175.925;    0.000
293.577;21460.850;  169.925;    0.000
293.641;28754.850;  186.925;    0.000
293.705;30877.850;  222.925;    0.000
293.769;27388.850;  150.925;    0.000
293.833;23702.850;  165.925;    0.000
293.897;20785.850;  152.925;    0.000
293.961;18434.850;  179.925;    0.000
294.025;16771.850;  159.925;    0.000
294.089;15411.850;  181.925;    0.000
294.152;14286.850;  188.925;    0.000
294.216;13359.850;  170.925;    0.000
294.280;12440.850;  167.925;    0.000
294.344;11738.850;  151.925;    0.000
294.408;11126.850;  180.925;    0.000
294.472;10488.850;  144.925;    0.000
294.536;10346.850;  171.925;    0.000
294.599; 9973.850;  157.925;    0.000
294.663; 9554.850;  139.925;    0.000
294.727; 9112.850;  208.925;    0.000
294.791; 9059.850;  152.925;    0.000
294.855; 8780.850;  181.925;    0.000
294.918; 8461.850;  136.925;    0.000
294.982; 8364.850;  155.925;    0.000
295.046; 8145.850;  200.925;    0.000
295.110; 8038.850;  190.925;    0.000
295.173; 7709.850;  156.925;    0.000
295.237; 7573.850;  160.925;    0.000
295.301; 7561.850;  145.925;    0.000
295.364; 7431.850;  166.925;    0.000
295.428; 7392.850;  125.925;    0.000
295.492; 7143.850;  154.925;    0.000
295.556; 6977.850;  172.925;    0.000
295.619; 7133.850;  210.925;    0.000
295.683; 6978.850;  181.925;    0.000
295.747; 6813.850;  176.925;    0.000
295.810; 6888.850;  181.925;    0.000
295.874; 6677.850;  160.925;    0.000
295.938; 6589.850;  119.925;    0.000
296.001; 6638.850;  206.925;    0.000
296.065; 6495.850;  136.925;    0.000
296.128; 6347.850;  156.925;    0.000
296.192; 6431.850;  174.925;    0.000
296.256; 6419.850;  145.925;    0.000
296.319; 6332.850;  167.925;    0.000
296.383; 6210.850;  168.925;    0.000
296.447; 6160.850;  190.925;    0.000
296.510; 6090.850;  165.925;    0.000
296.574; 6048.850;  184.925;    0.000
296.637; 6169.850;  155.925;    0.000
296.701; 5986.850;  168.925;    0.000
296.764; 5923.850;  161.925;    0.000
296.828; 6004.850;  218.925;    0.000
296.891; 5991.850;  176.925;    0.000
296.955; 5915.850;  169.925;    0.000
297.018; 5820.850;  168.925;    0.000
297.082; 5940.850;  176.925;    0.000
297.145; 5689.850;  171.925;    0.000
297.209; 5856.850;  196.925;    0.000
297.272; 5830.850;  170.925;    0.000
297.336; 5641.850;  156.925;    0.000
297.399; 5691.850;  168.925;    0.000
297.463; 5663.850;  203.925;    0.000
297.526; 5763.850;  164.925;    0.000
297.590; 5712.850;  175.925;    0.000
297.653; 5637.850;  170.925;    0.000
297.717; 5686.850;  156.925;    0.000
297.780; 5608.850;  149.925;    0.000
297.843; 5646.850;  156.925;    0.000
297.907; 5563.850;  129.925;    0.000
297.970; 5583.850;  163.925;    0.000
298.034; 5388.850;  162.925;    0.000
298.097; 5485.850;  182.925;    0.000
298.160; 5430.850;  194.925;    0.000
298.224; 5464.850;  178.925;    0.000
298.287; 5432.850;  147.925;    0.000
298.350; 5481.850;  187.925;    0.000
298.414; 5433.850;  193.925;    0.000
298.477; 5302.850;  127.925;    0.000
298.540; 5403.850;  181.925;    0.000
298.604; 5237.850;  163.925;    0.000
298.667; 5391.850;  177.925;    0.000
298.730; 5189.850;  192.925;    0.000
298.794; 5278.850;  183.925;    0.000
298.857; 5212.850;  194.925;    0.000
298.920; 5231.850;  147.925;    0.000
298.984; 5318.850;  184.925;    0.000
299.047; 5279.850;  218.925;    0.000
299.110; 5096.850;  171.925;    0.000
299.173; 5169.850;  177.925;    0.000
299.237; 5126.850;  181.925;    0.000
299.300; 5240.850;  170.925;    0.000
299.363; 5078.850;  185.925;    0.000
299.426; 5131.850;  193.925;    0.000
299.489; 5083.850;  184.925;    0.000
299.553; 5084.850;  194.925;    0.000
299.616; 5109.850;  171.925;    0.000
299.679; 5088.850;  182.925;    0.000
299.742; 4974.850;  138.925;    0.000
299.805; 5196.850;  172.925;    0.000
299.868; 4883.850;  191.925;    0.000
299.932; 5071.850;  193.925;    0.000
299.995; 5101.850;  201.925;    0.000
300.058; 4912.850;  177.925;    0.000
300.121; 4931.850;  178.925;    0.000
300.184; 5022.850;  171.925;    0.000
300.247; 4922.850;  184.925;    0.000
300.310; 4851.850;  200.925;    0.000
300.374; 4953.850;  172.925;    0.000
300.437; 4866.850;  187.925;    0.000
300.500; 4950.850;  211.925;    0.000
300.563; 4850.850;  190.925;    0.000
300.626; 4836.850;  196.925;    0.000
300.689; 4901.850;  162.925;    0.000
300.752; 4782.850;  163.925;    0.000
300.815; 4808.850;  207.925;    0.000
300.878; 4730.850;  221.925;    0.000
300.941; 4715.850;  176.925;    0.000
301.004; 4727.850;  193.925;    0.000
301.067; 4810.850;  165.925;    0.000
301.130; 4739.850;  179.925;    0.000
301.193; 4760.850;  196.925;    0.000
301.256; 4818.850;  210.925;    0.000
301.319; 4756.850;  196.925;    0.000
301.382; 4716.850;  162.925;    0.000
301.445; 4786.850;  233.925;    0.000
301.508; 4801.850;  176.925;    0.000
301.571; 4654.850;  185.925;    0.000
301.634; 4791.850;  202.925;    0.000
301.697; 4713.850;  189.925;    0.000
301.760; 4658.850;  224.925;    0.000
301.823; 4725.850;  212.925;    0.000
301.885; 4724.850;  196.925;    0.000
301.948; 4794.850;  169.925;    0.000
302.011; 4703.850;  160.925;    0.000
302.074; 4726.850;  202.925;    0.000
302.137; 4641.850;  130.925;    0.000
302.200; 4569.850;  188.925;    0.000
302.263; 4618.850;  196.925;    0.000
302.326; 4668.850;  172.925;    0.000
302.388; 4634.850;  197.925;    0.000
302.451; 4649.850;  203.925;    0.000
302.514; 4545.850;  164.925;    0.000
302.577; 4642.850;  170.925;    0.000
302.640; 4573.850;  156.925;    0.000
302.703; 4526.850;  188.925;    0.000
302.765; 4577.850;  213.925;    0.000
302.828; 4637.850;  212.925;    0.000
302.891; 4632.850;  203.925;    0.000
302.954; 4463.850;  148.925;    0.000
303.016; 4688.850;  168.925;    0.000
303.079; 4697.850;  206.925;    0.000
303.142; 4533.850;  210.925;    0.000
303.205; 4495.850;  189.925;    0.000
303.267; 4564.850;  174.925;    0.000
303.330; 4501.850;  198.925;    0.000
303.393; 4487.850;  207.925;    0.000
303.456; 4475.850;  177.925;    0.000
303.518; 4554.850;  192.925;    0.000
303.581; 4491.850;  171.925;    0.000
303.644; 4577.850;  193.925;    0.000
303.706; 4580.850;  185.925;    0.000
303.769; 4602.850;  198.925;    0.000
303.832; 4438.850;  192.925;    0.000
303.894; 4564.850;  199.925;    0.000
303.957; 4609.850;  160.925;    0.000
304.020; 4573.850;  184.925;    0.000
304.082; 4502.850;  191.925;    0.000
304.145; 4546.850;  216.925;    0.000
304.207; 4629.850;  175.925;    0.000
304.270; 4483.850;  192.925;    0.000
304.333; 4503.850;  218.925;    0.000
304.395; 4604.850;  195.925;    0.000
304.458; 4544.850;  206.925;    0.000
304.520; 4587.850;  229.925;    0.000
304.583; 4558.850;  202.925;    0.000
304.646; 4560.850;  159.925;    0.000
304.708; 4525.850;  167.925;    0.000
304.771; 4577.850;  141.925;    0.000
304.833; 4538.850;  184.925;    0.000
304.896; 4574.850;  197.925;    0.000
304.958; 4553.850;  179.925;    0.000
305.021; 4535.850;  175.925;    0.000
305.083; 4475.850;  182.925;    0.000
305.146; 4624.850;  182.925;    0.000
305.208; 4602.850;  174.925;    0.000
305.271; 4477.850;  157.925;    0.000
305.333; 4338.850;  185.925;    0.000
305.396; 4450.850;  199.925;    0.000
305.458; 4531.850;  203.925;    0.000
305.520; 4490.850;  195.925;    0.000
305.583; 4557.850;  152.925;    0.000
305.645; 4580.850;  200.925;    0.000
305.708; 4504.850;  149.925;    0.000
305.770; 4680.850;  211.925;    0.000
305.833; 4450.850;  189.925;    0.000
305.895; 4545.850;  200.925;    0.000
305.957; 4539.850;  166.925;    0.000
306.020; 4449.850;  186.925;    0.000
306.082; 4579.850;  197.925;    0.000
306.144; 4586.850;  200.925;    0.000
306.207; 4499.850;  180.925;    0.000
306.269; 4562.850;  209.925;    0.000
306.331; 4529.850;  205.925;    0.000
306.394; 4556.850;  176.925;    0.000
306.456; 4580.850;  184.925;    0.000
306.518; 4464.850;  210.925;    0.000
306.581; 4516.850;  162.925;    0.000
306.643; 4491.850;  196.925;    0.000
306.705; 4551.850;  204.925;    0.000
306.768; 4657.850;  158.925;    0.000
306.830; 4703.850;  205.925;    0.000
306.892; 4685.850;  189.925;    0.000
306.954; 4674.850;  188.925;    0.000
307.017; 4718.850;  180.925;    0.000
307.079; 4743.850;  197.925;    0.000
307.141; 4760.850;  184.925;    0.000
307.203; 4743.850;  182.925;    0.000
307.266; 4800.850;  166.925;    0.000
307.328; 4846.850;  186.925;    0.000
307.390; 4730.850;  176.925;    0.000
307.452; 4823.850;  194.925;    0.000
307.514; 4764.850;  225.925;    0.000
307.577; 4759.850;  209.925;    0.000
307.639; 4864.850;  203.925;    0.000
307.701; 4694.850;  214.925;    0.000
307.763; 4834.850;  203.925;    0.000
307.825; 4883.850;  202.925;    0.000
307.887; 4784.850;  244.925;    0.000
307.949; 4793.850;  173.925;    0.000
308.012; 4834.850;  219.925;    0.000
308.074; 4774.850;  157.925;    0.000
308.136; 4916.850;  215.925;    0.000
308.198; 4833.850;  186.925;    0.000
308.260; 4999.850;  186.925;    0.000
308.322; 4982.850;  201.925;    0.000
308.384; 4920.850;  218.925;    0.000
308.446; 4999.850;  159.925;    0.000
308.508; 5023.850;  191.925;    0.000
308.570; 4992.850;  185.925;    0.000
308.632; 5014.850;  208.925;    0.000
308.694; 5175.850;  161.925;    0.000
308.756; 5068.850;  169.925;    0.000
308.818; 5178.850;  187.925;    0.000
308.880; 5195.850;  192.925;    0.000
308.942; 5196.850;  194.925;    0.000
309.004; 5310.850;  206.925;    0.000
309.066; 5479.850;  204.925;    0.000
309.128; 5524.850;  181.925;    0.000
309.190; 5822.850;  166.925;    0.000
309.252; 5999.850;  213.925;    0.000
309.314; 6006.850;  249.925;    0.000
309.376; 6208.850;  238.925;    0.000
309.438; 6123.850;  206.925;    0.000
309.500; 6000.850;  185.925;    0.000
309.562; 6034.850;  214.925;    0.000
309.624; 6176.850;  216.925;    0.000
309.686; 6423.850;  197.925;    0.000
309.747; 6380.850;  171.925;    0.000
309.809; 6153.850;  198.925;    0.000
309.871; 6056.850;  185.925;    0.000
309.933; 5921.850;  172.925;    0.000
309.995; 5796.850;  168.925;    0.000
310.057; 5733.850;  177.925;    0.000
310.119; 5661.850;  207.925;    0.000
310.180; 5605.850;  180.925;    0.000
310.242; 5433.850;  202.925;    0.000
310.304; 5489.850;  200.925;    0.000
310.366; 5341.850;  222.925;    0.000
310.428; 5429.850;  179.925;    0.000
310.489; 5549.850;  196.925;    0.000
310.551; 5253.850;  203.925;    0.000
310.613; 5349.850;  198.925;    0.000
310.675; 5327.850;  203.925;    0.000
310.737; 5391.850;  195.925;    0.000
310.798; 5349.850;  204.925;    0.000
310.860; 5363.850;  195.925;    0.000
310.922; 5307.850;  195.925;    0.000
310.983; 5306.850;  225.925;    0.000
311.045; 5154.850;  203.925;    0.000
311.107; 5155.850;  194.925;    0.000
311.169; 5056.850;  185.925;    0.000
311.230; 5118.850;  175.925;    0.000
311.292; 5192.850;  220.925;    0.000
311.354; 5160.850;  189.925;    0.000
311.415; 5028.850;  187.925;    0.000
311.477; 5089.850;  180.925;    0.000
311.539; 5048.850;  175.925;    0.000
311.600; 5085.850;  192.925;    0.000
311.662; 5293.850;  212.925;    0.000
311.724; 5077.850;  217.925;    0.000
311.785; 4993.850;  218.925;    0.000
311.847; 5037.850;  219.925;    0.000
311.908; 4989.850;  202.925;    0.000
311.970; 5005.850;  186.925;    0.000
312.032; 4987.850;  212.925;    0.000
312.093; 5011.850;  203.925;    0.000
312.155; 4953.850;  165.925;    0.000
312.216; 5117.850;  183.925;    0.000
312.278; 4893.850;  167.925;    0.000
312.339; 5054.850;  190.925;    0.000
312.401; 5096.850;  219.925;    0.000
312.462; 4841.850;  190.925;    0.000
312.524; 4907.850;  203.925;    0.000
312.585; 4977.850;  191.925;    0.000
312.647; 4954.850;  197.925;    0.000
312.708; 5057.850;  203.925;    0.000
312.770; 5031.850;  203.925;    0.000
312.831; 5008.850;  155.925;    0.000
312.893; 5001.850;  189.925;    0.000
312.954; 4972.850;  212.925;    0.000
313.016; 4925.850;  179.925;    0.000
313.077; 5000.850;  209.925;    0.000
313.139; 4885.850;  185.925;    0.000
313.200; 4849.850;  180.925;    0.000
313.261; 4981.850;  220.925;    0.000
313.323; 4933.850;  171.925;    0.000
313.384; 4983.850;  180.925;    0.000
313.446; 4895.850;  202.925;    0.000
313.507; 4945.850;  172.925;    0.000
313.568; 4983.850;  192.925;    0.000
313.630; 4911.850;  191.925;    0.000
313.691; 4902.850;  176.925;    0.000
313.752; 5092.850;  175.925;    0.000
313.814; 4921.850;  202.925;    0.000
313.875; 4808.850;  186.925;    0.000
313.936; 4832.850;  199.925;    0.000
313.998; 4898.850;  164.925;    0.000
314.059; 4967.850;  159.925;    0.000
314.120; 4771.850;  175.925;    0.000
314.182; 4935.850;  181.925;    0.000
314.243; 4885.850;  157.925;    0.000
314.304; 4930.850;  168.925;    0.000
314.365; 5068.850;  203.925;    0.000
314.427; 4820.850;  151.925;    0.000
314.488; 4848.850;  174.925;    0.000
314.549; 4841.850;  184.925;    0.000
314.610; 4844.850;  198.925;    0.000
314.672; 4861.850;  193.925;    0.000
314.733; 4755.850;  171.925;    0.000
314.794; 4903.850;  141.925;    0.000
314.855; 4829.850;  184.925;    0.000
314.917; 4861.850;  175.925;    0.000
314.978; 4805.850;  190.925;    0.000
315.039; 4858.850;  183.925;    0.000
315.100; 4866.850;  204.925;    0.000
315.161; 4783.850;  202.925;    0.000
315.222; 4803.850;  177.925;    0.000
315.283; 4757.850;  191.925;    0.000
315.345; 4710.850;  185.925;    0.000
315.406; 4818.850;  194.925;    0.000
315.467; 4814.850;  167.925;    0.000
315.528; 4748.850;  174.925;    0.000
315.589; 4827.850;  197.925;    0.000
315.650; 4764.850;  192.925;    0.000
315.711; 4846.850;  181.925;    0.000
315.772; 4780.850;  157.925;    0.000
315.833; 4779.850;  189.925;    0.000
315.894; 4740.850;  184.925;    0.000
315.955; 4669.850;  202.925;    0.000
316.016; 4696.850;  220.925;    0.000
316.078; 4679.850;  180.925;    0.000
316.139; 4886.850;  240.925;    0.000
316.200; 4761.850;  190.925;    0.000
316.261; 4683.850;  179.925;    0.000
316.322; 4803.850;  176.925;    0.000
316.383; 4818.850;  188.925;    0.000
316.444; 4766.850;  228.925;    0.000
316.504; 4711.850;  199.925;    0.000
316.565; 4596.850;  221.925;    0.000
316.626; 4798.850;  204.925;    0.000
316.687; 4744.850;  192.925;    0.000
316.748; 4864.850;  220.925;    0.000
316.809; 4694.850;  175.925;    0.000
316.870; 4607.850;  164.925;    0.000
316.931; 4732.850;  208.925;    0.000
316.992; 4743.850;  224.925;    0.000
317.053; 4611.850;  204.925;    0.000
317.114; 4682.850;  199.925;    0.000
317.175; 4714.850;  230.925;    0.000
317.235; 4615.850;  186.925;    0.000
317.296; 4688.850;  224.925;    0.000
317.357; 4750.850;  154.925;    0.000
317.418; 4690.850;  219.925;    0.000
317.479; 4686.850;  229.925;    0.000
317.540; 4600.850;  201.925;    0.000
317.601; 4637.850;  180.925;    0.000
317.661; 4652.850;  179.925;    0.000
317.722; 4702.850;  193.925;    0.000
317.783; 4664.850;  164.925;    0.000
317.844; 4673.850;  232.925;    0.000
317.904; 4687.850;  222.925;    0.000
317.965; 4549.850;  199.925;    0.000
318.026; 4694.850;  200.925;    0.000
318.087; 4565.850;  182.925;    0.000
318.148; 4537.850;  216.925;    0.000
318.208; 4646.850;  239.925;    0.000
318.269; 4601.850;  163.925;    0.000
318.330; 4676.850;  204.925;    0.000
318.390; 4733.850;  191.925;    0.000
318.451; 4531.850;  200.925;    0.000
318.512; 4604.850;  181.925;    0.000
318.572; 4601.850;  233.925;    0.000
318.633; 4671.850;  220.925;    0.000
318.694; 4573.850;  179.925;    0.000
318.754; 4560.850;  214.925;    0.000
318.815; 4579.850;  214.925;    0.000
318.876; 4619.850;  220.925;    0.000
318.936; 4686.850;  212.925;    0.000
318.997; 4567.850;  201.925;    0.000
319.058; 4607.850;  215.925;    0.000
319.118; 4648.850;  251.925;    0.000
319.179; 4608.850;  240.925;    0.000
319.239; 4696.850;  240.925;    0.000
319.300; 4732.850;  232.925;    0.000
319.361; 4570.850;  211.925;    0.000
319.421; 4563.850;  219.925;    0.000
319.482; 4525.850;  228.925;    0.000
319.542; 4549.850;  216.925;    0.000
319.603; 4529.850;  190.925;    0.000
319.663; 4720.850;  227.925;    0.000
319.724; 4570.850;  191.925;    0.000
319.784; 4571.850;  196.925;    0.000
319.845; 4605.850;  190.925;    0.000
319.905; 4529.850;  221.925;    0.000
319.966; 4565.850;  219.925;    0.000
320.026; 4576.850;  233.925;    0.000
320.087; 4516.850;  204.925;    0.000
320.147; 4645.850;  189.925;    0.000
320.208; 4403.850;  200.925;    0.000
320.268; 4371.850;  217.925;    0.000
320.329; 4537.850;  216.925;    0.000
320.389; 4633.850;  228.925;    0.000
320.449; 4519.850;  236.925;    0.000
320.510; 4594.850;  234.925;    0.000
320.570; 4502.850;  176.925;    0.000
320.631; 4541.850;  228.925;    0.000
320.691; 4475.850;  228.925;    0.000
320.751; 4566.850;  188.925;    0.000
320.812; 4412.850;  223.925;    0.000
320.872; 4610.850;  268.925;    0.000
320.932; 4527.850;  226.925;    0.000
320.993; 4504.850;  216.925;    0.000
321.053; 4506.850;  236.925;    0.000
321.113; 4567.850;  197.925;    0.000
321.174; 4528.850;  218.925;    0.000
321.234; 4462.850;  229.925;    0.000
321.294; 4591.850;  208.925;    0.000
321.355; 4480.850;  248.925;    0.000
321.415; 4604.850;  218.925;    0.000
321.475; 4525.850;  173.925;    0.000
321.535; 4454.850;  234.925;    0.000
321.596; 4366.850;  202.925;    0.000
321.656; 4393.850;  246.925;    0.000
321.716; 4371.850;  235.925;    0.000
321.776; 4425.850;  210.925;    0.000
321.837; 4482.850;  217.925;    0.000
321.897; 4434.850;  215.925;    0.000
321.957; 4499.850;  239.925;    0.000
322.017; 4400.850;  173.925;    0.000
322.077; 4469.850;  263.925;    0.000
322.138; 4448.850;  232.925;    0.000
322.198; 4308.850;  211.925;    0.000
322.258; 4396.850;  213.925;    0.000
322.318; 4269.850;  168.925;    0.000
322.378; 4437.850;  251.925;    0.000
322.438; 4321.850;  212.925;    0.000
322.499; 4425.850;  265.925;    0.000
322.559; 4353.850;  210.925;    0.000
322.619; 4357.850;  242.925;    0.000
322.679; 4425.850;  229.925;    0.000
322.739; 4371.850;  216.925;    0.000
322.799; 4467.850;  238.925;    0.000
322.859; 4347.850;  249.925;    0.000
322.919; 4387.850;  211.925;    0.000
322.979; 4349.850;  244.925;    0.000
323.039; 4336.850;  226.925;    0.000
323.099; 4374.850;  223.925;    0.000
323.159; 4402.850;  232.925;    0.000
323.219; 4336.850;  203.925;    0.000
323.279; 4419.850;  218.925;    0.000
323.339; 4287.850;  231.925;    0.000
323.399; 4390.850;  255.925;    0.000
323.459; 4346.850;  244.925;    0.000
323.519; 4333.850;  213.925;    0.000
323.579; 4296.850;  193.925;    0.000
323.639; 4296.850;  191.925;    0.000
323.699; 4232.850;  199.925;    0.000
323.759; 4272.850;  246.925;    0.000
323.819; 4413.850;  206.925;    0.000
323.879; 4289.850;  238.925;    0.000
323.939; 4217.850;  229.925;    0.000
323.999; 4309.850;  219.925;    0.000
324.059; 4351.850;  177.925;    0.000
324.119; 4311.850;  235.925;    0.000
324.178; 4259.850;  211.925;    0.000
324.238; 4253.850;  168.925;    0.000
324.298; 4339.850;  205.925;    0.000
324.358; 4382.850;  224.925;    0.000
324.418; 4348.850;  235.925;    0.000
324.478; 4370.850;  187.925;    0.000
324.538; 4237.850;  230.925;    0.000
324.597; 4408.850;  206.925;    0.000
324.657; 4256.850;  180.925;    0.000
324.717; 4183.850;  175.925;    0.000
324.777; 4248.850;  169.925;    0.000
324.837; 4135.850;  165.925;    0.000
324.896; 4187.850;  205.925;    0.000
324.956; 4271.850;  216.925;    0.000
325.016; 4204.850;  197.925;    0.000
325.076; 4261.850;  220.925;    0.000
325.135; 4368.850;  242.925;    0.000
325.195; 4340.850;  186.925;    0.000
325.255; 4236.850;  160.925;    0.000
325.315; 4253.850;  198.925;    0.000
325.374; 4263.850;  208.925;    0.000
325.434; 4195.850;  209.925;    0.000
325.494; 4163.850;  191.925;    0.000
325.553; 4275.850;  190.925;    0.000
325.613; 4257.850;  229.925;    0.000
325.673; 4276.850;  172.925;    0.000
325.732; 4312.850;  160.925;    0.000
325.792; 4188.850;  177.925;    0.000
325.852; 4250.850;  201.925;    0.000
325.911; 4301.850;  226.925;    0.000
325.971; 4395.850;  224.925;    0.000
326.031; 4223.850;  202.925;    0.000
326.090; 4277.850;  232.925;    0.000
326.150; 4086.850;  230.925;    0.000
326.209; 4233.850;  201.925;    0.000
326.269; 4302.850;  202.925;    0.000
326.328; 4230.850;  203.925;    0.000
326.388; 4219.850;  194.925;    0.000
326.448; 4302.850;  233.925;    0.000
326.507; 4181.850;  192.925;    0.000
326.567; 4104.850;  163.925;    0.000
326.626; 4236.850;  227.925;    0.000
326.686; 4118.850;  177.925;    0.000
326.745; 4050.850;  210.925;    0.000
326.805; 4091.850;  198.925;    0.000
326.864; 4065.850;  185.925;    0.000
326.924; 4127.850;  255.925;    0.000
326.983; 4082.850;  208.925;    0.000
327.043; 4194.850;  241.925;    0.000
327.102; 4048.850;  183.925;    0.000
327.161; 4127.850;  210.925;    0.000
327.221; 4080.850;  213.925;    0.000
327.280; 4034.850;  194.925;    0.000
327.340; 4008.850;  212.925;    0.000
327.399; 4113.850;  209.925;    0.000
327.459; 4148.850;  229.925;    0.000
327.518; 4051.850;  196.925;    0.000
327.577; 3970.850;  197.925;    0.000
327.637; 4025.850;  210.925;    0.000
327.696; 4019.850;  196.925;    0.000
327.755; 3973.850;  216.925;    0.000
327.815; 4058.850;  240.925;    0.000
327.874; 4094.850;  250.925;    0.000
327.933; 3967.850;  229.925;    0.000
327.993; 4026.850;  202.925;    0.000
328.052; 4079.850;  178.925;    0.000
328.111; 3978.850;  230.925;    0.000
328.171; 4054.850;  207.925;    0.000
328.230; 4008.850;  170.925;    0.000
328.289; 4100.850;  205.925;    0.000
328.349; 4002.850;  235.925;    0.000
328.408; 4054.850;  231.925;    0.000
328.467; 4036.850;  217.925;    0.000
328.526; 4043.850;  239.925;    0.000
328.586; 3967.850;  214.925;    0.000
328.645; 4038.850;  205.925;    0.000
328.704; 4008.850;  211.925;    0.000
328.763; 3963.850;  208.925;    0.000
328.822; 3934.850;  251.925;    0.000
328.882; 3934.850;  211.925;    0.000
328.941; 3940.850;  232.925;    0.000
329.000; 4009.850;  235.925;    0.000
329.059; 3898.850;  222.925;    0.000
329.118; 3958.850;  265.925;    0.000
329.177; 3900.850;  237.925;    0.000
329.237; 3983.850;  258.925;    0.000
329.296; 4021.850;  225.925;    0.000
329.355; 3988.850;  227.925;    0.000
329.414; 3984.850;  212.925;    0.000
329.473; 3929.850;  250.925;    0.000
329.532; 4046.850;  263.925;    0.000
329.591; 3987.850;  212.925;    0.000
329.650; 3989.850;  219.925;    0.000
329.709; 4127.850;  218.925;    0.000
329.768; 4073.850;  195.925;    0.000
329.827; 4240.850;  223.925;    0.000
329.886; 4068.850;  230.925;    0.000
329.945; 4311.850;  211.925;    0.000
330.004; 4298.850;  247.925;    0.000
330.063; 4465.850;  193.925;    0.000
330.122; 4873.850;  229.925;    0.000
330.181; 5351.850;  223.925;    0.000
330.240; 5406.850;  199.925;    0.000
330.299; 4942.850;  211.925;    0.000
330.358; 4469.850;  198.925;    0.000
330.417; 4167.850;  190.925;    0.000
330.476; 4124.850;  237.925;    0.000
330.535; 4120.850;  239.925;    0.000
330.594; 4002.850;  207.925;    0.000
330.653; 3941.850;  193.925;    0.000
330.712; 3918.850;  225.925;    0.000
330.771; 3861.850;  236.925;    0.000
330.830; 3811.850;  219.925;    0.000
330.889; 3866.850;  211.925;    0.000
330.948; 3925.850;  194.925;    0.000
331.006; 3868.850;  190.925;    0.000
331.065; 3843.850;  192.925;    0.000
331.124; 3860.850;  195.925;    0.000
331.183; 3874.850;  191.925;    0.000
331.242; 3823.850;  203.925;    0.000
331.301; 3859.850;  183.925;    0.000
331.359; 3800.850;  196.925;    0.000
331.418; 3771.850;  209.925;    0.000
331.477; 3804.850;  255.925;    0.000
331.536; 3742.850;  237.925;    0.000
331.595; 3774.850;  217.925;    0.000
331.653; 3835.850;  198.925;    0.000
331.712; 3752.850;  194.925;    0.000
331.771; 3775.850;  229.925;    0.000
331.830; 3752.850;  254.925;    0.000
331.888; 3808.850;  218.925;    0.000
331.947; 3800.850;  211.925;    0.000
332.006; 3767.850;  261.925;    0.000
332.065; 3670.850;  204.925;    0.000
332.123; 3647.850;  225.925;    0.000
332.182; 3709.850;  193.925;    0.000
332.241; 3733.850;  201.925;    0.000
332.299; 3770.850;  182.925;    0.000
332.358; 3756.850;  244.925;    0.000
332.417; 3772.850;  218.925;    0.000
332.475; 3807.850;  218.925;    0.000
332.534; 3845.850;  228.925;    0.000
332.592; 3742.850;  199.925;    0.000
332.651; 3711.850;  204.925;    0.000
332.710; 3761.850;  217.925;    0.000
332.768; 3818.850;  195.925;    0.000
332.827; 3743.850;  182.925;    0.000
332.885; 3920.850;  247.925;    0.000
332.944; 3854.850;  170.925;    0.000
333.003; 4047.850;  200.925;    0.000
333.061; 3928.850;  243.925;    0.000
333.120; 4018.850;  235.925;    0.000
333.178; 4389.850;  195.925;    0.000
333.237; 4154.850;  217.925;    0.000
333.295; 4158.850;  252.925;    0.000
333.354; 4059.850;  201.925;    0.000
333.412; 4002.850;  181.925;    0.000
333.471; 4019.850;  239.925;    0.000
333.529; 4038.850;  214.925;    0.000
333.588; 4136.850;  232.925;    0.000
333.646; 4368.850;  202.925;    0.000
333.705; 4428.850;  232.925;    0.000
333.763; 4284.850;  215.925;    0.000
333.822; 4184.850;  187.925;    0.000
333.880; 4119.850;  186.925;    0.000
333.938; 3925.850;  185.925;    0.000
333.997; 4017.850;  234.925;    0.000
334.055; 3957.850;  255.925;    0.000
334.114; 4017.850;  225.925;    0.000
334.172; 3976.850;  209.925;    0.000
334.230; 3917.850;  194.925;    0.000
334.289; 3957.850;  213.925;    0.000
334.347; 3973.850;  235.925;    0.000
334.405; 3897.850;  242.925;    0.000
334.464; 3947.850;  208.925;    0.000
334.522; 3895.850;  197.925;    0.000
334.580; 3797.850;  204.925;    0.000
334.639; 3907.850;  217.925;    0.000
334.697; 3849.850;  183.925;    0.000
334.755; 3876.850;  196.925;    0.000
334.814; 3860.850;  216.925;    0.000
334.872; 3699.850;  190.925;    0.000
334.930; 3734.850;  162.925;    0.000
334.988; 3815.850;  261.925;    0.000
335.047; 3857.850;  220.925;    0.000
335.105; 3717.850;  190.925;    0.000
335.163; 3890.850;  201.925;    0.000
335.221; 3820.850;  213.925;    0.000
335.280; 3848.850;  202.925;    0.000
335.338; 3811.850;  210.925;    0.000
335.396; 3765.850;  255.925;    0.000
335.454; 3844.850;  216.925;    0.000
335.512; 3897.850;  242.925;    0.000
335.570; 3741.850;  227.925;    0.000
335.629; 3740.850;  225.925;    0.000
335.687; 3877.850;  227.925;    0.000
335.745; 3867.850;  194.925;    0.000
335.803; 3847.850;  221.925;    0.000
335.861; 3945.850;  217.925;    0.000
335.919; 3825.850;  214.925;    0.000
335.977; 3979.850;  209.925;    0.000
336.035; 3848.850;  215.925;    0.000
336.094; 3794.850;  198.925;    0.000
336.152; 3787.850;  222.925;    0.000
336.210; 3819.850;  225.925;    0.000
336.268; 3830.850;  234.925;    0.000
336.326; 3815.850;  209.925;    0.000
336.384; 3794.850;  271.925;    0.000
336.442; 3732.850;  207.925;    0.000
336.500; 3888.850;  226.925;    0.000
336.558; 3828.850;  219.925;    0.000
336.616; 3812.850;  260.925;    0.000
336.674; 3812.850;  205.925;    0.000
336.732; 3809.850;  225.925;    0.000
336.790; 3711.850;  191.925;    0.000
336.848; 3717.850;  219.925;    0.000
336.906; 3757.850;  230.925;    0.000
336.964; 3797.850;  226.925;    0.000
337.022; 3747.850;  266.925;    0.000
337.080; 3894.850;  231.925;    0.000
337.138; 3817.850;  249.925;    0.000
337.195; 3763.850;  207.925;    0.000
337.253; 3781.850;  207.925;    0.000
337.311; 3792.850;  225.925;    0.000
337.369; 3690.850;  211.925;    0.000
337.427; 3717.850;  196.925;    0.000
337.485; 3642.850;  269.925;    0.000
337.543; 3613.850;  227.925;    0.000
337.601; 3657.850;  260.925;    0.000
337.658; 3696.850;  237.925;    0.000
337.716; 3703.850;  222.925;    0.000
337.774; 3622.850;  256.925;    0.000
337.832; 3695.850;  223.925;    0.000
337.890; 3677.850;  188.925;    0.000
337.947; 3753.850;  212.925;    0.000
338.005; 3748.850;  217.925;    0.000
338.063; 3678.850;  200.925;    0.000
338.121; 3612.850;  217.925;    0.000
338.178; 3657.850;  236.925;    0.000
338.236; 3703.850;  218.925;    0.000
338.294; 3599.850;  238.925;    0.000
338.352; 3690.850;  266.925;    0.000
338.409; 3673.850;  240.925;    0.000
338.467; 3669.850;  210.925;    0.000
338.525; 3678.850;  255.925;    0.000
338.583; 3664.850;  239.925;    0.000
338.640; 3596.850;  243.925;    0.000
338.698; 3533.850;  204.925;    0.000
338.756; 3555.850;  219.925;    0.000
338.813; 3686.850;  227.925;    0.000
338.871; 3737.850;  227.925;    0.000
338.928; 3647.850;  211.925;    0.000
338.986; 3619.850;  254.925;    0.000
339.044; 3694.850;  207.925;    0.000
339.101; 3634.850;  229.925;    0.000
339.159; 3699.850;  237.925;    0.000
339.216; 3698.850;  231.925;    0.000
339.274; 3746.850;  301.925;    0.000
339.332; 3714.850;  259.925;    0.000
339.389; 3624.850;  258.925;    0.000
339.447; 3628.850;  226.925;    0.000
339.504; 3576.850;  229.925;    0.000
339.562; 3534.850;  244.925;    0.000
339.619; 3706.850;  265.925;    0.000
339.677; 3675.850;  253.925;    0.000
339.734; 3611.850;  191.925;    0.000
339.792; 3601.850;  238.925;    0.000
339.849; 3572.850;  236.925;    0.000
339.907; 3656.850;  254.925;    0.000
339.964; 3594.850;  196.925;    0.000
340.022; 3582.850;  247.925;    0.000
340.079; 3611.850;  275.925;    0.000
340.137; 3601.850;  248.925;    0.000
340.194; 3633.850;  263.925;    0.000
340.252; 3580.850;  266.925;    0.000
340.309; 3550.850;  211.925;    0.000
340.366; 3596.850;  237.925;    0.000
340.424; 3585.850;  260.925;    0.000
340.481; 3521.850;  255.925;    0.000
340.538; 3593.850;  235.925;    0.000
340.596; 3592.850;  225.925;    0.000
340.653; 3531.850;  230.925;    0.000
340.711; 3727.850;  272.925;    0.000
340.768; 3507.850;  253.925;    0.000
340.825; 3647.850;  201.925;    0.000
340.883; 3719.850;  232.925;    0.000
340.940; 3510.850;  247.925;    0.000
340.997; 3636.850;  244.925;    0.000
341.054; 3582.850;  244.925;    0.000
341.112; 3630.850;  258.925;    0.000
341.169; 3570.850;  238.925;    0.000
341.226; 3650.850;  213.925;    0.000
341.284; 3535.850;  240.925;    0.000
341.341; 3634.850;  194.925;    0.000
341.398; 3558.850;  191.925;    0.000
341.455; 3658.850;  227.925;    0.000
341.512; 3538.850;  238.925;    0.000
341.570; 3578.850;  236.925;    0.000
341.627; 3716.850;  241.925;    0.000
341.684; 3648.850;  225.925;    0.000
341.741; 3670.850;  299.925;    0.000
341.798; 3712.850;  265.925;    0.000
341.856; 3580.850;  230.925;    0.000
341.913; 3607.850;  234.925;    0.000
341.970; 3603.850;  260.925;    0.000
342.027; 3590.850;  255.925;    0.000
342.084; 3601.850;  260.925;    0.000
342.141; 3629.850;  263.925;    0.000
342.198; 3632.850;  245.925;    0.000
342.255; 3602.850;  210.925;    0.000
342.313; 3724.850;  251.925;    0.000
342.370; 3725.850;  234.925;    0.000
342.427; 3691.850;  249.925;    0.000
342.484; 3593.850;  254.925;    0.000
342.541; 3616.850;  229.925;    0.000
342.598; 3557.850;  255.925;    0.000
342.655; 3673.850;  225.925;    0.000
342.712; 3624.850;  224.925;    0.000
342.769; 3705.850;  215.925;    0.000
342.826; 3713.850;  240.925;    0.000
342.883; 3703.850;  233.925;    0.000
342.940; 3599.850;  212.925;    0.000
342.997; 3757.850;  236.925;    0.000
343.054; 3709.850;  255.925;    0.000
343.111; 3625.850;  228.925;    0.000
343.168; 3700.850;  230.925;    0.000
343.225; 3662.850;  258.925;    0.000
343.282; 3747.850;  202.925;    0.000
343.339; 3671.850;  253.925;    0.000
343.395; 3807.850;  232.925;    0.000
343.452; 3823.850;  253.925;    0.000
343.509; 3846.850;  213.925;    0.000
343.566; 3872.850;  259.925;    0.000
343.623; 3868.850;  244.925;    0.000
343.680; 3836.850;  232.925;    0.000
343.737; 3808.850;  222.925;    0.000
343.794; 3900.850;  204.925;    0.000
343.850; 4023.850;  249.925;    0.000
343.907; 3937.850;  212.925;    0.000
343.964; 3925.850;  226.925;    0.000
344.021; 3953.850;  251.925;    0.000
344.078; 4009.850;  246.925;    0.000
344.134; 3858.850;  218.925;    0.000
344.191; 3847.850;  244.925;    0.000
344.248; 4021.850;  211.925;    0.000
344.305; 3879.850;  221.925;    0.000
344.361; 3859.850;  247.925;    0.000
344.418; 3832.850;  265.925;    0.000
344.475; 3890.850;  254.925;    0.000
344.532; 3979.850;  233.925;    0.000
344.588; 3914.850;  236.925;    0.000
344.645; 3872.850;  249.925;    0.000
344.702; 3861.850;  220.925;    0.000
344.758; 4036.850;  255.925;    0.000
344.815; 3870.850;  236.925;    0.000
344.872; 3866.850;  218.925;    0.000
344.928; 3899.850;  230.925;    0.000
344.985; 3937.850;  222.925;    0.000
345.042; 3997.850;  199.925;    0.000
345.098; 3894.850;  226.925;    0.000
345.155; 3888.850;  245.925;    0.000
345.212; 3856.850;  225.925;    0.000
345.268; 3863.850;  237.925;    0.000
345.325; 3825.850;  213.925;    0.000
345.381; 3842.850;  267.925;    0.000
345.438; 3867.850;  240.925;    0.000
345.495; 3873.850;  254.925;    0.000
345.551; 3816.850;  248.925;    0.000
345.608; 3801.850;  196.925;    0.000
345.664; 3888.850;  245.925;    0.000
345.721; 4044.850;  252.925;    0.000
345.777; 3889.850;  245.925;    0.000
345.834; 3755.850;  210.925;    0.000
345.890; 3927.850;  244.925;    0.000
345.947; 3899.850;  238.925;    0.000
346.003; 3835.850;  224.925;    0.000
346.060; 3855.850;  206.925;    0.000
346.116; 3806.850;  237.925;    0.000
346.173; 3890.850;  242.925;    0.000
346.229; 3874.850;  269.925;    0.000
346.285; 3922.850;  262.925;    0.000
346.342; 3852.850;  263.925;    0.000
346.398; 3868.850;  224.925;    0.000
346.455; 4044.850;  237.925;    0.000
346.511; 3940.850;  216.925;    0.000
346.567; 3960.850;  211.925;    0.000
346.624; 3975.850;  225.925;    0.000
346.680; 3873.850;  242.925;    0.000
346.737; 3889.850;  244.925;    0.000
346.793; 3815.850;  260.925;    0.000
346.849; 3951.850;  251.925;    0.000
346.906; 3916.850;  260.925;    0.000
346.962; 3881.850;  267.925;    0.000
347.018; 4029.850;  246.925;    0.000
347.074; 4026.850;  272.925;    0.000
347.131; 3930.850;  211.925;    0.000
347.187; 3943.850;  240.925;    0.000
347.243; 3925.850;  233.925;    0.000
347.300; 4033.850;  225.925;    0.000
347.356; 3880.850;  236.925;    0.000
347.412; 4016.850;  237.925;    0.000
347.468; 3924.850;  284.925;    0.000
347.524; 3953.850;  252.925;    0.000
347.581; 3943.850;  278.925;    0.000
347.637; 4055.850;  262.925;    0.000
347.693; 4019.850;  268.925;    0.000
347.749; 3989.850;  260.925;    0.000
347.805; 3925.850;  224.925;    0.000
347.862; 3954.850;  243.925;    0.000
347.918; 3884.850;  257.925;    0.000
347.974; 4036.850;  248.925;    0.000
348.030; 3953.850;  242.925;    0.000
348.086; 3919.850;  234.925;    0.000
348.142; 4048.850;  239.925;    0.000
348.198; 4075.850;  260.925;    0.000
348.254; 3991.850;  262.925;    0.000
348.311; 4031.850;  263.925;    0.000
348.367; 3966.850;  235.925;    0.000
348.423; 4023.850;  205.925;    0.000
348.479; 4018.850;  234.925;    0.000
348.535; 4070.850;  257.925;    0.000
348.591; 4010.850;  267.925;    0.000
348.647; 4060.850;  243.925;    0.000
348.703; 4100.850;  278.925;    0.000
348.759; 4056.850;  259.925;    0.000
348.815; 4038.850;  288.925;    0.000
348.871; 3906.850;  269.925;    0.000
348.927; 4075.850;  239.925;    0.000
348.983; 4095.850;  289.925;    0.000
349.039; 4035.850;  221.925;    0.000
349.095; 4136.850;  252.925;    0.000
349.151; 4060.850;  226.925;    0.000
349.207; 4072.850;  263.925;    0.000
349.263; 4090.850;  194.925;    0.000
349.319; 4046.850;  212.925;    0.000
349.374; 3993.850;  236.925;    0.000
349.430; 4195.850;  229.925;    0.000
349.486; 4053.850;  247.925;    0.000
349.542; 4238.850;  263.925;    0.000
349.598; 4128.850;  248.925;    0.000
349.654; 4069.850;  252.925;    0.000
349.710; 4140.850;  230.925;    0.000
349.766; 4101.850;  201.925;    0.000
349.821; 4128.850;  229.925;    0.000
349.877; 4151.850;  282.925;    0.000
349.933; 4151.850;  240.925;    0.000
349.989; 4163.850;  251.925;    0.000
350.045; 4123.850;  240.925;    0.000
350.100; 4091.850;  256.925;    0.000
350.156; 4126.850;  243.925;    0.000
350.212; 4100.850;  250.925;    0.000
350.268; 4064.850;  251.925;    0.000
350.323; 4158.850;  208.925;    0.000
350.379; 4150.850;  244.925;    0.000
350.435; 4062.850;  237.925;    0.000
350.491; 4155.850;  201.925;    0.000
350.546; 4163.850;  225.925;    0.000
350.602; 4028.850;  260.925;    0.000
350.658; 4248.850;  224.925;    0.000
350.713; 3986.850;  264.925;    0.000
350.769; 4042.850;  196.925;    0.000
350.825; 4062.850;  202.925;    0.000
350.880; 4157.850;  232.925;    0.000
350.936; 4079.850;  242.925;    0.000
350.992; 4068.850;  238.925;    0.000
351.047; 4140.850;  242.925;    0.000
351.103; 4154.850;  199.925;    0.000
351.158; 4167.850;  242.925;    0.000
351.214; 4062.850;  225.925;    0.000
351.270; 4089.850;  197.925;    0.000
351.325; 4105.850;  231.925;    0.000
351.381; 4148.850;  215.925;    0.000
351.436; 4154.850;  233.925;    0.000
351.492; 4182.850;  216.925;    0.000
351.547; 4149.850;  244.925;    0.000
351.603; 4187.850;  249.925;    0.000
351.658; 4159.850;  249.925;    0.000
351.714; 4224.850;  222.925;    0.000
351.769; 4268.850;  222.925;    0.000
351.825; 4155.850;  226.925;    0.000
351.880; 4242.850;  238.925;    0.000
351.936; 4292.850;  230.925;    0.000
351.991; 4139.850;  243.925;    0.000
352.047; 4103.850;  201.925;    0.000
352.102; 4258.850;  243.925;    0.000
352.158; 4212.850;  193.925;    0.000
352.213; 3963.850;  219.925;    0.000
352.268; 4192.850;  205.925;    0.000
352.324; 4060.850;  246.925;    0.000
352.379; 4166.850;  247.925;    0.000
352.434; 4211.850;  252.925;    0.000
352.490; 4146.850;  205.925;    0.000
352.545; 4199.850;  262.925;    0.000
352.601; 4179.850;  229.925;    0.000
352.656; 4138.850;  207.925;    0.000
352.711; 4174.850;  228.925;    0.000
352.767; 4140.850;  216.925;    0.000
352.822; 4180.850;  219.925;    0.000
352.877; 4136.850;  234.925;    0.000
352.932; 4240.850;  249.925;    0.000
352.988; 4274.850;  196.925;    0.000
353.043; 4265.850;  228.925;    0.000
353.098; 4255.850;  231.925;    0.000
353.153; 4165.850;  235.925;    0.000
353.209; 4113.850;  250.925;    0.000
353.264; 4180.850;  212.925;    0.000
353.319; 4171.850;  234.925;    0.000
353.374; 4230.850;  245.925;    0.000
353.430; 4297.850;  261.925;    0.000
353.485; 4263.850;  249.925;    0.000
353.540; 4289.850;  260.925;    0.000
353.595; 4164.850;  219.925;    0.000
353.650; 4178.850;  242.925;    0.000
353.705; 4171.850;  244.925;    0.000
353.761; 4232.850;  242.925;    0.000
353.816; 4273.850;  214.925;    0.000
353.871; 4161.850;  237.925;    0.000
353.926; 4172.850;  233.925;    0.000
353.981; 4186.850;  250.925;    0.000
354.036; 4239.850;  239.925;    0.000
354.091; 4191.850;  289.925;    0.000
354.146; 4261.850;  282.925;    0.000
354.201; 4363.850;  244.925;    0.000
354.256; 4252.850;  257.925;    0.000
354.311; 4246.850;  305.925;    0.000
354.367; 4166.850;  220.925;    0.000
354.422; 4257.850;  261.925;    0.000
354.477; 4150.850;  212.925;    0.000
354.532; 4295.850;  254.925;    0.000
354.587; 4282.850;  252.925;    0.000
354.642; 4240.850;  210.925;    0.000
354.697; 4249.850;  232.925;    0.000
354.751; 4146.850;  254.925;    0.000
354.806; 4128.850;  233.925;    0.000
354.861; 4288.850;  244.925;    0.000
354.916; 4243.850;  235.925;    0.000
354.971; 4181.850;  258.925;    0.000
355.026; 4206.850;  251.925;    0.000
355.081; 4175.850;  254.925;    0.000
355.136; 4309.850;  212.925;    0.000
355.191; 4198.850;  211.925;    0.000
355.246; 4307.850;  237.925;    0.000
355.301; 4330.850;  255.925;    0.000
355.355; 4282.850;  231.925;    0.000
355.410; 4269.850;  224.925;    0.000
355.465; 4390.850;  235.925;    0.000
355.520; 4218.850;  244.925;    0.000
355.575; 4344.850;  267.925;    0.000
355.630; 4264.850;  255.925;    0.000
355.684; 4269.850;  254.925;    0.000
355.739; 4388.850;  217.925;    0.000
355.794; 4250.850;  206.925;    0.000
355.849; 4371.850;  221.925;    0.000
355.904; 4323.850;  257.925;    0.000
355.958; 4293.850;  221.925;    0.000
356.013; 4213.850;  192.925;    0.000
356.068; 4316.850;  267.925;    0.000
356.123; 4256.850;  218.925;    0.000
356.177; 4356.850;  236.925;    0.000
356.232; 4291.850;  236.925;    0.000
356.287; 4257.850;  246.925;    0.000
356.341; 4297.850;  241.925;    0.000
356.396; 4173.850;  219.925;    0.000
356.451; 4277.850;  244.925;    0.000
356.505; 4346.850;  248.925;    0.000
356.560; 4233.850;  267.925;    0.000
356.615; 4295.850;  258.925;    0.000
356.669; 4333.850;  291.925;    0.000
356.724; 4305.850;  272.925;    0.000
356.778; 4320.850;  244.925;    0.000
356.833; 4283.850;  223.925;    0.000
356.888; 4286.850;  245.925;    0.000
356.942; 4233.850;  221.925;    0.000
356.997; 4243.850;  254.925;    0.000
357.051; 4299.850;  244.925;    0.000
357.106; 4358.850;  227.925;    0.000
357.160; 4278.850;  176.925;    0.000
357.215; 4387.850;  234.925;    0.000
357.269; 4306.850;  233.925;    0.000
357.324; 4308.850;  232.925;    0.000
357.378; 4284.850;  211.925;    0.000
357.433; 4270.850;  252.925;    0.000
357.487; 4288.850;  227.925;    0.000
357.542; 4320.850;  246.925;    0.000
357.596; 4295.850;  260.925;    0.000
357.651; 4413.850;  301.925;    0.000
357.705; 4370.850;  230.925;    0.000
357.760; 4321.850;  211.925;    0.000
357.814; 4323.850;  265.925;    0.000
357.868; 4294.850;  220.925;    0.000
357.923; 4253.850;  220.925;    0.000
357.977; 4210.850;  245.925;    0.000
358.032; 4271.850;  247.925;    0.000
358.086; 4318.850;  242.925;    0.000
358.140; 4296.850;  270.925;    0.000
358.195; 4281.850;  242.925;    0.000
358.249; 4316.850;  238.925;    0.000
358.303; 4350.850;  285.925;    0.000
358.358; 4224.850;  265.925;    0.000
358.412; 4285.850;  265.925;    0.000
358.466; 4257.850;  257.925;    0.000
358.521; 4179.850;  251.925;    0.000
358.575; 4334.850;  254.925;    0.000
358.629; 4281.850;  278.925;    0.000
358.683; 4357.850;  288.925;    0.000
358.738; 4269.850;  302.925;    0.000
358.792; 4272.850;  239.925;    0.000
358.846; 4332.850;  293.925;    0.000
358.900; 4387.850;  271.925;    0.000
358.954; 4339.850;  300.925;    0.000
359.009; 4235.850;  279.925;    0.000
359.063; 4381.850;  249.925;    0.000
359.117; 4349.850;  264.925;    0.000
359.171; 4328.850;  279.925;    0.000
359.225; 4256.850;  276.925;    0.000
359.280; 4170.850;  237.925;    0.000
359.334; 4335.850;  280.925;    0.000
359.388; 4327.850;  282.925;    0.000
359.442; 4231.850;  243.925;    0.000
359.496; 4323.850;  204.925;    0.000
359.550; 4376.850;  308.925;    0.000
359.604; 4308.850;  264.925;    0.000
359.658; 4198.850;  247.925;    0.000
359.712; 4286.850;  273.925;    0.000
359.766; 4242.850;  212.925;    0.000
359.820; 4241.850;  228.925;    0.000
359.875; 4387.850;  248.925;    0.000
359.929; 4310.850;  271.925;    0.000
359.983; 4184.850;  274.925;    0.000
360.037; 4324.850;  262.925;    0.000
360.091; 4359.850;  302.925;    0.000
360.145; 4270.850;  244.925;    0.000
360.199; 4234.850;  253.925;    0.000
360.253; 4295.850;  285.925;    0.000
360.306; 4255.850;  287.925;    0.000
360.360; 4322.850;  267.925;    0.000
360.414; 4300.850;  250.925;    0.000
360.468; 4274.850;  270.925;    0.000
360.522; 4234.850;  276.925;    0.000
360.576; 4314.850;  269.925;    0.000
360.630; 4460.850;  281.925;    0.000
360.684; 4329.850;  291.925;    0.000
360.738; 4306.850;  325.925;    0.000
360.792; 4326.850;  320.925;    0.000
360.846; 4276.850;  276.925;    0.000
360.899; 4171.850;  314.925;    0.000
360.953; 4299.850;  275.925;    0.000
361.007; 4294.850;  292.925;    0.000
361.061; 4284.850;  278.925;    0.000
361.115; 4337.850;  264.925;    0.000
361.168; 4368.850;  317.925;    0.000
361.222; 4210.850;  277.925;    0.000
361.276; 4236.850;  274.925;    0.000
361.330; 4315.850;  269.925;    0.000
361.384; 4339.850;  280.925;    0.000
361.437; 4341.850;  304.925;    0.000
361.491; 4304.850;  256.925;    0.000
361.545; 4325.850;  293.925;    0.000
361.599; 4322.850;  284.925;    0.000
361.652; 4344.850;  274.925;    0.000
361.706; 4281.850;  284.925;    0.000
361.760; 4327.850;  260.925;    0.000
361.813; 4111.850;  272.925;    0.000
361.867; 4162.850;  300.925;    0.000
361.921; 4157.850;  275.925;    0.000
361.974; 4371.850;  258.925;    0.000
362.028; 4280.850;  248.925;    0.000
362.082; 4400.850;  252.925;    0.000
362.135; 4216.850;  240.925;    0.000
362.189; 4331.850;  259.925;    0.000
362.242; 4306.850;  267.925;    0.000
362.296; 4131.850;  280.925;    0.000
362.350; 4223.850;  282.925;    0.000
362.403; 4267.850;  288.925;    0.000
362.457; 4256.850;  253.925;    0.000
362.510; 4134.850;  323.925;    0.000
362.564; 4284.850;  286.925;    0.000
362.617; 4260.850;  317.925;    0.000
362.671; 4250.850;  286.925;    0.000
362.724; 4247.850;  274.925;    0.000
362.778; 4310.850;  295.925;    0.000
362.831; 4337.850;  289.925;    0.000
362.885; 4257.850;  318.925;    0.000
362.938; 4120.850;  271.925;    0.000
362.992;  338.850;  285.925;    0.000
363.045;  246.850;  291.925;    0.000
363.099;  271.850;  276.925;    0.000
363.152;  297.850;  309.925;    0.000
363.205;  291.850;  263.925;    0.000
363.259;  288.850;  288.925;    0.000
363.312;  282.850;  333.925;    0.000
363.366;  290.850;  328.925;    0.000
363.419;  295.850;  328.925;    0.000
363.472;  318.850;  295.925;    0.000
363.526;  281.850;  334.925;    0.000
363.579;  264.850;  312.925;    0.000
363.632;  290.850;  274.925;    0.000
363.686;  304.850;  282.925;    0.000
363.739;  242.850;  289.925;    0.000
363.792;  281.850;  287.925;    0.000

