
Integration time [ms]:   0.300
Averaging Nr. [scans]: 1
Smoothing Nr. [pixels]: 0
Data measured with spectrometer [name]: VIS
Wave   ;Sample   ;Dark     ;Reference
[nm]   ;[counts] ;[counts] ;[counts] 

450.961;  192.875;  204.350;    0.000
451.100;  226.875;  243.350;    0.000
451.239;  234.875;  228.350;    0.000
451.377;  234.875;  250.350;    0.000
451.516;  235.875;  189.350;    0.000
451.655;  212.875;  235.350;    0.000
451.794;  193.875;  223.350;    0.000
451.932;  213.875;  269.350;    0.000
452.071;  253.875;  250.350;    0.000
452.210;  230.875;  262.350;    0.000
452.348;  220.875;  259.350;    0.000
452.487;  243.875;  231.350;    0.000
452.626;  211.875;  220.350;    0.000
452.764;  253.875;  252.350;    0.000
452.903;  227.875;  236.350;    0.000
453.042;  316.875;  217.350;    0.000
453.180; 4890.875;  273.350;    0.000
453.319; 5028.875;  261.350;    0.000
453.458; 5115.875;  219.350;    0.000
453.596; 5104.875;  307.350;    0.000
453.735; 5112.875;  246.350;    0.000
453.873; 5161.875;  270.350;    0.000
454.012; 5164.875;  232.350;    0.000
454.150; 5362.875;  211.350;    0.000
454.289; 5336.875;  245.350;    0.000
454.427; 5362.875;  224.350;    0.000
454.566; 5321.875;  252.350;    0.000
454.704; 5354.875;  225.350;    0.000
454.843; 5467.875;  195.350;    0.000
454.981; 5502.875;  258.350;    0.000
455.120; 5577.875;  191.350;    0.000
455.258; 5719.875;  243.350;    0.000
455.397; 5753.875;  188.350;    0.000
455.535; 5638.875;  219.350;    0.000
455.674; 5657.875;  184.350;    0.000
455.812; 5805.875;  225.350;    0.000
455.951; 5808.875;  201.350;    0.000
456.089; 5851.875;  187.350;    0.000
456.227; 5943.875;  199.350;    0.000
456.366; 6051.875;  235.350;    0.000
456.504; 5975.875;  216.350;    0.000
456.642; 6126.875;  256.350;    0.000
456.781; 6152.875;  201.350;    0.000
456.919; 6226.875;  231.350;    0.000
457.057; 6168.875;  181.350;    0.000
457.196; 6302.875;  231.350;    0.000
457.334; 6253.875;  229.350;    0.000
457.472; 6406.875;  242.350;    0.000
457.610; 6499.875;  221.350;    0.000
457.749; 6710.875;  218.350;    0.000
457.887; 6637.875;  213.350;    0.000
458.025; 6775.875;  228.350;    0.000
458.163; 6799.875;  204.350;    0.000
458.301; 7024.875;  230.350;    0.000
458.440; 7055.875;  200.350;    0.000
458.578; 7235.875;  222.350;    0.000
458.716; 7158.875;  137.350;    0.000
458.854; 7312.875;  259.350;    0.000
458.992; 7418.875;  172.350;    0.000
459.130; 7466.875;  253.350;    0.000
459.269; 7742.875;  212.350;    0.000
459.407; 7531.875;  212.350;    0.000
459.545; 7656.875;  225.350;    0.000
459.683; 7921.875;  225.350;    0.000
459.821; 7831.875;  192.350;    0.000
459.959; 7897.875;  205.350;    0.000
460.097; 7950.875;  199.350;    0.000
460.235; 7894.875;  232.350;    0.000
460.373; 8159.875;  248.350;    0.000
460.511; 8110.875;  225.350;    0.000
460.649; 8265.875;  204.350;    0.000
460.787; 8191.875;  221.350;    0.000
460.925; 8243.875;  181.350;    0.000
461.063; 8060.875;  243.350;    0.000
461.201; 8309.875;  212.350;    0.000
461.339; 8373.875;  229.350;    0.000
461.477; 8420.875;  162.350;    0.000
461.615; 8556.875;  232.350;    0.000
461.753; 8502.875;  193.350;    0.000
461.891; 8631.875;  217.350;    0.000
462.029; 8813.875;  224.350;    0.000
462.166; 8928.875;  222.350;    0.000
462.304; 8850.875;  185.350;    0.000
462.442; 9225.875;  246.350;    0.000
462.580; 9222.875;  246.350;    0.000
462.718; 9103.875;  235.350;    0.000
462.856; 9100.875;  230.350;    0.000
462.993; 9085.875;  266.350;    0.000
463.131; 9027.875;  208.350;    0.000
463.269; 9065.875;  218.350;    0.000
463.407; 8778.875;  215.350;    0.000
463.545; 8660.875;  200.350;    0.000
463.682; 8963.875;  206.350;    0.000
463.820; 9088.875;  211.350;    0.000
463.958; 9669.875;  206.350;    0.000
464.095; 9757.875;  193.350;    0.000
464.233; 9678.875;  203.350;    0.000
464.371; 9814.875;  258.350;    0.000
464.509; 9604.875;  219.350;    0.000
464.646; 9813.875;  210.350;    0.000
464.784; 9567.875;  206.350;    0.000
464.921; 9591.875;  233.350;    0.000
465.059; 9349.875;  186.350;    0.000
465.197; 9314.875;  213.350;    0.000
465.334; 9025.875;  202.350;    0.000
465.472; 9048.875;  236.350;    0.000
465.609; 8894.875;  206.350;    0.000
465.747; 8853.875;  208.350;    0.000
465.885; 8861.875;  198.350;    0.000
466.022; 8827.875;  210.350;    0.000
466.160; 8868.875;  245.350;    0.000
466.297; 8665.875;  226.350;    0.000
466.435; 8807.875;  235.350;    0.000
466.572; 8823.875;  226.350;    0.000
466.710; 8790.875;  266.350;    0.000
466.847; 8730.875;  258.350;    0.000
466.985; 8625.875;  228.350;    0.000
467.122; 8646.875;  201.350;    0.000
467.260; 8694.875;  170.350;    0.000
467.397; 8643.875;  174.350;    0.000
467.534; 8805.875;  244.350;    0.000
467.672; 8795.875;  247.350;    0.000
467.809; 8629.875;  182.350;    0.000
467.947; 8783.875;  208.350;    0.000
468.084; 8668.875;  206.350;    0.000
468.221; 8529.875;  249.350;    0.000
468.359; 8574.875;  253.350;    0.000
468.496; 8625.875;  208.350;    0.000
468.633; 8688.875;  189.350;    0.000
468.771; 8668.875;  216.350;    0.000
468.908; 8761.875;  240.350;    0.000
469.045; 8689.875;  234.350;    0.000
469.183; 8789.875;  203.350;    0.000
469.320; 8988.875;  230.350;    0.000
469.457; 9000.875;  219.350;    0.000
469.594; 9043.875;  233.350;    0.000
469.732; 9007.875;  230.350;    0.000
469.869; 9113.875;  239.350;    0.000
470.006; 9126.875;  224.350;    0.000
470.143; 9436.875;  241.350;    0.000
470.280; 9344.875;  234.350;    0.000
470.417; 9534.875;  236.350;    0.000
470.555; 9423.875;  207.350;    0.000
470.692; 9337.875;  251.350;    0.000
470.829; 9338.875;  238.350;    0.000
470.966; 9290.875;  242.350;    0.000
471.103; 9355.875;  215.350;    0.000
471.240; 9272.875;  237.350;    0.000
471.377; 9345.875;  235.350;    0.000
471.514; 9369.875;  256.350;    0.000
471.651; 9189.875;  198.350;    0.000
471.789; 9122.875;  215.350;    0.000
471.926; 9200.875;  210.350;    0.000
472.063; 9089.875;  237.350;    0.000
472.200; 9049.875;  265.350;    0.000
472.337; 9081.875;  240.350;    0.000
472.474; 9109.875;  195.350;    0.000
472.611; 8806.875;  228.350;    0.000
472.748; 9011.875;  234.350;    0.000
472.884; 9053.875;  230.350;    0.000
473.021; 8737.875;  219.350;    0.000
473.158; 8723.875;  253.350;    0.000
473.295; 8949.875;  207.350;    0.000
473.432; 9036.875;  238.350;    0.000
473.569; 8911.875;  236.350;    0.000
473.706; 8781.875;  203.350;    0.000
473.843; 8880.875;  232.350;    0.000
473.980; 8797.875;  207.350;    0.000
474.117; 9030.875;  182.350;    0.000
474.253; 9070.875;  261.350;    0.000
474.390; 9007.875;  211.350;    0.000
474.527; 8990.875;  229.350;    0.000
474.664; 8873.875;  181.350;    0.000
474.801; 8991.875;  250.350;    0.000
474.937; 9165.875;  196.350;    0.000
475.074; 8872.875;  213.350;    0.000
475.211; 9131.875;  232.350;    0.000
475.348; 9149.875;  228.350;    0.000
475.484; 9108.875;  240.350;    0.000
475.621; 9127.875;  235.350;    0.000
475.758; 9114.875;  232.350;    0.000
475.894; 9116.875;  227.350;    0.000
476.031; 9151.875;  233.350;    0.000
476.168; 9208.875;  205.350;    0.000
476.304; 9144.875;  263.350;    0.000
476.441; 9185.875;  255.350;    0.000
476.578; 9196.875;  191.350;    0.000
476.714; 9272.875;  218.350;    0.000
476.851; 9132.875;  224.350;    0.000
476.987; 9266.875;  225.350;    0.000
477.124; 9419.875;  231.350;    0.000
477.261; 9470.875;  291.350;    0.000
477.397; 9370.875;  218.350;    0.000
477.534; 9636.875;  209.350;    0.000
477.670; 9523.875;  210.350;    0.000
477.807; 9616.875;  199.350;    0.000
477.943; 9491.875;  219.350;    0.000
478.080; 9553.875;  234.350;    0.000
478.216; 9624.875;  196.350;    0.000
478.353; 9688.875;  234.350;    0.000
478.489; 9884.875;  219.350;    0.000
478.626; 9872.875;  209.350;    0.000
478.762; 9867.875;  206.350;    0.000
478.898; 9956.875;  209.350;    0.000
479.035; 9872.875;  232.350;    0.000
479.171;10054.875;  219.350;    0.000
479.308; 9940.875;  226.350;    0.000
479.444; 9962.875;  184.350;    0.000
479.580; 9908.875;  192.350;    0.000
479.717;10068.875;  247.350;    0.000
479.853;10013.875;  181.350;    0.000
479.989; 9946.875;  212.350;    0.000
480.126;10035.875;  187.350;    0.000
480.262;10074.875;  217.350;    0.000
480.398;10256.875;  249.350;    0.000
480.535;10047.875;  196.350;    0.000
480.671;10073.875;  199.350;    0.000
480.807; 9982.875;  231.350;    0.000
480.943;10075.875;  192.350;    0.000
481.080;10142.875;  206.350;    0.000
481.216; 9956.875;  189.350;    0.000
481.352; 9895.875;  215.350;    0.000
481.488; 9993.875;  223.350;    0.000
481.624; 9880.875;  235.350;    0.000
481.760; 9919.875;  218.350;    0.000
481.897; 9936.875;  204.350;    0.000
482.033; 9948.875;  243.350;    0.000
482.169; 9837.875;  239.350;    0.000
482.305; 9848.875;  221.350;    0.000
482.441; 9742.875;  162.350;    0.000
482.577; 9994.875;  241.350;    0.000
482.713;10000.875;  223.350;    0.000
482.849; 9679.875;  195.350;    0.000
482.985; 9882.875;  230.350;    0.000
483.121; 9867.875;  230.350;    0.000
483.258; 9887.875;  254.350;    0.000
483.394; 9930.875;  199.350;    0.000
483.530; 9892.875;  209.350;    0.000
483.665; 9911.875;  196.350;    0.000
483.801; 9834.875;  208.350;    0.000
483.937; 9820.875;  202.350;    0.000
484.073; 9803.875;  247.350;    0.000
484.209; 9926.875;  188.350;    0.000
484.345; 9996.875;  241.350;    0.000
484.481; 9871.875;  247.350;    0.000
484.617; 9876.875;  248.350;    0.000
484.753; 9820.875;  255.350;    0.000
484.889;10025.875;  253.350;    0.000
485.025;10036.875;  226.350;    0.000
485.161; 9850.875;  207.350;    0.000
485.296; 9932.875;  247.350;    0.000
485.432; 9998.875;  255.350;    0.000
485.568;10187.875;  216.350;    0.000
485.704;10004.875;  232.350;    0.000
485.840;10133.875;  231.350;    0.000
485.975;10140.875;  233.350;    0.000
486.111; 9967.875;  207.350;    0.000
486.247;10148.875;  211.350;    0.000
486.383;10112.875;  219.350;    0.000
486.518;10019.875;  213.350;    0.000
486.654;10244.875;  216.350;    0.000
486.790;10112.875;  253.350;    0.000
486.926;10104.875;  229.350;    0.000
487.061;10024.875;  241.350;    0.000
487.197; 9988.875;  218.350;    0.000
487.333;10288.875;  221.350;    0.000
487.468;10124.875;  206.350;    0.000
487.604;10094.875;  254.350;    0.000
487.740;10048.875;  240.350;    0.000
487.875;10030.875;  260.350;    0.000
488.011;10076.875;  232.350;    0.000
488.146;10178.875;  206.350;    0.000
488.282;10093.875;  236.350;    0.000
488.417;10126.875;  255.350;    0.000
488.553;10033.875;  221.350;    0.000
488.688;10084.875;  233.350;    0.000
488.824;10135.875;  246.350;    0.000
488.960;10335.875;  267.350;    0.000
489.095;10171.875;  217.350;    0.000
489.230;10209.875;  226.350;    0.000
489.366;10272.875;  232.350;    0.000
489.501;10308.875;  220.350;    0.000
489.637;10260.875;  245.350;    0.000
489.772;10164.875;  228.350;    0.000
489.908;10351.875;  250.350;    0.000
490.043;10212.875;  239.350;    0.000
490.178;10312.875;  213.350;    0.000
490.314;10260.875;  270.350;    0.000
490.449;10328.875;  245.350;    0.000
490.585;10122.875;  218.350;    0.000
490.720;10056.875;  243.350;    0.000
490.855;10230.875;  196.350;    0.000
490.991;10254.875;  208.350;    0.000
491.126;10254.875;  268.350;    0.000
491.261;10319.875;  226.350;    0.000
491.396;10250.875;  201.350;    0.000
491.532;10427.875;  213.350;    0.000
491.667;10381.875;  183.350;    0.000
491.802;10429.875;  239.350;    0.000
491.937;10354.875;  228.350;    0.000
492.073;10387.875;  258.350;    0.000
492.208;10354.875;  218.350;    0.000
492.343;10395.875;  205.350;    0.000
492.478;10763.875;  247.350;    0.000
492.613;10501.875;  217.350;    0.000
492.749;10504.875;  258.350;    0.000
492.884;10475.875;  208.350;    0.000
493.019;10336.875;  248.350;    0.000
493.154;10592.875;  231.350;    0.000
493.289;10327.875;  226.350;    0.000
493.424;10464.875;  216.350;    0.000
493.559;10382.875;  205.350;    0.000
493.694;10448.875;  203.350;    0.000
493.829;10390.875;  231.350;    0.000
493.964;10456.875;  200.350;    0.000
494.099;10414.875;  253.350;    0.000
494.234;10565.875;  244.350;    0.000
494.369;10476.875;  239.350;    0.000
494.504;10469.875;  223.350;    0.000
494.639;10410.875;  263.350;    0.000
494.774;10455.875;  240.350;    0.000
494.909;10317.875;  231.350;    0.000
495.044;10414.875;  195.350;    0.000
495.179;10603.875;  231.350;    0.000
495.314;10485.875;  231.350;    0.000
495.449;10220.875;  239.350;    0.000
495.584;10407.875;  201.350;    0.000
495.719;10527.875;  201.350;    0.000
495.854;10480.875;  201.350;    0.000
495.988;10565.875;  239.350;    0.000
496.123;10528.875;  199.350;    0.000
496.258;10716.875;  256.350;    0.000
496.393;10692.875;  214.350;    0.000
496.528;10758.875;  220.350;    0.000
496.663;10763.875;  207.350;    0.000
496.797;10846.875;  241.350;    0.000
496.932;11030.875;  215.350;    0.000
497.067;11154.875;  240.350;    0.000
497.202;11099.875;  177.350;    0.000
497.336;11152.875;  221.350;    0.000
497.471;11483.875;  228.350;    0.000
497.606;11567.875;  213.350;    0.000
497.740;11783.875;  217.350;    0.000
497.875;11796.875;  182.350;    0.000
498.010;12084.875;  230.350;    0.000
498.144;12272.875;  217.350;    0.000
498.279;12480.875;  194.350;    0.000
498.414;12654.875;  270.350;    0.000
498.548;12860.875;  184.350;    0.000
498.683;12842.875;  188.350;    0.000
498.817;12888.875;  216.350;    0.000
498.952;12986.875;  208.350;    0.000
499.087;13575.875;  236.350;    0.000
499.221;13704.875;  219.350;    0.000
499.356;14045.875;  263.350;    0.000
499.490;14170.875;  221.350;    0.000
499.625;14523.875;  233.350;    0.000
499.759;14958.875;  245.350;    0.000
499.894;15216.875;  241.350;    0.000
500.028;15717.875;  237.350;    0.000
500.162;15977.875;  282.350;    0.000
500.297;16174.875;  232.350;    0.000
500.431;16197.875;  266.350;    0.000
500.566;16232.875;  254.350;    0.000
500.700;15955.875;  238.350;    0.000
500.835;15795.875;  264.350;    0.000
500.969;15423.875;  165.350;    0.000
501.103;15063.875;  190.350;    0.000
501.238;14736.875;  274.350;    0.000
501.372;14250.875;  270.350;    0.000
501.506;13832.875;  231.350;    0.000
501.641;13454.875;  224.350;    0.000
501.775;13346.875;  224.350;    0.000
501.909;12890.875;  218.350;    0.000
502.043;12537.875;  238.350;    0.000
502.178;12436.875;  289.350;    0.000
502.312;12107.875;  225.350;    0.000
502.446;12053.875;  295.350;    0.000
502.580;11959.875;  200.350;    0.000
502.715;11835.875;  256.350;    0.000
502.849;11710.875;  226.350;    0.000
502.983;11558.875;  250.350;    0.000
503.117;11279.875;  229.350;    0.000
503.251;11278.875;  267.350;    0.000
503.385;11008.875;  237.350;    0.000
503.520;10933.875;  210.350;    0.000
503.654;10693.875;  204.350;    0.000
503.788;10754.875;  236.350;    0.000
503.922;10539.875;  225.350;    0.000
504.056;10592.875;  222.350;    0.000
504.190;10387.875;  220.350;    0.000
504.324;10373.875;  257.350;    0.000
504.458;10247.875;  223.350;    0.000
504.592;10182.875;  252.350;    0.000
504.726; 9996.875;  216.350;    0.000
504.860;10050.875;  231.350;    0.000
504.994; 9999.875;  228.350;    0.000
505.128; 9842.875;  239.350;    0.000
505.262; 9757.875;  245.350;    0.000
505.396; 9452.875;  231.350;    0.000
505.530; 9419.875;  211.350;    0.000
505.664; 9148.875;  223.350;    0.000
505.798; 9407.875;  239.350;    0.000
505.932; 9173.875;  232.350;    0.000
506.066; 9220.875;  263.350;    0.000
506.199; 8964.875;  231.350;    0.000
506.333; 9034.875;  213.350;    0.000
506.467; 8954.875;  241.350;    0.000
506.601; 8711.875;  233.350;    0.000
506.735; 8678.875;  235.350;    0.000
506.869; 8562.875;  269.350;    0.000
507.002; 8789.875;  244.350;    0.000
507.136; 8601.875;  258.350;    0.000
507.270; 8406.875;  218.350;    0.000
507.404; 8491.875;  191.350;    0.000
507.537; 8549.875;  226.350;    0.000
507.671; 8437.875;  243.350;    0.000
507.805; 8465.875;  234.350;    0.000
507.939; 8369.875;  234.350;    0.000
508.072; 8426.875;  261.350;    0.000
508.206; 8271.875;  220.350;    0.000
508.340; 8363.875;  241.350;    0.000
508.473; 8341.875;  214.350;    0.000
508.607; 8289.875;  232.350;    0.000
508.740; 8195.875;  222.350;    0.000
508.874; 8382.875;  225.350;    0.000
509.008; 8328.875;  258.350;    0.000
509.141; 8279.875;  210.350;    0.000
509.275; 8267.875;  199.350;    0.000
509.408; 8098.875;  260.350;    0.000
509.542; 8151.875;  252.350;    0.000
509.675; 8124.875;  276.350;    0.000
509.809; 8164.875;  266.350;    0.000
509.942; 7942.875;  227.350;    0.000
510.076; 7943.875;  243.350;    0.000
510.209; 8004.875;  221.350;    0.000
510.343; 8018.875;  229.350;    0.000
510.476; 8072.875;  246.350;    0.000
510.610; 8027.875;  211.350;    0.000
510.743; 7934.875;  279.350;    0.000
510.877; 7908.875;  274.350;    0.000
511.010; 7863.875;  252.350;    0.000
511.143; 7798.875;  228.350;    0.000
511.277; 7786.875;  261.350;    0.000
511.410; 7675.875;  217.350;    0.000
511.543; 7922.875;  230.350;    0.000
511.677; 7820.875;  245.350;    0.000
511.810; 7875.875;  237.350;    0.000
511.943; 7761.875;  224.350;    0.000
512.077; 7896.875;  194.350;    0.000
512.210; 7817.875;  212.350;    0.000
512.343; 7786.875;  236.350;    0.000
512.476; 7780.875;  248.350;    0.000
512.610; 7791.875;  249.350;    0.000
512.743; 7782.875;  224.350;    0.000
512.876; 7913.875;  277.350;    0.000
513.009; 7875.875;  261.350;    0.000
513.142; 7948.875;  213.350;    0.000
513.276; 7796.875;  192.350;    0.000
513.409; 7715.875;  267.350;    0.000
513.542; 7755.875;  224.350;    0.000
513.675; 7852.875;  244.350;    0.000
513.808; 7804.875;  218.350;    0.000
513.941; 7876.875;  237.350;    0.000
514.074; 7784.875;  257.350;    0.000
514.207; 7950.875;  245.350;    0.000
514.340; 7904.875;  195.350;    0.000
514.474; 7940.875;  244.350;    0.000
514.607; 7890.875;  230.350;    0.000
514.740; 8044.875;  246.350;    0.000
514.873; 8043.875;  268.350;    0.000
515.006; 8236.875;  253.350;    0.000
515.139; 8066.875;  235.350;    0.000
515.272; 8207.875;  214.350;    0.000
515.404; 8400.875;  228.350;    0.000
515.537; 8342.875;  263.350;    0.000
515.670; 8412.875;  270.350;    0.000
515.803; 8425.875;  243.350;    0.000
515.936; 8440.875;  226.350;    0.000
516.069; 8654.875;  227.350;    0.000
516.202; 8761.875;  259.350;    0.000
516.335; 9012.875;  260.350;    0.000
516.468; 9591.875;  243.350;    0.000
516.600;12396.875;  258.350;    0.000
516.733;16607.875;  235.350;    0.000
516.866;16847.875;  267.350;    0.000
516.999;14500.875;  251.350;    0.000
517.132;18466.875;  261.350;    0.000
517.264;26892.875;  260.350;    0.000
517.397;26824.875;  231.350;    0.000
517.530;19492.875;  257.350;    0.000
517.663;15476.875;  263.350;    0.000
517.795;13847.875;  250.350;    0.000
517.928;13334.875;  257.350;    0.000
518.061;13758.875;  227.350;    0.000
518.193;18776.875;  252.350;    0.000
518.326;30524.875;  227.350;    0.000
518.459;33656.875;  210.350;    0.000
518.591;25519.875;  214.350;    0.000
518.724;18209.875;  269.350;    0.000
518.857;15046.875;  215.350;    0.000
518.989;13414.875;  259.350;    0.000
519.122;12264.875;  238.350;    0.000
519.254;11564.875;  248.350;    0.000
519.387;10621.875;  246.350;    0.000
519.519;10089.875;  239.350;    0.000
519.652; 9831.875;  249.350;    0.000
519.784; 9584.875;  238.350;    0.000
519.917; 9136.875;  231.350;    0.000
520.049; 9125.875;  244.350;    0.000
520.182; 8943.875;  205.350;    0.000
520.314; 8788.875;  262.350;    0.000
520.447; 8578.875;  234.350;    0.000
520.579; 8568.875;  273.350;    0.000
520.712; 8499.875;  215.350;    0.000
520.844; 8474.875;  258.350;    0.000
520.976; 8150.875;  242.350;    0.000
521.109; 7915.875;  232.350;    0.000
521.241; 8058.875;  236.350;    0.000
521.373; 7862.875;  227.350;    0.000
521.506; 7775.875;  212.350;    0.000
521.638; 7769.875;  292.350;    0.000
521.770; 7830.875;  259.350;    0.000
521.903; 7713.875;  263.350;    0.000
522.035; 7521.875;  269.350;    0.000
522.167; 7402.875;  289.350;    0.000
522.300; 7403.875;  255.350;    0.000
522.432; 7577.875;  247.350;    0.000
522.564; 7263.875;  239.350;    0.000
522.696; 7481.875;  246.350;    0.000
522.828; 7269.875;  230.350;    0.000
522.961; 7198.875;  239.350;    0.000
523.093; 7375.875;  269.350;    0.000
523.225; 7196.875;  251.350;    0.000
523.357; 7135.875;  244.350;    0.000
523.489; 7223.875;  266.350;    0.000
523.621; 7103.875;  267.350;    0.000
523.753; 6924.875;  234.350;    0.000
523.885; 7026.875;  229.350;    0.000
524.018; 7028.875;  221.350;    0.000
524.150; 6952.875;  264.350;    0.000
524.282; 6888.875;  283.350;    0.000
524.414; 6808.875;  258.350;    0.000
524.546; 6847.875;  286.350;    0.000
524.678; 6896.875;  274.350;    0.000
524.810; 6726.875;  253.350;    0.000
524.942; 6608.875;  183.350;    0.000
525.074; 6640.875;  232.350;    0.000
525.206; 6670.875;  250.350;    0.000
525.338; 6544.875;  228.350;    0.000
525.469; 6805.875;  224.350;    0.000
525.601; 6446.875;  247.350;    0.000
525.733; 6540.875;  199.350;    0.000
525.865; 6533.875;  230.350;    0.000
525.997; 6550.875;  209.350;    0.000
526.129; 6653.875;  211.350;    0.000
526.261; 6497.875;  233.350;    0.000
526.393; 6480.875;  261.350;    0.000
526.524; 6427.875;  206.350;    0.000
526.656; 6459.875;  260.350;    0.000
526.788; 6521.875;  293.350;    0.000
526.920; 6383.875;  208.350;    0.000
527.052; 6284.875;  204.350;    0.000
527.183; 6262.875;  244.350;    0.000
527.315; 6420.875;  237.350;    0.000
527.447; 6391.875;  236.350;    0.000
527.578; 6316.875;  235.350;    0.000
527.710; 6322.875;  253.350;    0.000
527.842; 6235.875;  231.350;    0.000
527.973; 6300.875;  224.350;    0.000
528.105; 6380.875;  237.350;    0.000
528.237; 6296.875;  213.350;    0.000
528.368; 6205.875;  194.350;    0.000
528.500; 6220.875;  195.350;    0.000
528.632; 6404.875;  201.350;    0.000
528.763; 6240.875;  196.350;    0.000
528.895; 6192.875;  204.350;    0.000
529.026; 6173.875;  214.350;    0.000
529.158; 6196.875;  197.350;    0.000
529.289; 6322.875;  230.350;    0.000
529.421; 6202.875;  247.350;    0.000
529.552; 6234.875;  255.350;    0.000
529.684; 6377.875;  270.350;    0.000
529.815; 6100.875;  248.350;    0.000
529.947; 6075.875;  234.350;    0.000
530.078; 6203.875;  223.350;    0.000
530.210; 6243.875;  243.350;    0.000
530.341; 6115.875;  222.350;    0.000
530.472; 6202.875;  217.350;    0.000
530.604; 6178.875;  242.350;    0.000
530.735; 6228.875;  249.350;    0.000
530.867; 6252.875;  257.350;    0.000
530.998; 6230.875;  250.350;    0.000
531.129; 6111.875;  244.350;    0.000
531.260; 6173.875;  276.350;    0.000
531.392; 6388.875;  220.350;    0.000
531.523; 6332.875;  262.350;    0.000
531.654; 6345.875;  264.350;    0.000
531.786; 6468.875;  225.350;    0.000
531.917; 6377.875;  285.350;    0.000
532.048; 6352.875;  239.350;    0.000
532.179; 6394.875;  248.350;    0.000
532.311; 6463.875;  219.350;    0.000
532.442; 6274.875;  264.350;    0.000
532.573; 6151.875;  230.350;    0.000
532.704; 6158.875;  253.350;    0.000
532.835; 6349.875;  239.350;    0.000
532.966; 6222.875;  247.350;    0.000
533.097; 6175.875;  225.350;    0.000
533.229; 6044.875;  282.350;    0.000
533.360; 6125.875;  236.350;    0.000
533.491; 6181.875;  247.350;    0.000
533.622; 6119.875;  265.350;    0.000
533.753; 6238.875;  226.350;    0.000
533.884; 6212.875;  294.350;    0.000
534.015; 6267.875;  215.350;    0.000
534.146; 6209.875;  223.350;    0.000
534.277; 6274.875;  264.350;    0.000
534.408; 6147.875;  232.350;    0.000
534.539; 6184.875;  274.350;    0.000
534.670; 6220.875;  275.350;    0.000
534.801; 6189.875;  261.350;    0.000
534.932; 6221.875;  225.350;    0.000
535.063; 6182.875;  235.350;    0.000
535.194; 6146.875;  300.350;    0.000
535.324; 5958.875;  249.350;    0.000
535.455; 6065.875;  260.350;    0.000
535.586; 6045.875;  288.350;    0.000
535.717; 6087.875;  237.350;    0.000
535.848; 6105.875;  271.350;    0.000
535.979; 6137.875;  234.350;    0.000
536.109; 5925.875;  255.350;    0.000
536.240; 6043.875;  269.350;    0.000
536.371; 5878.875;  232.350;    0.000
536.502; 5919.875;  253.350;    0.000
536.632; 6063.875;  240.350;    0.000
536.763; 6081.875;  251.350;    0.000
536.894; 5912.875;  256.350;    0.000
537.025; 5919.875;  247.350;    0.000
537.155; 5990.875;  272.350;    0.000
537.286; 5860.875;  241.350;    0.000
537.417; 6037.875;  279.350;    0.000
537.547; 5906.875;  229.350;    0.000
537.678; 5874.875;  227.350;    0.000
537.808; 5853.875;  225.350;    0.000
537.939; 5898.875;  250.350;    0.000
538.070; 5851.875;  263.350;    0.000
538.200; 6039.875;  270.350;    0.000
538.331; 5911.875;  249.350;    0.000
538.461; 5851.875;  230.350;    0.000
538.592; 5865.875;  282.350;    0.000
538.722; 5968.875;  253.350;    0.000
538.853; 5952.875;  240.350;    0.000
538.983; 5878.875;  232.350;    0.000
539.114; 5850.875;  248.350;    0.000
539.244; 5911.875;  256.350;    0.000
539.375; 5830.875;  248.350;    0.000
539.505; 5952.875;  235.350;    0.000
539.636; 5879.875;  237.350;    0.000
539.766; 5751.875;  263.350;    0.000
539.896; 5840.875;  217.350;    0.000
540.027; 5903.875;  217.350;    0.000
540.157; 5884.875;  231.350;    0.000
540.287; 5866.875;  210.350;    0.000
540.418; 5856.875;  239.350;    0.000
540.548; 5978.875;  260.350;    0.000
540.678; 5940.875;  228.350;    0.000
540.809; 6000.875;  241.350;    0.000
540.939; 5977.875;  238.350;    0.000
541.069; 6026.875;  245.350;    0.000
541.200; 5825.875;  225.350;    0.000
541.330; 6036.875;  219.350;    0.000
541.460; 5902.875;  254.350;    0.000
541.590; 6051.875;  234.350;    0.000
541.720; 6003.875;  196.350;    0.000
541.851; 5935.875;  200.350;    0.000
541.981; 5966.875;  235.350;    0.000
542.111; 6095.875;  246.350;    0.000
542.241; 6024.875;  214.350;    0.000
542.371; 6142.875;  221.350;    0.000
542.501; 6308.875;  259.350;    0.000
542.631; 6229.875;  213.350;    0.000
542.761; 6216.875;  240.350;    0.000
542.891; 6268.875;  242.350;    0.000
543.021; 6363.875;  230.350;    0.000
543.151; 6298.875;  261.350;    0.000
543.281; 6415.875;  212.350;    0.000
543.411; 6202.875;  229.350;    0.000
543.542; 6106.875;  204.350;    0.000
543.671; 6124.875;  260.350;    0.000
543.801; 6171.875;  236.350;    0.000
543.931; 6062.875;  243.350;    0.000
544.061; 6177.875;  262.350;    0.000
544.191; 6077.875;  223.350;    0.000
544.321; 6224.875;  217.350;    0.000
544.451; 6110.875;  209.350;    0.000
544.581; 6203.875;  213.350;    0.000
544.711; 6237.875;  256.350;    0.000
544.841; 6421.875;  235.350;    0.000
544.970; 6344.875;  260.350;    0.000
545.100; 6463.875;  236.350;    0.000
545.230; 6572.875;  220.350;    0.000
545.360; 6511.875;  219.350;    0.000
545.490; 6357.875;  217.350;    0.000
545.619; 6338.875;  199.350;    0.000
545.749; 6300.875;  183.350;    0.000
545.879; 6182.875;  169.350;    0.000
546.009; 6134.875;  215.350;    0.000
546.138; 6127.875;  228.350;    0.000
546.268; 6129.875;  209.350;    0.000
546.398; 6280.875;  167.350;    0.000
546.527; 6115.875;  178.350;    0.000
546.657; 6173.875;  175.350;    0.000
546.786; 6256.875;  225.350;    0.000
546.916; 6189.875;  196.350;    0.000
547.046; 6214.875;  185.350;    0.000
547.175; 6114.875;  184.350;    0.000
547.305; 6135.875;  197.350;    0.000
547.434; 6158.875;  168.350;    0.000
547.564; 6085.875;  183.350;    0.000
547.693; 6231.875;  204.350;    0.000
547.823; 6063.875;  211.350;    0.000
547.953; 6110.875;  174.350;    0.000
548.082; 6101.875;  217.350;    0.000
548.211; 6135.875;  201.350;    0.000
548.341; 6134.875;  195.350;    0.000
548.470; 6070.875;  225.350;    0.000
548.600; 6159.875;  194.350;    0.000
548.729; 6091.875;  218.350;    0.000
548.859; 6084.875;  202.350;    0.000
548.988; 6107.875;  193.350;    0.000
549.117; 6011.875;  182.350;    0.000
549.247; 6170.875;  198.350;    0.000
549.376; 6132.875;  200.350;    0.000
549.505; 5976.875;  200.350;    0.000
549.635; 6152.875;  224.350;    0.000
549.764; 6150.875;  200.350;    0.000
549.893; 6295.875;  224.350;    0.000
550.023; 6250.875;  207.350;    0.000
550.152; 6350.875;  167.350;    0.000
550.281; 6384.875;  219.350;    0.000
550.410; 6211.875;  217.350;    0.000
550.539; 6296.875;  211.350;    0.000
550.669; 6125.875;  173.350;    0.000
550.798; 6339.875;  211.350;    0.000
550.927; 6290.875;  195.350;    0.000
551.056; 6352.875;  176.350;    0.000
551.185; 6244.875;  203.350;    0.000
551.314; 6131.875;  178.350;    0.000
551.443; 6312.875;  185.350;    0.000
551.573; 6273.875;  167.350;    0.000
551.702; 6230.875;  193.350;    0.000
551.831; 6352.875;  245.350;    0.000
551.960; 6196.875;  190.350;    0.000
552.089; 6346.875;  202.350;    0.000
552.218; 6435.875;  211.350;    0.000
552.347; 6379.875;  184.350;    0.000
552.476; 6638.875;  200.350;    0.000
552.605; 6622.875;  174.350;    0.000
552.734; 6815.875;  206.350;    0.000
552.863; 7150.875;  189.350;    0.000
552.992; 7196.875;  209.350;    0.000
553.121; 7219.875;  201.350;    0.000
553.249; 7065.875;  208.350;    0.000
553.378; 6770.875;  142.350;    0.000
553.507; 6793.875;  208.350;    0.000
553.636; 6644.875;  192.350;    0.000
553.765; 6542.875;  182.350;    0.000
553.894; 6521.875;  183.350;    0.000
554.023; 6491.875;  182.350;    0.000
554.151; 6453.875;  211.350;    0.000
554.280; 6448.875;  179.350;    0.000
554.409; 6373.875;  182.350;    0.000
554.538; 6485.875;  209.350;    0.000
554.666; 6392.875;  182.350;    0.000
554.795; 6377.875;  179.350;    0.000
554.924; 6216.875;  217.350;    0.000
555.052; 6215.875;  220.350;    0.000
555.181; 6415.875;  228.350;    0.000
555.310; 6280.875;  212.350;    0.000
555.439; 6193.875;  199.350;    0.000
555.567; 6148.875;  220.350;    0.000
555.696; 6312.875;  187.350;    0.000
555.824; 6222.875;  189.350;    0.000
555.953; 6240.875;  217.350;    0.000
556.082; 6171.875;  187.350;    0.000
556.210; 6302.875;  245.350;    0.000
556.339; 6254.875;  195.350;    0.000
556.467; 6093.875;  218.350;    0.000
556.596; 6092.875;  198.350;    0.000
556.724; 6200.875;  201.350;    0.000
556.853; 6171.875;  196.350;    0.000
556.981; 6159.875;  175.350;    0.000
557.110; 6205.875;  210.350;    0.000
557.238; 6094.875;  190.350;    0.000
557.367; 6028.875;  192.350;    0.000
557.495; 6096.875;  219.350;    0.000
557.623; 6092.875;  203.350;    0.000
557.752; 5865.875;  166.350;    0.000
557.880; 6139.875;  172.350;    0.000
558.008; 6030.875;  221.350;    0.000
558.137; 5988.875;  211.350;    0.000
558.265; 6074.875;  157.350;    0.000
558.393; 6055.875;  198.350;    0.000
558.522; 5992.875;  209.350;    0.000
558.650; 6087.875;  260.350;    0.000
558.778; 6052.875;  203.350;    0.000
558.906; 6139.875;  210.350;    0.000
559.035; 6028.875;  194.350;    0.000
559.163; 6110.875;  192.350;    0.000
559.291; 6098.875;  215.350;    0.000
559.419; 6074.875;  197.350;    0.000
559.548; 6098.875;  160.350;    0.000
559.676; 6226.875;  200.350;    0.000
559.804; 6195.875;  223.350;    0.000
559.932; 6153.875;  213.350;    0.000
560.060; 6141.875;  224.350;    0.000
560.188; 6171.875;  221.350;    0.000
560.316; 6133.875;  223.350;    0.000
560.444; 6178.875;  159.350;    0.000
560.572; 6477.875;  204.350;    0.000
560.700; 6471.875;  213.350;    0.000
560.828; 6430.875;  216.350;    0.000
560.956; 6373.875;  207.350;    0.000
561.085; 6373.875;  231.350;    0.000
561.212; 6393.875;  197.350;    0.000
561.340; 6424.875;  192.350;    0.000
561.468; 6493.875;  215.350;    0.000
561.596; 6523.875;  215.350;    0.000
561.724; 6303.875;  181.350;    0.000
561.852; 6343.875;  184.350;    0.000
561.980; 6402.875;  217.350;    0.000
562.108; 6469.875;  199.350;    0.000
562.236; 6410.875;  181.350;    0.000
562.364; 6444.875;  234.350;    0.000
562.492; 6492.875;  225.350;    0.000
562.619; 6537.875;  204.350;    0.000
562.747; 6639.875;  223.350;    0.000
562.875; 6503.875;  210.350;    0.000
563.003; 6380.875;  232.350;    0.000
563.130; 6656.875;  224.350;    0.000
563.258; 6715.875;  213.350;    0.000
563.386; 6678.875;  191.350;    0.000
563.514; 6846.875;  252.350;    0.000
563.641; 7016.875;  201.350;    0.000
563.769; 7040.875;  201.350;    0.000
563.897; 6926.875;  176.350;    0.000
564.024; 7027.875;  167.350;    0.000
564.152; 7281.875;  205.350;    0.000
564.280; 7152.875;  222.350;    0.000
564.407; 7138.875;  192.350;    0.000
564.535; 7011.875;  231.350;    0.000
564.662; 7370.875;  197.350;    0.000
564.790; 7313.875;  200.350;    0.000
564.917; 7362.875;  172.350;    0.000
565.045; 7581.875;  187.350;    0.000
565.173; 7422.875;  173.350;    0.000
565.300; 7625.875;  196.350;    0.000
565.428; 7571.875;  195.350;    0.000
565.555; 7703.875;  191.350;    0.000
565.682; 7955.875;  169.350;    0.000
565.810; 7909.875;  198.350;    0.000
565.937; 8123.875;  213.350;    0.000
566.065; 8404.875;  221.350;    0.000
566.192; 8334.875;  173.350;    0.000
566.320; 8494.875;  214.350;    0.000
566.447; 8507.875;  214.350;    0.000
566.574; 8630.875;  188.350;    0.000
566.702; 8744.875;  198.350;    0.000
566.829; 8907.875;  200.350;    0.000
566.956; 9029.875;  194.350;    0.000
567.083; 9090.875;  176.350;    0.000
567.211; 8901.875;  189.350;    0.000
567.338; 9018.875;  184.350;    0.000
567.465; 9118.875;  181.350;    0.000
567.593; 9227.875;  194.350;    0.000
567.720; 9309.875;  193.350;    0.000
567.847; 9359.875;  196.350;    0.000
567.974; 9247.875;  199.350;    0.000
568.101; 9619.875;  150.350;    0.000
568.228;10654.875;  174.350;    0.000
568.356;11273.875;  164.350;    0.000
568.483;10702.875;  163.350;    0.000
568.610;10554.875;  187.350;    0.000
568.737;11792.875;  192.350;    0.000
568.864;13363.875;  218.350;    0.000
568.991;12523.875;  169.350;    0.000
569.118;11225.875;  161.350;    0.000
569.245;10255.875;  161.350;    0.000
569.372; 9656.875;  187.350;    0.000
569.499; 9198.875;  146.350;    0.000
569.626; 9020.875;  172.350;    0.000
569.753; 8671.875;  188.350;    0.000
569.880; 8406.875;  180.350;    0.000
570.007; 8214.875;  187.350;    0.000
570.134; 8115.875;  196.350;    0.000
570.261; 8064.875;  127.350;    0.000
570.388; 8026.875;  189.350;    0.000
570.515; 7843.875;  219.350;    0.000
570.642; 7745.875;  187.350;    0.000
570.768; 7692.875;  175.350;    0.000
570.895; 7662.875;  165.350;    0.000
571.022; 7645.875;  180.350;    0.000
571.149; 7526.875;  209.350;    0.000
571.276; 7425.875;  187.350;    0.000
571.402; 7360.875;  227.350;    0.000
571.529; 7289.875;  166.350;    0.000
571.656; 7161.875;  203.350;    0.000
571.783; 7085.875;  156.350;    0.000
571.909; 7105.875;  195.350;    0.000
572.036; 6944.875;  165.350;    0.000
572.163; 6927.875;  156.350;    0.000
572.289; 6727.875;  193.350;    0.000
572.416; 6803.875;  199.350;    0.000
572.543; 6879.875;  185.350;    0.000
572.669; 6836.875;  180.350;    0.000
572.796; 6734.875;  173.350;    0.000
572.922; 6712.875;  186.350;    0.000
573.049; 6702.875;  185.350;    0.000
573.176; 6740.875;  196.350;    0.000
573.302; 6704.875;  189.350;    0.000
573.429; 6701.875;  186.350;    0.000
573.555; 6486.875;  220.350;    0.000
573.682; 6497.875;  196.350;    0.000
573.808; 6484.875;  201.350;    0.000
573.935; 6482.875;  188.350;    0.000
574.061; 6439.875;  216.350;    0.000
574.188; 6429.875;  161.350;    0.000
574.314; 6531.875;  189.350;    0.000
574.440; 6580.875;  190.350;    0.000
574.567; 6461.875;  201.350;    0.000
574.693; 6380.875;  175.350;    0.000
574.820; 6437.875;  188.350;    0.000
574.946; 6406.875;  182.350;    0.000
575.072; 6378.875;  188.350;    0.000
575.198; 6507.875;  232.350;    0.000
575.325; 6456.875;  159.350;    0.000
575.451; 6343.875;  231.350;    0.000
575.577; 6365.875;  196.350;    0.000
575.704; 6471.875;  177.350;    0.000
575.830; 6338.875;  171.350;    0.000
575.956; 6334.875;  163.350;    0.000
576.082; 6488.875;  197.350;    0.000
576.208; 6355.875;  181.350;    0.000
576.335; 6362.875;  218.350;    0.000
576.461; 6429.875;  207.350;    0.000
576.587; 6329.875;  173.350;    0.000
576.713; 6356.875;  170.350;    0.000
576.839; 6370.875;  186.350;    0.000
576.965; 6389.875;  194.350;    0.000
577.091; 6277.875;  167.350;    0.000
577.217; 6343.875;  212.350;    0.000
577.343; 6252.875;  214.350;    0.000
577.469; 6307.875;  208.350;    0.000
577.596; 6233.875;  188.350;    0.000
577.722; 6395.875;  221.350;    0.000
577.848; 6174.875;  197.350;    0.000
577.974; 6306.875;  222.350;    0.000
578.099; 6294.875;  187.350;    0.000
578.225; 6345.875;  213.350;    0.000
578.351; 6374.875;  190.350;    0.000
578.477; 6263.875;  212.350;    0.000
578.603; 6233.875;  178.350;    0.000
578.729; 6283.875;  193.350;    0.000
578.855; 6239.875;  194.350;    0.000
578.981; 6389.875;  152.350;    0.000
579.107; 6384.875;  175.350;    0.000
579.232; 6409.875;  192.350;    0.000
579.358; 6410.875;  186.350;    0.000
579.484; 6434.875;  186.350;    0.000
579.610; 6443.875;  199.350;    0.000
579.735; 6352.875;  197.350;    0.000
579.861; 6433.875;  203.350;    0.000
579.987; 6425.875;  220.350;    0.000
580.113; 6513.875;  210.350;    0.000
580.238; 6346.875;  189.350;    0.000
580.364; 6622.875;  214.350;    0.000
580.490; 6387.875;  205.350;    0.000
580.615; 6449.875;  231.350;    0.000
580.741; 6479.875;  212.350;    0.000
580.867; 6537.875;  196.350;    0.000
580.992; 6687.875;  214.350;    0.000
581.118; 6652.875;  178.350;    0.000
581.243; 6593.875;  209.350;    0.000
581.369; 6632.875;  173.350;    0.000
581.494; 6693.875;  209.350;    0.000
581.620; 6740.875;  204.350;    0.000
581.745; 6708.875;  168.350;    0.000
581.871; 6815.875;  236.350;    0.000
581.996; 6782.875;  212.350;    0.000
582.122; 6763.875;  192.350;    0.000
582.247; 6718.875;  179.350;    0.000
582.373; 7010.875;  189.350;    0.000
582.498; 6998.875;  217.350;    0.000
582.624; 7031.875;  231.350;    0.000
582.749; 6870.875;  237.350;    0.000
582.874; 7081.875;  205.350;    0.000
583.000; 7119.875;  204.350;    0.000
583.125; 7135.875;  192.350;    0.000
583.250; 7226.875;  229.350;    0.000
583.376; 7327.875;  256.350;    0.000
583.501; 7373.875;  200.350;    0.000
583.626; 7262.875;  207.350;    0.000
583.751; 7530.875;  215.350;    0.000
583.877; 7475.875;  212.350;    0.000
584.002; 7532.875;  227.350;    0.000
584.127; 7655.875;  153.350;    0.000
584.252; 7593.875;  197.350;    0.000
584.377; 7657.875;  183.350;    0.000
584.503; 7824.875;  211.350;    0.000
584.628; 7982.875;  215.350;    0.000
584.753; 8090.875;  194.350;    0.000
584.878; 8111.875;  154.350;    0.000
585.003; 8297.875;  213.350;    0.000
585.128; 8496.875;  199.350;    0.000
585.253; 8661.875;  219.350;    0.000
585.378; 8709.875;  174.350;    0.000
585.503; 8852.875;  202.350;    0.000
585.628; 8983.875;  186.350;    0.000
585.753; 9188.875;  209.350;    0.000
585.878; 9497.875;  167.350;    0.000
586.003; 9607.875;  226.350;    0.000
586.128; 9852.875;  206.350;    0.000
586.253;10094.875;  198.350;    0.000
586.378;10280.875;  180.350;    0.000
586.503;10593.875;  201.350;    0.000
586.628;11090.875;  206.350;    0.000
586.753;11506.875;  178.350;    0.000
586.878;11909.875;  228.350;    0.000
587.003;12542.875;  199.350;    0.000
587.127;12953.875;  194.350;    0.000
587.252;13635.875;  212.350;    0.000
587.377;14171.875;  172.350;    0.000
587.502;14867.875;  219.350;    0.000
587.627;16015.875;  247.350;    0.000
587.751;17083.875;  184.350;    0.000
587.876;18662.875;  215.350;    0.000
588.001;20230.875;  163.350;    0.000
588.125;22480.875;  185.350;    0.000
588.250;25076.875;  171.350;    0.000
588.375;28486.875;  255.350;    0.000
588.499;33293.875;  185.350;    0.000
588.624;39297.875;  167.350;    0.000
588.749;46580.875;  170.350;    0.000
588.873;52796.875;  173.350;    0.000
588.998;56543.875;  203.350;    0.000
589.122;59367.875;  184.350;    0.000
589.247;58749.875;  217.350;    0.000
589.372;55892.875;  250.350;    0.000
589.496;55238.875;  200.350;    0.000
589.621;56864.875;  199.350;    0.000
589.745;56004.875;  235.350;    0.000
589.870;50051.875;  206.350;    0.000
589.994;41918.875;  194.350;    0.000
590.118;35849.875;  177.350;    0.000
590.243;30954.875;  231.350;    0.000
590.367;27308.875;  173.350;    0.000
590.492;24624.875;  170.350;    0.000
590.616;22585.875;  182.350;    0.000
590.740;20661.875;  178.350;    0.000
590.865;18911.875;  219.350;    0.000
590.989;17694.875;  210.350;    0.000
591.114;16660.875;  194.350;    0.000
591.238;15845.875;  154.350;    0.000
591.362;15213.875;  210.350;    0.000
591.486;14478.875;  215.350;    0.000
591.611;13949.875;  194.350;    0.000
591.735;13078.875;  206.350;    0.000
591.859;12855.875;  188.350;    0.000
591.983;12509.875;  202.350;    0.000
592.107;12231.875;  175.350;    0.000
592.232;11637.875;  214.350;    0.000
592.356;11493.875;  232.350;    0.000
592.480;11160.875;  203.350;    0.000
592.604;10937.875;  204.350;    0.000
592.728;10634.875;  187.350;    0.000
592.852;10473.875;  204.350;    0.000
592.976;10313.875;  163.350;    0.000
593.100;10158.875;  177.350;    0.000
593.224; 9905.875;  209.350;    0.000
593.349;10055.875;  255.350;    0.000
593.473; 9629.875;  225.350;    0.000
593.597; 9527.875;  211.350;    0.000
593.721; 9403.875;  222.350;    0.000
593.844; 9221.875;  202.350;    0.000
593.968; 9210.875;  223.350;    0.000
594.092; 8979.875;  162.350;    0.000
594.216; 8794.875;  211.350;    0.000
594.340; 8624.875;  198.350;    0.000
594.464; 8571.875;  242.350;    0.000
594.588; 8585.875;  213.350;    0.000
594.712; 8192.875;  198.350;    0.000
594.836; 8245.875;  207.350;    0.000
594.959; 8090.875;  192.350;    0.000
595.083; 7800.875;  180.350;    0.000
595.207; 7903.875;  242.350;    0.000
595.331; 7732.875;  172.350;    0.000
595.455; 7675.875;  185.350;    0.000
595.578; 7657.875;  221.350;    0.000
595.702; 7500.875;  233.350;    0.000
595.826; 7584.875;  164.350;    0.000
595.949; 7348.875;  215.350;    0.000
596.073; 7394.875;  198.350;    0.000
596.197; 7239.875;  266.350;    0.000
596.320; 7150.875;  236.350;    0.000
596.444; 7196.875;  215.350;    0.000
596.568; 6920.875;  213.350;    0.000
596.691; 6945.875;  198.350;    0.000
596.815; 6844.875;  210.350;    0.000
596.938; 6947.875;  207.350;    0.000
597.062; 6802.875;  187.350;    0.000
597.186; 6800.875;  234.350;    0.000
597.309; 6811.875;  176.350;    0.000
597.433; 6588.875;  222.350;    0.000
597.556; 6518.875;  219.350;    0.000
597.680; 6659.875;  227.350;    0.000
597.803; 6504.875;  240.350;    0.000
597.926; 6478.875;  227.350;    0.000
598.050; 6474.875;  198.350;    0.000
598.173; 6507.875;  235.350;    0.000
598.297; 6398.875;  233.350;    0.000
598.420; 6280.875;  211.350;    0.000
598.543; 6315.875;  207.350;    0.000
598.667; 6381.875;  232.350;    0.000
598.790; 6306.875;  205.350;    0.000
598.913; 6231.875;  200.350;    0.000
599.037; 6210.875;  193.350;    0.000
599.160; 6186.875;  199.350;    0.000
599.283; 6151.875;  237.350;    0.000
599.406; 6047.875;  168.350;    0.000
599.530; 6204.875;  231.350;    0.000
599.653; 6015.875;  220.350;    0.000
599.776; 6163.875;  203.350;    0.000
599.899; 6100.875;  202.350;    0.000
600.022; 5964.875;  189.350;    0.000
600.145; 6034.875;  175.350;    0.000
600.269; 6090.875;  235.350;    0.000
600.392; 6020.875;  213.350;    0.000
600.515; 5932.875;  236.350;    0.000
600.638; 5920.875;  198.350;    0.000
600.761; 5917.875;  195.350;    0.000
600.884; 5823.875;  221.350;    0.000
601.007; 5784.875;  236.350;    0.000
601.130; 5750.875;  223.350;    0.000
601.253; 5896.875;  250.350;    0.000
601.376; 5743.875;  195.350;    0.000
601.499; 5834.875;  168.350;    0.000
601.622; 5840.875;  221.350;    0.000
601.745; 5731.875;  223.350;    0.000
601.868; 5700.875;  204.350;    0.000
601.991; 5684.875;  207.350;    0.000
602.113; 5793.875;  223.350;    0.000
602.236; 5670.875;  182.350;    0.000
602.359; 5624.875;  235.350;    0.000
602.482; 5600.875;  173.350;    0.000
602.605; 5724.875;  227.350;    0.000
602.728; 5535.875;  227.350;    0.000
602.850; 5637.875;  250.350;    0.000
602.973; 5518.875;  195.350;    0.000
603.096; 5512.875;  270.350;    0.000
603.219; 5766.875;  197.350;    0.000
603.341; 5530.875;  195.350;    0.000
603.464; 5561.875;  204.350;    0.000
603.587; 5503.875;  243.350;    0.000
603.709; 5576.875;  188.350;    0.000
603.832; 5523.875;  214.350;    0.000
603.955; 5523.875;  213.350;    0.000
604.077; 5563.875;  201.350;    0.000
604.200; 5560.875;  209.350;    0.000
604.323; 5540.875;  201.350;    0.000
604.445; 5496.875;  202.350;    0.000
604.568; 5478.875;  230.350;    0.000
604.690; 5356.875;  212.350;    0.000
604.813; 5414.875;  226.350;    0.000
604.935; 5386.875;  216.350;    0.000
605.058; 5348.875;  182.350;    0.000
605.180; 5449.875;  204.350;    0.000
605.303; 5526.875;  199.350;    0.000
605.425; 5387.875;  178.350;    0.000
605.547; 5409.875;  209.350;    0.000
605.670; 5262.875;  206.350;    0.000
605.792; 5467.875;  199.350;    0.000
605.915; 5391.875;  221.350;    0.000
606.037; 5324.875;  222.350;    0.000
606.159; 5305.875;  160.350;    0.000
606.282; 5437.875;  188.350;    0.000
606.404; 5338.875;  205.350;    0.000
606.526; 5406.875;  228.350;    0.000
606.648; 5316.875;  184.350;    0.000
606.771; 5267.875;  195.350;    0.000
606.893; 5331.875;  193.350;    0.000
607.015; 5239.875;  202.350;    0.000
607.137; 5303.875;  189.350;    0.000
607.260; 5174.875;  201.350;    0.000
607.382; 5272.875;  211.350;    0.000
607.504; 5374.875;  206.350;    0.000
607.626; 5288.875;  236.350;    0.000
607.748; 5348.875;  228.350;    0.000
607.870; 5287.875;  212.350;    0.000
607.992; 5148.875;  201.350;    0.000
608.114; 5219.875;  214.350;    0.000
608.237; 5260.875;  235.350;    0.000
608.359; 5244.875;  215.350;    0.000
608.481; 5140.875;  183.350;    0.000
608.603; 5218.875;  206.350;    0.000
608.725; 5110.875;  238.350;    0.000
608.847; 5254.875;  237.350;    0.000
608.969; 5242.875;  227.350;    0.000
609.090; 5182.875;  205.350;    0.000
609.212; 5167.875;  182.350;    0.000
609.334; 5197.875;  210.350;    0.000
609.456; 5193.875;  208.350;    0.000
609.578; 5149.875;  195.350;    0.000
609.700; 5219.875;  196.350;    0.000
609.822; 5140.875;  184.350;    0.000
609.944; 5305.875;  258.350;    0.000
610.065; 5139.875;  219.350;    0.000
610.187; 5037.875;  217.350;    0.000
610.309; 5102.875;  179.350;    0.000
610.431; 5136.875;  189.350;    0.000
610.552; 5141.875;  212.350;    0.000
610.674; 5100.875;  211.350;    0.000
610.796; 5083.875;  168.350;    0.000
610.918; 4995.875;  201.350;    0.000
611.039; 5252.875;  212.350;    0.000
611.161; 5151.875;  207.350;    0.000
611.282; 5110.875;  219.350;    0.000
611.404; 5082.875;  243.350;    0.000
611.526; 5014.875;  180.350;    0.000
611.647; 5052.875;  235.350;    0.000
611.769; 5004.875;  189.350;    0.000
611.890; 5109.875;  201.350;    0.000
612.012; 4935.875;  191.350;    0.000
612.133; 5039.875;  227.350;    0.000
612.255; 5002.875;  191.350;    0.000
612.377; 5098.875;  192.350;    0.000
612.498; 5081.875;  202.350;    0.000
612.619; 5036.875;  207.350;    0.000
612.741; 5004.875;  241.350;    0.000
612.862; 5177.875;  219.350;    0.000
612.984; 5003.875;  203.350;    0.000
613.105; 5051.875;  228.350;    0.000
613.226; 5040.875;  199.350;    0.000
613.348; 5066.875;  238.350;    0.000
613.469; 5143.875;  239.350;    0.000
613.590; 4986.875;  183.350;    0.000
613.712; 5020.875;  245.350;    0.000
613.833; 5052.875;  241.350;    0.000
613.954; 5005.875;  208.350;    0.000
614.076; 5018.875;  181.350;    0.000
614.197; 4993.875;  217.350;    0.000
614.318; 4994.875;  182.350;    0.000
614.439; 4986.875;  204.350;    0.000
614.560; 4911.875;  219.350;    0.000
614.682; 5083.875;  238.350;    0.000
614.803; 5055.875;  240.350;    0.000
614.924; 4955.875;  212.350;    0.000
615.045; 5017.875;  225.350;    0.000
615.166; 5102.875;  227.350;    0.000
615.287; 5366.875;  230.350;    0.000
615.408; 5870.875;  187.350;    0.000
615.529; 6004.875;  211.350;    0.000
615.650; 5711.875;  202.350;    0.000
615.771; 5567.875;  203.350;    0.000
615.892; 5637.875;  222.350;    0.000
616.013; 6453.875;  215.350;    0.000
616.134; 6932.875;  193.350;    0.000
616.255; 6586.875;  242.350;    0.000
616.376; 5954.875;  205.350;    0.000
616.497; 5615.875;  200.350;    0.000
616.618; 5471.875;  177.350;    0.000
616.739; 5374.875;  218.350;    0.000
616.860; 5357.875;  214.350;    0.000
616.981; 5219.875;  208.350;    0.000
617.102; 5220.875;  203.350;    0.000
617.222; 5162.875;  212.350;    0.000
617.343; 5133.875;  162.350;    0.000
617.464; 5169.875;  230.350;    0.000
617.585; 4996.875;  197.350;    0.000
617.705; 5094.875;  209.350;    0.000
617.826; 5029.875;  229.350;    0.000
617.947; 5017.875;  216.350;    0.000
618.068; 4975.875;  192.350;    0.000
618.188; 4974.875;  230.350;    0.000
618.309; 5053.875;  238.350;    0.000
618.430; 5045.875;  242.350;    0.000
618.550; 4881.875;  235.350;    0.000
618.671; 4890.875;  207.350;    0.000
618.791; 4907.875;  228.350;    0.000
618.912; 4907.875;  266.350;    0.000
619.033; 4987.875;  232.350;    0.000
619.153; 4891.875;  207.350;    0.000
619.274; 4909.875;  193.350;    0.000
619.394; 4912.875;  237.350;    0.000
619.515; 4978.875;  216.350;    0.000
619.635; 4844.875;  203.350;    0.000
619.756; 4942.875;  227.350;    0.000
619.876; 4943.875;  244.350;    0.000
619.996; 4862.875;  220.350;    0.000
620.117; 4941.875;  231.350;    0.000
620.237; 4818.875;  235.350;    0.000
620.358; 4767.875;  241.350;    0.000
620.478; 4856.875;  237.350;    0.000
620.598; 4777.875;  255.350;    0.000
620.719; 4949.875;  243.350;    0.000
620.839; 4835.875;  237.350;    0.000
620.959; 4776.875;  216.350;    0.000
621.079; 4802.875;  240.350;    0.000
621.200; 4727.875;  195.350;    0.000
621.320; 4891.875;  287.350;    0.000
621.440; 4806.875;  236.350;    0.000
621.560; 4686.875;  231.350;    0.000
621.681; 4709.875;  177.350;    0.000
621.801; 4640.875;  257.350;    0.000
621.921; 4762.875;  241.350;    0.000
622.041; 4911.875;  239.350;    0.000
622.161; 4789.875;  233.350;    0.000
622.281; 4689.875;  204.350;    0.000
622.401; 4806.875;  204.350;    0.000
622.521; 4741.875;  242.350;    0.000
622.641; 4742.875;  205.350;    0.000
622.761; 4587.875;  254.350;    0.000
622.882; 4573.875;  225.350;    0.000
623.002; 4653.875;  255.350;    0.000
623.121; 4717.875;  244.350;    0.000
623.241; 4755.875;  238.350;    0.000
623.361; 4710.875;  208.350;    0.000
623.481; 4591.875;  194.350;    0.000
623.601; 4689.875;  249.350;    0.000
623.721; 4671.875;  229.350;    0.000
623.841; 4672.875;  244.350;    0.000
623.961; 4591.875;  253.350;    0.000
624.081; 4588.875;  218.350;    0.000
624.201; 4541.875;  218.350;    0.000
624.320; 4518.875;  212.350;    0.000
624.440; 4570.875;  251.350;    0.000
624.560; 4564.875;  244.350;    0.000
624.680; 4610.875;  224.350;    0.000
624.799; 4605.875;  198.350;    0.000
624.919; 4607.875;  215.350;    0.000
625.039; 4669.875;  225.350;    0.000
625.159; 4644.875;  209.350;    0.000
625.278; 4427.875;  211.350;    0.000
625.398; 4553.875;  260.350;    0.000
625.518; 4508.875;  205.350;    0.000
625.637; 4623.875;  240.350;    0.000
625.757; 4546.875;  208.350;    0.000
625.876; 4598.875;  221.350;    0.000
625.996; 4595.875;  245.350;    0.000
626.115; 4574.875;  196.350;    0.000
626.235; 4586.875;  241.350;    0.000
626.354; 4465.875;  231.350;    0.000
626.474; 4515.875;  220.350;    0.000
626.594; 4450.875;  210.350;    0.000
626.713; 4467.875;  229.350;    0.000
626.832; 4597.875;  236.350;    0.000
626.952; 4533.875;  223.350;    0.000
627.071; 4498.875;  211.350;    0.000
627.191; 4525.875;  220.350;    0.000
627.310; 4500.875;  206.350;    0.000
627.429; 4419.875;  223.350;    0.000
627.549; 4423.875;  205.350;    0.000
627.668; 4475.875;  227.350;    0.000
627.787; 4509.875;  221.350;    0.000
627.907; 4392.875;  194.350;    0.000
628.026; 4496.875;  231.350;    0.000
628.145; 4444.875;  210.350;    0.000
628.264; 4384.875;  245.350;    0.000
628.384; 4451.875;  234.350;    0.000
628.503; 4490.875;  210.350;    0.000
628.622; 4492.875;  223.350;    0.000
628.741; 4372.875;  210.350;    0.000
628.860; 4516.875;  222.350;    0.000
628.980; 4490.875;  184.350;    0.000
629.099; 4477.875;  234.350;    0.000
629.218; 4452.875;  157.350;    0.000
629.337; 4434.875;  220.350;    0.000
629.456; 4366.875;  210.350;    0.000
629.575; 4547.875;  239.350;    0.000
629.694; 4417.875;  216.350;    0.000
629.813; 4448.875;  218.350;    0.000
629.932; 4509.875;  175.350;    0.000
630.051; 4513.875;  218.350;    0.000
630.170; 4426.875;  215.350;    0.000
630.289; 4399.875;  203.350;    0.000
630.408; 4318.875;  180.350;    0.000
630.527; 4527.875;  249.350;    0.000
630.646; 4375.875;  186.350;    0.000
630.764; 4349.875;  189.350;    0.000
630.883; 4344.875;  221.350;    0.000
631.002; 4355.875;  191.350;    0.000
631.121; 4418.875;  210.350;    0.000
631.240; 4496.875;  256.350;    0.000
631.359; 4463.875;  246.350;    0.000
631.477; 4502.875;  230.350;    0.000
631.596; 4394.875;  229.350;    0.000
631.715; 4425.875;  242.350;    0.000
631.834; 4316.875;  261.350;    0.000
631.952; 4448.875;  250.350;    0.000
632.071; 4395.875;  218.350;    0.000
632.190; 4415.875;  200.350;    0.000
632.308; 4459.875;  226.350;    0.000
632.427; 4302.875;  234.350;    0.000
632.546; 4302.875;  250.350;    0.000
632.664; 4296.875;  224.350;    0.000
632.783; 4362.875;  211.350;    0.000
632.901; 4358.875;  254.350;    0.000
633.020; 4231.875;  204.350;    0.000
633.138; 4233.875;  228.350;    0.000
633.257; 4472.875;  219.350;    0.000
633.375; 4279.875;  243.350;    0.000
633.494; 4367.875;  242.350;    0.000
633.612; 4400.875;  227.350;    0.000
633.731; 4315.875;  221.350;    0.000
633.849; 4208.875;  239.350;    0.000
633.968; 4324.875;  219.350;    0.000
634.086; 4284.875;  218.350;    0.000
634.204; 4230.875;  203.350;    0.000
634.323; 4338.875;  222.350;    0.000
634.441; 4234.875;  257.350;    0.000
634.559; 4350.875;  201.350;    0.000
634.678; 4154.875;  214.350;    0.000
634.796; 4231.875;  207.350;    0.000
634.914; 4155.875;  226.350;    0.000
635.032; 4229.875;  250.350;    0.000
635.151; 4145.875;  228.350;    0.000
635.269; 4363.875;  188.350;    0.000
635.387; 4276.875;  247.350;    0.000
635.505; 4116.875;  250.350;    0.000
635.623; 4199.875;  230.350;    0.000
635.742; 4339.875;  209.350;    0.000
635.860; 4286.875;  239.350;    0.000
635.978; 4248.875;  213.350;    0.000
636.096; 4214.875;  176.350;    0.000
636.214; 4232.875;  246.350;    0.000
636.332; 4136.875;  224.350;    0.000
636.450; 4195.875;  215.350;    0.000
636.568; 4216.875;  246.350;    0.000
636.686; 4095.875;  225.350;    0.000
636.804; 4214.875;  218.350;    0.000
636.922; 4210.875;  195.350;    0.000
637.040; 4174.875;  213.350;    0.000
637.158; 4272.875;  228.350;    0.000
637.276; 4208.875;  206.350;    0.000
637.394; 4217.875;  224.350;    0.000
637.512; 4109.875;  245.350;    0.000
637.629; 4159.875;  234.350;    0.000
637.747; 4174.875;  233.350;    0.000
637.865; 4164.875;  236.350;    0.000
637.983; 4137.875;  235.350;    0.000
638.101; 4169.875;  232.350;    0.000
638.218; 4036.875;  256.350;    0.000
638.336; 4187.875;  216.350;    0.000
638.454; 4222.875;  255.350;    0.000
638.572; 4283.875;  237.350;    0.000
638.689; 4209.875;  271.350;    0.000
638.807; 4186.875;  243.350;    0.000
638.925; 4068.875;  259.350;    0.000
639.042; 4117.875;  185.350;    0.000
639.160; 4168.875;  250.350;    0.000
639.278; 4043.875;  207.350;    0.000
639.395; 4141.875;  243.350;    0.000
639.513; 4114.875;  235.350;    0.000
639.630; 4181.875;  230.350;    0.000
639.748; 4002.875;  192.350;    0.000
639.865; 4070.875;  219.350;    0.000
639.983; 4099.875;  183.350;    0.000
640.100; 4113.875;  251.350;    0.000
640.218; 4195.875;  246.350;    0.000
640.335; 4083.875;  227.350;    0.000
640.453; 4045.875;  259.350;    0.000
640.570; 4094.875;  251.350;    0.000
640.688; 4143.875;  223.350;    0.000
640.805; 4012.875;  246.350;    0.000
640.922; 4126.875;  249.350;    0.000
641.040; 4039.875;  257.350;    0.000
641.157; 4115.875;  207.350;    0.000
641.274; 4078.875;  241.350;    0.000
641.391; 4112.875;  246.350;    0.000
641.509; 4147.875;  216.350;    0.000
641.626; 4168.875;  252.350;    0.000
641.743; 3998.875;  215.350;    0.000
641.860; 4115.875;  234.350;    0.000
641.978; 4064.875;  216.350;    0.000
642.095; 4102.875;  247.350;    0.000
642.212; 4106.875;  199.350;    0.000
642.329; 4047.875;  237.350;    0.000
642.446; 4008.875;  222.350;    0.000
642.563; 4022.875;  287.350;    0.000
642.681; 4087.875;  261.350;    0.000
642.798; 4053.875;  251.350;    0.000
642.915; 4004.875;  238.350;    0.000
643.032; 3984.875;  246.350;    0.000
643.149; 4089.875;  239.350;    0.000
643.266; 4164.875;  238.350;    0.000
643.383; 4125.875;  231.350;    0.000
643.500; 4048.875;  212.350;    0.000
643.617; 4028.875;  236.350;    0.000
643.734; 3995.875;  239.350;    0.000
643.850; 4052.875;  234.350;    0.000
643.967; 4111.875;  253.350;    0.000
644.084; 4116.875;  253.350;    0.000
644.201; 4090.875;  227.350;    0.000
644.318; 4022.875;  247.350;    0.000
644.435; 4032.875;  264.350;    0.000
644.552; 4100.875;  230.350;    0.000
644.668; 4104.875;  250.350;    0.000
644.785; 4101.875;  235.350;    0.000
644.902; 4151.875;  227.350;    0.000
645.019; 4134.875;  203.350;    0.000
645.135; 4088.875;  210.350;    0.000
645.252; 4064.875;  206.350;    0.000
645.369; 4065.875;  235.350;    0.000
645.485; 4030.875;  223.350;    0.000
645.602; 4127.875;  205.350;    0.000
645.719; 4168.875;  222.350;    0.000
645.835; 4208.875;  246.350;    0.000
645.952; 4125.875;  239.350;    0.000
646.068; 4145.875;  225.350;    0.000
646.185; 4292.875;  248.350;    0.000
646.302; 4258.875;  226.350;    0.000
646.418; 4256.875;  228.350;    0.000
646.535; 4199.875;  219.350;    0.000
646.651; 4107.875;  204.350;    0.000
646.768; 4170.875;  247.350;    0.000
646.884; 4313.875;  228.350;    0.000
647.000; 4256.875;  223.350;    0.000
647.117; 4282.875;  251.350;    0.000
647.233; 4202.875;  223.350;    0.000
647.350; 4249.875;  237.350;    0.000
647.466; 4235.875;  223.350;    0.000
647.582; 4274.875;  243.350;    0.000
647.699; 4449.875;  223.350;    0.000
647.815; 4271.875;  215.350;    0.000
647.931; 4375.875;  214.350;    0.000
648.047; 4338.875;  199.350;    0.000
648.164; 4331.875;  233.350;    0.000
648.280; 4309.875;  231.350;    0.000
648.396; 4410.875;  215.350;    0.000
648.512; 4354.875;  252.350;    0.000
648.629; 4329.875;  237.350;    0.000
648.745; 4364.875;  216.350;    0.000
648.861; 4247.875;  207.350;    0.000
648.977; 4357.875;  247.350;    0.000
649.093; 4383.875;  221.350;    0.000
649.209; 4325.875;  232.350;    0.000
649.325; 4374.875;  245.350;    0.000
649.441; 4438.875;  253.350;    0.000
649.557; 4307.875;  221.350;    0.000
649.673; 4392.875;  182.350;    0.000
649.789; 4423.875;  245.350;    0.000
649.905; 4349.875;  204.350;    0.000
650.021; 4321.875;  270.350;    0.000
650.137; 4416.875;  218.350;    0.000
650.253; 4404.875;  268.350;    0.000
650.369; 4392.875;  222.350;    0.000
650.485; 4445.875;  215.350;    0.000
650.601; 4511.875;  218.350;    0.000
650.717; 4452.875;  208.350;    0.000
650.833; 4406.875;  263.350;    0.000
650.948; 4472.875;  266.350;    0.000
651.064; 4389.875;  271.350;    0.000
651.180; 4380.875;  232.350;    0.000
651.296; 4502.875;  237.350;    0.000
651.411; 4445.875;  233.350;    0.000
651.527; 4376.875;  232.350;    0.000
651.643; 4591.875;  259.350;    0.000
651.759; 4462.875;  257.350;    0.000
651.874; 4535.875;  216.350;    0.000
651.990; 4617.875;  234.350;    0.000
652.105; 4546.875;  195.350;    0.000
652.221; 4546.875;  245.350;    0.000
652.337; 4717.875;  210.350;    0.000
652.452; 4710.875;  259.350;    0.000
652.568; 4565.875;  202.350;    0.000
652.683; 4755.875;  233.350;    0.000
652.799; 4685.875;  230.350;    0.000
652.914; 4625.875;  198.350;    0.000
653.030; 4701.875;  203.350;    0.000
653.145; 4855.875;  228.350;    0.000
653.261; 4824.875;  244.350;    0.000
653.376; 4735.875;  214.350;    0.000
653.492; 4811.875;  246.350;    0.000
653.607; 4905.875;  241.350;    0.000
653.722; 4962.875;  257.350;    0.000
653.838; 5042.875;  265.350;    0.000
653.953; 5076.875;  252.350;    0.000
654.068; 5072.875;  270.350;    0.000
654.184; 5117.875;  248.350;    0.000
654.299; 5223.875;  226.350;    0.000
654.414; 5167.875;  190.350;    0.000
654.530; 5190.875;  263.350;    0.000
654.645; 5340.875;  240.350;    0.000
654.760; 5481.875;  243.350;    0.000
654.875; 5504.875;  210.350;    0.000
654.990; 5616.875;  250.350;    0.000
655.106; 5783.875;  277.350;    0.000
655.221; 5710.875;  249.350;    0.000
655.336; 5815.875;  239.350;    0.000
655.451; 5944.875;  226.350;    0.000
655.566; 6130.875;  236.350;    0.000
655.681; 6174.875;  272.350;    0.000
655.796; 6405.875;  224.350;    0.000
655.911; 6530.875;  247.350;    0.000
656.026; 6668.875;  240.350;    0.000
656.141; 6965.875;  239.350;    0.000
656.256; 6941.875;  241.350;    0.000
656.371; 7085.875;  213.350;    0.000
656.486; 7057.875;  275.350;    0.000
656.601; 6986.875;  225.350;    0.000
656.716; 6875.875;  239.350;    0.000
656.831; 6719.875;  260.350;    0.000
656.946; 6735.875;  250.350;    0.000
657.060; 6655.875;  257.350;    0.000
657.175; 6351.875;  256.350;    0.000
657.290; 6462.875;  255.350;    0.000
657.405; 6410.875;  303.350;    0.000
657.520; 6236.875;  272.350;    0.000
657.634; 6078.875;  268.350;    0.000
657.749; 6026.875;  261.350;    0.000
657.864; 5911.875;  235.350;    0.000
657.979; 5771.875;  257.350;    0.000
658.093; 5876.875;  243.350;    0.000
658.208; 5761.875;  281.350;    0.000
658.323; 5521.875;  240.350;    0.000
658.437; 5516.875;  285.350;    0.000
658.552; 5526.875;  262.350;    0.000
658.666; 5436.875;  269.350;    0.000
658.781; 5451.875;  244.350;    0.000
658.895; 5249.875;  259.350;    0.000
659.010; 5236.875;  254.350;    0.000
659.125; 5219.875;  210.350;    0.000
659.239; 5102.875;  212.350;    0.000
659.353; 5138.875;  269.350;    0.000
659.468; 5097.875;  269.350;    0.000
659.582; 5036.875;  244.350;    0.000
659.697; 5088.875;  262.350;    0.000
659.811; 5021.875;  271.350;    0.000
659.926; 4921.875;  232.350;    0.000
660.040; 4911.875;  250.350;    0.000
660.154; 4836.875;  209.350;    0.000
660.269; 4728.875;  212.350;    0.000
660.383; 4739.875;  237.350;    0.000
660.497; 4797.875;  231.350;    0.000
660.612; 4686.875;  232.350;    0.000
660.726; 4746.875;  276.350;    0.000
660.840; 4642.875;  235.350;    0.000
660.954; 4664.875;  224.350;    0.000
661.068; 4595.875;  241.350;    0.000
661.183; 4573.875;  223.350;    0.000
661.297; 4515.875;  255.350;    0.000
661.411; 4475.875;  223.350;    0.000
661.525; 4544.875;  249.350;    0.000
661.639; 4396.875;  264.350;    0.000
661.753; 4395.875;  225.350;    0.000
661.867; 4514.875;  245.350;    0.000
661.981; 4342.875;  225.350;    0.000
662.095; 4254.875;  262.350;    0.000
662.209; 4382.875;  225.350;    0.000
662.323; 4216.875;  228.350;    0.000
662.437; 4297.875;  230.350;    0.000
662.551; 4207.875;  234.350;    0.000
662.665; 4181.875;  212.350;    0.000
662.779; 4173.875;  254.350;    0.000
662.893; 4156.875;  269.350;    0.000
663.007; 4077.875;  196.350;    0.000
663.121; 4174.875;  262.350;    0.000
663.235; 4165.875;  263.350;    0.000
663.349; 4043.875;  242.350;    0.000
663.462; 3982.875;  234.350;    0.000
663.576; 4013.875;  219.350;    0.000
663.690; 4059.875;  234.350;    0.000
663.804; 3951.875;  205.350;    0.000
663.917; 3956.875;  224.350;    0.000
664.031; 3913.875;  208.350;    0.000
664.145; 3907.875;  241.350;    0.000
664.258; 3796.875;  188.350;    0.000
664.372; 3806.875;  214.350;    0.000
664.486; 3826.875;  203.350;    0.000
664.599; 3869.875;  217.350;    0.000
664.713; 3912.875;  286.350;    0.000
664.827; 3814.875;  199.350;    0.000
664.940; 3863.875;  250.350;    0.000
665.054; 3809.875;  261.350;    0.000
665.167; 3849.875;  258.350;    0.000
665.281; 3836.875;  234.350;    0.000
665.394; 3743.875;  213.350;    0.000
665.508; 3728.875;  222.350;    0.000
665.621; 3783.875;  254.350;    0.000
665.735; 3849.875;  252.350;    0.000
665.848; 3834.875;  248.350;    0.000
665.961; 3700.875;  234.350;    0.000
666.075; 3744.875;  262.350;    0.000
666.188; 3712.875;  270.350;    0.000
666.301; 3633.875;  237.350;    0.000
666.415; 3669.875;  245.350;    0.000
666.528; 3598.875;  248.350;    0.000
666.641; 3548.875;  210.350;    0.000
666.755; 3556.875;  218.350;    0.000
666.868; 3671.875;  224.350;    0.000
666.981; 3621.875;  244.350;    0.000
667.094; 3593.875;  279.350;    0.000
667.207; 3578.875;  190.350;    0.000
667.321; 3528.875;  210.350;    0.000
667.434; 3638.875;  205.350;    0.000
667.547; 3625.875;  253.350;    0.000
667.660; 3551.875;  243.350;    0.000
667.773; 3555.875;  242.350;    0.000
667.886; 3478.875;  218.350;    0.000
667.999; 3569.875;  226.350;    0.000
668.112; 3451.875;  258.350;    0.000
668.225; 3326.875;  243.350;    0.000
668.338; 3322.875;  224.350;    0.000
668.451; 3495.875;  250.350;    0.000
668.564; 3465.875;  260.350;    0.000
668.677; 3374.875;  204.350;    0.000
668.790; 3365.875;  229.350;    0.000
668.903; 3461.875;  269.350;    0.000
669.016; 3406.875;  228.350;    0.000
669.129; 3397.875;  253.350;    0.000
669.242; 3337.875;  245.350;    0.000
669.354; 3405.875;  234.350;    0.000
669.467; 3317.875;  256.350;    0.000
669.580; 3429.875;  223.350;    0.000
669.693; 3305.875;  252.350;    0.000
669.806; 3425.875;  212.350;    0.000
669.918; 3287.875;  228.350;    0.000
670.031; 3407.875;  265.350;    0.000
670.144; 3279.875;  255.350;    0.000
670.256; 3273.875;  229.350;    0.000
670.369; 3279.875;  301.350;    0.000
670.482; 3330.875;  263.350;    0.000
670.594; 3380.875;  246.350;    0.000
670.707; 3380.875;  255.350;    0.000
670.820; 3331.875;  256.350;    0.000
670.932; 3260.875;  210.350;    0.000
671.045; 3311.875;  249.350;    0.000
671.157; 3292.875;  254.350;    0.000
671.270; 3318.875;  265.350;    0.000
671.382; 3328.875;  219.350;    0.000
671.495; 3256.875;  242.350;    0.000
671.607; 3320.875;  266.350;    0.000
671.720; 3248.875;  238.350;    0.000
671.832; 3275.875;  220.350;    0.000
671.944; 3376.875;  251.350;    0.000
672.057; 3252.875;  232.350;    0.000
672.169; 3204.875;  240.350;    0.000
672.281; 3288.875;  270.350;    0.000
672.394; 3182.875;  257.350;    0.000
672.506; 3174.875;  247.350;    0.000
672.618; 3250.875;  229.350;    0.000
672.731; 3230.875;  227.350;    0.000
672.843; 3212.875;  282.350;    0.000
672.955; 3293.875;  262.350;    0.000
673.067; 3125.875;  277.350;    0.000
673.180; 3263.875;  280.350;    0.000
673.292; 3177.875;  241.350;    0.000
673.404; 3184.875;  234.350;    0.000
673.516; 3215.875;  224.350;    0.000
673.628; 3199.875;  272.350;    0.000
673.740; 3258.875;  249.350;    0.000
673.852; 3163.875;  288.350;    0.000
673.964; 3212.875;  278.350;    0.000
674.076; 3258.875;  273.350;    0.000
674.188; 3184.875;  251.350;    0.000
674.300; 3175.875;  244.350;    0.000
674.412; 3120.875;  267.350;    0.000
674.524; 3224.875;  276.350;    0.000
674.636; 3227.875;  234.350;    0.000
674.748; 3068.875;  267.350;    0.000
674.860; 3274.875;  255.350;    0.000
674.972; 3110.875;  253.350;    0.000
675.084; 3070.875;  253.350;    0.000
675.196; 3068.875;  300.350;    0.000
675.307; 3110.875;  307.350;    0.000
675.419; 3075.875;  245.350;    0.000
675.531; 3203.875;  292.350;    0.000
675.643; 3155.875;  244.350;    0.000
675.755; 3056.875;  265.350;    0.000
675.866; 3125.875;  281.350;    0.000
675.978; 3124.875;  266.350;    0.000
676.090; 3010.875;  267.350;    0.000
676.201; 3130.875;  265.350;    0.000
676.313; 3016.875;  222.350;    0.000
676.425; 3107.875;  248.350;    0.000
676.536; 3080.875;  234.350;    0.000
676.648; 3071.875;  261.350;    0.000
676.759; 3071.875;  280.350;    0.000
676.871; 3070.875;  260.350;    0.000
676.983; 3060.875;  277.350;    0.000
677.094; 3060.875;  252.350;    0.000
677.206; 3072.875;  238.350;    0.000
677.317; 3054.875;  269.350;    0.000
677.429; 3037.875;  245.350;    0.000
677.540; 2962.875;  244.350;    0.000
677.651; 2858.875;  225.350;    0.000
677.763; 2972.875;  216.350;    0.000
677.874; 2961.875;  226.350;    0.000
677.986; 2991.875;  234.350;    0.000
678.097; 2969.875;  237.350;    0.000
678.208; 3027.875;  278.350;    0.000
678.320; 3006.875;  243.350;    0.000
678.431; 2919.875;  248.350;    0.000
678.542; 2958.875;  240.350;    0.000
678.653; 3035.875;  250.350;    0.000
678.765; 2876.875;  258.350;    0.000
678.876; 2929.875;  221.350;    0.000
678.987; 2914.875;  229.350;    0.000
679.098; 2935.875;  233.350;    0.000
679.209; 2952.875;  274.350;    0.000
679.320; 2954.875;  216.350;    0.000
679.432; 2939.875;  246.350;    0.000
679.543; 2959.875;  226.350;    0.000
679.654; 2946.875;  232.350;    0.000
679.765; 2874.875;  246.350;    0.000
679.876; 2853.875;  263.350;    0.000
679.987; 2946.875;  216.350;    0.000
680.098; 2852.875;  262.350;    0.000
680.209; 2933.875;  219.350;    0.000
680.320; 2923.875;  232.350;    0.000
680.431; 2897.875;  261.350;    0.000
680.542; 2917.875;  219.350;    0.000
680.653; 2966.875;  238.350;    0.000
680.763; 2905.875;  191.350;    0.000
680.874; 2918.875;  267.350;    0.000
680.985; 2769.875;  240.350;    0.000
681.096; 2913.875;  251.350;    0.000
681.207; 2859.875;  232.350;    0.000
681.318; 2815.875;  211.350;    0.000
681.428; 2913.875;  233.350;    0.000
681.539; 2847.875;  197.350;    0.000
681.650; 2873.875;  197.350;    0.000
681.760; 2872.875;  243.350;    0.000
681.871; 2928.875;  245.350;    0.000
681.982; 2931.875;  218.350;    0.000
682.093; 2900.875;  262.350;    0.000
682.203; 2849.875;  250.350;    0.000
682.314; 2814.875;  239.350;    0.000
682.424; 2840.875;  250.350;    0.000
682.535; 2798.875;  206.350;    0.000
682.646; 2876.875;  302.350;    0.000
682.756; 2845.875;  258.350;    0.000
682.867; 2889.875;  265.350;    0.000
682.977; 2828.875;  218.350;    0.000
683.088; 2833.875;  264.350;    0.000
683.198; 2784.875;  236.350;    0.000
683.308; 2843.875;  246.350;    0.000
683.419; 2803.875;  296.350;    0.000
683.529; 2728.875;  242.350;    0.000
683.640; 2833.875;  245.350;    0.000
683.750; 2818.875;  213.350;    0.000
683.860; 2912.875;  256.350;    0.000
683.971; 2816.875;  251.350;    0.000
684.081; 2798.875;  232.350;    0.000
684.191; 2861.875;  252.350;    0.000
684.301; 2855.875;  214.350;    0.000
684.412; 2786.875;  261.350;    0.000
684.522; 2808.875;  243.350;    0.000
684.632; 2817.875;  257.350;    0.000
684.742; 2845.875;  271.350;    0.000
684.852; 2860.875;  258.350;    0.000
684.963; 2775.875;  262.350;    0.000
685.073; 2810.875;  219.350;    0.000
685.183; 2929.875;  270.350;    0.000
685.293; 2815.875;  233.350;    0.000
685.403; 2868.875;  274.350;    0.000
685.513; 2828.875;  280.350;    0.000
685.623; 2885.875;  267.350;    0.000
685.733; 2787.875;  274.350;    0.000
685.843; 2818.875;  274.350;    0.000
685.953; 2836.875;  244.350;    0.000
686.063; 2802.875;  261.350;    0.000
686.173; 2829.875;  283.350;    0.000
686.283; 2864.875;  260.350;    0.000
686.393; 2753.875;  256.350;    0.000
686.503; 2736.875;  295.350;    0.000
686.612; 2825.875;  294.350;    0.000
686.722; 2835.875;  263.350;    0.000
686.832; 2828.875;  291.350;    0.000
686.942; 2837.875;  229.350;    0.000
687.052; 2774.875;  241.350;    0.000
687.161; 2831.875;  304.350;    0.000
687.271; 2804.875;  223.350;    0.000
687.381; 2782.875;  273.350;    0.000
687.491; 2715.875;  246.350;    0.000
687.600; 2857.875;  242.350;    0.000
687.710; 2804.875;  225.350;    0.000
687.820; 2766.875;  259.350;    0.000
687.929; 2741.875;  232.350;    0.000
688.039; 2810.875;  248.350;    0.000
688.148; 2723.875;  250.350;    0.000
688.258; 2754.875;  240.350;    0.000
688.367; 2813.875;  253.350;    0.000
688.477; 2753.875;  229.350;    0.000
688.586; 2851.875;  259.350;    0.000
688.696; 2792.875;  250.350;    0.000
688.805; 2735.875;  279.350;    0.000
688.915; 2849.875;  250.350;    0.000
689.024; 2789.875;  240.350;    0.000
689.134; 2718.875;  269.350;    0.000
689.243; 2684.875;  214.350;    0.000
689.352; 2724.875;  257.350;    0.000
689.462; 2669.875;  248.350;    0.000
689.571; 2695.875;  233.350;    0.000
689.680; 2757.875;  236.350;    0.000
689.790; 2736.875;  238.350;    0.000
689.899; 2780.875;  232.350;    0.000
690.008; 2793.875;  259.350;    0.000
690.117; 2706.875;  254.350;    0.000
690.227; 2765.875;  251.350;    0.000
690.336; 2696.875;  240.350;    0.000
690.445; 2746.875;  235.350;    0.000
690.554; 2729.875;  243.350;    0.000
690.663; 2615.875;  214.350;    0.000
690.772; 2763.875;  247.350;    0.000
690.881; 2710.875;  249.350;    0.000
690.990; 2757.875;  265.350;    0.000
691.099; 2705.875;  217.350;    0.000
691.209; 2802.875;  272.350;    0.000
691.318; 2702.875;  223.350;    0.000
691.427; 2657.875;  212.350;    0.000
691.536; 2649.875;  260.350;    0.000
691.644; 2717.875;  246.350;    0.000
691.753; 2617.875;  251.350;    0.000
691.862; 2687.875;  239.350;    0.000
691.971; 2695.875;  253.350;    0.000
692.080; 2761.875;  255.350;    0.000
692.189; 2717.875;  228.350;    0.000
692.298; 2707.875;  243.350;    0.000
692.406; 2752.875;  269.350;    0.000
692.515; 2718.875;  254.350;    0.000
692.624; 2701.875;  225.350;    0.000
692.733; 2733.875;  245.350;    0.000
692.842; 2756.875;  259.350;    0.000
692.950; 2712.875;  226.350;    0.000
693.059; 2635.875;  216.350;    0.000
693.168; 2733.875;  266.350;    0.000
693.276; 2739.875;  236.350;    0.000
693.385; 2710.875;  257.350;    0.000
693.494; 2738.875;  268.350;    0.000
693.602; 2664.875;  239.350;    0.000
693.711; 2615.875;  224.350;    0.000
693.819; 2648.875;  263.350;    0.000
693.928; 2719.875;  270.350;    0.000
694.036; 2675.875;  247.350;    0.000
694.145; 2776.875;  261.350;    0.000
694.253; 2738.875;  261.350;    0.000
694.362; 2662.875;  253.350;    0.000
694.470; 2704.875;  270.350;    0.000
694.579; 2758.875;  233.350;    0.000
694.687; 2652.875;  260.350;    0.000
694.795; 2693.875;  228.350;    0.000
694.904; 2623.875;  228.350;    0.000
695.012; 2802.875;  288.350;    0.000
695.120; 2629.875;  230.350;    0.000
695.229; 2674.875;  287.350;    0.000
695.337; 2721.875;  249.350;    0.000
695.445; 2734.875;  283.350;    0.000
695.553; 2793.875;  251.350;    0.000
695.662; 2711.875;  236.350;    0.000
695.770; 2661.875;  267.350;    0.000
695.878; 2727.875;  268.350;    0.000
695.986; 2683.875;  297.350;    0.000
696.094; 2673.875;  275.350;    0.000
696.202; 2542.875;  201.350;    0.000
696.310; 2739.875;  283.350;    0.000
696.419; 2696.875;  261.350;    0.000
696.527; 2660.875;  252.350;    0.000
696.635; 2645.875;  249.350;    0.000
696.743; 2649.875;  236.350;    0.000
696.851; 2756.875;  241.350;    0.000
696.959; 2728.875;  278.350;    0.000
697.067; 2590.875;  239.350;    0.000
697.174; 2617.875;  260.350;    0.000
697.282; 2673.875;  259.350;    0.000
697.390; 2750.875;  302.350;    0.000
697.498; 2612.875;  216.350;    0.000
697.606; 2661.875;  245.350;    0.000
697.714; 2719.875;  279.350;    0.000
697.822; 2639.875;  267.350;    0.000
697.929; 2659.875;  234.350;    0.000
698.037; 2690.875;  255.350;    0.000
698.145; 2707.875;  226.350;    0.000
698.253; 2714.875;  261.350;    0.000
698.360; 2676.875;  299.350;    0.000
698.468; 2668.875;  254.350;    0.000
698.576; 2681.875;  307.350;    0.000
698.683; 2636.875;  280.350;    0.000
698.791; 2645.875;  284.350;    0.000
698.899; 2662.875;  279.350;    0.000
699.006; 2662.875;  264.350;    0.000
699.114; 2717.875;  263.350;    0.000
699.221; 2728.875;  291.350;    0.000
699.329; 2665.875;  309.350;    0.000
699.436; 2679.875;  261.350;    0.000
699.544; 2697.875;  259.350;    0.000
699.651; 2713.875;  251.350;    0.000
699.759; 2612.875;  251.350;    0.000
699.866; 2653.875;  266.350;    0.000
699.974; 2600.875;  264.350;    0.000
700.081; 2657.875;  295.350;    0.000
700.188; 2595.875;  293.350;    0.000
700.296; 2718.875;  233.350;    0.000
700.403; 2697.875;  290.350;    0.000
700.510; 2648.875;  275.350;    0.000
700.618; 2773.875;  273.350;    0.000
700.725; 2726.875;  262.350;    0.000
700.832; 2567.875;  250.350;    0.000
700.940; 2703.875;  300.350;    0.000
701.047; 2696.875;  245.350;    0.000
701.154; 2617.875;  280.350;    0.000
701.261; 2579.875;  270.350;    0.000
701.368; 2622.875;  286.350;    0.000
701.475; 2668.875;  301.350;    0.000
701.582; 2554.875;  286.350;    0.000
701.690; 2543.875;  279.350;    0.000
701.797; 2646.875;  292.350;    0.000
701.904; 2729.875;  314.350;    0.000
702.011; 2656.875;  340.350;    0.000
702.118; 2555.875;  276.350;    0.000
702.225; 2680.875;  351.350;    0.000
702.332; 2645.875;  301.350;    0.000
702.439; 2653.875;  334.350;    0.000
702.546; 2614.875;  325.350;    0.000
702.652; 2586.875;  343.350;    0.000
702.759; 2684.875;  339.350;    0.000
702.866; 2675.875;  344.350;    0.000
702.973; 2659.875;  330.350;    0.000
703.080; 2767.875;  322.350;    0.000
703.187; 2651.875;  327.350;    0.000
703.294; 2766.875;  339.350;    0.000
703.400; 2454.875;  325.350;    0.000
703.507;  570.875;  372.350;    0.000
703.614;  308.875;  348.350;    0.000
703.720;  294.875;  333.350;    0.000
703.827;  329.875;  331.350;    0.000
703.934;  345.875;  330.350;    0.000
704.040;  313.875;  327.350;    0.000
704.147;  318.875;  327.350;    0.000
704.254;  343.875;  354.350;    0.000
704.360;  311.875;  337.350;    0.000
704.467;  333.875;  370.350;    0.000
704.573;  305.875;  367.350;    0.000
704.680;  321.875;  339.350;    0.000
704.786;  338.875;  356.350;    0.000
704.893;  338.875;  352.350;    0.000
704.999;  335.875;  332.350;    0.000
705.106;  301.875;  359.350;    0.000

