
Integration time [ms]:   0.300
Averaging Nr. [scans]: 1
Smoothing Nr. [pixels]: 0
Data measured with spectrometer [name]: UV2
Wave   ;Sample   ;Dark     ;Reference
[nm]   ;[counts] ;[counts] ;[counts] 

353.533;  222.450;  235.675;    0.000
353.597;  218.450;  239.675;    0.000
353.660;  188.450;  203.675;    0.000
353.723;  168.450;  225.675;    0.000
353.786;  215.450;  178.675;    0.000
353.850;  208.450;  199.675;    0.000
353.913;  192.450;  179.675;    0.000
353.976;  209.450;  209.675;    0.000
354.039;  189.450;  188.675;    0.000
354.102;  222.450;  219.675;    0.000
354.166;  225.450;  237.675;    0.000
354.229;  207.450;  179.675;    0.000
354.292;  187.450;  210.675;    0.000
354.355;  187.450;  214.675;    0.000
354.418;  174.450;  173.675;    0.000
354.481;  191.450;  170.675;    0.000
354.545;  872.450;  229.675;    0.000
354.608;  868.450;  233.675;    0.000
354.671;  904.450;  183.675;    0.000
354.734;  952.450;  208.675;    0.000
354.797;  940.450;  263.675;    0.000
354.860;  979.450;  208.675;    0.000
354.923;  969.450;  202.675;    0.000
354.986; 1013.450;  207.675;    0.000
355.050; 1037.450;  180.675;    0.000
355.113; 1051.450;  189.675;    0.000
355.176; 1084.450;  214.675;    0.000
355.239; 1101.450;  199.675;    0.000
355.302; 1057.450;  229.675;    0.000
355.365; 1119.450;  220.675;    0.000
355.428; 1132.450;  196.675;    0.000
355.491; 1203.450;  243.675;    0.000
355.554; 1149.450;  191.675;    0.000
355.617; 1191.450;  200.675;    0.000
355.680; 1156.450;  190.675;    0.000
355.743; 1175.450;  236.675;    0.000
355.806; 1168.450;  193.675;    0.000
355.869; 1241.450;  223.675;    0.000
355.932; 1254.450;  208.675;    0.000
355.995; 1207.450;  231.675;    0.000
356.058; 1294.450;  202.675;    0.000
356.121; 1289.450;  198.675;    0.000
356.184; 1301.450;  209.675;    0.000
356.247; 1258.450;  224.675;    0.000
356.310; 1228.450;  149.675;    0.000
356.373; 1204.450;  211.675;    0.000
356.436; 1231.450;  195.675;    0.000
356.498; 1247.450;  176.675;    0.000
356.561; 1336.450;  186.675;    0.000
356.624; 1297.450;  184.675;    0.000
356.687; 1311.450;  179.675;    0.000
356.750; 1294.450;  213.675;    0.000
356.813; 1284.450;  172.675;    0.000
356.876; 1359.450;  189.675;    0.000
356.939; 1319.450;  204.675;    0.000
357.001; 1398.450;  195.675;    0.000
357.064; 1338.450;  202.675;    0.000
357.127; 1287.450;  176.675;    0.000
357.190; 1338.450;  186.675;    0.000
357.253; 1384.450;  178.675;    0.000
357.316; 1372.450;  187.675;    0.000
357.378; 1386.450;  181.675;    0.000
357.441; 1330.450;  142.675;    0.000
357.504; 1362.450;  161.675;    0.000
357.567; 1315.450;  113.675;    0.000
357.629; 1349.450;  193.675;    0.000
357.692; 1316.450;  144.675;    0.000
357.755; 1416.450;  177.675;    0.000
357.818; 1372.450;  144.675;    0.000
357.880; 1450.450;  182.675;    0.000
357.943; 1349.450;  166.675;    0.000
358.006; 1367.450;  184.675;    0.000
358.069; 1421.450;  200.675;    0.000
358.131; 1379.450;  148.675;    0.000
358.194; 1396.450;  155.675;    0.000
358.257; 1405.450;  173.675;    0.000
358.319; 1452.450;  178.675;    0.000
358.382; 1487.450;  184.675;    0.000
358.445; 1412.450;  156.675;    0.000
358.507; 1425.450;  199.675;    0.000
358.570; 1421.450;  182.675;    0.000
358.633; 1403.450;  167.675;    0.000
358.695; 1482.450;  124.675;    0.000
358.758; 1457.450;  164.675;    0.000
358.821; 1443.450;  147.675;    0.000
358.883; 1443.450;  153.675;    0.000
358.946; 1432.450;  171.675;    0.000
359.008; 1582.450;  196.675;    0.000
359.071; 1463.450;  178.675;    0.000
359.134; 1454.450;  123.675;    0.000
359.196; 1504.450;  166.675;    0.000
359.259; 1499.450;  173.675;    0.000
359.321; 1484.450;  164.675;    0.000
359.384; 1430.450;  155.675;    0.000
359.446; 1438.450;  157.675;    0.000
359.509; 1471.450;  153.675;    0.000
359.571; 1510.450;  184.675;    0.000
359.634; 1565.450;  138.675;    0.000
359.696; 1542.450;  169.675;    0.000
359.759; 1542.450;  152.675;    0.000
359.821; 1532.450;  150.675;    0.000
359.884; 1512.450;  166.675;    0.000
359.946; 1571.450;  165.675;    0.000
360.009; 1482.450;  176.675;    0.000
360.071; 1542.450;  148.675;    0.000
360.134; 1581.450;  193.675;    0.000
360.196; 1509.450;  151.675;    0.000
360.259; 1548.450;  182.675;    0.000
360.321; 1528.450;  168.675;    0.000
360.384; 1616.450;  176.675;    0.000
360.446; 1573.450;  156.675;    0.000
360.508; 1519.450;  183.675;    0.000
360.571; 1555.450;  193.675;    0.000
360.633; 1585.450;  184.675;    0.000
360.696; 1543.450;  136.675;    0.000
360.758; 1631.450;  186.675;    0.000
360.820; 1604.450;  127.675;    0.000
360.883; 1654.450;  146.675;    0.000
360.945; 1565.450;  144.675;    0.000
361.007; 1618.450;  160.675;    0.000
361.070; 1616.450;  175.675;    0.000
361.132; 1557.450;  195.675;    0.000
361.194; 1604.450;  167.675;    0.000
361.257; 1595.450;  140.675;    0.000
361.319; 1584.450;  154.675;    0.000
361.381; 1623.450;  181.675;    0.000
361.443; 1679.450;  137.675;    0.000
361.506; 1603.450;  159.675;    0.000
361.568; 1606.450;  144.675;    0.000
361.630; 1591.450;  189.675;    0.000
361.693; 1596.450;  162.675;    0.000
361.755; 1684.450;  156.675;    0.000
361.817; 1668.450;  225.675;    0.000
361.879; 1718.450;  172.675;    0.000
361.941; 1678.450;  138.675;    0.000
362.004; 1705.450;  163.675;    0.000
362.066; 1681.450;  164.675;    0.000
362.128; 1617.450;  160.675;    0.000
362.190; 1696.450;  168.675;    0.000
362.252; 1768.450;  177.675;    0.000
362.315; 1603.450;  169.675;    0.000
362.377; 1623.450;  188.675;    0.000
362.439; 1727.450;  158.675;    0.000
362.501; 1637.450;  168.675;    0.000
362.563; 1739.450;  168.675;    0.000
362.625; 1650.450;  188.675;    0.000
362.688; 1804.450;  162.675;    0.000
362.750; 1742.450;  209.675;    0.000
362.812; 1669.450;  154.675;    0.000
362.874; 1622.450;  190.675;    0.000
362.936; 1648.450;  190.675;    0.000
362.998; 1681.450;  143.675;    0.000
363.060; 1714.450;  186.675;    0.000
363.122; 1779.450;  167.675;    0.000
363.184; 1662.450;  163.675;    0.000
363.246; 1699.450;  169.675;    0.000
363.308; 1623.450;  165.675;    0.000
363.370; 1768.450;  177.675;    0.000
363.432; 1662.450;  139.675;    0.000
363.494; 1690.450;  177.675;    0.000
363.556; 1700.450;  164.675;    0.000
363.618; 1692.450;  170.675;    0.000
363.680; 1731.450;  146.675;    0.000
363.742; 1706.450;  179.675;    0.000
363.804; 1746.450;  188.675;    0.000
363.866; 1735.450;  186.675;    0.000
363.928; 1733.450;  147.675;    0.000
363.990; 1752.450;  185.675;    0.000
364.052; 1736.450;  197.675;    0.000
364.114; 1696.450;  150.675;    0.000
364.176; 1766.450;  217.675;    0.000
364.238; 1779.450;  159.675;    0.000
364.300; 1743.450;  192.675;    0.000
364.362; 1777.450;  130.675;    0.000
364.424; 1717.450;  131.675;    0.000
364.486; 1802.450;  178.675;    0.000
364.548; 1726.450;  203.675;    0.000
364.609; 1760.450;  192.675;    0.000
364.671; 1745.450;  169.675;    0.000
364.733; 1763.450;  169.675;    0.000
364.795; 1796.450;  157.675;    0.000
364.857; 1772.450;  171.675;    0.000
364.919; 1745.450;  134.675;    0.000
364.981; 1763.450;  162.675;    0.000
365.042; 1732.450;  136.675;    0.000
365.104; 1759.450;  152.675;    0.000
365.166; 1759.450;  149.675;    0.000
365.228; 1773.450;  195.675;    0.000
365.290; 1702.450;  147.675;    0.000
365.351; 1863.450;  138.675;    0.000
365.413; 1770.450;  168.675;    0.000
365.475; 1820.450;  150.675;    0.000
365.537; 1807.450;  179.675;    0.000
365.598; 1822.450;  177.675;    0.000
365.660; 1730.450;  149.675;    0.000
365.722; 1802.450;  160.675;    0.000
365.784; 1791.450;  175.675;    0.000
365.845; 1812.450;  149.675;    0.000
365.907; 1742.450;  154.675;    0.000
365.969; 1776.450;  128.675;    0.000
366.030; 1810.450;  176.675;    0.000
366.092; 1860.450;  181.675;    0.000
366.154; 1741.450;  194.675;    0.000
366.215; 1860.450;  149.675;    0.000
366.277; 1835.450;  144.675;    0.000
366.339; 1886.450;  160.675;    0.000
366.400; 1773.450;  144.675;    0.000
366.462; 1823.450;  145.675;    0.000
366.524; 1865.450;  148.675;    0.000
366.585; 1788.450;  128.675;    0.000
366.647; 1848.450;  156.675;    0.000
366.708; 1825.450;  128.675;    0.000
366.770; 1862.450;  188.675;    0.000
366.832; 1919.450;  170.675;    0.000
366.893; 1769.450;  158.675;    0.000
366.955; 1809.450;  150.675;    0.000
367.016; 1855.450;  160.675;    0.000
367.078; 1844.450;  144.675;    0.000
367.139; 1848.450;  109.675;    0.000
367.201; 1875.450;  155.675;    0.000
367.262; 1893.450;  165.675;    0.000
367.324; 1846.450;  180.675;    0.000
367.385; 1863.450;  150.675;    0.000
367.447; 1899.450;  164.675;    0.000
367.508; 1800.450;  137.675;    0.000
367.570; 1815.450;  174.675;    0.000
367.631; 1830.450;  126.675;    0.000
367.693; 1838.450;  153.675;    0.000
367.754; 1868.450;  194.675;    0.000
367.816; 1925.450;  154.675;    0.000
367.877; 1874.450;  183.675;    0.000
367.939; 1912.450;  179.675;    0.000
368.000; 1862.450;  142.675;    0.000
368.062; 1841.450;  147.675;    0.000
368.123; 1867.450;  155.675;    0.000
368.184; 1902.450;  169.675;    0.000
368.246; 1857.450;  145.675;    0.000
368.307; 1966.450;  165.675;    0.000
368.369; 1933.450;  177.675;    0.000
368.430; 1852.450;  161.675;    0.000
368.491; 1928.450;  156.675;    0.000
368.553; 1809.450;  156.675;    0.000
368.614; 1904.450;  186.675;    0.000
368.675; 1955.450;  154.675;    0.000
368.737; 1861.450;  162.675;    0.000
368.798; 1991.450;  202.675;    0.000
368.859; 1947.450;  162.675;    0.000
368.921; 1933.450;  171.675;    0.000
368.982; 1984.450;  193.675;    0.000
369.043; 1915.450;  207.675;    0.000
369.104; 1874.450;  143.675;    0.000
369.166; 1946.450;  203.675;    0.000
369.227; 1985.450;  125.675;    0.000
369.288; 1897.450;  154.675;    0.000
369.349; 1946.450;  187.675;    0.000
369.411; 1854.450;  191.675;    0.000
369.472; 1894.450;  175.675;    0.000
369.533; 1925.450;  180.675;    0.000
369.594; 1933.450;  161.675;    0.000
369.656; 1948.450;  169.675;    0.000
369.717; 1958.450;  103.675;    0.000
369.778; 1984.450;  159.675;    0.000
369.839; 1915.450;  146.675;    0.000
369.900; 1977.450;  218.675;    0.000
369.961; 2049.450;  200.675;    0.000
370.023; 1942.450;  177.675;    0.000
370.084; 1941.450;  149.675;    0.000
370.145; 1978.450;  179.675;    0.000
370.206; 2029.450;  179.675;    0.000
370.267; 1869.450;  166.675;    0.000
370.328; 1978.450;  164.675;    0.000
370.389; 2029.450;  162.675;    0.000
370.451; 1918.450;  179.675;    0.000
370.512; 2035.450;  181.675;    0.000
370.573; 2075.450;  173.675;    0.000
370.634; 1962.450;  162.675;    0.000
370.695; 1913.450;  167.675;    0.000
370.756; 1978.450;  177.675;    0.000
370.817; 1962.450;  178.675;    0.000
370.878; 1970.450;  152.675;    0.000
370.939; 1950.450;  185.675;    0.000
371.000; 1931.450;  173.675;    0.000
371.061; 1974.450;  176.675;    0.000
371.122; 2004.450;  169.675;    0.000
371.183; 1938.450;  116.675;    0.000
371.244; 2038.450;  174.675;    0.000
371.305; 2000.450;  152.675;    0.000
371.366; 2036.450;  168.675;    0.000
371.427; 2001.450;  188.675;    0.000
371.488; 2066.450;  180.675;    0.000
371.549; 1950.450;  145.675;    0.000
371.610; 2001.450;  160.675;    0.000
371.671; 2045.450;  164.675;    0.000
371.732; 2045.450;  158.675;    0.000
371.793; 2050.450;  162.675;    0.000
371.853; 2004.450;  130.675;    0.000
371.914; 2035.450;  172.675;    0.000
371.975; 2045.450;   98.675;    0.000
372.036; 1935.450;  161.675;    0.000
372.097; 1956.450;  143.675;    0.000
372.158; 2025.450;  175.675;    0.000
372.219; 2074.450;  196.675;    0.000
372.280; 1985.450;  175.675;    0.000
372.340; 2044.450;  160.675;    0.000
372.401; 2069.450;  163.675;    0.000
372.462; 1955.450;  147.675;    0.000
372.523; 2024.450;  146.675;    0.000
372.584; 2069.450;  173.675;    0.000
372.645; 2069.450;  126.675;    0.000
372.705; 2119.450;  179.675;    0.000
372.766; 2042.450;  173.675;    0.000
372.827; 2063.450;  171.675;    0.000
372.888; 2063.450;  134.675;    0.000
372.948; 2065.450;  167.675;    0.000
373.009; 2058.450;  167.675;    0.000
373.070; 1958.450;  152.675;    0.000
373.131; 2134.450;  177.675;    0.000
373.191; 2076.450;  225.675;    0.000
373.252; 2059.450;  165.675;    0.000
373.313; 2130.450;  171.675;    0.000
373.373; 2130.450;  160.675;    0.000
373.434; 2006.450;  172.675;    0.000
373.495; 2093.450;  150.675;    0.000
373.555; 2092.450;  130.675;    0.000
373.616; 2096.450;  155.675;    0.000
373.677; 2044.450;  212.675;    0.000
373.737; 2126.450;  188.675;    0.000
373.798; 2063.450;  203.675;    0.000
373.859; 2121.450;  169.675;    0.000
373.919; 2129.450;  197.675;    0.000
373.980; 2135.450;  134.675;    0.000
374.041; 2190.450;  186.675;    0.000
374.101; 2134.450;  207.675;    0.000
374.162; 2167.450;  190.675;    0.000
374.222; 2105.450;  182.675;    0.000
374.283; 2150.450;  213.675;    0.000
374.343; 2164.450;  191.675;    0.000
374.404; 2104.450;  181.675;    0.000
374.465; 2206.450;  193.675;    0.000
374.525; 2147.450;  153.675;    0.000
374.586; 2216.450;  190.675;    0.000
374.646; 2217.450;  173.675;    0.000
374.707; 2239.450;  210.675;    0.000
374.767; 2172.450;  218.675;    0.000
374.828; 2170.450;  174.675;    0.000
374.888; 2243.450;  197.675;    0.000
374.949; 2195.450;  196.675;    0.000
375.009; 2240.450;  169.675;    0.000
375.070; 2239.450;  157.675;    0.000
375.130; 2170.450;  203.675;    0.000
375.190; 2248.450;  174.675;    0.000
375.251; 2266.450;  230.675;    0.000
375.311; 2237.450;  198.675;    0.000
375.372; 2250.450;  160.675;    0.000
375.432; 2314.450;  169.675;    0.000
375.493; 2293.450;  159.675;    0.000
375.553; 2230.450;  179.675;    0.000
375.613; 2289.450;  157.675;    0.000
375.674; 2282.450;  174.675;    0.000
375.734; 2236.450;  180.675;    0.000
375.794; 2245.450;  175.675;    0.000
375.855; 2310.450;  193.675;    0.000
375.915; 2265.450;  148.675;    0.000
375.975; 2262.450;  183.675;    0.000
376.036; 2229.450;  144.675;    0.000
376.096; 2209.450;  195.675;    0.000
376.156; 2246.450;  200.675;    0.000
376.217; 2293.450;  160.675;    0.000
376.277; 2294.450;  193.675;    0.000
376.337; 2303.450;  168.675;    0.000
376.398; 2333.450;  183.675;    0.000
376.458; 2296.450;  168.675;    0.000
376.518; 2349.450;  184.675;    0.000
376.578; 2356.450;  176.675;    0.000
376.639; 2298.450;  158.675;    0.000
376.699; 2331.450;  157.675;    0.000
376.759; 2353.450;  184.675;    0.000
376.819; 2373.450;  166.675;    0.000
376.880; 2361.450;  220.675;    0.000
376.940; 2370.450;  195.675;    0.000
377.000; 2382.450;  178.675;    0.000
377.060; 2379.450;  212.675;    0.000
377.120; 2429.450;  161.675;    0.000
377.180; 2429.450;  168.675;    0.000
377.241; 2392.450;  167.675;    0.000
377.301; 2478.450;  171.675;    0.000
377.361; 2426.450;  174.675;    0.000
377.421; 2489.450;  216.675;    0.000
377.481; 2369.450;  164.675;    0.000
377.541; 2445.450;  163.675;    0.000
377.601; 2422.450;  197.675;    0.000
377.661; 2504.450;  175.675;    0.000
377.722; 2445.450;  196.675;    0.000
377.782; 2527.450;  162.675;    0.000
377.842; 2531.450;  179.675;    0.000
377.902; 2492.450;  140.675;    0.000
377.962; 2495.450;  121.675;    0.000
378.022; 2447.450;  174.675;    0.000
378.082; 2512.450;  167.675;    0.000
378.142; 2550.450;  151.675;    0.000
378.202; 2623.450;  174.675;    0.000
378.262; 2550.450;  168.675;    0.000
378.322; 2614.450;  183.675;    0.000
378.382; 2575.450;  159.675;    0.000
378.442; 2594.450;  177.675;    0.000
378.502; 2662.450;  137.675;    0.000
378.562; 2582.450;  140.675;    0.000
378.622; 2678.450;  197.675;    0.000
378.682; 2642.450;  205.675;    0.000
378.742; 2764.450;  160.675;    0.000
378.802; 2610.450;  132.675;    0.000
378.862; 2830.450;  222.675;    0.000
378.921; 2754.450;  178.675;    0.000
378.981; 2760.450;  160.675;    0.000
379.041; 2753.450;  136.675;    0.000
379.101; 2840.450;  184.675;    0.000
379.161; 2770.450;  147.675;    0.000
379.221; 2840.450;  139.675;    0.000
379.281; 2897.450;  204.675;    0.000
379.341; 2813.450;  142.675;    0.000
379.401; 2853.450;  136.675;    0.000
379.460; 2992.450;  161.675;    0.000
379.520; 2877.450;  171.675;    0.000
379.580; 2955.450;  168.675;    0.000
379.640; 2965.450;  183.675;    0.000
379.700; 2997.450;  182.675;    0.000
379.759; 2961.450;  190.675;    0.000
379.819; 2997.450;  149.675;    0.000
379.879; 2960.450;  140.675;    0.000
379.939; 3037.450;  155.675;    0.000
379.999; 2965.450;  199.675;    0.000
380.058; 3019.450;  163.675;    0.000
380.118; 2965.450;  190.675;    0.000
380.178; 3045.450;  220.675;    0.000
380.237; 3067.450;  181.675;    0.000
380.297; 2995.450;  187.675;    0.000
380.357; 3106.450;  193.675;    0.000
380.417; 3131.450;  157.675;    0.000
380.476; 3095.450;  176.675;    0.000
380.536; 3120.450;  180.675;    0.000
380.596; 3176.450;  191.675;    0.000
380.655; 3182.450;  190.675;    0.000
380.715; 3132.450;  180.675;    0.000
380.775; 3188.450;  202.675;    0.000
380.834; 3157.450;  190.675;    0.000
380.894; 3155.450;  163.675;    0.000
380.954; 3224.450;  181.675;    0.000
381.013; 3317.450;  218.675;    0.000
381.073; 3255.450;  181.675;    0.000
381.132; 3301.450;  193.675;    0.000
381.192; 3168.450;  209.675;    0.000
381.252; 3321.450;  206.675;    0.000
381.311; 3433.450;  173.675;    0.000
381.371; 3326.450;  188.675;    0.000
381.430; 3461.450;  162.675;    0.000
381.490; 3453.450;  168.675;    0.000
381.549; 3481.450;  213.675;    0.000
381.609; 3507.450;  194.675;    0.000
381.668; 3490.450;  190.675;    0.000
381.728; 3553.450;  183.675;    0.000
381.787; 3581.450;  172.675;    0.000
381.847; 3659.450;  198.675;    0.000
381.906; 3622.450;  197.675;    0.000
381.966; 3668.450;  201.675;    0.000
382.025; 3801.450;  219.675;    0.000
382.085; 3753.450;  194.675;    0.000
382.144; 3798.450;  187.675;    0.000
382.204; 3970.450;  196.675;    0.000
382.263; 3909.450;  168.675;    0.000
382.323; 4117.450;  135.675;    0.000
382.382; 4089.450;  173.675;    0.000
382.441; 4288.450;  155.675;    0.000
382.501; 4556.450;  168.675;    0.000
382.560; 4579.450;  200.675;    0.000
382.619; 4853.450;  155.675;    0.000
382.679; 5023.450;  198.675;    0.000
382.738; 5369.450;  211.675;    0.000
382.798; 5809.450;  214.675;    0.000
382.857; 6366.450;  146.675;    0.000
382.916; 6991.450;  183.675;    0.000
382.976; 7078.450;  173.675;    0.000
383.035; 6897.450;  165.675;    0.000
383.094; 7067.450;  173.675;    0.000
383.154; 7788.450;  143.675;    0.000
383.213; 8798.450;  173.675;    0.000
383.272; 8480.450;  166.675;    0.000
383.331; 7227.450;  154.675;    0.000
383.391; 6698.450;  232.675;    0.000
383.450; 6415.450;  185.675;    0.000
383.509; 6406.450;  204.675;    0.000
383.568; 6661.450;  197.675;    0.000
383.628; 6922.450;  171.675;    0.000
383.687; 7754.450;  202.675;    0.000
383.746; 8576.450;  116.675;    0.000
383.805; 9560.450;  156.675;    0.000
383.864; 9075.450;  150.675;    0.000
383.924; 7764.450;  195.675;    0.000
383.983; 6574.450;  157.675;    0.000
384.042; 5839.450;  184.675;    0.000
384.101; 5385.450;  210.675;    0.000
384.160; 5040.450;  123.675;    0.000
384.219; 4767.450;  191.675;    0.000
384.279; 4566.450;  184.675;    0.000
384.338; 4482.450;  172.675;    0.000
384.397; 4301.450;  153.675;    0.000
384.456; 4327.450;  181.675;    0.000
384.515; 4122.450;  171.675;    0.000
384.574; 4138.450;  172.675;    0.000
384.633; 3946.450;  174.675;    0.000
384.692; 4053.450;  178.675;    0.000
384.751; 3894.450;  180.675;    0.000
384.810; 3920.450;  161.675;    0.000
384.869; 3794.450;  162.675;    0.000
384.929; 3900.450;  157.675;    0.000
384.988; 3905.450;  153.675;    0.000
385.047; 3724.450;  178.675;    0.000
385.106; 3791.450;  164.675;    0.000
385.165; 3780.450;  127.675;    0.000
385.224; 3769.450;  156.675;    0.000
385.283; 3711.450;  178.675;    0.000
385.342; 3885.450;  177.675;    0.000
385.401; 3756.450;  178.675;    0.000
385.459; 3759.450;  177.675;    0.000
385.518; 3757.450;  152.675;    0.000
385.577; 3738.450;  133.675;    0.000
385.636; 3715.450;  204.675;    0.000
385.695; 3759.450;  161.675;    0.000
385.754; 3692.450;  190.675;    0.000
385.813; 3713.450;  160.675;    0.000
385.872; 3634.450;  138.675;    0.000
385.931; 3712.450;  192.675;    0.000
385.990; 3610.450;  158.675;    0.000
386.049; 3601.450;  187.675;    0.000
386.107; 3627.450;  140.675;    0.000
386.166; 3550.450;  139.675;    0.000
386.225; 3667.450;  182.675;    0.000
386.284; 3604.450;  123.675;    0.000
386.343; 3619.450;  207.675;    0.000
386.402; 3506.450;  150.675;    0.000
386.460; 3540.450;  185.675;    0.000
386.519; 3612.450;  145.675;    0.000
386.578; 3501.450;  153.675;    0.000
386.637; 3616.450;  153.675;    0.000
386.696; 3492.450;  189.675;    0.000
386.754; 3549.450;  128.675;    0.000
386.813; 3365.450;  202.675;    0.000
386.872; 3515.450;  152.675;    0.000
386.931; 3545.450;  166.675;    0.000
386.989; 3507.450;  194.675;    0.000
387.048; 3383.450;  176.675;    0.000
387.107; 3459.450;  203.675;    0.000
387.165; 3472.450;  136.675;    0.000
387.224; 3433.450;  193.675;    0.000
387.283; 3490.450;  157.675;    0.000
387.342; 3422.450;  194.675;    0.000
387.400; 3434.450;  191.675;    0.000
387.459; 3301.450;  142.675;    0.000
387.517; 3483.450;  202.675;    0.000
387.576; 3306.450;  164.675;    0.000
387.635; 3396.450;  147.675;    0.000
387.693; 3428.450;  199.675;    0.000
387.752; 3381.450;  181.675;    0.000
387.811; 3402.450;  161.675;    0.000
387.869; 3382.450;  184.675;    0.000
387.928; 3329.450;  175.675;    0.000
387.986; 3241.450;  143.675;    0.000
388.045; 3277.450;  146.675;    0.000
388.103; 3316.450;  164.675;    0.000
388.162; 3358.450;  170.675;    0.000
388.221; 3233.450;  169.675;    0.000
388.279; 3219.450;  151.675;    0.000
388.338; 3241.450;  175.675;    0.000
388.396; 3295.450;  170.675;    0.000
388.455; 3294.450;  193.675;    0.000
388.513; 3159.450;  134.675;    0.000
388.572; 3180.450;  201.675;    0.000
388.630; 3179.450;  181.675;    0.000
388.689; 3222.450;  165.675;    0.000
388.747; 3214.450;  164.675;    0.000
388.806; 3064.450;  155.675;    0.000
388.864; 3181.450;  172.675;    0.000
388.922; 3184.450;  190.675;    0.000
388.981; 3150.450;  170.675;    0.000
389.039; 3198.450;  142.675;    0.000
389.098; 3183.450;  177.675;    0.000
389.156; 3219.450;  184.675;    0.000
389.214; 3225.450;  197.675;    0.000
389.273; 3230.450;  141.675;    0.000
389.331; 3250.450;  145.675;    0.000
389.390; 3204.450;  160.675;    0.000
389.448; 3158.450;  142.675;    0.000
389.506; 3173.450;  192.675;    0.000
389.565; 3226.450;  176.675;    0.000
389.623; 3162.450;  174.675;    0.000
389.681; 3191.450;  184.675;    0.000
389.740; 3200.450;  193.675;    0.000
389.798; 3207.450;  130.675;    0.000
389.856; 3250.450;  224.675;    0.000
389.914; 3140.450;  223.675;    0.000
389.973; 2976.450;  164.675;    0.000
390.031; 3131.450;  198.675;    0.000
390.089; 3078.450;  177.675;    0.000
390.147; 3142.450;  158.675;    0.000
390.206; 3039.450;  213.675;    0.000
390.264; 3059.450;  178.675;    0.000
390.322; 3058.450;  181.675;    0.000
390.380; 2986.450;  148.675;    0.000
390.439; 3024.450;  185.675;    0.000
390.497; 3142.450;  208.675;    0.000
390.555; 3080.450;  175.675;    0.000
390.613; 2956.450;  178.675;    0.000
390.671; 3016.450;  190.675;    0.000
390.729; 3081.450;  172.675;    0.000
390.788; 3030.450;  194.675;    0.000
390.846; 2995.450;  187.675;    0.000
390.904; 3157.450;  207.675;    0.000
390.962; 3055.450;  211.675;    0.000
391.020; 3171.450;  218.675;    0.000
391.078; 2956.450;  179.675;    0.000
391.136; 3028.450;  223.675;    0.000
391.194; 3085.450;  209.675;    0.000
391.253; 3074.450;  217.675;    0.000
391.311; 3008.450;  217.675;    0.000
391.369; 3047.450;  217.675;    0.000
391.427; 3007.450;  253.675;    0.000
391.485; 3049.450;  176.675;    0.000
391.543; 3080.450;  252.675;    0.000
391.601; 3025.450;  168.675;    0.000
391.659; 3092.450;  206.675;    0.000
391.717; 3090.450;  172.675;    0.000
391.775; 2977.450;  170.675;    0.000
391.833; 3087.450;  196.675;    0.000
391.891; 3045.450;  180.675;    0.000
391.949; 3043.450;  201.675;    0.000
392.007; 3048.450;  196.675;    0.000
392.065; 3039.450;  191.675;    0.000
392.123; 3078.450;  158.675;    0.000
392.180; 3013.450;  192.675;    0.000
392.238; 3160.450;  186.675;    0.000
392.296; 2993.450;  150.675;    0.000
392.354; 3060.450;  175.675;    0.000
392.412; 2986.450;  219.675;    0.000
392.470; 3011.450;  200.675;    0.000
392.528; 3147.450;  177.675;    0.000
392.586; 2985.450;  169.675;    0.000
392.644; 3079.450;  155.675;    0.000
392.701; 3008.450;  215.675;    0.000
392.759; 3064.450;  218.675;    0.000
392.817; 2994.450;  178.675;    0.000
392.875; 3079.450;  190.675;    0.000
392.933; 3176.450;  197.675;    0.000
392.991; 3079.450;  179.675;    0.000
393.048; 3137.450;  205.675;    0.000
393.106; 3162.450;  229.675;    0.000
393.164; 3102.450;  167.675;    0.000
393.222; 3103.450;  156.675;    0.000
393.279; 3158.450;  203.675;    0.000
393.337; 3231.450;  216.675;    0.000
393.395; 3048.450;  180.675;    0.000
393.453; 3196.450;  163.675;    0.000
393.510; 3098.450;  194.675;    0.000
393.568; 3094.450;  207.675;    0.000
393.626; 3068.450;  200.675;    0.000
393.684; 3071.450;  234.675;    0.000
393.741; 3011.450;  197.675;    0.000
393.799; 3082.450;  201.675;    0.000
393.857; 2950.450;  185.675;    0.000
393.914; 3101.450;  200.675;    0.000
393.972; 2970.450;  181.675;    0.000
394.030; 3124.450;  188.675;    0.000
394.087; 3124.450;  202.675;    0.000
394.145; 3146.450;  214.675;    0.000
394.202; 3153.450;  204.675;    0.000
394.260; 3028.450;  178.675;    0.000
394.318; 3159.450;  208.675;    0.000
394.375; 3099.450;  183.675;    0.000
394.433; 3216.450;  175.675;    0.000
394.490; 3239.450;  170.675;    0.000
394.548; 3213.450;  161.675;    0.000
394.605; 3204.450;  196.675;    0.000
394.663; 3134.450;  191.675;    0.000
394.720; 3079.450;  179.675;    0.000
394.778; 3176.450;  193.675;    0.000
394.836; 3159.450;  160.675;    0.000
394.893; 3157.450;  152.675;    0.000
394.951; 3072.450;  179.675;    0.000
395.008; 3232.450;  185.675;    0.000
395.065; 3183.450;  154.675;    0.000
395.123; 3256.450;  176.675;    0.000
395.180; 3171.450;  202.675;    0.000
395.238; 3253.450;  135.675;    0.000
395.295; 3251.450;  178.675;    0.000
395.353; 3144.450;  181.675;    0.000
395.410; 3213.450;  160.675;    0.000
395.468; 3204.450;  179.675;    0.000
395.525; 3261.450;  187.675;    0.000
395.582; 3232.450;  221.675;    0.000
395.640; 3267.450;  220.675;    0.000
395.697; 3165.450;  174.675;    0.000
395.754; 3237.450;  177.675;    0.000
395.812; 3271.450;  193.675;    0.000
395.869; 3297.450;  220.675;    0.000
395.927; 3228.450;  206.675;    0.000
395.984; 3207.450;  213.675;    0.000
396.041; 3245.450;  194.675;    0.000
396.098; 3116.450;  144.675;    0.000
396.156; 3199.450;  168.675;    0.000
396.213; 3161.450;  181.675;    0.000
396.270; 3282.450;  186.675;    0.000
396.328; 3239.450;  165.675;    0.000
396.385; 3309.450;  192.675;    0.000
396.442; 3214.450;  196.675;    0.000
396.499; 3179.450;  162.675;    0.000
396.557; 3258.450;  177.675;    0.000
396.614; 3198.450;  184.675;    0.000
396.671; 3293.450;  180.675;    0.000
396.728; 3314.450;  194.675;    0.000
396.785; 3228.450;  173.675;    0.000
396.843; 3228.450;  154.675;    0.000
396.900; 3274.450;  200.675;    0.000
396.957; 3297.450;  158.675;    0.000
397.014; 3360.450;  203.675;    0.000
397.071; 3357.450;  178.675;    0.000
397.128; 3277.450;  201.675;    0.000
397.186; 3328.450;  200.675;    0.000
397.243; 3437.450;  187.675;    0.000
397.300; 3261.450;  173.675;    0.000
397.357; 3269.450;  189.675;    0.000
397.414; 3449.450;  202.675;    0.000
397.471; 3385.450;  156.675;    0.000
397.528; 3299.450;  197.675;    0.000
397.585; 3413.450;  174.675;    0.000
397.642; 3361.450;  202.675;    0.000
397.699; 3377.450;  197.675;    0.000
397.756; 3445.450;  188.675;    0.000
397.814; 3386.450;  210.675;    0.000
397.871; 3357.450;  203.675;    0.000
397.928; 3399.450;  189.675;    0.000
397.985; 3277.450;  192.675;    0.000
398.042; 3471.450;  198.675;    0.000
398.099; 3424.450;  181.675;    0.000
398.156; 3389.450;  201.675;    0.000
398.212; 3496.450;  216.675;    0.000
398.269; 3445.450;  206.675;    0.000
398.326; 3514.450;  213.675;    0.000
398.383; 3401.450;  168.675;    0.000
398.440; 3445.450;  184.675;    0.000
398.497; 3469.450;  194.675;    0.000
398.554; 3465.450;  219.675;    0.000
398.611; 3424.450;  190.675;    0.000
398.668; 3557.450;  138.675;    0.000
398.725; 3461.450;  170.675;    0.000
398.782; 3599.450;  223.675;    0.000
398.839; 3537.450;  211.675;    0.000
398.895; 3529.450;  173.675;    0.000
398.952; 3615.450;  207.675;    0.000
399.009; 3589.450;  173.675;    0.000
399.066; 3590.450;  171.675;    0.000
399.123; 3537.450;  189.675;    0.000
399.180; 3567.450;  170.675;    0.000
399.236; 3626.450;  193.675;    0.000
399.293; 3659.450;  222.675;    0.000
399.350; 3790.450;  195.675;    0.000
399.407; 3761.450;  214.675;    0.000
399.463; 3794.450;  181.675;    0.000
399.520; 3856.450;  168.675;    0.000
399.577; 3838.450;  231.675;    0.000
399.634; 3776.450;  215.675;    0.000
399.690; 3829.450;  177.675;    0.000
399.747; 3866.450;  212.675;    0.000
399.804; 3761.450;  208.675;    0.000
399.861; 3828.450;  225.675;    0.000
399.917; 3737.450;  191.675;    0.000
399.974; 3789.450;  182.675;    0.000
400.031; 3938.450;  218.675;    0.000
400.087; 3761.450;  202.675;    0.000
400.144; 3757.450;  192.675;    0.000
400.201; 3773.450;  187.675;    0.000
400.257; 3849.450;  193.675;    0.000
400.314; 3846.450;  185.675;    0.000
400.370; 3699.450;  201.675;    0.000
400.427; 3795.450;  208.675;    0.000
400.484; 3681.450;  201.675;    0.000
400.540; 3691.450;  204.675;    0.000
400.597; 3740.450;  210.675;    0.000
400.653; 3690.450;  224.675;    0.000
400.710; 3720.450;  196.675;    0.000
400.766; 3699.450;  224.675;    0.000
400.823; 3670.450;  210.675;    0.000
400.879; 3615.450;  213.675;    0.000
400.936; 3716.450;  182.675;    0.000
400.993; 3617.450;  184.675;    0.000
401.049; 3628.450;  216.675;    0.000
401.105; 3660.450;  235.675;    0.000
401.162; 3790.450;  196.675;    0.000
401.218; 3585.450;  221.675;    0.000
401.275; 3671.450;  216.675;    0.000
401.331; 3609.450;  198.675;    0.000
401.388; 3669.450;  205.675;    0.000
401.444; 3578.450;  154.675;    0.000
401.501; 3645.450;  208.675;    0.000
401.557; 3542.450;  162.675;    0.000
401.614; 3671.450;  157.675;    0.000
401.670; 3663.450;  198.675;    0.000
401.726; 3774.450;  195.675;    0.000
401.783; 3629.450;  186.675;    0.000
401.839; 3666.450;  205.675;    0.000
401.895; 3622.450;  202.675;    0.000
401.952; 3634.450;  143.675;    0.000
402.008; 3622.450;  177.675;    0.000
402.064; 3577.450;  177.675;    0.000
402.121; 3698.450;  194.675;    0.000
402.177; 3698.450;  181.675;    0.000
402.233; 3662.450;  205.675;    0.000
402.290; 3678.450;  190.675;    0.000
402.346; 3661.450;  190.675;    0.000
402.402; 3658.450;  151.675;    0.000
402.458; 3704.450;  194.675;    0.000
402.515; 3718.450;  212.675;    0.000
402.571; 3770.450;  209.675;    0.000
402.627; 3729.450;  199.675;    0.000
402.683; 3700.450;  213.675;    0.000
402.740; 3725.450;  165.675;    0.000
402.796; 3742.450;  168.675;    0.000
402.852; 3660.450;  200.675;    0.000
402.908; 3683.450;  193.675;    0.000
402.964; 3645.450;  166.675;    0.000
403.021; 3747.450;  196.675;    0.000
403.077; 3704.450;  212.675;    0.000
403.133; 3769.450;  186.675;    0.000
403.189; 3810.450;  206.675;    0.000
403.245; 3725.450;  207.675;    0.000
403.301; 3746.450;  204.675;    0.000
403.357; 3757.450;  246.675;    0.000
403.414; 3789.450;  227.675;    0.000
403.470; 3746.450;  207.675;    0.000
403.526; 3777.450;  171.675;    0.000
403.582; 3802.450;  200.675;    0.000
403.638; 3905.450;  213.675;    0.000
403.694; 3803.450;  239.675;    0.000
403.750; 3754.450;  221.675;    0.000
403.806; 3837.450;  197.675;    0.000
403.862; 3740.450;  222.675;    0.000
403.918; 3811.450;  174.675;    0.000
403.974; 3834.450;  183.675;    0.000
404.030; 3770.450;  184.675;    0.000
404.086; 3769.450;  170.675;    0.000
404.142; 3859.450;  215.675;    0.000
404.198; 3846.450;  189.675;    0.000
404.254; 3866.450;  195.675;    0.000
404.310; 3758.450;  206.675;    0.000
404.366; 3825.450;  179.675;    0.000
404.422; 3776.450;  197.675;    0.000
404.478; 3988.450;  176.675;    0.000
404.534; 3798.450;  165.675;    0.000
404.590; 3962.450;  203.675;    0.000
404.646; 3893.450;  195.675;    0.000
404.701; 3877.450;  180.675;    0.000
404.757; 3881.450;  218.675;    0.000
404.813; 3846.450;  160.675;    0.000
404.869; 3882.450;  213.675;    0.000
404.925; 3751.450;  171.675;    0.000
404.981; 3901.450;  194.675;    0.000
405.037; 3913.450;  211.675;    0.000
405.092; 3886.450;  158.675;    0.000
405.148; 3964.450;  140.675;    0.000
405.204; 3834.450;  161.675;    0.000
405.260; 3863.450;  161.675;    0.000
405.316; 3855.450;  155.675;    0.000
405.371; 3876.450;  151.675;    0.000
405.427; 3841.450;  186.675;    0.000
405.483; 3922.450;  206.675;    0.000
405.539; 3920.450;  162.675;    0.000
405.594; 3846.450;  205.675;    0.000
405.650; 3879.450;  153.675;    0.000
405.706; 3991.450;  185.675;    0.000
405.761; 4030.450;  205.675;    0.000
405.817; 3967.450;  185.675;    0.000
405.873; 3920.450;  160.675;    0.000
405.928; 3986.450;  182.675;    0.000
405.984; 4050.450;  206.675;    0.000
406.040; 3886.450;  200.675;    0.000
406.095; 3886.450;  138.675;    0.000
406.151; 4127.450;  178.675;    0.000
406.207; 3970.450;  225.675;    0.000
406.262; 4030.450;  161.675;    0.000
406.318; 3960.450;  186.675;    0.000
406.374; 3912.450;  173.675;    0.000
406.429; 3942.450;  197.675;    0.000
406.485; 4092.450;  260.675;    0.000
406.540; 4074.450;  184.675;    0.000
406.596; 4135.450;  193.675;    0.000
406.651; 4091.450;  176.675;    0.000
406.707; 4160.450;  158.675;    0.000
406.763; 4057.450;  174.675;    0.000
406.818; 4138.450;  188.675;    0.000
406.874; 4168.450;  176.675;    0.000
406.929; 4290.450;  220.675;    0.000
406.985; 4193.450;  167.675;    0.000
407.040; 4185.450;  191.675;    0.000
407.095; 4182.450;  190.675;    0.000
407.151; 4373.450;  196.675;    0.000
407.206; 4332.450;  184.675;    0.000
407.262; 4255.450;  167.675;    0.000
407.317; 4477.450;  199.675;    0.000
407.373; 4360.450;  211.675;    0.000
407.428; 4417.450;  202.675;    0.000
407.484; 4353.450;  172.675;    0.000
407.539; 4314.450;  171.675;    0.000
407.594; 4379.450;  219.675;    0.000
407.650; 4333.450;  179.675;    0.000
407.705; 4309.450;  141.675;    0.000
407.760; 4359.450;  182.675;    0.000
407.816; 4324.450;  203.675;    0.000
407.871; 4398.450;  219.675;    0.000
407.926; 4415.450;  197.675;    0.000
407.982; 4307.450;  176.675;    0.000
408.037; 4324.450;  187.675;    0.000
408.092; 4285.450;  161.675;    0.000
408.148; 4398.450;  185.675;    0.000
408.203; 4330.450;  196.675;    0.000
408.258; 4284.450;  188.675;    0.000
408.314; 4257.450;  225.675;    0.000
408.369; 4261.450;  172.675;    0.000
408.424; 4312.450;  204.675;    0.000
408.479; 4284.450;  182.675;    0.000
408.534; 4237.450;  220.675;    0.000
408.590; 4237.450;  196.675;    0.000
408.645; 4283.450;  170.675;    0.000
408.700; 4309.450;  204.675;    0.000
408.755; 4383.450;  219.675;    0.000
408.810; 4151.450;  174.675;    0.000
408.866; 4309.450;  212.675;    0.000
408.921; 4222.450;  233.675;    0.000
408.976; 4385.450;  198.675;    0.000
409.031; 4120.450;  179.675;    0.000
409.086; 4198.450;  181.675;    0.000
409.141; 4253.450;  192.675;    0.000
409.196; 4290.450;  172.675;    0.000
409.252; 4339.450;  199.675;    0.000
409.307; 4207.450;  159.675;    0.000
409.362; 4252.450;  158.675;    0.000
409.417; 4175.450;  164.675;    0.000
409.472; 4292.450;  186.675;    0.000
409.527; 4242.450;  215.675;    0.000
409.582; 4282.450;  227.675;    0.000
409.637; 4277.450;  211.675;    0.000
409.692; 4240.450;  224.675;    0.000
409.747; 4269.450;  147.675;    0.000
409.802; 4192.450;  203.675;    0.000
409.857; 4186.450;  203.675;    0.000
409.912; 4201.450;  219.675;    0.000
409.967; 4251.450;  200.675;    0.000
410.022; 4165.450;  199.675;    0.000
410.077; 4209.450;  171.675;    0.000
410.132; 4224.450;  193.675;    0.000
410.187; 4183.450;  167.675;    0.000
410.242; 4156.450;  188.675;    0.000
410.297; 4225.450;  195.675;    0.000
410.351; 4213.450;  225.675;    0.000
410.406; 4283.450;  188.675;    0.000
410.461; 4196.450;  197.675;    0.000
410.516; 4179.450;  212.675;    0.000
410.571; 4215.450;  173.675;    0.000
410.626; 4305.450;  180.675;    0.000
410.681; 4242.450;  198.675;    0.000
410.736; 4255.450;  190.675;    0.000
410.790; 4236.450;  204.675;    0.000
410.845; 4296.450;  214.675;    0.000
410.900; 4275.450;  184.675;    0.000
410.955; 4310.450;  231.675;    0.000
411.010; 4312.450;  211.675;    0.000
411.064; 4107.450;  204.675;    0.000
411.119; 4313.450;  219.675;    0.000
411.174; 4222.450;  208.675;    0.000
411.229; 4210.450;  207.675;    0.000
411.283; 4357.450;  199.675;    0.000
411.338; 4282.450;  198.675;    0.000
411.393; 4191.450;  155.675;    0.000
411.447; 4280.450;  200.675;    0.000
411.502; 4232.450;  229.675;    0.000
411.557; 4259.450;  197.675;    0.000
411.612; 4114.450;  171.675;    0.000
411.666; 4400.450;  201.675;    0.000
411.721; 4291.450;  174.675;    0.000
411.776; 4185.450;  222.675;    0.000
411.830; 4340.450;  150.675;    0.000
411.885; 4288.450;  169.675;    0.000
411.939; 4209.450;  216.675;    0.000
411.994; 4264.450;  215.675;    0.000
412.049; 4343.450;  219.675;    0.000
412.103; 4301.450;  225.675;    0.000
412.158; 4327.450;  216.675;    0.000
412.212; 4269.450;  218.675;    0.000
412.267; 4301.450;  219.675;    0.000
412.322; 4246.450;  235.675;    0.000
412.376; 4315.450;  208.675;    0.000
412.431; 4364.450;  232.675;    0.000
412.485; 4277.450;  223.675;    0.000
412.540; 4237.450;  217.675;    0.000
412.594; 4300.450;  195.675;    0.000
412.649; 4288.450;  236.675;    0.000
412.703; 4251.450;  216.675;    0.000
412.758; 4357.450;  201.675;    0.000
412.812; 4179.450;  176.675;    0.000
412.866; 4225.450;  179.675;    0.000
412.921; 4225.450;  196.675;    0.000
412.975; 4338.450;  238.675;    0.000
413.030; 4265.450;  272.675;    0.000
413.084; 4290.450;  208.675;    0.000
413.139; 4209.450;  201.675;    0.000
413.193; 4281.450;  198.675;    0.000
413.247; 4298.450;  213.675;    0.000
413.302; 4213.450;  202.675;    0.000
413.356; 4110.450;  184.675;    0.000
413.410; 4231.450;  202.675;    0.000
413.465; 4273.450;  145.675;    0.000
413.519; 4316.450;  200.675;    0.000
413.573; 4383.450;  197.675;    0.000
413.628; 4152.450;  224.675;    0.000
413.682; 4258.450;  211.675;    0.000
413.736; 4243.450;  202.675;    0.000
413.791; 4257.450;  228.675;    0.000
413.845; 4380.450;  184.675;    0.000
413.899; 4259.450;  226.675;    0.000
413.953; 4240.450;  213.675;    0.000
414.008; 4270.450;  175.675;    0.000
414.062; 4271.450;  216.675;    0.000
414.116; 4233.450;  206.675;    0.000
414.170; 4292.450;  229.675;    0.000
414.225; 4341.450;  196.675;    0.000
414.279; 4322.450;  199.675;    0.000
414.333; 4302.450;  220.675;    0.000
414.387; 4245.450;  217.675;    0.000
414.441; 4245.450;  206.675;    0.000
414.496; 4333.450;  264.675;    0.000
414.550; 4270.450;  217.675;    0.000
414.604; 4316.450;  224.675;    0.000
414.658; 4281.450;  156.675;    0.000
414.712; 4223.450;  203.675;    0.000
414.766; 4273.450;  216.675;    0.000
414.820; 4372.450;  218.675;    0.000
414.874; 4319.450;  240.675;    0.000
414.928; 4357.450;  204.675;    0.000
414.982; 4312.450;  195.675;    0.000
415.037; 4267.450;  212.675;    0.000
415.091; 4289.450;  211.675;    0.000
415.145; 4284.450;  230.675;    0.000
415.199; 4215.450;  208.675;    0.000
415.253; 4169.450;  213.675;    0.000
415.307; 4204.450;  208.675;    0.000
415.361; 4203.450;  193.675;    0.000
415.415; 4203.450;  207.675;    0.000
415.469; 4246.450;  214.675;    0.000
415.523; 4363.450;  226.675;    0.000
415.577; 4221.450;  194.675;    0.000
415.631; 4246.450;  258.675;    0.000
415.684; 4266.450;  239.675;    0.000
415.738; 4278.450;  191.675;    0.000
415.792; 4240.450;  185.675;    0.000
415.846; 4333.450;  239.675;    0.000
415.900; 4304.450;  209.675;    0.000
415.954; 4180.450;  215.675;    0.000
416.008; 4204.450;  229.675;    0.000
416.062; 4285.450;  200.675;    0.000
416.116; 4165.450;  195.675;    0.000
416.169; 4237.450;  238.675;    0.000
416.223; 4225.450;  271.675;    0.000
416.277; 4297.450;  232.675;    0.000
416.331; 4237.450;  226.675;    0.000
416.385; 4301.450;  207.675;    0.000
416.439; 4161.450;  221.675;    0.000
416.492; 4277.450;  269.675;    0.000
416.546; 4261.450;  254.675;    0.000
416.600; 4143.450;  225.675;    0.000
416.654; 4171.450;  269.675;    0.000
416.707; 4205.450;  232.675;    0.000
416.761; 4263.450;  226.675;    0.000
416.815; 4237.450;  219.675;    0.000
416.869; 4224.450;  234.675;    0.000
416.922; 4210.450;  230.675;    0.000
416.976; 4311.450;  216.675;    0.000
417.030; 4178.450;  271.675;    0.000
417.083; 4267.450;  229.675;    0.000
417.137; 4257.450;  249.675;    0.000
417.191; 4256.450;  241.675;    0.000
417.244; 4312.450;  230.675;    0.000
417.298; 4200.450;  215.675;    0.000
417.352; 4264.450;  188.675;    0.000
417.405; 4273.450;  248.675;    0.000
417.459; 4265.450;  256.675;    0.000
417.512; 4261.450;  263.675;    0.000
417.566; 4265.450;  227.675;    0.000
417.620; 4237.450;  270.675;    0.000
417.673; 4189.450;  216.675;    0.000
417.727; 4221.450;  234.675;    0.000
417.780; 4255.450;  215.675;    0.000
417.834; 4195.450;  203.675;    0.000
417.887; 4217.450;  257.675;    0.000
417.941; 4165.450;  216.675;    0.000
417.994; 4183.450;  245.675;    0.000
418.048; 4220.450;  209.675;    0.000
418.101; 4088.450;  207.675;    0.000
418.155; 4219.450;  204.675;    0.000
418.208; 4295.450;  270.675;    0.000
418.262; 4156.450;  228.675;    0.000
418.315; 4195.450;  254.675;    0.000
418.369; 4147.450;  245.675;    0.000
418.422; 4230.450;  224.675;    0.000
418.476; 4196.450;  221.675;    0.000
418.529; 4249.450;  234.675;    0.000
418.582; 4184.450;  249.675;    0.000
418.636; 4216.450;  224.675;    0.000
418.689; 4156.450;  228.675;    0.000
418.743; 4257.450;  240.675;    0.000
418.796; 4213.450;  197.675;    0.000
418.849; 4249.450;  220.675;    0.000
418.903; 4357.450;  246.675;    0.000
418.956; 4267.450;  250.675;    0.000
419.009; 4251.450;  276.675;    0.000
419.063; 4269.450;  232.675;    0.000
419.116; 4259.450;  228.675;    0.000
419.169; 4197.450;  249.675;    0.000
419.222; 4240.450;  215.675;    0.000
419.276; 4272.450;  228.675;    0.000
419.329; 4137.450;  246.675;    0.000
419.382; 4214.450;  188.675;    0.000
419.435; 4065.450;  240.675;    0.000
419.489; 4293.450;  261.675;    0.000
419.542; 4225.450;  224.675;    0.000
419.595; 4107.450;  251.675;    0.000
419.648; 4274.450;  236.675;    0.000
419.701; 4187.450;  244.675;    0.000
419.755; 4087.450;  242.675;    0.000
419.808; 4193.450;  242.675;    0.000
419.861; 4168.450;  189.675;    0.000
419.914; 4216.450;  258.675;    0.000
419.967; 4176.450;  230.675;    0.000
420.020; 4120.450;  223.675;    0.000
420.073; 4161.450;  221.675;    0.000
420.127; 4203.450;  252.675;    0.000
420.180; 4031.450;  219.675;    0.000
420.233; 4101.450;  201.675;    0.000
420.286; 4137.450;  221.675;    0.000
420.339; 4055.450;  250.675;    0.000
420.392; 4100.450;  268.675;    0.000
420.445; 4186.450;  223.675;    0.000
420.498; 4113.450;  240.675;    0.000
420.551; 4035.450;  220.675;    0.000
420.604; 4168.450;  231.675;    0.000
420.657; 4157.450;  228.675;    0.000
420.710; 4134.450;  219.675;    0.000
420.763; 4119.450;  280.675;    0.000
420.816; 4078.450;  202.675;    0.000
420.869; 4031.450;  219.675;    0.000
420.922; 4045.450;  218.675;    0.000
420.975; 4058.450;  237.675;    0.000
421.028; 4114.450;  242.675;    0.000
421.081; 4006.450;  247.675;    0.000
421.134; 4060.450;  239.675;    0.000
421.187; 3973.450;  229.675;    0.000
421.239; 4044.450;  200.675;    0.000
421.292; 3930.450;  205.675;    0.000
421.345; 3994.450;  219.675;    0.000
421.398; 3977.450;  187.675;    0.000
421.451; 4095.450;  226.675;    0.000
421.504; 4077.450;  206.675;    0.000
421.557; 3936.450;  226.675;    0.000
421.609; 3966.450;  209.675;    0.000
421.662; 3967.450;  229.675;    0.000
421.715; 4018.450;  231.675;    0.000
421.768; 3915.450;  215.675;    0.000
421.821; 3993.450;  211.675;    0.000
421.873; 3920.450;  220.675;    0.000
421.926; 3938.450;  212.675;    0.000
421.979; 3966.450;  209.675;    0.000
422.032; 3892.450;  203.675;    0.000
422.084; 3979.450;  213.675;    0.000
422.137; 3949.450;  196.675;    0.000
422.190; 3940.450;  246.675;    0.000
422.243; 3890.450;  194.675;    0.000
422.295; 3951.450;  225.675;    0.000
422.348; 3878.450;  248.675;    0.000
422.401; 3883.450;  252.675;    0.000
422.453; 3987.450;  249.675;    0.000
422.506; 4094.450;  233.675;    0.000
422.559; 3972.450;  228.675;    0.000
422.611; 3880.450;  224.675;    0.000
422.664; 3942.450;  226.675;    0.000
422.716; 3992.450;  226.675;    0.000
422.769; 3936.450;  216.675;    0.000
422.822; 3891.450;  256.675;    0.000
422.874; 3859.450;  206.675;    0.000
422.927; 3988.450;  257.675;    0.000
422.979; 3843.450;  209.675;    0.000
423.032; 3919.450;  244.675;    0.000
423.084; 3928.450;  244.675;    0.000
423.137; 3834.450;  213.675;    0.000
423.189; 3897.450;  208.675;    0.000
423.242; 3912.450;  226.675;    0.000
423.294; 4006.450;  250.675;    0.000
423.347; 3949.450;  206.675;    0.000
423.399; 3932.450;  268.675;    0.000
423.452; 3899.450;  262.675;    0.000
423.504; 3835.450;  237.675;    0.000
423.557; 3868.450;  245.675;    0.000
423.609; 3901.450;  211.675;    0.000
423.662; 3853.450;  222.675;    0.000
423.714; 3974.450;  219.675;    0.000
423.766; 3834.450;  250.675;    0.000
423.819; 3921.450;  220.675;    0.000
423.871; 3793.450;  229.675;    0.000
423.923; 3849.450;  219.675;    0.000
423.976; 3760.450;  221.675;    0.000
424.028; 3866.450;  211.675;    0.000
424.081; 3889.450;  254.675;    0.000
424.133; 3845.450;  230.675;    0.000
424.185; 3717.450;  241.675;    0.000
424.238; 3781.450;  182.675;    0.000
424.290; 3828.450;  215.675;    0.000
424.342; 3759.450;  235.675;    0.000
424.394; 3893.450;  225.675;    0.000
424.447; 3897.450;  264.675;    0.000
424.499; 3973.450;  225.675;    0.000
424.551; 3761.450;  237.675;    0.000
424.603; 3804.450;  219.675;    0.000
424.656; 3867.450;  240.675;    0.000
424.708; 3773.450;  266.675;    0.000
424.760; 3807.450;  230.675;    0.000
424.812; 3779.450;  284.675;    0.000
424.864; 3799.450;  189.675;    0.000
424.917; 3722.450;  226.675;    0.000
424.969; 3781.450;  253.675;    0.000
425.021; 3810.450;  233.675;    0.000
425.073; 3786.450;  246.675;    0.000
425.125; 3792.450;  238.675;    0.000
425.177; 3818.450;  253.675;    0.000
425.229; 3841.450;  254.675;    0.000
425.282; 3788.450;  252.675;    0.000
425.334; 3786.450;  261.675;    0.000
425.386; 3729.450;  227.675;    0.000
425.438; 3720.450;  246.675;    0.000
425.490; 3727.450;  249.675;    0.000
425.542; 3689.450;  236.675;    0.000
425.594; 3748.450;  236.675;    0.000
425.646; 3675.450;  237.675;    0.000
425.698; 3673.450;  271.675;    0.000
425.750; 3696.450;  240.675;    0.000
425.802; 3671.450;  238.675;    0.000
425.854; 3717.450;  256.675;    0.000
425.906; 3742.450;  230.675;    0.000
425.958; 3697.450;  231.675;    0.000
426.010; 3719.450;  268.675;    0.000
426.062; 3624.450;  227.675;    0.000
426.114; 3643.450;  234.675;    0.000
426.166; 3804.450;  239.675;    0.000
426.218; 3561.450;  255.675;    0.000
426.270; 3660.450;  196.675;    0.000
426.321; 3653.450;  231.675;    0.000
426.373; 3574.450;  199.675;    0.000
426.425; 3673.450;  245.675;    0.000
426.477; 3689.450;  259.675;    0.000
426.529; 3645.450;  274.675;    0.000
426.581; 3737.450;  221.675;    0.000
426.633; 3640.450;  231.675;    0.000
426.684; 3549.450;  248.675;    0.000
426.736; 3669.450;  237.675;    0.000
426.788; 3649.450;  191.675;    0.000
426.840; 3605.450;  180.675;    0.000
426.892; 3645.450;  259.675;    0.000
426.943; 3645.450;  256.675;    0.000
426.995; 3685.450;  212.675;    0.000
427.047; 3627.450;  233.675;    0.000
427.099; 3627.450;  222.675;    0.000
427.150; 3587.450;  203.675;    0.000
427.202; 3511.450;  218.675;    0.000
427.254; 3475.450;  198.675;    0.000
427.306; 3494.450;  248.675;    0.000
427.357; 3632.450;  239.675;    0.000
427.409; 3622.450;  193.675;    0.000
427.461; 3544.450;  215.675;    0.000
427.512; 3550.450;  251.675;    0.000
427.564; 3540.450;  210.675;    0.000
427.616; 3581.450;  251.675;    0.000
427.667; 3666.450;  246.675;    0.000
427.719; 3597.450;  227.675;    0.000
427.770; 3512.450;  247.675;    0.000
427.822; 3593.450;  261.675;    0.000
427.874; 3581.450;  231.675;    0.000
427.925; 3632.450;  231.675;    0.000
427.977; 3605.450;  243.675;    0.000
428.028; 3497.450;  249.675;    0.000
428.080; 3617.450;  224.675;    0.000
428.131; 3641.450;  247.675;    0.000
428.183; 3543.450;  213.675;    0.000
428.234; 3583.450;  213.675;    0.000
428.286; 3519.450;  224.675;    0.000
428.337; 3569.450;  212.675;    0.000
428.389; 3593.450;  231.675;    0.000
428.440; 3584.450;  248.675;    0.000
428.492; 3562.450;  242.675;    0.000
428.543; 3548.450;  220.675;    0.000
428.595; 3515.450;  212.675;    0.000
428.646; 3495.450;  231.675;    0.000
428.697; 3551.450;  232.675;    0.000
428.749; 3524.450;  231.675;    0.000
428.800; 3505.450;  270.675;    0.000
428.852; 3576.450;  266.675;    0.000
428.903; 3548.450;  215.675;    0.000
428.954; 3586.450;  200.675;    0.000
429.006; 3553.450;  247.675;    0.000
429.057; 3461.450;  247.675;    0.000
429.108; 3457.450;  193.675;    0.000
429.160; 3537.450;  249.675;    0.000
429.211; 3460.450;  228.675;    0.000
429.262; 3465.450;  243.675;    0.000
429.314; 3431.450;  227.675;    0.000
429.365; 3499.450;  242.675;    0.000
429.416; 3503.450;  240.675;    0.000
429.467; 3467.450;  222.675;    0.000
429.519; 3439.450;  233.675;    0.000
429.570; 3406.450;  223.675;    0.000
429.621; 3446.450;  257.675;    0.000
429.672; 3424.450;  220.675;    0.000
429.724; 3442.450;  203.675;    0.000
429.775; 3328.450;  242.675;    0.000
429.826; 3490.450;  195.675;    0.000
429.877; 3350.450;  248.675;    0.000
429.928; 3495.450;  226.675;    0.000
429.980; 3470.450;  189.675;    0.000
430.031; 3497.450;  223.675;    0.000
430.082; 3418.450;  217.675;    0.000
430.133; 3424.450;  210.675;    0.000
430.184; 3508.450;  271.675;    0.000
430.235; 3410.450;  190.675;    0.000
430.286; 3445.450;  233.675;    0.000
430.337; 3412.450;  232.675;    0.000
430.388; 3425.450;  221.675;    0.000
430.439; 3539.450;  221.675;    0.000
430.490; 3438.450;  229.675;    0.000
430.542; 3387.450;  196.675;    0.000
430.593; 3341.450;  214.675;    0.000
430.644; 3369.450;  224.675;    0.000
430.695; 3392.450;  216.675;    0.000
430.746; 3468.450;  228.675;    0.000
430.797; 3386.450;  190.675;    0.000
430.848; 3441.450;  231.675;    0.000
430.898; 3451.450;  232.675;    0.000
430.949; 3427.450;  224.675;    0.000
431.000; 3445.450;  236.675;    0.000
431.051; 3442.450;  251.675;    0.000
431.102; 3413.450;  205.675;    0.000
431.153; 3462.450;  212.675;    0.000
431.204; 3304.450;  200.675;    0.000
431.255; 3387.450;  220.675;    0.000
431.306; 3368.450;  223.675;    0.000
431.357; 3349.450;  240.675;    0.000
431.408; 3384.450;  232.675;    0.000
431.458; 3397.450;  204.675;    0.000
431.509; 3410.450;  196.675;    0.000
431.560; 3395.450;  243.675;    0.000
431.611; 3403.450;  222.675;    0.000
431.662; 3455.450;  246.675;    0.000
431.713; 3379.450;  188.675;    0.000
431.763; 3442.450;  226.675;    0.000
431.814; 3346.450;  239.675;    0.000
431.865; 3300.450;  245.675;    0.000
431.916; 3286.450;  173.675;    0.000
431.966; 3368.450;  220.675;    0.000
432.017; 3418.450;  247.675;    0.000
432.068; 3432.450;  241.675;    0.000
432.118; 3397.450;  220.675;    0.000
432.169; 3420.450;  244.675;    0.000
432.220; 3435.450;  246.675;    0.000
432.271; 3318.450;  203.675;    0.000
432.321; 3363.450;  244.675;    0.000
432.372; 3279.450;  254.675;    0.000
432.423; 3423.450;  224.675;    0.000
432.473; 3344.450;  211.675;    0.000
432.524; 3318.450;  227.675;    0.000
432.574; 3300.450;  228.675;    0.000
432.625; 3270.450;  223.675;    0.000
432.676; 3354.450;  220.675;    0.000
432.726; 3331.450;  257.675;    0.000
432.777; 3248.450;  257.675;    0.000
432.827; 3409.450;  240.675;    0.000
432.878; 3384.450;  219.675;    0.000
432.928; 3320.450;  234.675;    0.000
432.979; 3358.450;  226.675;    0.000
433.029; 3297.450;  216.675;    0.000
433.080; 3347.450;  232.675;    0.000
433.130; 3419.450;  257.675;    0.000
433.181; 3343.450;  243.675;    0.000
433.231; 3412.450;  239.675;    0.000
433.282; 3347.450;  232.675;    0.000
433.332; 3362.450;  256.675;    0.000
433.383; 3338.450;  268.675;    0.000
433.433; 3406.450;  291.675;    0.000
433.484; 3345.450;  263.675;    0.000
433.534; 3288.450;  248.675;    0.000
433.585; 3354.450;  244.675;    0.000
433.635; 3376.450;  242.675;    0.000
433.685; 3334.450;  243.675;    0.000
433.736; 3355.450;  283.675;    0.000
433.786; 3313.450;  264.675;    0.000
433.836; 3374.450;  282.675;    0.000
433.887; 3311.450;  265.675;    0.000
433.937; 3350.450;  255.675;    0.000
433.987; 3302.450;  245.675;    0.000
434.038; 3305.450;  276.675;    0.000
434.088; 3318.450;  249.675;    0.000
434.138; 3360.450;  260.675;    0.000
434.189; 3406.450;  241.675;    0.000
434.239; 3388.450;  232.675;    0.000
434.289; 3503.450;  272.675;    0.000
434.339; 3286.450;  288.675;    0.000
434.389; 3353.450;  258.675;    0.000
434.440; 3412.450;  244.675;    0.000
434.490; 3399.450;  288.675;    0.000
434.540; 3336.450;  252.675;    0.000
434.590; 3398.450;  256.675;    0.000
434.640; 3351.450;  259.675;    0.000
434.691; 3489.450;  220.675;    0.000
434.741; 3460.450;  238.675;    0.000
434.791; 3383.450;  276.675;    0.000
434.841; 3364.450;  256.675;    0.000
434.891; 3476.450;  297.675;    0.000
434.941; 3397.450;  290.675;    0.000
434.991; 3529.450;  261.675;    0.000
435.042; 3498.450;  300.675;    0.000
435.092; 3457.450;  248.675;    0.000
435.142; 3363.450;  246.675;    0.000
435.192; 3385.450;  201.675;    0.000
435.242; 3335.450;  234.675;    0.000
435.292; 3438.450;  266.675;    0.000
435.342; 3295.450;  250.675;    0.000
435.392; 3334.450;  279.675;    0.000
435.442; 3281.450;  242.675;    0.000
435.492; 3328.450;  265.675;    0.000
435.542; 3358.450;  243.675;    0.000
435.592; 3360.450;  243.675;    0.000
435.642; 3344.450;  241.675;    0.000
435.692; 3335.450;  263.675;    0.000
435.742; 3261.450;  264.675;    0.000
435.792; 3272.450;  291.675;    0.000
435.842; 3315.450;  257.675;    0.000
435.891; 3253.450;  224.675;    0.000
435.941; 3256.450;  243.675;    0.000
435.991; 3277.450;  300.675;    0.000
436.041; 3207.450;  197.675;    0.000
436.091; 3256.450;  238.675;    0.000
436.141; 3271.450;  222.675;    0.000
436.191; 3233.450;  249.675;    0.000
436.241; 3295.450;  208.675;    0.000
436.290; 3286.450;  282.675;    0.000
436.340; 3179.450;  233.675;    0.000
436.390; 3252.450;  223.675;    0.000
436.440; 3299.450;  252.675;    0.000
436.490; 3240.450;  254.675;    0.000
436.539; 3214.450;  271.675;    0.000
436.589; 3206.450;  248.675;    0.000
436.639; 3221.450;  235.675;    0.000
436.689; 3176.450;  238.675;    0.000
436.738; 3269.450;  267.675;    0.000
436.788; 3120.450;  239.675;    0.000
436.838; 3216.450;  244.675;    0.000
436.887; 3177.450;  265.675;    0.000
436.937; 3253.450;  261.675;    0.000
436.987; 3137.450;  235.675;    0.000
437.036; 3193.450;  267.675;    0.000
437.086; 3275.450;  258.675;    0.000
437.136; 3175.450;  250.675;    0.000
437.185; 3157.450;  214.675;    0.000
437.235; 3219.450;  257.675;    0.000
437.285; 3187.450;  259.675;    0.000
437.334; 3282.450;  241.675;    0.000
437.384; 3208.450;  231.675;    0.000
437.433; 3147.450;  239.675;    0.000
437.483; 3210.450;  260.675;    0.000
437.532; 3120.450;  277.675;    0.000
437.582; 3150.450;  268.675;    0.000
437.631; 3091.450;  239.675;    0.000
437.681; 3168.450;  251.675;    0.000
437.730; 3140.450;  246.675;    0.000
437.780; 3119.450;  226.675;    0.000
437.829; 3118.450;  256.675;    0.000
437.879; 3068.450;  239.675;    0.000
437.928; 3033.450;  253.675;    0.000
437.978; 3089.450;  245.675;    0.000
438.027; 3184.450;  277.675;    0.000
438.077; 3136.450;  248.675;    0.000
438.126; 3137.450;  201.675;    0.000
438.176; 3151.450;  220.675;    0.000
438.225; 3103.450;  250.675;    0.000
438.274; 3145.450;  234.675;    0.000
438.324; 3113.450;  276.675;    0.000
438.373; 3157.450;  226.675;    0.000
438.422; 3110.450;  228.675;    0.000
438.472; 3146.450;  225.675;    0.000
438.521; 3049.450;  227.675;    0.000
438.570; 3137.450;  242.675;    0.000
438.620; 3157.450;  277.675;    0.000
438.669; 3136.450;  256.675;    0.000
438.718; 3164.450;  248.675;    0.000
438.768; 3065.450;  225.675;    0.000
438.817; 3171.450;  229.675;    0.000
438.866; 3013.450;  218.675;    0.000
438.915; 3059.450;  256.675;    0.000
438.965; 3065.450;  242.675;    0.000
439.014; 3087.450;  260.675;    0.000
439.063; 3106.450;  238.675;    0.000
439.112; 3149.450;  209.675;    0.000
439.162; 3268.450;  258.675;    0.000
439.211; 3217.450;  275.675;    0.000
439.260; 3070.450;  238.675;    0.000
439.309; 3126.450;  237.675;    0.000
439.358; 3125.450;  252.675;    0.000
439.407; 3183.450;  239.675;    0.000
439.456; 3035.450;  211.675;    0.000
439.506; 3162.450;  261.675;    0.000
439.555; 3154.450;  274.675;    0.000
439.604; 3149.450;  262.675;    0.000
439.653; 3194.450;  245.675;    0.000
439.702; 3078.450;  247.675;    0.000
439.751; 3112.450;  228.675;    0.000
439.800; 3188.450;  253.675;    0.000
439.849; 3133.450;  219.675;    0.000
439.898; 3198.450;  246.675;    0.000
439.947; 3132.450;  229.675;    0.000
439.996; 3167.450;  274.675;    0.000
440.045; 3063.450;  224.675;    0.000
440.094; 3207.450;  225.675;    0.000
440.143; 3256.450;  277.675;    0.000
440.192; 3193.450;  252.675;    0.000
440.241; 3126.450;  253.675;    0.000
440.290; 3182.450;  242.675;    0.000
440.339; 3262.450;  220.675;    0.000
440.388; 3179.450;  244.675;    0.000
440.437; 3177.450;  268.675;    0.000
440.486; 3164.450;  242.675;    0.000
440.535; 3128.450;  269.675;    0.000
440.583; 3158.450;  258.675;    0.000
440.632; 3176.450;  286.675;    0.000
440.681; 3203.450;  238.675;    0.000
440.730; 3265.450;  271.675;    0.000
440.779; 3177.450;  226.675;    0.000
440.828; 3180.450;  213.675;    0.000
440.876; 3303.450;  207.675;    0.000
440.925; 3250.450;  247.675;    0.000
440.974; 3123.450;  229.675;    0.000
441.023; 3153.450;  227.675;    0.000
441.072; 3159.450;  222.675;    0.000
441.120; 3344.450;  273.675;    0.000
441.169; 3258.450;  263.675;    0.000
441.218; 3222.450;  264.675;    0.000
441.267; 3323.450;  287.675;    0.000
441.315; 3296.450;  251.675;    0.000
441.364; 3275.450;  252.675;    0.000
441.413; 3314.450;  227.675;    0.000
441.461; 3284.450;  198.675;    0.000
441.510; 3366.450;  273.675;    0.000
441.559; 3247.450;  245.675;    0.000
441.607; 3306.450;  218.675;    0.000
441.656; 3342.450;  261.675;    0.000
441.705; 3281.450;  259.675;    0.000
441.753; 3386.450;  272.675;    0.000
441.802; 3362.450;  246.675;    0.000
441.850; 3200.450;  255.675;    0.000
441.899; 3342.450;  236.675;    0.000
441.948; 3279.450;  267.675;    0.000
441.996; 3182.450;  246.675;    0.000
442.045; 3314.450;  279.675;    0.000
442.093; 3295.450;  251.675;    0.000
442.142; 3348.450;  274.675;    0.000
442.190; 3338.450;  279.675;    0.000
442.239; 3338.450;  295.675;    0.000
442.287; 3300.450;  229.675;    0.000
442.336; 3338.450;  265.675;    0.000
442.384; 3311.450;  219.675;    0.000
442.433; 3328.450;  287.675;    0.000
442.481; 3312.450;  271.675;    0.000
442.529; 3353.450;  262.675;    0.000
442.578; 3348.450;  282.675;    0.000
442.626; 3292.450;  245.675;    0.000
442.675; 3431.450;  283.675;    0.000
442.723; 3405.450;  247.675;    0.000
442.771; 3343.450;  221.675;    0.000
442.820; 3329.450;  253.675;    0.000
442.868; 3309.450;  204.675;    0.000
442.917; 3352.450;  263.675;    0.000
442.965; 3401.450;  255.675;    0.000
443.013; 3312.450;  282.675;    0.000
443.062; 3395.450;  258.675;    0.000
443.110; 3305.450;  268.675;    0.000
443.158; 3269.450;  247.675;    0.000
443.206; 3403.450;  243.675;    0.000
443.255; 3437.450;  271.675;    0.000
443.303; 3460.450;  279.675;    0.000
443.351; 3301.450;  264.675;    0.000
443.399; 3341.450;  245.675;    0.000
443.448; 3392.450;  259.675;    0.000
443.496; 3389.450;  281.675;    0.000
443.544; 3351.450;  213.675;    0.000
443.592; 3375.450;  290.675;    0.000
443.640; 3449.450;  270.675;    0.000
443.689; 3433.450;  229.675;    0.000
443.737; 3427.450;  254.675;    0.000
443.785; 3404.450;  234.675;    0.000
443.833; 3466.450;  287.675;    0.000
443.881; 3503.450;  229.675;    0.000
443.929; 3469.450;  260.675;    0.000
443.977; 3486.450;  265.675;    0.000
444.025; 3465.450;  257.675;    0.000
444.074; 3452.450;  245.675;    0.000
444.122; 3554.450;  282.675;    0.000
444.170; 3569.450;  240.675;    0.000
444.218; 3536.450;  270.675;    0.000
444.266; 3489.450;  254.675;    0.000
444.314; 3609.450;  264.675;    0.000
444.362; 3604.450;  287.675;    0.000
444.410; 3575.450;  236.675;    0.000
444.458; 3521.450;  273.675;    0.000
444.506; 3601.450;  235.675;    0.000
444.554; 3573.450;  242.675;    0.000
444.602; 3643.450;  283.675;    0.000
444.650; 3606.450;  266.675;    0.000
444.698; 3565.450;  248.675;    0.000
444.746; 3519.450;  247.675;    0.000
444.793; 3633.450;  211.675;    0.000
444.841; 3636.450;  259.675;    0.000
444.889; 3642.450;  253.675;    0.000
444.937; 3721.450;  248.675;    0.000
444.985; 3744.450;  233.675;    0.000
445.033; 3761.450;  245.675;    0.000
445.081; 3651.450;  243.675;    0.000
445.129; 3548.450;  238.675;    0.000
445.176; 3665.450;  204.675;    0.000
445.224; 3705.450;  262.675;    0.000
445.272; 3677.450;  256.675;    0.000
445.320; 3706.450;  235.675;    0.000
445.368; 3645.450;  251.675;    0.000
445.415; 3633.450;  250.675;    0.000
445.463; 3687.450;  225.675;    0.000
445.511; 3621.450;  226.675;    0.000
445.559; 3804.450;  251.675;    0.000
445.606; 3519.450;  213.675;    0.000
445.654; 3627.450;  261.675;    0.000
445.702; 3726.450;  222.675;    0.000
445.749; 3741.450;  257.675;    0.000
445.797; 3721.450;  263.675;    0.000
445.845; 3770.450;  218.675;    0.000
445.892; 3712.450;  228.675;    0.000
445.940; 3760.450;  249.675;    0.000
445.988; 3697.450;  276.675;    0.000
446.035; 3733.450;  229.675;    0.000
446.083; 3778.450;  255.675;    0.000
446.130; 3791.450;  200.675;    0.000
446.178; 3869.450;  256.675;    0.000
446.226; 3721.450;  238.675;    0.000
446.273; 3743.450;  250.675;    0.000
446.321; 3848.450;  233.675;    0.000
446.368; 3886.450;  244.675;    0.000
446.416; 3829.450;  214.675;    0.000
446.463; 3945.450;  225.675;    0.000
446.511; 3956.450;  253.675;    0.000
446.558; 3953.450;  246.675;    0.000
446.606; 3872.450;  238.675;    0.000
446.653; 3985.450;  215.675;    0.000
446.701; 4103.450;  248.675;    0.000
446.748; 4063.450;  258.675;    0.000
446.796; 4011.450;  259.675;    0.000
446.843; 4083.450;  269.675;    0.000
446.891; 4041.450;  259.675;    0.000
446.938; 4008.450;  226.675;    0.000
446.985; 3964.450;  225.675;    0.000
447.033; 4258.450;  269.675;    0.000
447.080; 4244.450;  258.675;    0.000
447.128; 4203.450;  225.675;    0.000
447.175; 4219.450;  259.675;    0.000
447.222; 4337.450;  238.675;    0.000
447.270; 4418.450;  250.675;    0.000
447.317; 4353.450;  217.675;    0.000
447.364; 4436.450;  262.675;    0.000
447.411; 4422.450;  269.675;    0.000
447.459; 4491.450;  251.675;    0.000
447.506; 4540.450;  227.675;    0.000
447.553; 4487.450;  250.675;    0.000
447.601; 4737.450;  251.675;    0.000
447.648; 4612.450;  276.675;    0.000
447.695; 4864.450;  229.675;    0.000
447.742; 4919.450;  245.675;    0.000
447.789; 4814.450;  243.675;    0.000
447.837; 4935.450;  267.675;    0.000
447.884; 5209.450;  246.675;    0.000
447.931; 5083.450;  266.675;    0.000
447.978; 5198.450;  242.675;    0.000
448.025; 5286.450;  267.675;    0.000
448.072; 5346.450;  257.675;    0.000
448.120; 5501.450;  279.675;    0.000
448.167; 5366.450;  275.675;    0.000
448.214; 5248.450;  241.675;    0.000
448.261; 5144.450;  271.675;    0.000
448.308; 4992.450;  256.675;    0.000
448.355; 4999.450;  253.675;    0.000
448.402; 4900.450;  267.675;    0.000
448.449; 4837.450;  252.675;    0.000
448.496; 4803.450;  241.675;    0.000
448.543; 4613.450;  250.675;    0.000
448.590; 4556.450;  288.675;    0.000
448.637; 4487.450;  255.675;    0.000
448.684; 4533.450;  284.675;    0.000
448.731; 4334.450;  244.675;    0.000
448.778; 4403.450;  257.675;    0.000
448.825; 4311.450;  252.675;    0.000
448.872; 4262.450;  205.675;    0.000
448.919; 4255.450;  244.675;    0.000
448.966; 4176.450;  278.675;    0.000
449.013; 4096.450;  262.675;    0.000
449.060; 4198.450;  278.675;    0.000
449.107; 4148.450;  248.675;    0.000
449.154; 4046.450;  230.675;    0.000
449.200; 4125.450;  211.675;    0.000
449.247; 3939.450;  283.675;    0.000
449.294; 3964.450;  251.675;    0.000
449.341; 3923.450;  280.675;    0.000
449.388; 3922.450;  247.675;    0.000
449.435; 3813.450;  267.675;    0.000
449.481; 3800.450;  303.675;    0.000
449.528; 3853.450;  279.675;    0.000
449.575; 3868.450;  226.675;    0.000
449.622; 3736.450;  263.675;    0.000
449.668; 3693.450;  249.675;    0.000
449.715; 3729.450;  257.675;    0.000
449.762; 3807.450;  251.675;    0.000
449.809; 3765.450;  289.675;    0.000
449.855; 3747.450;  239.675;    0.000
449.902; 3605.450;  262.675;    0.000
449.949; 3641.450;  262.675;    0.000
449.995; 3718.450;  265.675;    0.000
450.042; 3599.450;  280.675;    0.000
450.089; 3652.450;  277.675;    0.000
450.135; 3593.450;  285.675;    0.000
450.182; 3571.450;  275.675;    0.000
450.229; 3554.450;  278.675;    0.000
450.275; 3490.450;  288.675;    0.000
450.322; 3575.450;  238.675;    0.000
450.368; 3503.450;  276.675;    0.000
450.415; 3536.450;  295.675;    0.000
450.462; 3484.450;  283.675;    0.000
450.508; 3454.450;  264.675;    0.000
450.555; 3550.450;  275.675;    0.000
450.601; 3528.450;  278.675;    0.000
450.648; 3445.450;  251.675;    0.000
450.694; 3537.450;  237.675;    0.000
450.741; 3444.450;  280.675;    0.000
450.787; 3386.450;  279.675;    0.000
450.834; 3477.450;  287.675;    0.000
450.880; 3447.450;  265.675;    0.000
450.927; 3471.450;  270.675;    0.000
450.973; 3401.450;  308.675;    0.000
451.019; 3388.450;  253.675;    0.000
451.066; 3335.450;  261.675;    0.000
451.112; 3348.450;  276.675;    0.000
451.159; 3290.450;  235.675;    0.000
451.205; 3389.450;  284.675;    0.000
451.251; 3307.450;  264.675;    0.000
451.298; 3450.450;  262.675;    0.000
451.344; 3361.450;  278.675;    0.000
451.390; 3392.450;  273.675;    0.000
451.437; 3347.450;  272.675;    0.000
451.483; 3286.450;  302.675;    0.000
451.529; 3228.450;  255.675;    0.000
451.576; 3359.450;  287.675;    0.000
451.622; 3341.450;  254.675;    0.000
451.668; 3178.450;  260.675;    0.000
451.714; 3286.450;  289.675;    0.000
451.761; 3221.450;  273.675;    0.000
451.807; 3274.450;  307.675;    0.000
451.853; 3293.450;  281.675;    0.000
451.899; 3246.450;  246.675;    0.000
451.945; 3280.450;  258.675;    0.000
451.992; 3185.450;  276.675;    0.000
452.038; 3250.450;  287.675;    0.000
452.084; 3185.450;  288.675;    0.000
452.130; 3232.450;  259.675;    0.000
452.176; 3251.450;  265.675;    0.000
452.222; 3159.450;  222.675;    0.000
452.268; 3266.450;  271.675;    0.000
452.315; 3185.450;  258.675;    0.000
452.361; 3177.450;  233.675;    0.000
452.407; 3134.450;  270.675;    0.000
452.453; 3112.450;  261.675;    0.000
452.499; 3250.450;  279.675;    0.000
452.545; 3245.450;  269.675;    0.000
452.591; 3229.450;  288.675;    0.000
452.637; 3106.450;  279.675;    0.000
452.683; 3067.450;  232.675;    0.000
452.729; 3260.450;  285.675;    0.000
452.775; 3085.450;  280.675;    0.000
452.821; 3197.450;  260.675;    0.000
452.867; 3022.450;  239.675;    0.000
452.913; 3102.450;  240.675;    0.000
452.959; 3107.450;  214.675;    0.000
453.005; 3169.450;  266.675;    0.000
453.051; 3117.450;  258.675;    0.000
453.097; 3132.450;  253.675;    0.000
453.142; 3104.450;  244.675;    0.000
453.188; 3012.450;  241.675;    0.000
453.234; 3083.450;  257.675;    0.000
453.280; 3079.450;  231.675;    0.000
453.326; 3107.450;  240.675;    0.000
453.372; 3063.450;  208.675;    0.000
453.418; 3133.450;  266.675;    0.000
453.463; 3144.450;  232.675;    0.000
453.509; 3102.450;  221.675;    0.000
453.555; 3046.450;  268.675;    0.000
453.601; 3028.450;  242.675;    0.000
453.647; 3113.450;  283.675;    0.000
453.692; 3019.450;  242.675;    0.000
453.738; 3024.450;  294.675;    0.000
453.784; 2938.450;  256.675;    0.000
453.829; 2931.450;  267.675;    0.000
453.875; 3039.450;  233.675;    0.000
453.921; 3058.450;  247.675;    0.000
453.967; 3035.450;  249.675;    0.000
454.012; 3058.450;  274.675;    0.000
454.058; 3090.450;  249.675;    0.000
454.104; 3106.450;  272.675;    0.000
454.149; 2996.450;  277.675;    0.000
454.195; 2852.450;  256.675;    0.000
454.240; 3078.450;  263.675;    0.000
454.286; 3026.450;  276.675;    0.000
454.332; 3098.450;  290.675;    0.000
454.377; 3005.450;  274.675;    0.000
454.423; 2979.450;  282.675;    0.000
454.468; 3054.450;  275.675;    0.000
454.514; 2980.450;  270.675;    0.000
454.559; 2950.450;  249.675;    0.000
454.605; 3037.450;  241.675;    0.000
454.650; 3034.450;  269.675;    0.000
454.696; 2944.450;  253.675;    0.000
454.741; 3025.450;  279.675;    0.000
454.787; 3014.450;  252.675;    0.000
454.832; 2937.450;  246.675;    0.000
454.878; 2938.450;  264.675;    0.000
454.923; 3069.450;  268.675;    0.000
454.969; 3029.450;  253.675;    0.000
455.014; 2968.450;  264.675;    0.000
455.060; 3025.450;  265.675;    0.000
455.105; 3008.450;  270.675;    0.000
455.150; 3019.450;  284.675;    0.000
455.196; 2979.450;  278.675;    0.000
455.241; 2933.450;  248.675;    0.000
455.286; 3039.450;  274.675;    0.000
455.332; 2955.450;  269.675;    0.000
455.377; 2930.450;  218.675;    0.000
455.422; 2956.450;  261.675;    0.000
455.468; 3013.450;  278.675;    0.000
455.513; 2896.450;  235.675;    0.000
455.558; 2920.450;  232.675;    0.000
455.604; 2946.450;  285.675;    0.000
455.649; 2939.450;  264.675;    0.000
455.694; 2883.450;  235.675;    0.000
455.739; 2957.450;  265.675;    0.000
455.785; 2961.450;  266.675;    0.000
455.830; 2940.450;  272.675;    0.000
455.875; 2942.450;  256.675;    0.000
455.920; 2902.450;  191.675;    0.000
455.965; 2929.450;  280.675;    0.000
456.010; 2927.450;  267.675;    0.000
456.056; 2877.450;  270.675;    0.000
456.101; 2904.450;  248.675;    0.000
456.146; 2914.450;  287.675;    0.000
456.191; 2923.450;  280.675;    0.000
456.236; 2960.450;  229.675;    0.000
456.281; 2893.450;  241.675;    0.000
456.326; 2977.450;  248.675;    0.000
456.371; 2794.450;  233.675;    0.000
456.416; 2962.450;  284.675;    0.000
456.461; 2947.450;  256.675;    0.000
456.507; 2931.450;  250.675;    0.000
456.552; 3001.450;  290.675;    0.000
456.597; 2886.450;  260.675;    0.000
456.642; 2982.450;  252.675;    0.000
456.687; 2878.450;  272.675;    0.000
456.732; 2918.450;  303.675;    0.000
456.776; 2907.450;  269.675;    0.000
456.821; 3018.450;  256.675;    0.000
456.866; 2966.450;  278.675;    0.000
456.911; 2934.450;  230.675;    0.000
456.956; 3080.450;  275.675;    0.000
457.001; 2916.450;  248.675;    0.000
457.046; 2942.450;  222.675;    0.000
457.091; 2880.450;  251.675;    0.000
457.136; 2920.450;  231.675;    0.000
457.181; 3011.450;  245.675;    0.000
457.225; 2937.450;  262.675;    0.000
457.270; 2918.450;  277.675;    0.000
457.315; 2991.450;  235.675;    0.000
457.360; 2839.450;  231.675;    0.000
457.405; 2858.450;  214.675;    0.000
457.450; 2955.450;  255.675;    0.000
457.494; 2876.450;  220.675;    0.000
457.539; 2938.450;  257.675;    0.000
457.584; 2820.450;  279.675;    0.000
457.629; 2856.450;  249.675;    0.000
457.673; 3002.450;  237.675;    0.000
457.718; 2965.450;  232.675;    0.000
457.763; 2948.450;  278.675;    0.000
457.807; 2937.450;  279.675;    0.000
457.852; 2981.450;  246.675;    0.000
457.897; 2892.450;  284.675;    0.000
457.941; 3011.450;  272.675;    0.000
457.986; 2931.450;  285.675;    0.000
458.031; 2933.450;  235.675;    0.000
458.075; 3009.450;  299.675;    0.000
458.120; 2929.450;  284.675;    0.000
458.165; 2948.450;  212.675;    0.000
458.209; 2952.450;  254.675;    0.000
458.254; 2943.450;  257.675;    0.000
458.298; 2957.450;  265.675;    0.000
458.343; 3087.450;  278.675;    0.000
458.387; 3057.450;  316.675;    0.000
458.432; 3009.450;  279.675;    0.000
458.476; 3030.450;  272.675;    0.000
458.521; 2981.450;  240.675;    0.000
458.565; 3090.450;  307.675;    0.000
458.610; 3037.450;  246.675;    0.000
458.654; 3009.450;  275.675;    0.000
458.699; 3068.450;  288.675;    0.000
458.743; 3037.450;  244.675;    0.000
458.788; 3138.450;  245.675;    0.000
458.832; 3037.450;  277.675;    0.000
458.877; 3109.450;  285.675;    0.000
458.921; 3059.450;  216.675;    0.000
458.965; 3003.450;  260.675;    0.000
459.010; 3104.450;  284.675;    0.000
459.054; 3103.450;  272.675;    0.000
459.099; 3087.450;  262.675;    0.000
459.143; 3080.450;  276.675;    0.000
459.187; 3060.450;  258.675;    0.000
459.231; 3091.450;  278.675;    0.000
459.276; 3056.450;  262.675;    0.000
459.320; 3138.450;  291.675;    0.000
459.364; 3119.450;  294.675;    0.000
459.409; 3205.450;  269.675;    0.000
459.453; 3144.450;  257.675;    0.000
459.497; 3201.450;  283.675;    0.000
459.541; 3142.450;  275.675;    0.000
459.586; 3150.450;  261.675;    0.000
459.630; 3073.450;  284.675;    0.000
459.674; 3155.450;  244.675;    0.000
459.718; 3141.450;  309.675;    0.000
459.762; 3226.450;  281.675;    0.000
459.807; 3228.450;  250.675;    0.000
459.851; 3213.450;  286.675;    0.000
459.895; 3220.450;  230.675;    0.000
459.939; 3219.450;  262.675;    0.000
459.983; 3116.450;  250.675;    0.000
460.027; 3149.450;  275.675;    0.000
460.071; 3217.450;  301.675;    0.000
460.115; 3197.450;  279.675;    0.000
460.159; 3206.450;  301.675;    0.000
460.204; 3305.450;  287.675;    0.000
460.248; 3261.450;  293.675;    0.000
460.292; 3231.450;  310.675;    0.000
460.336; 3237.450;  263.675;    0.000
460.380; 3312.450;  268.675;    0.000
460.424; 3155.450;  281.675;    0.000
460.468; 3135.450;  310.675;    0.000
460.512; 3230.450;  273.675;    0.000
460.556; 3303.450;  291.675;    0.000
460.599; 3141.450;  240.675;    0.000
460.643; 3228.450;  260.675;    0.000
460.687; 3302.450;  283.675;    0.000
460.731; 3162.450;  254.675;    0.000
460.775; 3214.450;  265.675;    0.000
460.819; 3349.450;  280.675;    0.000
460.863; 3327.450;  316.675;    0.000
460.907; 3230.450;  231.675;    0.000
460.951; 3204.450;  275.675;    0.000
460.995; 3184.450;  290.675;    0.000
461.038; 3259.450;  284.675;    0.000
461.082; 3308.450;  278.675;    0.000
461.126; 3402.450;  321.675;    0.000
461.170; 3293.450;  273.675;    0.000
461.214; 3177.450;  289.675;    0.000
461.257; 3320.450;  296.675;    0.000
461.301; 3237.450;  287.675;    0.000
461.345; 3240.450;  290.675;    0.000
461.389; 3269.450;  260.675;    0.000
461.432; 3219.450;  262.675;    0.000
461.476; 3263.450;  254.675;    0.000
461.520; 3201.450;  305.675;    0.000
461.563; 3323.450;  289.675;    0.000
461.607; 3295.450;  286.675;    0.000
461.651; 3248.450;  271.675;    0.000
461.694; 3230.450;  245.675;    0.000
461.738; 3399.450;  278.675;    0.000
461.782; 3298.450;  284.675;    0.000
461.825; 3336.450;  305.675;    0.000
461.869; 3325.450;  293.675;    0.000
461.913; 3352.450;  280.675;    0.000
461.956; 3290.450;  237.675;    0.000
462.000; 3360.450;  288.675;    0.000
462.043; 3369.450;  282.675;    0.000
462.087; 3371.450;  268.675;    0.000
462.130; 3295.450;  286.675;    0.000
462.174; 3440.450;  312.675;    0.000
462.217; 3367.450;  270.675;    0.000
462.261; 3377.450;  281.675;    0.000
462.304; 3364.450;  248.675;    0.000
462.348; 3476.450;  267.675;    0.000
462.391; 3379.450;  270.675;    0.000
462.435; 3370.450;  287.675;    0.000
462.478; 3413.450;  290.675;    0.000
462.522; 3337.450;  296.675;    0.000
462.565; 3445.450;  275.675;    0.000
462.608; 3404.450;  325.675;    0.000
462.652; 3440.450;  303.675;    0.000
462.695; 3509.450;  355.675;    0.000
462.739; 3543.450;  272.675;    0.000
462.782; 3419.450;  295.675;    0.000
462.825; 3459.450;  300.675;    0.000
462.869; 3559.450;  319.675;    0.000
462.912; 3599.450;  363.675;    0.000
462.955; 3592.450;  298.675;    0.000
462.998; 3488.450;  321.675;    0.000
463.042; 3484.450;  310.675;    0.000
463.085; 3578.450;  305.675;    0.000
463.128; 3600.450;  345.675;    0.000
463.172; 3429.450;  341.675;    0.000
463.215;  371.450;  300.675;    0.000
463.258;  325.450;  287.675;    0.000
463.301;  270.450;  290.675;    0.000
463.344;  307.450;  320.675;    0.000
463.388;  303.450;  340.675;    0.000
463.431;  328.450;  278.675;    0.000
463.474;  335.450;  353.675;    0.000
463.517;  286.450;  295.675;    0.000
463.560;  348.450;  328.675;    0.000
463.603;  320.450;  316.675;    0.000
463.646;  353.450;  295.675;    0.000
463.690;  326.450;  334.675;    0.000
463.733;  314.450;  343.675;    0.000
463.776;  311.450;  300.675;    0.000
463.819;  317.450;  368.675;    0.000
463.862;  281.450;  327.675;    0.000

