
Integration time [ms]:   1.000
Averaging Nr. [scans]: 1
Smoothing Nr. [pixels]: 0
Data measured with spectrometer [name]: UV1
Wave   ;Sample   ;Dark     ;Reference
[nm]   ;[counts] ;[counts] ;[counts] 

236.381;  155.850;  175.825;    0.000
236.451;  178.850;  220.825;    0.000
236.520;  159.850;  178.825;    0.000
236.590;  195.850;  182.825;    0.000
236.660;  186.850;  180.825;    0.000
236.730;  178.850;  201.825;    0.000
236.799;  185.850;  168.825;    0.000
236.869;  176.850;  205.825;    0.000
236.939;  172.850;  175.825;    0.000
237.009;  153.850;  186.825;    0.000
237.078;  169.850;  200.825;    0.000
237.148;  155.850;  156.825;    0.000
237.218;  204.850;  190.825;    0.000
237.287;  186.850;  167.825;    0.000
237.357;  207.850;  213.825;    0.000
237.427;  207.850;  164.825;    0.000
237.496; 1370.850;  210.825;    0.000
237.566; 1384.850;  193.825;    0.000
237.636; 1313.850;  179.825;    0.000
237.705; 1368.850;  218.825;    0.000
237.775; 1332.850;  160.825;    0.000
237.845; 1387.850;  207.825;    0.000
237.914; 1350.850;  180.825;    0.000
237.984; 1407.850;  207.825;    0.000
238.054; 1356.850;  149.825;    0.000
238.123; 1416.850;  190.825;    0.000
238.193; 1384.850;  167.825;    0.000
238.263; 1373.850;  172.825;    0.000
238.332; 1322.850;  173.825;    0.000
238.402; 1358.850;  214.825;    0.000
238.471; 1366.850;  181.825;    0.000
238.541; 1396.850;  177.825;    0.000
238.611; 1349.850;  138.825;    0.000
238.680; 1307.850;  168.825;    0.000
238.750; 1289.850;  171.825;    0.000
238.819; 1411.850;  156.825;    0.000
238.889; 1344.850;  194.825;    0.000
238.958; 1327.850;  185.825;    0.000
239.028; 1348.850;  170.825;    0.000
239.097; 1315.850;  159.825;    0.000
239.167; 1274.850;  208.825;    0.000
239.237; 1374.850;  167.825;    0.000
239.306; 1332.850;  154.825;    0.000
239.376; 1386.850;  183.825;    0.000
239.445; 1314.850;  221.825;    0.000
239.515; 1347.850;  208.825;    0.000
239.584; 1287.850;  177.825;    0.000
239.654; 1334.850;  133.825;    0.000
239.723; 1351.850;  167.825;    0.000
239.793; 1401.850;  190.825;    0.000
239.862; 1338.850;  192.825;    0.000
239.932; 1354.850;  174.825;    0.000
240.001; 1323.850;  166.825;    0.000
240.070; 1270.850;  179.825;    0.000
240.140; 1359.850;  191.825;    0.000
240.209; 1301.850;  134.825;    0.000
240.279; 1257.850;  185.825;    0.000
240.348; 1386.850;  193.825;    0.000
240.418; 1383.850;  149.825;    0.000
240.487; 1302.850;  197.825;    0.000
240.556; 1383.850;  193.825;    0.000
240.626; 1307.850;  178.825;    0.000
240.695; 1301.850;  194.825;    0.000
240.765; 1318.850;  178.825;    0.000
240.834; 1271.850;  190.825;    0.000
240.903; 1320.850;  212.825;    0.000
240.973; 1312.850;  153.825;    0.000
241.042; 1283.850;  177.825;    0.000
241.112; 1273.850;  193.825;    0.000
241.181; 1308.850;  171.825;    0.000
241.250; 1276.850;  152.825;    0.000
241.320; 1314.850;  176.825;    0.000
241.389; 1300.850;  186.825;    0.000
241.458; 1361.850;  182.825;    0.000
241.528; 1302.850;  175.825;    0.000
241.597; 1276.850;  180.825;    0.000
241.666; 1273.850;  162.825;    0.000
241.736; 1290.850;  187.825;    0.000
241.805; 1239.850;  173.825;    0.000
241.874; 1285.850;  177.825;    0.000
241.943; 1298.850;  208.825;    0.000
242.013; 1319.850;  183.825;    0.000
242.082; 1233.850;  171.825;    0.000
242.151; 1284.850;  208.825;    0.000
242.221; 1235.850;  160.825;    0.000
242.290; 1257.850;  200.825;    0.000
242.359; 1244.850;  167.825;    0.000
242.428; 1345.850;  213.825;    0.000
242.498; 1254.850;  156.825;    0.000
242.567; 1328.850;  200.825;    0.000
242.636; 1197.850;  178.825;    0.000
242.705; 1156.850;  185.825;    0.000
242.774; 1167.850;  190.825;    0.000
242.844; 1243.850;  194.825;    0.000
242.913; 1272.850;  162.825;    0.000
242.982; 1261.850;  189.825;    0.000
243.051; 1260.850;  176.825;    0.000
243.120; 1276.850;  213.825;    0.000
243.190; 1304.850;  155.825;    0.000
243.259; 1284.850;  183.825;    0.000
243.328; 1243.850;  170.825;    0.000
243.397; 1244.850;  224.825;    0.000
243.466; 1228.850;  172.825;    0.000
243.535; 1272.850;  145.825;    0.000
243.605; 1252.850;  157.825;    0.000
243.674; 1262.850;  199.825;    0.000
243.743; 1256.850;  196.825;    0.000
243.812; 1208.850;  152.825;    0.000
243.881; 1228.850;  188.825;    0.000
243.950; 1222.850;  154.825;    0.000
244.019; 1247.850;  195.825;    0.000
244.088; 1216.850;  164.825;    0.000
244.158; 1248.850;  220.825;    0.000
244.227; 1246.850;  150.825;    0.000
244.296; 1151.850;  153.825;    0.000
244.365; 1182.850;  195.825;    0.000
244.434; 1176.850;  136.825;    0.000
244.503; 1206.850;  172.825;    0.000
244.572; 1227.850;  129.825;    0.000
244.641; 1204.850;  132.825;    0.000
244.710; 1269.850;  185.825;    0.000
244.779; 1248.850;  164.825;    0.000
244.848; 1183.850;  132.825;    0.000
244.917; 1252.850;  196.825;    0.000
244.986; 1192.850;  148.825;    0.000
245.055; 1179.850;  192.825;    0.000
245.124; 1208.850;  170.825;    0.000
245.193; 1174.850;  172.825;    0.000
245.262; 1140.850;  146.825;    0.000
245.331; 1208.850;  178.825;    0.000
245.400; 1090.850;  108.825;    0.000
245.469; 1186.850;  173.825;    0.000
245.538; 1119.850;  180.825;    0.000
245.607; 1140.850;  171.825;    0.000
245.676; 1118.850;  149.825;    0.000
245.745; 1149.850;  194.825;    0.000
245.814; 1087.850;  186.825;    0.000
245.883; 1086.850;  192.825;    0.000
245.952; 1106.850;  169.825;    0.000
246.021; 1077.850;  190.825;    0.000
246.090; 1097.850;  181.825;    0.000
246.159; 1092.850;  179.825;    0.000
246.227; 1039.850;  182.825;    0.000
246.296; 1027.850;  182.825;    0.000
246.365; 1103.850;  171.825;    0.000
246.434; 1097.850;  218.825;    0.000
246.503; 1092.850;  147.825;    0.000
246.572; 1108.850;  227.825;    0.000
246.641; 1052.850;  193.825;    0.000
246.710; 1122.850;  207.825;    0.000
246.779; 1087.850;  181.825;    0.000
246.847; 1072.850;  179.825;    0.000
246.916; 1088.850;  155.825;    0.000
246.985; 1034.850;  168.825;    0.000
247.054; 1095.850;  137.825;    0.000
247.123; 1022.850;  128.825;    0.000
247.192; 1024.850;  163.825;    0.000
247.260; 1010.850;  173.825;    0.000
247.329; 1067.850;  174.825;    0.000
247.398; 1036.850;  238.825;    0.000
247.467; 1007.850;  168.825;    0.000
247.536; 1058.850;  203.825;    0.000
247.604; 1071.850;  194.825;    0.000
247.673; 1030.850;  145.825;    0.000
247.742; 1014.850;  167.825;    0.000
247.811; 1050.850;  180.825;    0.000
247.879; 1055.850;  187.825;    0.000
247.948; 1090.850;  187.825;    0.000
248.017; 1011.850;  170.825;    0.000
248.086; 1083.850;  223.825;    0.000
248.154;  973.850;  160.825;    0.000
248.223; 1038.850;  163.825;    0.000
248.292; 1035.850;  201.825;    0.000
248.361; 1020.850;  205.825;    0.000
248.429; 1070.850;  191.825;    0.000
248.498; 1041.850;  194.825;    0.000
248.567; 1055.850;  217.825;    0.000
248.635; 1014.850;  224.825;    0.000
248.704; 1010.850;  204.825;    0.000
248.773; 1021.850;  175.825;    0.000
248.841; 1025.850;  157.825;    0.000
248.910; 1064.850;  206.825;    0.000
248.979; 1029.850;  170.825;    0.000
249.047;  981.850;  178.825;    0.000
249.116;  983.850;  183.825;    0.000
249.185; 1053.850;  202.825;    0.000
249.253; 1016.850;  159.825;    0.000
249.322;  989.850;  177.825;    0.000
249.390; 1001.850;  157.825;    0.000
249.459; 1012.850;  211.825;    0.000
249.528;  985.850;  181.825;    0.000
249.596; 1012.850;  179.825;    0.000
249.665; 1023.850;  176.825;    0.000
249.733;  989.850;  186.825;    0.000
249.802;  928.850;  185.825;    0.000
249.871;  985.850;  166.825;    0.000
249.939; 1024.850;  163.825;    0.000
250.008; 1074.850;  212.825;    0.000
250.076;  967.850;  227.825;    0.000
250.145;  976.850;  172.825;    0.000
250.213;  955.850;  173.825;    0.000
250.282;  998.850;  189.825;    0.000
250.350;  939.850;  166.825;    0.000
250.419; 1050.850;  161.825;    0.000
250.487;  988.850;  178.825;    0.000
250.556;  992.850;  208.825;    0.000
250.624;  967.850;  190.825;    0.000
250.693;  940.850;  163.825;    0.000
250.761;  933.850;  194.825;    0.000
250.830; 1066.850;  225.825;    0.000
250.898;  968.850;  140.825;    0.000
250.967;  880.850;  167.825;    0.000
251.035;  892.850;  155.825;    0.000
251.104;  981.850;  189.825;    0.000
251.172; 1003.850;  136.825;    0.000
251.241;  932.850;  148.825;    0.000
251.309;  968.850;  201.825;    0.000
251.378;  966.850;  169.825;    0.000
251.446;  917.850;  178.825;    0.000
251.514;  926.850;  206.825;    0.000
251.583; 1002.850;  178.825;    0.000
251.651;  924.850;  168.825;    0.000
251.720;  913.850;  190.825;    0.000
251.788; 1001.850;  209.825;    0.000
251.856;  883.850;  173.825;    0.000
251.925;  909.850;  171.825;    0.000
251.993;  922.850;  188.825;    0.000
252.062; 1003.850;  169.825;    0.000
252.130;  913.850;  196.825;    0.000
252.198;  956.850;  210.825;    0.000
252.267;  865.850;  181.825;    0.000
252.335;  953.850;  164.825;    0.000
252.403;  876.850;  152.825;    0.000
252.472;  861.850;  166.825;    0.000
252.540;  874.850;  189.825;    0.000
252.608;  941.850;  198.825;    0.000
252.677;  887.850;  156.825;    0.000
252.745;  908.850;  184.825;    0.000
252.813;  921.850;  163.825;    0.000
252.881;  813.850;  130.825;    0.000
252.950;  861.850;  189.825;    0.000
253.018;  874.850;  164.825;    0.000
253.086;  824.850;  172.825;    0.000
253.155;  821.850;  205.825;    0.000
253.223;  735.850;  175.825;    0.000
253.291;  791.850;  176.825;    0.000
253.359;  807.850;  182.825;    0.000
253.428;  836.850;  222.825;    0.000
253.496;  715.850;  166.825;    0.000
253.564;  740.850;  135.825;    0.000
253.632;  764.850;  184.825;    0.000
253.700;  762.850;  173.825;    0.000
253.769;  714.850;  163.825;    0.000
253.837;  748.850;  179.825;    0.000
253.905;  708.850;  157.825;    0.000
253.973;  752.850;  164.825;    0.000
254.041;  775.850;  170.825;    0.000
254.110;  685.850;  169.825;    0.000
254.178;  778.850;  165.825;    0.000
254.246;  750.850;  126.825;    0.000
254.314;  700.850;  166.825;    0.000
254.382;  822.850;  169.825;    0.000
254.450;  733.850;  170.825;    0.000
254.518;  715.850;  196.825;    0.000
254.587;  745.850;  161.825;    0.000
254.655;  772.850;  187.825;    0.000
254.723;  733.850;  144.825;    0.000
254.791;  739.850;  175.825;    0.000
254.859;  742.850;  168.825;    0.000
254.927;  747.850;  198.825;    0.000
254.995;  772.850;  165.825;    0.000
255.063;  755.850;  150.825;    0.000
255.131;  760.850;  181.825;    0.000
255.199;  709.850;  160.825;    0.000
255.267;  666.850;  131.825;    0.000
255.336;  768.850;  188.825;    0.000
255.404;  714.850;  163.825;    0.000
255.472;  770.850;  192.825;    0.000
255.540;  759.850;  158.825;    0.000
255.608;  737.850;  147.825;    0.000
255.676;  754.850;  166.825;    0.000
255.744;  773.850;  159.825;    0.000
255.812;  769.850;  164.825;    0.000
255.880;  788.850;  195.825;    0.000
255.948;  819.850;  167.825;    0.000
256.016;  831.850;  185.825;    0.000
256.084;  835.850;  191.825;    0.000
256.152;  753.850;  214.825;    0.000
256.220;  806.850;  195.825;    0.000
256.288;  822.850;  185.825;    0.000
256.356;  818.850;  168.825;    0.000
256.424;  762.850;  161.825;    0.000
256.491;  855.850;  161.825;    0.000
256.559;  841.850;  157.825;    0.000
256.627;  899.850;  164.825;    0.000
256.695;  825.850;  146.825;    0.000
256.763;  853.850;  194.825;    0.000
256.831;  904.850;  182.825;    0.000
256.899;  867.850;  192.825;    0.000
256.967;  840.850;  172.825;    0.000
257.035;  891.850;  169.825;    0.000
257.103;  991.850;  223.825;    0.000
257.171;  948.850;  141.825;    0.000
257.238;  894.850;  146.825;    0.000
257.306;  952.850;  180.825;    0.000
257.374;  930.850;  138.825;    0.000
257.442;  942.850;  135.825;    0.000
257.510;  994.850;  130.825;    0.000
257.578; 1071.850;  123.825;    0.000
257.646; 1066.850;  162.825;    0.000
257.713;  977.850;  149.825;    0.000
257.781; 1001.850;  125.825;    0.000
257.849; 1063.850;  149.825;    0.000
257.917; 1032.850;  177.825;    0.000
257.985; 1013.850;  143.825;    0.000
258.052; 1107.850;  154.825;    0.000
258.120; 1093.850;  162.825;    0.000
258.188; 1110.850;  172.825;    0.000
258.256; 1064.850;  160.825;    0.000
258.324; 1151.850;  209.825;    0.000
258.391; 1106.850;  153.825;    0.000
258.459; 1141.850;  133.825;    0.000
258.527; 1115.850;  160.825;    0.000
258.595; 1168.850;  128.825;    0.000
258.662; 1148.850;  114.825;    0.000
258.730; 1169.850;  192.825;    0.000
258.798; 1199.850;  144.825;    0.000
258.865; 1186.850;  140.825;    0.000
258.933; 1192.850;  150.825;    0.000
259.001; 1246.850;  149.825;    0.000
259.069; 1245.850;  110.825;    0.000
259.136; 1300.850;  150.825;    0.000
259.204; 1355.850;  156.825;    0.000
259.272; 1334.850;  185.825;    0.000
259.339; 1365.850;  148.825;    0.000
259.407; 1385.850;  163.825;    0.000
259.475; 1260.850;  129.825;    0.000
259.542; 1408.850;  144.825;    0.000
259.610; 1381.850;  164.825;    0.000
259.677; 1471.850;  188.825;    0.000
259.745; 1427.850;  113.825;    0.000
259.813; 1514.850;  188.825;    0.000
259.880; 1640.850;  174.825;    0.000
259.948; 1621.850;  166.825;    0.000
260.016; 1520.850;  150.825;    0.000
260.083; 1546.850;  178.825;    0.000
260.151; 1477.850;  120.825;    0.000
260.218; 1470.850;  175.825;    0.000
260.286; 1431.850;  155.825;    0.000
260.353; 1602.850;  165.825;    0.000
260.421; 1545.850;  169.825;    0.000
260.489; 1637.850;  194.825;    0.000
260.556; 1667.850;  161.825;    0.000
260.624; 1612.850;  179.825;    0.000
260.691; 1689.850;  174.825;    0.000
260.759; 1679.850;  164.825;    0.000
260.826; 1633.850;  125.825;    0.000
260.894; 1618.850;  164.825;    0.000
260.961; 1734.850;  147.825;    0.000
261.029; 1689.850;  167.825;    0.000
261.096; 1832.850;  136.825;    0.000
261.164; 1851.850;  146.825;    0.000
261.231; 1879.850;  190.825;    0.000
261.299; 1855.850;  171.825;    0.000
261.366; 1787.850;  165.825;    0.000
261.434; 1810.850;  160.825;    0.000
261.501; 1850.850;  149.825;    0.000
261.568; 1858.850;  155.825;    0.000
261.636; 1952.850;  137.825;    0.000
261.703; 1894.850;  186.825;    0.000
261.771; 1957.850;  162.825;    0.000
261.838; 2011.850;  190.825;    0.000
261.906; 1915.850;  133.825;    0.000
261.973; 1978.850;  202.825;    0.000
262.040; 1973.850;  179.825;    0.000
262.108; 2001.850;  161.825;    0.000
262.175; 2020.850;  155.825;    0.000
262.243; 2104.850;  158.825;    0.000
262.310; 2057.850;  129.825;    0.000
262.377; 2103.850;  157.825;    0.000
262.445; 2117.850;  132.825;    0.000
262.512; 2100.850;  161.825;    0.000
262.579; 2138.850;  151.825;    0.000
262.647; 2165.850;  174.825;    0.000
262.714; 2198.850;  174.825;    0.000
262.781; 2199.850;  164.825;    0.000
262.849; 2104.850;  168.825;    0.000
262.916; 2285.850;  153.825;    0.000
262.983; 2281.850;  201.825;    0.000
263.051; 2353.850;  117.825;    0.000
263.118; 2326.850;  150.825;    0.000
263.185; 2288.850;  172.825;    0.000
263.252; 2279.850;  154.825;    0.000
263.320; 2327.850;  152.825;    0.000
263.387; 2257.850;  136.825;    0.000
263.454; 2243.850;  167.825;    0.000
263.522; 2342.850;  122.825;    0.000
263.589; 2450.850;  147.825;    0.000
263.656; 2370.850;  130.825;    0.000
263.723; 2441.850;  182.825;    0.000
263.790; 2364.850;  163.825;    0.000
263.858; 2463.850;  161.825;    0.000
263.925; 2493.850;  153.825;    0.000
263.992; 2493.850;  139.825;    0.000
264.059; 2477.850;  141.825;    0.000
264.126; 2464.850;  153.825;    0.000
264.194; 2514.850;  144.825;    0.000
264.261; 2593.850;  188.825;    0.000
264.328; 2545.850;  161.825;    0.000
264.395; 2531.850;  184.825;    0.000
264.462; 2574.850;  162.825;    0.000
264.529; 2645.850;  178.825;    0.000
264.597; 2543.850;  160.825;    0.000
264.664; 2633.850;  158.825;    0.000
264.731; 2674.850;  176.825;    0.000
264.798; 2561.850;  137.825;    0.000
264.865; 2625.850;  175.825;    0.000
264.932; 2612.850;  162.825;    0.000
264.999; 2657.850;  153.825;    0.000
265.066; 2611.850;  168.825;    0.000
265.133; 2749.850;  142.825;    0.000
265.201; 2755.850;  163.825;    0.000
265.268; 2750.850;  143.825;    0.000
265.335; 2745.850;  156.825;    0.000
265.402; 2732.850;  136.825;    0.000
265.469; 2765.850;  127.825;    0.000
265.536; 2802.850;  159.825;    0.000
265.603; 2893.850;  191.825;    0.000
265.670; 2747.850;  136.825;    0.000
265.737; 2884.850;  186.825;    0.000
265.804; 2737.850;  147.825;    0.000
265.871; 2837.850;  147.825;    0.000
265.938; 2831.850;  153.825;    0.000
266.005; 2912.850;  172.825;    0.000
266.072; 2892.850;  151.825;    0.000
266.139; 2959.850;  175.825;    0.000
266.206; 2995.850;  165.825;    0.000
266.273; 2998.850;  162.825;    0.000
266.340; 2944.850;  150.825;    0.000
266.407; 2982.850;  169.825;    0.000
266.474; 2856.850;  151.825;    0.000
266.541; 2894.850;  164.825;    0.000
266.608; 3029.850;  111.825;    0.000
266.675; 3030.850;  173.825;    0.000
266.742; 2981.850;  148.825;    0.000
266.808; 3092.850;  185.825;    0.000
266.875; 3015.850;  188.825;    0.000
266.942; 3063.850;  131.825;    0.000
267.009; 3127.850;  184.825;    0.000
267.076; 3037.850;  200.825;    0.000
267.143; 3118.850;  216.825;    0.000
267.210; 3174.850;  138.825;    0.000
267.277; 3100.850;  143.825;    0.000
267.344; 3046.850;  172.825;    0.000
267.410; 3083.850;  172.825;    0.000
267.477; 3197.850;  160.825;    0.000
267.544; 3181.850;  175.825;    0.000
267.611; 3180.850;  189.825;    0.000
267.678; 3195.850;  162.825;    0.000
267.745; 3090.850;  206.825;    0.000
267.811; 3099.850;  146.825;    0.000
267.878; 3157.850;  147.825;    0.000
267.945; 3102.850;  170.825;    0.000
268.012; 3050.850;  153.825;    0.000
268.079; 3167.850;  185.825;    0.000
268.145; 3162.850;  197.825;    0.000
268.212; 3247.850;  167.825;    0.000
268.279; 3097.850;  145.825;    0.000
268.346; 3205.850;  182.825;    0.000
268.412; 3194.850;  144.825;    0.000
268.479; 3147.850;  186.825;    0.000
268.546; 3194.850;  147.825;    0.000
268.613; 3257.850;  188.825;    0.000
268.679; 3209.850;  173.825;    0.000
268.746; 3173.850;  204.825;    0.000
268.813; 3224.850;  199.825;    0.000
268.879; 3213.850;  157.825;    0.000
268.946; 3145.850;  192.825;    0.000
269.013; 3195.850;  136.825;    0.000
269.079; 3187.850;  166.825;    0.000
269.146; 3182.850;  129.825;    0.000
269.213; 3203.850;  178.825;    0.000
269.280; 3203.850;  148.825;    0.000
269.346; 3190.850;  194.825;    0.000
269.413; 3172.850;  135.825;    0.000
269.479; 3165.850;  180.825;    0.000
269.546; 3242.850;  169.825;    0.000
269.613; 3184.850;  160.825;    0.000
269.679; 3233.850;  161.825;    0.000
269.746; 3178.850;  143.825;    0.000
269.813; 3207.850;  172.825;    0.000
269.879; 3149.850;  152.825;    0.000
269.946; 3214.850;  156.825;    0.000
270.012; 3139.850;  190.825;    0.000
270.079; 3079.850;  143.825;    0.000
270.145; 3198.850;  148.825;    0.000
270.212; 3199.850;  176.825;    0.000
270.279; 3277.850;  168.825;    0.000
270.345; 3144.850;  143.825;    0.000
270.412; 3084.850;  155.825;    0.000
270.478; 3175.850;  176.825;    0.000
270.545; 3238.850;  112.825;    0.000
270.611; 3063.850;  186.825;    0.000
270.678; 3020.850;  141.825;    0.000
270.744; 3096.850;  145.825;    0.000
270.811; 3200.850;  120.825;    0.000
270.877; 3063.850;  118.825;    0.000
270.944; 3214.850;  135.825;    0.000
271.010; 3080.850;  128.825;    0.000
271.077; 3072.850;  176.825;    0.000
271.143; 3120.850;  162.825;    0.000
271.210; 3172.850;  133.825;    0.000
271.276; 3079.850;  107.825;    0.000
271.342; 3060.850;  202.825;    0.000
271.409; 3212.850;  160.825;    0.000
271.475; 3112.850;  165.825;    0.000
271.542; 3022.850;  152.825;    0.000
271.608; 3172.850;  163.825;    0.000
271.675; 3080.850;  149.825;    0.000
271.741; 3270.850;  164.825;    0.000
271.807; 3082.850;  128.825;    0.000
271.874; 3159.850;  148.825;    0.000
271.940; 3170.850;  179.825;    0.000
272.007; 3126.850;  148.825;    0.000
272.073; 3103.850;  146.825;    0.000
272.139; 3155.850;  166.825;    0.000
272.206; 3230.850;  198.825;    0.000
272.272; 3115.850;  201.825;    0.000
272.338; 3299.850;  208.825;    0.000
272.405; 3054.850;  181.825;    0.000
272.471; 3156.850;  167.825;    0.000
272.537; 3159.850;  189.825;    0.000
272.604; 3146.850;  162.825;    0.000
272.670; 3128.850;  194.825;    0.000
272.736; 3155.850;  176.825;    0.000
272.802; 3228.850;  163.825;    0.000
272.869; 3188.850;  170.825;    0.000
272.935; 3159.850;  145.825;    0.000
273.001; 3198.850;  149.825;    0.000
273.068; 3180.850;  172.825;    0.000
273.134; 3172.850;  155.825;    0.000
273.200; 3224.850;  183.825;    0.000
273.266; 3194.850;  160.825;    0.000
273.333; 3187.850;  190.825;    0.000
273.399; 3180.850;  132.825;    0.000
273.465; 3316.850;  179.825;    0.000
273.531; 3260.850;  161.825;    0.000
273.597; 3293.850;  194.825;    0.000
273.664; 3352.850;  193.825;    0.000
273.730; 3268.850;  180.825;    0.000
273.796; 3360.850;  145.825;    0.000
273.862; 3416.850;  176.825;    0.000
273.928; 3471.850;  169.825;    0.000
273.995; 3340.850;  202.825;    0.000
274.061; 3380.850;  176.825;    0.000
274.127; 3376.850;  178.825;    0.000
274.193; 3316.850;  106.825;    0.000
274.259; 3478.850;  186.825;    0.000
274.325; 3384.850;  163.825;    0.000
274.391; 3412.850;  162.825;    0.000
274.457; 3522.850;  145.825;    0.000
274.524; 3476.850;  189.825;    0.000
274.590; 3515.850;  161.825;    0.000
274.656; 3634.850;  157.825;    0.000
274.722; 3562.850;  143.825;    0.000
274.788; 3627.850;  166.825;    0.000
274.854; 3748.850;  200.825;    0.000
274.920; 3722.850;  132.825;    0.000
274.986; 3735.850;  184.825;    0.000
275.052; 3597.850;  169.825;    0.000
275.118; 3612.850;  153.825;    0.000
275.184; 3748.850;  182.825;    0.000
275.250; 3745.850;  124.825;    0.000
275.316; 3780.850;  154.825;    0.000
275.382; 3811.850;  150.825;    0.000
275.448; 3780.850;  180.825;    0.000
275.514; 3916.850;  143.825;    0.000
275.580; 4063.850;  120.825;    0.000
275.646; 3968.850;  127.825;    0.000
275.712; 4038.850;  109.825;    0.000
275.778; 3908.850;  126.825;    0.000
275.844; 3988.850;  155.825;    0.000
275.910; 4120.850;  164.825;    0.000
275.976; 4232.850;  161.825;    0.000
276.042; 4191.850;  152.825;    0.000
276.108; 4340.850;  159.825;    0.000
276.174; 4402.850;  149.825;    0.000
276.240; 4328.850;  112.825;    0.000
276.306; 4366.850;  142.825;    0.000
276.372; 4520.850;  136.825;    0.000
276.437; 4476.850;  141.825;    0.000
276.503; 4553.850;  150.825;    0.000
276.569; 4834.850;  178.825;    0.000
276.635; 4779.850;  117.825;    0.000
276.701; 4896.850;  174.825;    0.000
276.767; 4828.850;  136.825;    0.000
276.833; 5127.850;  119.825;    0.000
276.899; 5077.850;  171.825;    0.000
276.964; 5184.850;  146.825;    0.000
277.030; 5356.850;  157.825;    0.000
277.096; 5540.850;  124.825;    0.000
277.162; 5630.850;  185.825;    0.000
277.228; 5795.850;  125.825;    0.000
277.293; 5976.850;  159.825;    0.000
277.359; 6242.850;  186.825;    0.000
277.425; 6536.850;  176.825;    0.000
277.491; 6819.850;  140.825;    0.000
277.557; 7800.850;  172.825;    0.000
277.622; 9830.850;  187.825;    0.000
277.688; 9651.850;  203.825;    0.000
277.754;10218.850;  170.825;    0.000
277.820;10970.850;  142.825;    0.000
277.885;12524.850;  182.825;    0.000
277.951;15375.850;  171.825;    0.000
278.017;13402.850;  173.825;    0.000
278.083;12343.850;  151.825;    0.000
278.148;11857.850;  159.825;    0.000
278.214;11926.850;  173.825;    0.000
278.280;12792.850;  137.825;    0.000
278.345;12101.850;  190.825;    0.000
278.411;11364.850;  149.825;    0.000
278.477;11811.850;  157.825;    0.000
278.542;12753.850;  136.825;    0.000
278.608;13546.850;  144.825;    0.000
278.674;15071.850;  215.825;    0.000
278.739;16296.850;  148.825;    0.000
278.805;17996.850;  152.825;    0.000
278.871;21063.850;  170.825;    0.000
278.936;26091.850;  180.825;    0.000
279.002;36474.852;  177.825;    0.000
279.067;45218.852;  172.825;    0.000
279.133;43332.852;  160.825;    0.000
279.199;40114.852;  165.825;    0.000
279.264;41116.852;  130.825;    0.000
279.330;46895.852;  154.825;    0.000
279.395;56977.852;  170.825;    0.000
279.461;65304.852;  136.825;    0.000
279.527;65304.852;  174.825;    0.000
279.592;65304.852;  179.825;    0.000
279.658;63852.852;  187.825;    0.000
279.723;62395.852;  201.825;    0.000
279.789;63580.852;  194.825;    0.000
279.854;58414.852;  171.825;    0.000
279.920;50155.852;  183.825;    0.000
279.985;46668.852;  173.825;    0.000
280.051;47266.852;  194.825;    0.000
280.116;53912.852;  197.825;    0.000
280.182;65304.852;  171.825;    0.000
280.247;65304.852;  131.825;    0.000
280.313;64792.852;  166.825;    0.000
280.378;49931.852;  159.825;    0.000
280.444;38966.852;  190.825;    0.000
280.509;32241.850;  189.825;    0.000
280.574;27755.850;  171.825;    0.000
280.640;24280.850;  167.825;    0.000
280.705;21914.850;  129.825;    0.000
280.771;19867.850;  193.825;    0.000
280.836;18523.850;  172.825;    0.000
280.902;17272.850;  189.825;    0.000
280.967;16288.850;  143.825;    0.000
281.032;15411.850;  182.825;    0.000
281.098;14584.850;  172.825;    0.000
281.163;13900.850;  184.825;    0.000
281.229;13438.850;  210.825;    0.000
281.294;12806.850;  223.825;    0.000
281.359;12384.850;  197.825;    0.000
281.425;11920.850;  192.825;    0.000
281.490;11344.850;  162.825;    0.000
281.555;11111.850;  193.825;    0.000
281.621;10541.850;  141.825;    0.000
281.686;10244.850;  166.825;    0.000
281.751; 9936.850;  204.825;    0.000
281.816; 9630.850;  159.825;    0.000
281.882; 9244.850;  146.825;    0.000
281.947; 9281.850;  176.825;    0.000
282.012; 8804.850;  139.825;    0.000
282.078; 8578.850;  186.825;    0.000
282.143; 8587.850;  151.825;    0.000
282.208; 8260.850;  213.825;    0.000
282.273; 8235.850;  160.825;    0.000
282.339; 7970.850;  175.825;    0.000
282.404; 7843.850;  157.825;    0.000
282.469; 7548.850;  185.825;    0.000
282.534; 7560.850;  166.825;    0.000
282.600; 7460.850;  168.825;    0.000
282.665; 7385.850;  167.825;    0.000
282.730; 7382.850;  148.825;    0.000
282.795; 7060.850;  186.825;    0.000
282.860; 7134.850;  161.825;    0.000
282.926; 7010.850;  178.825;    0.000
282.991; 6927.850;  139.825;    0.000
283.056; 6773.850;  158.825;    0.000
283.121; 6892.850;  191.825;    0.000
283.186; 6731.850;  182.825;    0.000
283.251; 6567.850;  181.825;    0.000
283.316; 6588.850;  187.825;    0.000
283.382; 6445.850;  175.825;    0.000
283.447; 6382.850;  183.825;    0.000
283.512; 6358.850;  175.825;    0.000
283.577; 6358.850;  180.825;    0.000
283.642; 6328.850;  193.825;    0.000
283.707; 6181.850;  145.825;    0.000
283.772; 5997.850;  143.825;    0.000
283.837; 5975.850;  143.825;    0.000
283.902; 5971.850;  150.825;    0.000
283.967; 6154.850;  166.825;    0.000
284.032; 6003.850;  126.825;    0.000
284.097; 6041.850;  201.825;    0.000
284.163; 5934.850;  133.825;    0.000
284.228; 6032.850;  193.825;    0.000
284.293; 5999.850;  157.825;    0.000
284.358; 6140.850;  185.825;    0.000
284.423; 5935.850;  142.825;    0.000
284.488; 6099.850;  192.825;    0.000
284.553; 6310.850;  146.825;    0.000
284.618; 6128.850;  154.825;    0.000
284.683; 6402.850;  172.825;    0.000
284.748; 6608.850;  195.825;    0.000
284.812; 6958.850;  190.825;    0.000
284.877; 7477.850;  169.825;    0.000
284.942; 8254.850;  195.825;    0.000
285.007; 9739.850;  204.825;    0.000
285.072;12882.850;  189.825;    0.000
285.137;20351.850;  149.825;    0.000
285.202;26275.850;  164.825;    0.000
285.267;23071.850;  161.825;    0.000
285.332;15558.850;  140.825;    0.000
285.397;11995.850;  142.825;    0.000
285.462;10144.850;  146.825;    0.000
285.527; 8830.850;  132.825;    0.000
285.591; 7992.850;  160.825;    0.000
285.656; 7479.850;  136.825;    0.000
285.721; 7090.850;  135.825;    0.000
285.786; 6794.850;  171.825;    0.000
285.851; 6535.850;  168.825;    0.000
285.916; 6284.850;  178.825;    0.000
285.981; 6238.850;  152.825;    0.000
286.045; 6087.850;  167.825;    0.000
286.110; 5909.850;  187.825;    0.000
286.175; 5902.850;  162.825;    0.000
286.240; 5766.850;  163.825;    0.000
286.305; 5743.850;  190.825;    0.000
286.369; 5530.850;  143.825;    0.000
286.434; 5601.850;  185.825;    0.000
286.499; 5547.850;  195.825;    0.000
286.564; 5549.850;  173.825;    0.000
286.628; 5460.850;  159.825;    0.000
286.693; 5429.850;  175.825;    0.000
286.758; 5429.850;  170.825;    0.000
286.823; 5340.850;  129.825;    0.000
286.887; 5175.850;  172.825;    0.000
286.952; 5444.850;  163.825;    0.000
287.017; 5231.850;  217.825;    0.000
287.082; 5295.850;  165.825;    0.000
287.146; 5228.850;  176.825;    0.000
287.211; 5278.850;  192.825;    0.000
287.276; 5180.850;  147.825;    0.000
287.340; 5282.850;  162.825;    0.000
287.405; 5196.850;  196.825;    0.000
287.470; 5148.850;  148.825;    0.000
287.534; 5293.850;  166.825;    0.000
287.599; 5192.850;  193.825;    0.000
287.663; 5049.850;  191.825;    0.000
287.728; 5082.850;  146.825;    0.000
287.793; 5160.850;  234.825;    0.000
287.857; 5159.850;  177.825;    0.000
287.922; 5120.850;  166.825;    0.000
287.987; 5159.850;  169.825;    0.000
288.051; 4913.850;  169.825;    0.000
288.116; 5226.850;  187.825;    0.000
288.180; 5012.850;  200.825;    0.000
288.245; 5068.850;  201.825;    0.000
288.309; 4910.850;  176.825;    0.000
288.374; 5029.850;  162.825;    0.000
288.439; 5031.850;  195.825;    0.000
288.503; 4856.850;  162.825;    0.000
288.568; 5068.850;  228.825;    0.000
288.632; 5005.850;  194.825;    0.000
288.697; 5047.850;  173.825;    0.000
288.761; 4994.850;  153.825;    0.000
288.826; 4934.850;  151.825;    0.000
288.890; 5084.850;  208.825;    0.000
288.955; 4983.850;  159.825;    0.000
289.019; 4848.850;  198.825;    0.000
289.084; 5029.850;  152.825;    0.000
289.148; 5007.850;  171.825;    0.000
289.212; 4976.850;  184.825;    0.000
289.277; 4986.850;  165.825;    0.000
289.341; 4962.850;  207.825;    0.000
289.406; 4759.850;  156.825;    0.000
289.470; 4854.850;  191.825;    0.000
289.535; 5026.850;  222.825;    0.000
289.599; 4891.850;  214.825;    0.000
289.663; 4833.850;  183.825;    0.000
289.728; 4996.850;  192.825;    0.000
289.792; 4905.850;  197.825;    0.000
289.857; 4907.850;  221.825;    0.000
289.921; 4878.850;  177.825;    0.000
289.985; 4929.850;  177.825;    0.000
290.050; 4902.850;  178.825;    0.000
290.114; 4923.850;  112.825;    0.000
290.178; 4962.850;  170.825;    0.000
290.243; 4995.850;  162.825;    0.000
290.307; 4843.850;  178.825;    0.000
290.371; 4821.850;  141.825;    0.000
290.436; 4846.850;  178.825;    0.000
290.500; 4765.850;  135.825;    0.000
290.564; 5000.850;  199.825;    0.000
290.629; 4932.850;  165.825;    0.000
290.693; 4967.850;  154.825;    0.000
290.757; 5057.850;  159.825;    0.000
290.821; 4995.850;  179.825;    0.000
290.886; 5072.850;  141.825;    0.000
290.950; 4952.850;  166.825;    0.000
291.014; 5064.850;  169.825;    0.000
291.078; 4999.850;  191.825;    0.000
291.143; 5146.850;  169.825;    0.000
291.207; 5154.850;  164.825;    0.000
291.271; 5110.850;  193.825;    0.000
291.335; 5174.850;  150.825;    0.000
291.399; 5504.850;  175.825;    0.000
291.464; 5617.850;  128.825;    0.000
291.528; 5837.850;  162.825;    0.000
291.592; 5551.850;  152.825;    0.000
291.656; 5521.850;  175.825;    0.000
291.720; 5440.850;  173.825;    0.000
291.784; 5391.850;  192.825;    0.000
291.849; 5317.850;  159.825;    0.000
291.913; 5386.850;  174.825;    0.000
291.977; 5225.850;  177.825;    0.000
292.041; 5198.850;  188.825;    0.000
292.105; 5286.850;  174.825;    0.000
292.169; 5449.850;  143.825;    0.000
292.233; 5563.850;  149.825;    0.000
292.297; 5707.850;  176.825;    0.000
292.361; 5637.850;  178.825;    0.000
292.425; 5935.850;  153.825;    0.000
292.490; 6063.850;  185.825;    0.000
292.554; 6326.850;  144.825;    0.000
292.618; 6686.850;  166.825;    0.000
292.682; 7309.850;  181.825;    0.000
292.746; 8292.850;  152.825;    0.000
292.810;11358.850;  208.825;    0.000
292.874;13995.850;  142.825;    0.000
292.938;13615.850;  195.825;    0.000
293.002;12391.850;  156.825;    0.000
293.066;11160.850;  108.825;    0.000
293.130;10221.850;  136.825;    0.000
293.194; 9704.850;  135.825;    0.000
293.258; 9524.850;  187.825;    0.000
293.322; 9478.850;  148.825;    0.000
293.386; 9698.850;  186.825;    0.000
293.450;10059.850;  196.825;    0.000
293.514;11472.850;  175.825;    0.000
293.577;15148.850;  137.825;    0.000
293.641;20169.850;  142.825;    0.000
293.705;21201.850;  201.825;    0.000
293.769;18664.850;  150.825;    0.000
293.833;16308.850;  147.825;    0.000
293.897;14372.850;  170.825;    0.000
293.961;13019.850;  121.825;    0.000
294.025;11741.850;  172.825;    0.000
294.089;10822.850;  167.825;    0.000
294.152;10126.850;  167.825;    0.000
294.216; 9564.850;  165.825;    0.000
294.280; 8998.850;  168.825;    0.000
294.344; 8663.850;  160.825;    0.000
294.408; 8285.850;  187.825;    0.000
294.472; 7763.850;  141.825;    0.000
294.536; 7470.850;  184.825;    0.000
294.599; 7231.850;  176.825;    0.000
294.663; 7116.850;  120.825;    0.000
294.727; 6903.850;  159.825;    0.000
294.791; 6802.850;  190.825;    0.000
294.855; 6751.850;  148.825;    0.000
294.918; 6638.850;  160.825;    0.000
294.982; 6294.850;  156.825;    0.000
295.046; 6162.850;  177.825;    0.000
295.110; 6041.850;  149.825;    0.000
295.173; 6040.850;  156.825;    0.000
295.237; 5901.850;  174.825;    0.000
295.301; 5945.850;  152.825;    0.000
295.364; 5831.850;  204.825;    0.000
295.428; 5601.850;  196.825;    0.000
295.492; 5482.850;  178.825;    0.000
295.556; 5653.850;  161.825;    0.000
295.619; 5601.850;  178.825;    0.000
295.683; 5408.850;  152.825;    0.000
295.747; 5213.850;  148.825;    0.000
295.810; 5325.850;  177.825;    0.000
295.874; 5277.850;  146.825;    0.000
295.938; 5213.850;  115.825;    0.000
296.001; 5226.850;  172.825;    0.000
296.065; 5103.850;  146.825;    0.000
296.128; 5057.850;  164.825;    0.000
296.192; 5041.850;  137.825;    0.000
296.256; 4999.850;  143.825;    0.000
296.319; 4841.850;  156.825;    0.000
296.383; 5028.850;  165.825;    0.000
296.447; 4949.850;  170.825;    0.000
296.510; 4903.850;  174.825;    0.000
296.574; 4814.850;  127.825;    0.000
296.637; 4783.850;  132.825;    0.000
296.701; 4844.850;  206.825;    0.000
296.764; 4835.850;  179.825;    0.000
296.828; 4788.850;  213.825;    0.000
296.891; 4623.850;  149.825;    0.000
296.955; 4774.850;  170.825;    0.000
297.018; 4788.850;  185.825;    0.000
297.082; 4758.850;  205.825;    0.000
297.145; 4688.850;  154.825;    0.000
297.209; 4716.850;  200.825;    0.000
297.272; 4565.850;  157.825;    0.000
297.336; 4704.850;  164.825;    0.000
297.399; 4567.850;  166.825;    0.000
297.463; 4614.850;  195.825;    0.000
297.526; 4600.850;  176.825;    0.000
297.590; 4571.850;  198.825;    0.000
297.653; 4644.850;  146.825;    0.000
297.717; 4552.850;  175.825;    0.000
297.780; 4449.850;  139.825;    0.000
297.843; 4378.850;  174.825;    0.000
297.907; 4442.850;  149.825;    0.000
297.970; 4450.850;  161.825;    0.000
298.034; 4454.850;  185.825;    0.000
298.097; 4527.850;  167.825;    0.000
298.160; 4389.850;  195.825;    0.000
298.224; 4419.850;  178.825;    0.000
298.287; 4431.850;  164.825;    0.000
298.350; 4461.850;  194.825;    0.000
298.414; 4388.850;  191.825;    0.000
298.477; 4465.850;  155.825;    0.000
298.540; 4314.850;  139.825;    0.000
298.604; 4436.850;  198.825;    0.000
298.667; 4431.850;  183.825;    0.000
298.730; 4320.850;  185.825;    0.000
298.794; 4135.850;  153.825;    0.000
298.857; 4311.850;  169.825;    0.000
298.920; 4196.850;  159.825;    0.000
298.984; 4252.850;  179.825;    0.000
299.047; 4258.850;  174.825;    0.000
299.110; 4192.850;  144.825;    0.000
299.173; 4146.850;  190.825;    0.000
299.237; 4282.850;  163.825;    0.000
299.300; 4066.850;  153.825;    0.000
299.363; 4103.850;  145.825;    0.000
299.426; 4156.850;  160.825;    0.000
299.489; 4105.850;  173.825;    0.000
299.553; 4115.850;  209.825;    0.000
299.616; 4113.850;  172.825;    0.000
299.679; 4152.850;  204.825;    0.000
299.742; 4084.850;  162.825;    0.000
299.805; 4007.850;  198.825;    0.000
299.868; 4054.850;  176.825;    0.000
299.932; 4051.850;  166.825;    0.000
299.995; 3956.850;  162.825;    0.000
300.058; 4070.850;  175.825;    0.000
300.121; 4114.850;  197.825;    0.000
300.184; 4015.850;  188.825;    0.000
300.247; 3944.850;  181.825;    0.000
300.310; 4072.850;  161.825;    0.000
300.374; 3943.850;  201.825;    0.000
300.437; 4037.850;  156.825;    0.000
300.500; 4056.850;  180.825;    0.000
300.563; 3874.850;  174.825;    0.000
300.626; 4020.850;  206.825;    0.000
300.689; 3986.850;  218.825;    0.000
300.752; 3961.850;  192.825;    0.000
300.815; 3874.850;  172.825;    0.000
300.878; 4015.850;  207.825;    0.000
300.941; 3956.850;  163.825;    0.000
301.004; 3997.850;  171.825;    0.000
301.067; 3953.850;  198.825;    0.000
301.130; 3903.850;  156.825;    0.000
301.193; 4042.850;  173.825;    0.000
301.256; 3902.850;  167.825;    0.000
301.319; 3891.850;  211.825;    0.000
301.382; 3919.850;  167.825;    0.000
301.445; 3948.850;  224.825;    0.000
301.508; 3897.850;  168.825;    0.000
301.571; 3783.850;  161.825;    0.000
301.634; 4010.850;  177.825;    0.000
301.697; 3934.850;  203.825;    0.000
301.760; 3828.850;  190.825;    0.000
301.823; 3853.850;  182.825;    0.000
301.885; 3908.850;  202.825;    0.000
301.948; 3917.850;  200.825;    0.000
302.011; 3825.850;  157.825;    0.000
302.074; 3966.850;  205.825;    0.000
302.137; 3867.850;  149.825;    0.000
302.200; 3882.850;  201.825;    0.000
302.263; 3805.850;  178.825;    0.000
302.326; 3733.850;  184.825;    0.000
302.388; 3911.850;  176.825;    0.000
302.451; 3870.850;  146.825;    0.000
302.514; 3771.850;  192.825;    0.000
302.577; 3819.850;  181.825;    0.000
302.640; 3811.850;  186.825;    0.000
302.703; 3772.850;  164.825;    0.000
302.765; 3761.850;  197.825;    0.000
302.828; 3850.850;  208.825;    0.000
302.891; 3882.850;  168.825;    0.000
302.954; 3684.850;  177.825;    0.000
303.016; 3834.850;  190.825;    0.000
303.079; 3811.850;  216.825;    0.000
303.142; 3803.850;  228.825;    0.000
303.205; 3803.850;  192.825;    0.000
303.267; 3698.850;  182.825;    0.000
303.330; 3801.850;  201.825;    0.000
303.393; 3840.850;  196.825;    0.000
303.456; 3794.850;  184.825;    0.000
303.518; 3670.850;  194.825;    0.000
303.581; 3771.850;  195.825;    0.000
303.644; 3755.850;  184.825;    0.000
303.706; 3858.850;  150.825;    0.000
303.769; 3725.850;  182.825;    0.000
303.832; 3687.850;  143.825;    0.000
303.894; 3694.850;  207.825;    0.000
303.957; 3760.850;  178.825;    0.000
304.020; 3865.850;  203.825;    0.000
304.082; 3743.850;  175.825;    0.000
304.145; 3726.850;  171.825;    0.000
304.207; 3685.850;  157.825;    0.000
304.270; 3726.850;  195.825;    0.000
304.333; 3753.850;  195.825;    0.000
304.395; 3840.850;  197.825;    0.000
304.458; 3793.850;  231.825;    0.000
304.520; 3759.850;  218.825;    0.000
304.583; 3721.850;  177.825;    0.000
304.646; 3861.850;  177.825;    0.000
304.708; 3706.850;  178.825;    0.000
304.771; 3691.850;  143.825;    0.000
304.833; 3704.850;  241.825;    0.000
304.896; 3763.850;  200.825;    0.000
304.958; 3691.850;  176.825;    0.000
305.021; 3609.850;  159.825;    0.000
305.083; 3684.850;  159.825;    0.000
305.146; 3794.850;  190.825;    0.000
305.208; 3616.850;  152.825;    0.000
305.271; 3568.850;  162.825;    0.000
305.333; 3617.850;  219.825;    0.000
305.396; 3722.850;  163.825;    0.000
305.458; 3645.850;  215.825;    0.000
305.520; 3658.850;  174.825;    0.000
305.583; 3708.850;  161.825;    0.000
305.645; 3689.850;  203.825;    0.000
305.708; 3691.850;  163.825;    0.000
305.770; 3721.850;  215.825;    0.000
305.833; 3615.850;  207.825;    0.000
305.895; 3682.850;  166.825;    0.000
305.957; 3725.850;  175.825;    0.000
306.020; 3660.850;  169.825;    0.000
306.082; 3653.850;  203.825;    0.000
306.144; 3730.850;  181.825;    0.000
306.207; 3653.850;  199.825;    0.000
306.269; 3709.850;  177.825;    0.000
306.331; 3612.850;  160.825;    0.000
306.394; 3553.850;  193.825;    0.000
306.456; 3551.850;  136.825;    0.000
306.518; 3721.850;  189.825;    0.000
306.581; 3649.850;  156.825;    0.000
306.643; 3644.850;  190.825;    0.000
306.705; 3711.850;  190.825;    0.000
306.768; 3650.850;  172.825;    0.000
306.830; 3681.850;  214.825;    0.000
306.892; 3707.850;  198.825;    0.000
306.954; 3694.850;  177.825;    0.000
307.017; 3764.850;  183.825;    0.000
307.079; 3741.850;  170.825;    0.000
307.141; 3785.850;  173.825;    0.000
307.203; 3874.850;  171.825;    0.000
307.266; 3945.850;  166.825;    0.000
307.328; 3884.850;  207.825;    0.000
307.390; 3803.850;  201.825;    0.000
307.452; 3843.850;  182.825;    0.000
307.514; 3867.850;  213.825;    0.000
307.577; 3777.850;  213.825;    0.000
307.639; 3868.850;  197.825;    0.000
307.701; 3850.850;  174.825;    0.000
307.763; 3852.850;  181.825;    0.000
307.825; 3906.850;  186.825;    0.000
307.887; 3881.850;  198.825;    0.000
307.949; 3836.850;  158.825;    0.000
308.012; 3867.850;  209.825;    0.000
308.074; 3854.850;  176.825;    0.000
308.136; 3895.850;  227.825;    0.000
308.198; 3777.850;  187.825;    0.000
308.260; 3856.850;  211.825;    0.000
308.322; 3828.850;  206.825;    0.000
308.384; 3909.850;  186.825;    0.000
308.446; 3906.850;  175.825;    0.000
308.508; 3983.850;  211.825;    0.000
308.570; 3914.850;  191.825;    0.000
308.632; 3932.850;  195.825;    0.000
308.694; 3953.850;  173.825;    0.000
308.756; 3933.850;  185.825;    0.000
308.818; 3954.850;  195.825;    0.000
308.880; 4007.850;  189.825;    0.000
308.942; 4078.850;  231.825;    0.000
309.004; 3983.850;  188.825;    0.000
309.066; 4165.850;  196.825;    0.000
309.128; 4181.850;  155.825;    0.000
309.190; 4262.850;  176.825;    0.000
309.252; 4483.850;  191.825;    0.000
309.314; 4588.850;  236.825;    0.000
309.376; 4361.850;  212.825;    0.000
309.438; 4307.850;  201.825;    0.000
309.500; 4443.850;  206.825;    0.000
309.562; 4330.850;  213.825;    0.000
309.624; 4546.850;  196.825;    0.000
309.686; 4787.850;  198.825;    0.000
309.747; 4636.850;  186.825;    0.000
309.809; 4542.850;  215.825;    0.000
309.871; 4339.850;  242.825;    0.000
309.933; 4355.850;  162.825;    0.000
309.995; 4234.850;  163.825;    0.000
310.057; 4294.850;  145.825;    0.000
310.119; 4363.850;  205.825;    0.000
310.180; 4262.850;  195.825;    0.000
310.242; 4202.850;  167.825;    0.000
310.304; 4219.850;  213.825;    0.000
310.366; 4181.850;  224.825;    0.000
310.428; 4082.850;  170.825;    0.000
310.489; 4055.850;  195.825;    0.000
310.551; 4109.850;  207.825;    0.000
310.613; 4122.850;  168.825;    0.000
310.675; 4037.850;  188.825;    0.000
310.737; 4031.850;  211.825;    0.000
310.798; 4128.850;  221.825;    0.000
310.860; 3943.850;  201.825;    0.000
310.922; 4087.850;  206.825;    0.000
310.983; 4201.850;  222.825;    0.000
311.045; 4016.850;  235.825;    0.000
311.107; 4150.850;  184.825;    0.000
311.169; 3992.850;  148.825;    0.000
311.230; 4028.850;  211.825;    0.000
311.292; 4031.850;  235.825;    0.000
311.354; 4064.850;  183.825;    0.000
311.415; 4141.850;  196.825;    0.000
311.477; 4124.850;  200.825;    0.000
311.539; 4028.850;  171.825;    0.000
311.600; 4064.850;  169.825;    0.000
311.662; 4104.850;  231.825;    0.000
311.724; 4115.850;  204.825;    0.000
311.785; 4104.850;  214.825;    0.000
311.847; 4016.850;  193.825;    0.000
311.908; 4036.850;  180.825;    0.000
311.970; 4024.850;  233.825;    0.000
312.032; 4130.850;  192.825;    0.000
312.093; 4082.850;  195.825;    0.000
312.155; 4038.850;  194.825;    0.000
312.216; 4086.850;  238.825;    0.000
312.278; 3984.850;  146.825;    0.000
312.339; 3957.850;  184.825;    0.000
312.401; 4071.850;  201.825;    0.000
312.462; 4105.850;  173.825;    0.000
312.524; 4001.850;  205.825;    0.000
312.585; 4060.850;  199.825;    0.000
312.647; 4069.850;  168.825;    0.000
312.708; 4012.850;  180.825;    0.000
312.770; 4169.850;  180.825;    0.000
312.831; 3995.850;  176.825;    0.000
312.893; 4016.850;  211.825;    0.000
312.954; 4061.850;  178.825;    0.000
313.016; 4000.850;  204.825;    0.000
313.077; 4127.850;  216.825;    0.000
313.139; 4040.850;  172.825;    0.000
313.200; 4084.850;  197.825;    0.000
313.261; 4099.850;  227.825;    0.000
313.323; 3944.850;  204.825;    0.000
313.384; 4034.850;  182.825;    0.000
313.446; 4154.850;  204.825;    0.000
313.507; 4050.850;  164.825;    0.000
313.568; 4024.850;  197.825;    0.000
313.630; 4030.850;  190.825;    0.000
313.691; 4035.850;  185.825;    0.000
313.752; 4101.850;  192.825;    0.000
313.814; 4053.850;  176.825;    0.000
313.875; 4076.850;  210.825;    0.000
313.936; 4099.850;  165.825;    0.000
313.998; 4068.850;  162.825;    0.000
314.059; 4089.850;  178.825;    0.000
314.120; 4045.850;  176.825;    0.000
314.182; 4010.850;  167.825;    0.000
314.243; 4120.850;  204.825;    0.000
314.304; 4028.850;  197.825;    0.000
314.365; 4015.850;  183.825;    0.000
314.427; 4155.850;  176.825;    0.000
314.488; 3989.850;  149.825;    0.000
314.549; 4060.850;  218.825;    0.000
314.610; 4060.850;  160.825;    0.000
314.672; 4048.850;  187.825;    0.000
314.733; 4102.850;  184.825;    0.000
314.794; 4057.850;  164.825;    0.000
314.855; 4066.850;  191.825;    0.000
314.917; 4034.850;  172.825;    0.000
314.978; 4060.850;  185.825;    0.000
315.039; 4125.850;  194.825;    0.000
315.100; 4085.850;  190.825;    0.000
315.161; 4003.850;  185.825;    0.000
315.222; 4051.850;  204.825;    0.000
315.283; 4014.850;  166.825;    0.000
315.345; 4093.850;  133.825;    0.000
315.406; 4213.850;  191.825;    0.000
315.467; 3970.850;  166.825;    0.000
315.528; 4042.850;  194.825;    0.000
315.589; 4057.850;  193.825;    0.000
315.650; 4017.850;  190.825;    0.000
315.711; 4045.850;  219.825;    0.000
315.772; 4083.850;  159.825;    0.000
315.833; 4053.850;  191.825;    0.000
315.894; 4107.850;  202.825;    0.000
315.955; 4015.850;  167.825;    0.000
316.016; 3977.850;  177.825;    0.000
316.078; 4010.850;  185.825;    0.000
316.139; 4081.850;  219.825;    0.000
316.200; 3966.850;  163.825;    0.000
316.261; 4080.850;  183.825;    0.000
316.322; 3977.850;  230.825;    0.000
316.383; 3987.850;  198.825;    0.000
316.444; 4123.850;  209.825;    0.000
316.504; 4095.850;  179.825;    0.000
316.565; 3970.850;  185.825;    0.000
316.626; 4043.850;  155.825;    0.000
316.687; 4094.850;  211.825;    0.000
316.748; 4110.850;  192.825;    0.000
316.809; 4048.850;  183.825;    0.000
316.870; 4055.850;  196.825;    0.000
316.931; 4016.850;  173.825;    0.000
316.992; 4103.850;  179.825;    0.000
317.053; 4079.850;  186.825;    0.000
317.114; 3974.850;  189.825;    0.000
317.175; 4144.850;  226.825;    0.000
317.235; 3990.850;  206.825;    0.000
317.296; 3944.850;  191.825;    0.000
317.357; 4040.850;  173.825;    0.000
317.418; 4113.850;  212.825;    0.000
317.479; 3966.850;  247.825;    0.000
317.540; 3983.850;  205.825;    0.000
317.601; 3938.850;  205.825;    0.000
317.661; 3948.850;  150.825;    0.000
317.722; 4009.850;  198.825;    0.000
317.783; 3931.850;  153.825;    0.000
317.844; 3946.850;  202.825;    0.000
317.904; 3953.850;  180.825;    0.000
317.965; 4052.850;  205.825;    0.000
318.026; 4065.850;  223.825;    0.000
318.087; 3924.850;  218.825;    0.000
318.148; 3919.850;  207.825;    0.000
318.208; 3949.850;  212.825;    0.000
318.269; 4006.850;  174.825;    0.000
318.330; 3923.850;  191.825;    0.000
318.390; 3980.850;  197.825;    0.000
318.451; 3982.850;  167.825;    0.000
318.512; 3983.850;  174.825;    0.000
318.572; 3913.850;  199.825;    0.000
318.633; 3974.850;  233.825;    0.000
318.694; 3996.850;  232.825;    0.000
318.754; 3923.850;  181.825;    0.000
318.815; 3870.850;  199.825;    0.000
318.876; 3883.850;  207.825;    0.000
318.936; 3915.850;  202.825;    0.000
318.997; 4014.850;  182.825;    0.000
319.058; 3878.850;  180.825;    0.000
319.118; 3925.850;  199.825;    0.000
319.179; 4042.850;  199.825;    0.000
319.239; 3912.850;  229.825;    0.000
319.300; 3935.850;  223.825;    0.000
319.361; 3911.850;  210.825;    0.000
319.421; 3921.850;  205.825;    0.000
319.482; 3879.850;  205.825;    0.000
319.542; 4012.850;  176.825;    0.000
319.603; 3822.850;  191.825;    0.000
319.663; 3924.850;  183.825;    0.000
319.724; 3957.850;  174.825;    0.000
319.784; 3836.850;  198.825;    0.000
319.845; 3964.850;  218.825;    0.000
319.905; 3801.850;  217.825;    0.000
319.966; 3840.850;  197.825;    0.000
320.026; 3807.850;  209.825;    0.000
320.087; 3878.850;  225.825;    0.000
320.147; 3872.850;  201.825;    0.000
320.208; 3895.850;  176.825;    0.000
320.268; 3940.850;  168.825;    0.000
320.329; 3900.850;  238.825;    0.000
320.389; 3949.850;  220.825;    0.000
320.449; 4014.850;  230.825;    0.000
320.510; 3884.850;  234.825;    0.000
320.570; 3798.850;  210.825;    0.000
320.631; 3890.850;  207.825;    0.000
320.691; 3889.850;  222.825;    0.000
320.751; 3777.850;  195.825;    0.000
320.812; 3764.850;  193.825;    0.000
320.872; 3907.850;  237.825;    0.000
320.932; 3923.850;  213.825;    0.000
320.993; 3907.850;  185.825;    0.000
321.053; 3877.850;  245.825;    0.000
321.113; 3950.850;  206.825;    0.000
321.174; 3908.850;  202.825;    0.000
321.234; 3868.850;  244.825;    0.000
321.294; 3836.850;  228.825;    0.000
321.355; 3855.850;  208.825;    0.000
321.415; 3903.850;  223.825;    0.000
321.475; 3940.850;  203.825;    0.000
321.535; 3808.850;  230.825;    0.000
321.596; 3798.850;  186.825;    0.000
321.656; 3948.850;  216.825;    0.000
321.716; 3822.850;  207.825;    0.000
321.776; 3798.850;  181.825;    0.000
321.837; 3872.850;  207.825;    0.000
321.897; 3891.850;  225.825;    0.000
321.957; 3812.850;  222.825;    0.000
322.017; 3857.850;  215.825;    0.000
322.077; 3967.850;  250.825;    0.000
322.138; 3970.850;  189.825;    0.000
322.198; 3810.850;  200.825;    0.000
322.258; 3898.850;  217.825;    0.000
322.318; 3783.850;  183.825;    0.000
322.378; 3706.850;  231.825;    0.000
322.438; 3769.850;  228.825;    0.000
322.499; 3823.850;  248.825;    0.000
322.559; 3761.850;  198.825;    0.000
322.619; 3794.850;  221.825;    0.000
322.679; 3791.850;  217.825;    0.000
322.739; 3791.850;  204.825;    0.000
322.799; 3828.850;  236.825;    0.000
322.859; 3835.850;  213.825;    0.000
322.919; 3813.850;  210.825;    0.000
322.979; 3840.850;  244.825;    0.000
323.039; 3814.850;  218.825;    0.000
323.099; 3868.850;  232.825;    0.000
323.159; 3712.850;  216.825;    0.000
323.219; 3769.850;  169.825;    0.000
323.279; 3830.850;  236.825;    0.000
323.339; 3873.850;  243.825;    0.000
323.399; 3816.850;  208.825;    0.000
323.459; 3870.850;  220.825;    0.000
323.519; 3759.850;  228.825;    0.000
323.579; 3753.850;  164.825;    0.000
323.639; 3801.850;  209.825;    0.000
323.699; 3736.850;  188.825;    0.000
323.759; 3679.850;  206.825;    0.000
323.819; 3744.850;  204.825;    0.000
323.879; 3751.850;  222.825;    0.000
323.939; 3703.850;  206.825;    0.000
323.999; 3688.850;  202.825;    0.000
324.059; 3830.850;  245.825;    0.000
324.119; 3746.850;  214.825;    0.000
324.178; 3792.850;  183.825;    0.000
324.238; 3702.850;  193.825;    0.000
324.298; 3712.850;  207.825;    0.000
324.358; 3781.850;  196.825;    0.000
324.418; 3761.850;  193.825;    0.000
324.478; 3684.850;  191.825;    0.000
324.538; 3707.850;  224.825;    0.000
324.597; 3802.850;  187.825;    0.000
324.657; 3685.850;  208.825;    0.000
324.717; 3717.850;  198.825;    0.000
324.777; 3716.850;  159.825;    0.000
324.837; 3758.850;  180.825;    0.000
324.896; 3773.850;  215.825;    0.000
324.956; 3687.850;  210.825;    0.000
325.016; 3739.850;  187.825;    0.000
325.076; 3834.850;  197.825;    0.000
325.135; 3737.850;  226.825;    0.000
325.195; 3699.850;  201.825;    0.000
325.255; 3736.850;  167.825;    0.000
325.315; 3740.850;  217.825;    0.000
325.374; 3789.850;  196.825;    0.000
325.434; 3665.850;  167.825;    0.000
325.494; 3728.850;  214.825;    0.000
325.553; 3800.850;  203.825;    0.000
325.613; 3722.850;  206.825;    0.000
325.673; 3725.850;  148.825;    0.000
325.732; 3787.850;  207.825;    0.000
325.792; 3704.850;  151.825;    0.000
325.852; 3754.850;  195.825;    0.000
325.911; 3695.850;  201.825;    0.000
325.971; 3865.850;  224.825;    0.000
326.031; 3842.850;  201.825;    0.000
326.090; 3726.850;  203.825;    0.000
326.150; 3675.850;  183.825;    0.000
326.209; 3668.850;  226.825;    0.000
326.269; 3811.850;  194.825;    0.000
326.328; 3805.850;  200.825;    0.000
326.388; 3771.850;  177.825;    0.000
326.448; 3790.850;  239.825;    0.000
326.507; 3568.850;  197.825;    0.000
326.567; 3690.850;  161.825;    0.000
326.626; 3737.850;  220.825;    0.000
326.686; 3682.850;  178.825;    0.000
326.745; 3581.850;  167.825;    0.000
326.805; 3584.850;  176.825;    0.000
326.864; 3705.850;  204.825;    0.000
326.924; 3647.850;  218.825;    0.000
326.983; 3561.850;  201.825;    0.000
327.043; 3695.850;  219.825;    0.000
327.102; 3738.850;  202.825;    0.000
327.161; 3567.850;  228.825;    0.000
327.221; 3564.850;  217.825;    0.000
327.280; 3621.850;  188.825;    0.000
327.340; 3632.850;  209.825;    0.000
327.399; 3613.850;  189.825;    0.000
327.459; 3650.850;  216.825;    0.000
327.518; 3670.850;  200.825;    0.000
327.577; 3541.850;  194.825;    0.000
327.637; 3550.850;  180.825;    0.000
327.696; 3571.850;  208.825;    0.000
327.755; 3573.850;  218.825;    0.000
327.815; 3625.850;  234.825;    0.000
327.874; 3613.850;  259.825;    0.000
327.933; 3519.850;  192.825;    0.000
327.993; 3650.850;  208.825;    0.000
328.052; 3491.850;  221.825;    0.000
328.111; 3501.850;  203.825;    0.000
328.171; 3599.850;  221.825;    0.000
328.230; 3502.850;  222.825;    0.000
328.289; 3605.850;  254.825;    0.000
328.349; 3530.850;  232.825;    0.000
328.408; 3513.850;  223.825;    0.000
328.467; 3438.850;  198.825;    0.000
328.526; 3439.850;  217.825;    0.000
328.586; 3519.850;  185.825;    0.000
328.645; 3547.850;  210.825;    0.000
328.704; 3441.850;  211.825;    0.000
328.763; 3555.850;  231.825;    0.000
328.822; 3514.850;  254.825;    0.000
328.882; 3420.850;  216.825;    0.000
328.941; 3448.850;  239.825;    0.000
329.000; 3489.850;  251.825;    0.000
329.059; 3516.850;  227.825;    0.000
329.118; 3487.850;  233.825;    0.000
329.177; 3434.850;  188.825;    0.000
329.237; 3342.850;  257.825;    0.000
329.296; 3467.850;  265.825;    0.000
329.355; 3490.850;  245.825;    0.000
329.414; 3434.850;  236.825;    0.000
329.473; 3445.850;  242.825;    0.000
329.532; 3609.850;  228.825;    0.000
329.591; 3396.850;  206.825;    0.000
329.650; 3465.850;  250.825;    0.000
329.709; 3439.850;  278.825;    0.000
329.768; 3515.850;  219.825;    0.000
329.827; 3509.850;  254.825;    0.000
329.886; 3470.850;  221.825;    0.000
329.945; 3421.850;  239.825;    0.000
330.004; 3518.850;  245.825;    0.000
330.063; 3468.850;  201.825;    0.000
330.122; 3465.850;  227.825;    0.000
330.181; 3481.850;  196.825;    0.000
330.240; 3407.850;  203.825;    0.000
330.299; 3411.850;  214.825;    0.000
330.358; 3312.850;  196.825;    0.000
330.417; 3395.850;  201.825;    0.000
330.476; 3319.850;  248.825;    0.000
330.535; 3370.850;  253.825;    0.000
330.594; 3452.850;  231.825;    0.000
330.653; 3464.850;  210.825;    0.000
330.712; 3292.850;  242.825;    0.000
330.771; 3458.850;  240.825;    0.000
330.830; 3399.850;  230.825;    0.000
330.889; 3334.850;  217.825;    0.000
330.948; 3280.850;  211.825;    0.000
331.006; 3338.850;  217.825;    0.000
331.065; 3351.850;  170.825;    0.000
331.124; 3484.850;  211.825;    0.000
331.183; 3325.850;  192.825;    0.000
331.242; 3334.850;  227.825;    0.000
331.301; 3251.850;  240.825;    0.000
331.359; 3418.850;  223.825;    0.000
331.418; 3416.850;  215.825;    0.000
331.477; 3403.850;  230.825;    0.000
331.536; 3291.850;  221.825;    0.000
331.595; 3318.850;  198.825;    0.000
331.653; 3289.850;  207.825;    0.000
331.712; 3280.850;  217.825;    0.000
331.771; 3248.850;  221.825;    0.000
331.830; 3330.850;  222.825;    0.000
331.888; 3327.850;  213.825;    0.000
331.947; 3287.850;  233.825;    0.000
332.006; 3378.850;  212.825;    0.000
332.065; 3374.850;  200.825;    0.000
332.123; 3343.850;  223.825;    0.000
332.182; 3406.850;  180.825;    0.000
332.241; 3366.850;  192.825;    0.000
332.299; 3261.850;  172.825;    0.000
332.358; 3345.850;  216.825;    0.000
332.417; 3356.850;  211.825;    0.000
332.475; 3323.850;  222.825;    0.000
332.534; 3425.850;  238.825;    0.000
332.592; 3395.850;  216.825;    0.000
332.651; 3359.850;  196.825;    0.000
332.710; 3374.850;  215.825;    0.000
332.768; 3364.850;  193.825;    0.000
332.827; 3533.850;  201.825;    0.000
332.885; 3394.850;  226.825;    0.000
332.944; 3526.850;  174.825;    0.000
333.003; 3435.850;  187.825;    0.000
333.061; 3482.850;  208.825;    0.000
333.120; 3563.850;  202.825;    0.000
333.178; 3591.850;  227.825;    0.000
333.237; 3679.850;  215.825;    0.000
333.295; 3576.850;  245.825;    0.000
333.354; 3453.850;  194.825;    0.000
333.412; 3524.850;  165.825;    0.000
333.471; 3544.850;  219.825;    0.000
333.529; 3604.850;  255.825;    0.000
333.588; 3690.850;  264.825;    0.000
333.646; 3883.850;  231.825;    0.000
333.705; 3790.850;  232.825;    0.000
333.763; 3686.850;  233.825;    0.000
333.822; 3556.850;  221.825;    0.000
333.880; 3463.850;  180.825;    0.000
333.938; 3496.850;  229.825;    0.000
333.997; 3571.850;  194.825;    0.000
334.055; 3511.850;  230.825;    0.000
334.114; 3606.850;  230.825;    0.000
334.172; 3392.850;  170.825;    0.000
334.230; 3534.850;  192.825;    0.000
334.289; 3598.850;  225.825;    0.000
334.347; 3552.850;  233.825;    0.000
334.405; 3549.850;  207.825;    0.000
334.464; 3432.850;  175.825;    0.000
334.522; 3513.850;  180.825;    0.000
334.580; 3479.850;  172.825;    0.000
334.639; 3562.850;  230.825;    0.000
334.697; 3479.850;  217.825;    0.000
334.755; 3488.850;  217.825;    0.000
334.814; 3553.850;  210.825;    0.000
334.872; 3498.850;  170.825;    0.000
334.930; 3391.850;  167.825;    0.000
334.988; 3474.850;  244.825;    0.000
335.047; 3468.850;  202.825;    0.000
335.105; 3503.850;  181.825;    0.000
335.163; 3477.850;  195.825;    0.000
335.221; 3494.850;  203.825;    0.000
335.280; 3423.850;  216.825;    0.000
335.338; 3436.850;  197.825;    0.000
335.396; 3458.850;  232.825;    0.000
335.454; 3431.850;  211.825;    0.000
335.512; 3433.850;  221.825;    0.000
335.570; 3480.850;  216.825;    0.000
335.629; 3440.850;  244.825;    0.000
335.687; 3383.850;  244.825;    0.000
335.745; 3470.850;  189.825;    0.000
335.803; 3473.850;  198.825;    0.000
335.861; 3382.850;  236.825;    0.000
335.919; 3562.850;  234.825;    0.000
335.977; 3522.850;  214.825;    0.000
336.035; 3351.850;  242.825;    0.000
336.094; 3319.850;  219.825;    0.000
336.152; 3497.850;  196.825;    0.000
336.210; 3451.850;  221.825;    0.000
336.268; 3415.850;  257.825;    0.000
336.326; 3454.850;  211.825;    0.000
336.384; 3488.850;  217.825;    0.000
336.442; 3431.850;  176.825;    0.000
336.500; 3458.850;  242.825;    0.000
336.558; 3504.850;  238.825;    0.000
336.616; 3413.850;  261.825;    0.000
336.674; 3324.850;  200.825;    0.000
336.732; 3396.850;  208.825;    0.000
336.790; 3397.850;  183.825;    0.000
336.848; 3394.850;  199.825;    0.000
336.906; 3395.850;  240.825;    0.000
336.964; 3378.850;  234.825;    0.000
337.022; 3318.850;  282.825;    0.000
337.080; 3441.850;  265.825;    0.000
337.138; 3393.850;  255.825;    0.000
337.195; 3412.850;  200.825;    0.000
337.253; 3283.850;  199.825;    0.000
337.311; 3353.850;  233.825;    0.000
337.369; 3289.850;  250.825;    0.000
337.427; 3339.850;  201.825;    0.000
337.485; 3308.850;  228.825;    0.000
337.543; 3360.850;  221.825;    0.000
337.601; 3371.850;  232.825;    0.000
337.658; 3343.850;  215.825;    0.000
337.716; 3300.850;  198.825;    0.000
337.774; 3316.850;  262.825;    0.000
337.832; 3364.850;  220.825;    0.000
337.890; 3290.850;  194.825;    0.000
337.947; 3342.850;  205.825;    0.000
338.005; 3236.850;  229.825;    0.000
338.063; 3260.850;  237.825;    0.000
338.121; 3274.850;  220.825;    0.000
338.178; 3359.850;  227.825;    0.000
338.236; 3215.850;  238.825;    0.000
338.294; 3312.850;  242.825;    0.000
338.352; 3274.850;  230.825;    0.000
338.409; 3259.850;  222.825;    0.000
338.467; 3306.850;  233.825;    0.000
338.525; 3314.850;  253.825;    0.000
338.583; 3332.850;  221.825;    0.000
338.640; 3113.850;  225.825;    0.000
338.698; 3248.850;  229.825;    0.000
338.756; 3193.850;  238.825;    0.000
338.813; 3221.850;  260.825;    0.000
338.871; 3324.850;  246.825;    0.000
338.928; 3319.850;  240.825;    0.000
338.986; 3204.850;  228.825;    0.000
339.044; 3271.850;  265.825;    0.000
339.101; 3247.850;  224.825;    0.000
339.159; 3146.850;  235.825;    0.000
339.216; 3290.850;  244.825;    0.000
339.274; 3272.850;  266.825;    0.000
339.332; 3290.850;  248.825;    0.000
339.389; 3268.850;  246.825;    0.000
339.447; 3263.850;  237.825;    0.000
339.504; 3251.850;  244.825;    0.000
339.562; 3362.850;  249.825;    0.000
339.619; 3249.850;  266.825;    0.000
339.677; 3240.850;  263.825;    0.000
339.734; 3194.850;  216.825;    0.000
339.792; 3300.850;  276.825;    0.000
339.849; 3247.850;  240.825;    0.000
339.907; 3243.850;  275.825;    0.000
339.964; 3166.850;  243.825;    0.000
340.022; 3265.850;  224.825;    0.000
340.079; 3156.850;  230.825;    0.000
340.137; 3316.850;  232.825;    0.000
340.194; 3174.850;  261.825;    0.000
340.252; 3233.850;  219.825;    0.000
340.309; 3251.850;  212.825;    0.000
340.366; 3224.850;  231.825;    0.000
340.424; 3218.850;  244.825;    0.000
340.481; 3157.850;  238.825;    0.000
340.538; 3247.850;  217.825;    0.000
340.596; 3140.850;  224.825;    0.000
340.653; 3262.850;  225.825;    0.000
340.711; 3187.850;  276.825;    0.000
340.768; 3293.850;  239.825;    0.000
340.825; 3182.850;  216.825;    0.000
340.883; 3262.850;  264.825;    0.000
340.940; 3195.850;  256.825;    0.000
340.997; 3252.850;  230.825;    0.000
341.054; 3133.850;  229.825;    0.000
341.112; 3195.850;  220.825;    0.000
341.169; 3225.850;  276.825;    0.000
341.226; 3170.850;  224.825;    0.000
341.284; 3238.850;  235.825;    0.000
341.341; 3191.850;  226.825;    0.000
341.398; 3142.850;  200.825;    0.000
341.455; 3283.850;  242.825;    0.000
341.512; 3201.850;  226.825;    0.000
341.570; 3219.850;  299.825;    0.000
341.627; 3202.850;  221.825;    0.000
341.684; 3195.850;  204.825;    0.000
341.741; 3362.850;  285.825;    0.000
341.798; 3215.850;  237.825;    0.000
341.856; 3314.850;  223.825;    0.000
341.913; 3263.850;  232.825;    0.000
341.970; 3180.850;  250.825;    0.000
342.027; 3361.850;  272.825;    0.000
342.084; 3192.850;  242.825;    0.000
342.141; 3233.850;  207.825;    0.000
342.198; 3302.850;  252.825;    0.000
342.255; 3254.850;  189.825;    0.000
342.313; 3263.850;  222.825;    0.000
342.370; 3244.850;  203.825;    0.000
342.427; 3233.850;  261.825;    0.000
342.484; 3311.850;  230.825;    0.000
342.541; 3265.850;  224.825;    0.000
342.598; 3310.850;  245.825;    0.000
342.655; 3304.850;  235.825;    0.000
342.712; 3341.850;  238.825;    0.000
342.769; 3310.850;  235.825;    0.000
342.826; 3341.850;  232.825;    0.000
342.883; 3273.850;  212.825;    0.000
342.940; 3302.850;  189.825;    0.000
342.997; 3333.850;  241.825;    0.000
343.054; 3333.850;  235.825;    0.000
343.111; 3365.850;  216.825;    0.000
343.168; 3385.850;  202.825;    0.000
343.225; 3411.850;  228.825;    0.000
343.282; 3459.850;  208.825;    0.000
343.339; 3351.850;  241.825;    0.000
343.395; 3421.850;  206.825;    0.000
343.452; 3447.850;  227.825;    0.000
343.509; 3294.850;  212.825;    0.000
343.566; 3470.850;  266.825;    0.000
343.623; 3402.850;  240.825;    0.000
343.680; 3475.850;  215.825;    0.000
343.737; 3528.850;  231.825;    0.000
343.794; 3537.850;  256.825;    0.000
343.850; 3607.850;  235.825;    0.000
343.907; 3607.850;  246.825;    0.000
343.964; 3572.850;  241.825;    0.000
344.021; 3632.850;  237.825;    0.000
344.078; 3601.850;  248.825;    0.000
344.134; 3576.850;  225.825;    0.000
344.191; 3484.850;  209.825;    0.000
344.248; 3572.850;  234.825;    0.000
344.305; 3480.850;  224.825;    0.000
344.361; 3567.850;  194.825;    0.000
344.418; 3524.850;  240.825;    0.000
344.475; 3498.850;  252.825;    0.000
344.532; 3502.850;  251.825;    0.000
344.588; 3518.850;  240.825;    0.000
344.645; 3522.850;  253.825;    0.000
344.702; 3448.850;  216.825;    0.000
344.758; 3609.850;  258.825;    0.000
344.815; 3523.850;  239.825;    0.000
344.872; 3537.850;  216.825;    0.000
344.928; 3493.850;  236.825;    0.000
344.985; 3578.850;  238.825;    0.000
345.042; 3559.850;  211.825;    0.000
345.098; 3556.850;  223.825;    0.000
345.155; 3515.850;  266.825;    0.000
345.212; 3401.850;  266.825;    0.000
345.268; 3531.850;  245.825;    0.000
345.325; 3570.850;  225.825;    0.000
345.381; 3484.850;  223.825;    0.000
345.438; 3512.850;  259.825;    0.000
345.495; 3521.850;  233.825;    0.000
345.551; 3520.850;  254.825;    0.000
345.608; 3363.850;  212.825;    0.000
345.664; 3472.850;  225.825;    0.000
345.721; 3534.850;  223.825;    0.000
345.777; 3425.850;  226.825;    0.000
345.834; 3402.850;  215.825;    0.000
345.890; 3428.850;  230.825;    0.000
345.947; 3386.850;  232.825;    0.000
346.003; 3483.850;  241.825;    0.000
346.060; 3485.850;  241.825;    0.000
346.116; 3541.850;  231.825;    0.000
346.173; 3568.850;  229.825;    0.000
346.229; 3381.850;  262.825;    0.000
346.285; 3518.850;  232.825;    0.000
346.342; 3477.850;  228.825;    0.000
346.398; 3581.850;  203.825;    0.000
346.455; 3506.850;  214.825;    0.000
346.511; 3519.850;  245.825;    0.000
346.567; 3537.850;  192.825;    0.000
346.624; 3445.850;  206.825;    0.000
346.680; 3519.850;  209.825;    0.000
346.737; 3591.850;  239.825;    0.000
346.793; 3520.850;  234.825;    0.000
346.849; 3531.850;  252.825;    0.000
346.906; 3569.850;  247.825;    0.000
346.962; 3450.850;  274.825;    0.000
347.018; 3506.850;  225.825;    0.000
347.074; 3574.850;  261.825;    0.000
347.131; 3522.850;  230.825;    0.000
347.187; 3623.850;  269.825;    0.000
347.243; 3461.850;  261.825;    0.000
347.300; 3501.850;  236.825;    0.000
347.356; 3583.850;  284.825;    0.000
347.412; 3451.850;  243.825;    0.000
347.468; 3508.850;  276.825;    0.000
347.524; 3527.850;  232.825;    0.000
347.581; 3617.850;  242.825;    0.000
347.637; 3568.850;  270.825;    0.000
347.693; 3520.850;  269.825;    0.000
347.749; 3522.850;  278.825;    0.000
347.805; 3564.850;  224.825;    0.000
347.862; 3559.850;  207.825;    0.000
347.918; 3608.850;  259.825;    0.000
347.974; 3626.850;  244.825;    0.000
348.030; 3577.850;  219.825;    0.000
348.086; 3616.850;  250.825;    0.000
348.142; 3622.850;  251.825;    0.000
348.198; 3614.850;  267.825;    0.000
348.254; 3705.850;  230.825;    0.000
348.311; 3547.850;  261.825;    0.000
348.367; 3588.850;  259.825;    0.000
348.423; 3545.850;  251.825;    0.000
348.479; 3479.850;  251.825;    0.000
348.535; 3591.850;  269.825;    0.000
348.591; 3616.850;  238.825;    0.000
348.647; 3534.850;  273.825;    0.000
348.703; 3521.850;  291.825;    0.000
348.759; 3724.850;  231.825;    0.000
348.815; 3602.850;  286.825;    0.000
348.871; 3580.850;  265.825;    0.000
348.927; 3599.850;  234.825;    0.000
348.983; 3587.850;  267.825;    0.000
349.039; 3540.850;  233.825;    0.000
349.095; 3615.850;  225.825;    0.000
349.151; 3610.850;  242.825;    0.000
349.207; 3678.850;  223.825;    0.000
349.263; 3598.850;  219.825;    0.000
349.319; 3552.850;  226.825;    0.000
349.374; 3580.850;  232.825;    0.000
349.430; 3595.850;  235.825;    0.000
349.486; 3597.850;  227.825;    0.000
349.542; 3573.850;  253.825;    0.000
349.598; 3610.850;  227.825;    0.000
349.654; 3688.850;  270.825;    0.000
349.710; 3624.850;  233.825;    0.000
349.766; 3711.850;  245.825;    0.000
349.821; 3601.850;  242.825;    0.000
349.877; 3657.850;  229.825;    0.000
349.933; 3642.850;  229.825;    0.000
349.989; 3660.850;  230.825;    0.000
350.045; 3648.850;  236.825;    0.000
350.100; 3645.850;  237.825;    0.000
350.156; 3599.850;  230.825;    0.000
350.212; 3617.850;  254.825;    0.000
350.268; 3672.850;  239.825;    0.000
350.323; 3548.850;  204.825;    0.000
350.379; 3673.850;  246.825;    0.000
350.435; 3590.850;  249.825;    0.000
350.491; 3553.850;  217.825;    0.000
350.546; 3562.850;  231.825;    0.000
350.602; 3606.850;  240.825;    0.000
350.658; 3693.850;  235.825;    0.000
350.713; 3645.850;  234.825;    0.000
350.769; 3689.850;  218.825;    0.000
350.825; 3573.850;  227.825;    0.000
350.880; 3605.850;  226.825;    0.000
350.936; 3685.850;  247.825;    0.000
350.992; 3553.850;  213.825;    0.000
351.047; 3561.850;  207.825;    0.000
351.103; 3649.850;  271.825;    0.000
351.158; 3661.850;  251.825;    0.000
351.214; 3661.850;  199.825;    0.000
351.270; 3697.850;  214.825;    0.000
351.325; 3683.850;  235.825;    0.000
351.381; 3663.850;  223.825;    0.000
351.436; 3637.850;  237.825;    0.000
351.492; 3761.850;  221.825;    0.000
351.547; 3827.850;  237.825;    0.000
351.603; 3700.850;  239.825;    0.000
351.658; 3686.850;  209.825;    0.000
351.714; 3693.850;  226.825;    0.000
351.769; 3671.850;  238.825;    0.000
351.825; 3720.850;  226.825;    0.000
351.880; 3648.850;  217.825;    0.000
351.936; 3603.850;  246.825;    0.000
351.991; 3655.850;  233.825;    0.000
352.047; 3768.850;  215.825;    0.000
352.102; 3656.850;  243.825;    0.000
352.158; 3692.850;  234.825;    0.000
352.213; 3560.850;  201.825;    0.000
352.268; 3632.850;  234.825;    0.000
352.324; 3732.850;  211.825;    0.000
352.379; 3728.850;  221.825;    0.000
352.434; 3572.850;  259.825;    0.000
352.490; 3644.850;  250.825;    0.000
352.545; 3786.850;  251.825;    0.000
352.601; 3678.850;  283.825;    0.000
352.656; 3704.850;  236.825;    0.000
352.711; 3750.850;  237.825;    0.000
352.767; 3676.850;  201.825;    0.000
352.822; 3745.850;  209.825;    0.000
352.877; 3783.850;  239.825;    0.000
352.932; 3662.850;  228.825;    0.000
352.988; 3695.850;  202.825;    0.000
353.043; 3754.850;  268.825;    0.000
353.098; 3709.850;  208.825;    0.000
353.153; 3708.850;  219.825;    0.000
353.209; 3683.850;  252.825;    0.000
353.264; 3736.850;  225.825;    0.000
353.319; 3619.850;  234.825;    0.000
353.374; 3703.850;  236.825;    0.000
353.430; 3692.850;  245.825;    0.000
353.485; 3736.850;  238.825;    0.000
353.540; 3696.850;  238.825;    0.000
353.595; 3724.850;  215.825;    0.000
353.650; 3732.850;  238.825;    0.000
353.705; 3636.850;  274.825;    0.000
353.761; 3742.850;  229.825;    0.000
353.816; 3822.850;  275.825;    0.000
353.871; 3716.850;  245.825;    0.000
353.926; 3724.850;  253.825;    0.000
353.981; 3822.850;  269.825;    0.000
354.036; 3753.850;  246.825;    0.000
354.091; 3741.850;  257.825;    0.000
354.146; 3754.850;  278.825;    0.000
354.201; 3718.850;  276.825;    0.000
354.256; 3741.850;  224.825;    0.000
354.311; 3835.850;  287.825;    0.000
354.367; 3667.850;  210.825;    0.000
354.422; 3737.850;  231.825;    0.000
354.477; 3725.850;  226.825;    0.000
354.532; 3795.850;  262.825;    0.000
354.587; 3752.850;  275.825;    0.000
354.642; 3784.850;  247.825;    0.000
354.697; 3867.850;  251.825;    0.000
354.751; 3711.850;  249.825;    0.000
354.806; 3664.850;  217.825;    0.000
354.861; 3736.850;  247.825;    0.000
354.916; 3820.850;  259.825;    0.000
354.971; 3734.850;  241.825;    0.000
355.026; 3810.850;  250.825;    0.000
355.081; 3756.850;  244.825;    0.000
355.136; 3730.850;  203.825;    0.000
355.191; 3796.850;  241.825;    0.000
355.246; 3785.850;  248.825;    0.000
355.301; 3901.850;  259.825;    0.000
355.355; 3820.850;  236.825;    0.000
355.410; 3835.850;  221.825;    0.000
355.465; 3728.850;  206.825;    0.000
355.520; 3825.850;  258.825;    0.000
355.575; 3813.850;  273.825;    0.000
355.630; 3772.850;  252.825;    0.000
355.684; 3746.850;  246.825;    0.000
355.739; 3772.850;  251.825;    0.000
355.794; 3857.850;  247.825;    0.000
355.849; 3809.850;  246.825;    0.000
355.904; 3816.850;  262.825;    0.000
355.958; 3767.850;  249.825;    0.000
356.013; 3756.850;  213.825;    0.000
356.068; 3719.850;  255.825;    0.000
356.123; 3779.850;  205.825;    0.000
356.177; 3774.850;  239.825;    0.000
356.232; 3746.850;  258.825;    0.000
356.287; 3732.850;  248.825;    0.000
356.341; 3836.850;  221.825;    0.000
356.396; 3726.850;  220.825;    0.000
356.451; 3753.850;  231.825;    0.000
356.505; 3831.850;  231.825;    0.000
356.560; 3892.850;  254.825;    0.000
356.615; 3790.850;  234.825;    0.000
356.669; 3781.850;  250.825;    0.000
356.724; 3773.850;  261.825;    0.000
356.778; 3706.850;  207.825;    0.000
356.833; 3712.850;  205.825;    0.000
356.888; 3751.850;  235.825;    0.000
356.942; 3781.850;  205.825;    0.000
356.997; 3905.850;  276.825;    0.000
357.051; 3863.850;  243.825;    0.000
357.106; 3828.850;  242.825;    0.000
357.160; 3838.850;  241.825;    0.000
357.215; 3681.850;  212.825;    0.000
357.269; 3811.850;  238.825;    0.000
357.324; 3848.850;  223.825;    0.000
357.378; 3826.850;  221.825;    0.000
357.433; 3777.850;  262.825;    0.000
357.487; 3847.850;  246.825;    0.000
357.542; 3754.850;  221.825;    0.000
357.596; 3904.850;  225.825;    0.000
357.651; 3817.850;  244.825;    0.000
357.705; 3727.850;  269.825;    0.000
357.760; 3782.850;  209.825;    0.000
357.814; 3887.850;  250.825;    0.000
357.868; 3906.850;  266.825;    0.000
357.923; 3865.850;  248.825;    0.000
357.977; 3812.850;  262.825;    0.000
358.032; 3817.850;  228.825;    0.000
358.086; 3838.850;  257.825;    0.000
358.140; 3819.850;  217.825;    0.000
358.195; 3801.850;  246.825;    0.000
358.249; 3768.850;  255.825;    0.000
358.303; 3809.850;  252.825;    0.000
358.358; 3743.850;  278.825;    0.000
358.412; 3778.850;  276.825;    0.000
358.466; 3807.850;  275.825;    0.000
358.521; 3878.850;  229.825;    0.000
358.575; 3711.850;  270.825;    0.000
358.629; 3830.850;  239.825;    0.000
358.683; 3859.850;  254.825;    0.000
358.738; 3780.850;  239.825;    0.000
358.792; 3773.850;  272.825;    0.000
358.846; 3778.850;  289.825;    0.000
358.900; 3697.850;  299.825;    0.000
358.954; 3846.850;  247.825;    0.000
359.009; 3842.850;  245.825;    0.000
359.063; 3777.850;  272.825;    0.000
359.117; 3735.850;  242.825;    0.000
359.171; 3743.850;  279.825;    0.000
359.225; 3763.850;  221.825;    0.000
359.280; 3831.850;  238.825;    0.000
359.334; 3863.850;  264.825;    0.000
359.388; 3864.850;  273.825;    0.000
359.442; 3790.850;  233.825;    0.000
359.496; 3802.850;  226.825;    0.000
359.550; 3750.850;  271.825;    0.000
359.604; 3718.850;  296.825;    0.000
359.658; 3818.850;  252.825;    0.000
359.712; 3801.850;  256.825;    0.000
359.766; 3733.850;  257.825;    0.000
359.820; 3849.850;  239.825;    0.000
359.875; 3777.850;  252.825;    0.000
359.929; 3851.850;  258.825;    0.000
359.983; 3835.850;  232.825;    0.000
360.037; 3797.850;  268.825;    0.000
360.091; 3765.850;  303.825;    0.000
360.145; 3639.850;  232.825;    0.000
360.199; 3780.850;  255.825;    0.000
360.253; 3644.850;  252.825;    0.000
360.306; 3773.850;  278.825;    0.000
360.360; 3681.850;  249.825;    0.000
360.414; 3714.850;  274.825;    0.000
360.468; 3768.850;  247.825;    0.000
360.522; 3712.850;  268.825;    0.000
360.576; 3807.850;  263.825;    0.000
360.630; 3849.850;  296.825;    0.000
360.684; 3769.850;  253.825;    0.000
360.738; 3854.850;  301.825;    0.000
360.792; 3816.850;  282.825;    0.000
360.846; 3804.850;  277.825;    0.000
360.899; 3863.850;  292.825;    0.000
360.953; 3755.850;  266.825;    0.000
361.007; 3743.850;  240.825;    0.000
361.061; 3792.850;  247.825;    0.000
361.115; 3734.850;  276.825;    0.000
361.168; 3918.850;  288.825;    0.000
361.222; 3784.850;  271.825;    0.000
361.276; 3770.850;  270.825;    0.000
361.330; 3796.850;  295.825;    0.000
361.384; 3697.850;  276.825;    0.000
361.437; 3773.850;  280.825;    0.000
361.491; 3822.850;  261.825;    0.000
361.545; 3721.850;  273.825;    0.000
361.599; 3810.850;  269.825;    0.000
361.652; 3741.850;  258.825;    0.000
361.706; 3657.850;  270.825;    0.000
361.760; 3769.850;  294.825;    0.000
361.813; 3757.850;  244.825;    0.000
361.867; 3793.850;  294.825;    0.000
361.921; 3789.850;  285.825;    0.000
361.974; 3677.850;  269.825;    0.000
362.028; 3745.850;  275.825;    0.000
362.082; 3713.850;  270.825;    0.000
362.135; 3667.850;  259.825;    0.000
362.189; 3755.850;  302.825;    0.000
362.242; 3823.850;  296.825;    0.000
362.296; 3809.850;  285.825;    0.000
362.350; 3745.850;  303.825;    0.000
362.403; 3736.850;  271.825;    0.000
362.457; 3708.850;  285.825;    0.000
362.510; 3598.850;  288.825;    0.000
362.564; 3737.850;  268.825;    0.000
362.617; 3715.850;  285.825;    0.000
362.671; 3826.850;  277.825;    0.000
362.724; 3696.850;  242.825;    0.000
362.778; 3731.850;  274.825;    0.000
362.831; 3695.850;  280.825;    0.000
362.885; 3724.850;  284.825;    0.000
362.938; 3547.850;  276.825;    0.000
362.992;  304.850;  289.825;    0.000
363.045;  264.850;  247.825;    0.000
363.099;  276.850;  260.825;    0.000
363.152;  308.850;  258.825;    0.000
363.205;  276.850;  286.825;    0.000
363.259;  276.850;  236.825;    0.000
363.312;  310.850;  297.825;    0.000
363.366;  290.850;  266.825;    0.000
363.419;  282.850;  309.825;    0.000
363.472;  302.850;  293.825;    0.000
363.526;  262.850;  270.825;    0.000
363.579;  259.850;  276.825;    0.000
363.632;  297.850;  279.825;    0.000
363.686;  291.850;  292.825;    0.000
363.739;  285.850;  248.825;    0.000
363.792;  271.850;  287.825;    0.000

