
Integration time [ms]:   1.000
Averaging Nr. [scans]: 1
Smoothing Nr. [pixels]: 0
Data measured with spectrometer [name]: VIS
Wave   ;Sample   ;Dark     ;Reference
[nm]   ;[counts] ;[counts] ;[counts] 

450.961;  191.250;  200.375;    0.000
451.100;  226.250;  241.375;    0.000
451.239;  225.250;  201.375;    0.000
451.377;  227.250;  262.375;    0.000
451.516;  197.250;  229.375;    0.000
451.655;  245.250;  211.375;    0.000
451.794;  213.250;  225.375;    0.000
451.932;  216.250;  247.375;    0.000
452.071;  227.250;  260.375;    0.000
452.210;  212.250;  235.375;    0.000
452.348;  210.250;  276.375;    0.000
452.487;  206.250;  259.375;    0.000
452.626;  184.250;  254.375;    0.000
452.764;  221.250;  233.375;    0.000
452.903;  218.250;  202.375;    0.000
453.042;  243.250;  211.375;    0.000
453.180; 2087.250;  240.375;    0.000
453.319; 2150.250;  238.375;    0.000
453.458; 2140.250;  215.375;    0.000
453.596; 2119.250;  252.375;    0.000
453.735; 2239.250;  240.375;    0.000
453.873; 2281.250;  257.375;    0.000
454.012; 2235.250;  228.375;    0.000
454.150; 2174.250;  270.375;    0.000
454.289; 2245.250;  233.375;    0.000
454.427; 2251.250;  243.375;    0.000
454.566; 2280.250;  257.375;    0.000
454.704; 2295.250;  243.375;    0.000
454.843; 2209.250;  190.375;    0.000
454.981; 2326.250;  271.375;    0.000
455.120; 2261.250;  210.375;    0.000
455.258; 2414.250;  235.375;    0.000
455.397; 2301.250;  214.375;    0.000
455.535; 2422.250;  214.375;    0.000
455.674; 2323.250;  184.375;    0.000
455.812; 2440.250;  228.375;    0.000
455.951; 2335.250;  204.375;    0.000
456.089; 2528.250;  220.375;    0.000
456.227; 2501.250;  196.375;    0.000
456.366; 2531.250;  261.375;    0.000
456.504; 2612.250;  249.375;    0.000
456.642; 2615.250;  245.375;    0.000
456.781; 2522.250;  183.375;    0.000
456.919; 2702.250;  203.375;    0.000
457.057; 2687.250;  177.375;    0.000
457.196; 2582.250;  191.375;    0.000
457.334; 2743.250;  233.375;    0.000
457.472; 2755.250;  214.375;    0.000
457.610; 2709.250;  230.375;    0.000
457.749; 2829.250;  247.375;    0.000
457.887; 2873.250;  220.375;    0.000
458.025; 2893.250;  195.375;    0.000
458.163; 2817.250;  224.375;    0.000
458.301; 2980.250;  228.375;    0.000
458.440; 3004.250;  200.375;    0.000
458.578; 3156.250;  233.375;    0.000
458.716; 3210.250;  182.375;    0.000
458.854; 3170.250;  251.375;    0.000
458.992; 3310.250;  187.375;    0.000
459.130; 3312.250;  229.375;    0.000
459.269; 3322.250;  237.375;    0.000
459.407; 3351.250;  228.375;    0.000
459.545; 3431.250;  216.375;    0.000
459.683; 3373.250;  204.375;    0.000
459.821; 3426.250;  191.375;    0.000
459.959; 3569.250;  227.375;    0.000
460.097; 3535.250;  221.375;    0.000
460.235; 3623.250;  241.375;    0.000
460.373; 3626.250;  231.375;    0.000
460.511; 3655.250;  214.375;    0.000
460.649; 3724.250;  172.375;    0.000
460.787; 3697.250;  275.375;    0.000
460.925; 3597.250;  175.375;    0.000
461.063; 3699.250;  252.375;    0.000
461.201; 3795.250;  210.375;    0.000
461.339; 3754.250;  237.375;    0.000
461.477; 3706.250;  210.375;    0.000
461.615; 3862.250;  236.375;    0.000
461.753; 3817.250;  215.375;    0.000
461.891; 3893.250;  222.375;    0.000
462.029; 3913.250;  227.375;    0.000
462.166; 4065.250;  202.375;    0.000
462.304; 3923.250;  191.375;    0.000
462.442; 4094.250;  210.375;    0.000
462.580; 4088.250;  184.375;    0.000
462.718; 4244.250;  220.375;    0.000
462.856; 4210.250;  226.375;    0.000
462.993; 4145.250;  254.375;    0.000
463.131; 4181.250;  200.375;    0.000
463.269; 4030.250;  215.375;    0.000
463.407; 3972.250;  213.375;    0.000
463.545; 3815.250;  242.375;    0.000
463.682; 3964.250;  212.375;    0.000
463.820; 4216.250;  185.375;    0.000
463.958; 4265.250;  212.375;    0.000
464.095; 4516.250;  181.375;    0.000
464.233; 4601.250;  192.375;    0.000
464.371; 4432.250;  247.375;    0.000
464.509; 4410.250;  151.375;    0.000
464.646; 4414.250;  207.375;    0.000
464.784; 4288.250;  199.375;    0.000
464.921; 4404.250;  253.375;    0.000
465.059; 4148.250;  214.375;    0.000
465.197; 4123.250;  200.375;    0.000
465.334; 3957.250;  180.375;    0.000
465.472; 4064.250;  204.375;    0.000
465.609; 3954.250;  203.375;    0.000
465.747; 3836.250;  214.375;    0.000
465.885; 3731.250;  233.375;    0.000
466.022; 3806.250;  215.375;    0.000
466.160; 3898.250;  201.375;    0.000
466.297; 3839.250;  196.375;    0.000
466.435; 3738.250;  230.375;    0.000
466.572; 3805.250;  227.375;    0.000
466.710; 3829.250;  218.375;    0.000
466.847; 3699.250;  245.375;    0.000
466.985; 3737.250;  223.375;    0.000
467.122; 3775.250;  168.375;    0.000
467.260; 3726.250;  196.375;    0.000
467.397; 3538.250;  198.375;    0.000
467.534; 3613.250;  219.375;    0.000
467.672; 3692.250;  214.375;    0.000
467.809; 3511.250;  185.375;    0.000
467.947; 3721.250;  247.375;    0.000
468.084; 3725.250;  196.375;    0.000
468.221; 3740.250;  238.375;    0.000
468.359; 3654.250;  236.375;    0.000
468.496; 3699.250;  235.375;    0.000
468.633; 3714.250;  218.375;    0.000
468.771; 3766.250;  223.375;    0.000
468.908; 3740.250;  208.375;    0.000
469.045; 3715.250;  249.375;    0.000
469.183; 3793.250;  222.375;    0.000
469.320; 3863.250;  216.375;    0.000
469.457; 3835.250;  224.375;    0.000
469.594; 3796.250;  259.375;    0.000
469.732; 3825.250;  223.375;    0.000
469.869; 4094.250;  234.375;    0.000
470.006; 3879.250;  225.375;    0.000
470.143; 4033.250;  243.375;    0.000
470.280; 4186.250;  208.375;    0.000
470.417; 4068.250;  232.375;    0.000
470.555; 3993.250;  218.375;    0.000
470.692; 3965.250;  223.375;    0.000
470.829; 4046.250;  238.375;    0.000
470.966; 3995.250;  205.375;    0.000
471.103; 4154.250;  259.375;    0.000
471.240; 3940.250;  214.375;    0.000
471.377; 3920.250;  226.375;    0.000
471.514; 3857.250;  250.375;    0.000
471.651; 4013.250;  221.375;    0.000
471.789; 3875.250;  242.375;    0.000
471.926; 3884.250;  190.375;    0.000
472.063; 3870.250;  234.375;    0.000
472.200; 3944.250;  252.375;    0.000
472.337; 3940.250;  241.375;    0.000
472.474; 3823.250;  244.375;    0.000
472.611; 3794.250;  268.375;    0.000
472.748; 3873.250;  222.375;    0.000
472.884; 3782.250;  271.375;    0.000
473.021; 3892.250;  195.375;    0.000
473.158; 3759.250;  205.375;    0.000
473.295; 3879.250;  223.375;    0.000
473.432; 3816.250;  216.375;    0.000
473.569; 3787.250;  196.375;    0.000
473.706; 3764.250;  190.375;    0.000
473.843; 3785.250;  211.375;    0.000
473.980; 3917.250;  254.375;    0.000
474.117; 3756.250;  185.375;    0.000
474.253; 3897.250;  229.375;    0.000
474.390; 3772.250;  238.375;    0.000
474.527; 3736.250;  220.375;    0.000
474.664; 3726.250;  242.375;    0.000
474.801; 3760.250;  229.375;    0.000
474.937; 3826.250;  229.375;    0.000
475.074; 3776.250;  210.375;    0.000
475.211; 3876.250;  219.375;    0.000
475.348; 3739.250;  226.375;    0.000
475.484; 3890.250;  207.375;    0.000
475.621; 3865.250;  233.375;    0.000
475.758; 3830.250;  230.375;    0.000
475.894; 3906.250;  234.375;    0.000
476.031; 4009.250;  202.375;    0.000
476.168; 3817.250;  222.375;    0.000
476.304; 3886.250;  237.375;    0.000
476.441; 3967.250;  238.375;    0.000
476.578; 4011.250;  216.375;    0.000
476.714; 4092.250;  212.375;    0.000
476.851; 4006.250;  210.375;    0.000
476.987; 4069.250;  239.375;    0.000
477.124; 4095.250;  250.375;    0.000
477.261; 4087.250;  227.375;    0.000
477.397; 4026.250;  189.375;    0.000
477.534; 4071.250;  204.375;    0.000
477.670; 4160.250;  190.375;    0.000
477.807; 4031.250;  198.375;    0.000
477.943; 4305.250;  216.375;    0.000
478.080; 4345.250;  213.375;    0.000
478.216; 4323.250;  239.375;    0.000
478.353; 4326.250;  218.375;    0.000
478.489; 4309.250;  184.375;    0.000
478.626; 4370.250;  223.375;    0.000
478.762; 4450.250;  213.375;    0.000
478.898; 4407.250;  216.375;    0.000
479.035; 4439.250;  250.375;    0.000
479.171; 4260.250;  201.375;    0.000
479.308; 4427.250;  242.375;    0.000
479.444; 4413.250;  205.375;    0.000
479.580; 4309.250;  203.375;    0.000
479.717; 4497.250;  260.375;    0.000
479.853; 4474.250;  225.375;    0.000
479.989; 4409.250;  226.375;    0.000
480.126; 4476.250;  211.375;    0.000
480.262; 4598.250;  220.375;    0.000
480.398; 4632.250;  207.375;    0.000
480.535; 4591.250;  179.375;    0.000
480.671; 4528.250;  200.375;    0.000
480.807; 4542.250;  190.375;    0.000
480.943; 4417.250;  165.375;    0.000
481.080; 4374.250;  210.375;    0.000
481.216; 4475.250;  232.375;    0.000
481.352; 4520.250;  235.375;    0.000
481.488; 4459.250;  208.375;    0.000
481.624; 4598.250;  245.375;    0.000
481.760; 4419.250;  210.375;    0.000
481.897; 4385.250;  189.375;    0.000
482.033; 4498.250;  256.375;    0.000
482.169; 4289.250;  257.375;    0.000
482.305; 4415.250;  199.375;    0.000
482.441; 4357.250;  182.375;    0.000
482.577; 4354.250;  223.375;    0.000
482.713; 4369.250;  243.375;    0.000
482.849; 4236.250;  197.375;    0.000
482.985; 4475.250;  240.375;    0.000
483.121; 4434.250;  210.375;    0.000
483.258; 4551.250;  248.375;    0.000
483.394; 4654.250;  224.375;    0.000
483.530; 4472.250;  209.375;    0.000
483.665; 4469.250;  225.375;    0.000
483.801; 4481.250;  216.375;    0.000
483.937; 4545.250;  211.375;    0.000
484.073; 4497.250;  259.375;    0.000
484.209; 4438.250;  191.375;    0.000
484.345; 4666.250;  239.375;    0.000
484.481; 4666.250;  231.375;    0.000
484.617; 4658.250;  216.375;    0.000
484.753; 4736.250;  180.375;    0.000
484.889; 4713.250;  252.375;    0.000
485.025; 4599.250;  244.375;    0.000
485.161; 4621.250;  242.375;    0.000
485.296; 4665.250;  235.375;    0.000
485.432; 4712.250;  247.375;    0.000
485.568; 4676.250;  203.375;    0.000
485.704; 4701.250;  229.375;    0.000
485.840; 4562.250;  230.375;    0.000
485.975; 4750.250;  266.375;    0.000
486.111; 4568.250;  220.375;    0.000
486.247; 4700.250;  264.375;    0.000
486.383; 4610.250;  213.375;    0.000
486.518; 4645.250;  222.375;    0.000
486.654; 4717.250;  244.375;    0.000
486.790; 4692.250;  273.375;    0.000
486.926; 4630.250;  203.375;    0.000
487.061; 4803.250;  227.375;    0.000
487.197; 4680.250;  210.375;    0.000
487.333; 4536.250;  209.375;    0.000
487.468; 4532.250;  197.375;    0.000
487.604; 4571.250;  230.375;    0.000
487.740; 4473.250;  254.375;    0.000
487.875; 4660.250;  286.375;    0.000
488.011; 4562.250;  225.375;    0.000
488.146; 4642.250;  251.375;    0.000
488.282; 4539.250;  242.375;    0.000
488.417; 4652.250;  230.375;    0.000
488.553; 4674.250;  260.375;    0.000
488.688; 4559.250;  207.375;    0.000
488.824; 4557.250;  204.375;    0.000
488.960; 4625.250;  248.375;    0.000
489.095; 4478.250;  204.375;    0.000
489.230; 4541.250;  227.375;    0.000
489.366; 4623.250;  226.375;    0.000
489.501; 4670.250;  199.375;    0.000
489.637; 4518.250;  233.375;    0.000
489.772; 4537.250;  249.375;    0.000
489.908; 4700.250;  200.375;    0.000
490.043; 4589.250;  246.375;    0.000
490.178; 4579.250;  222.375;    0.000
490.314; 4517.250;  219.375;    0.000
490.449; 4548.250;  227.375;    0.000
490.585; 4508.250;  209.375;    0.000
490.720; 4478.250;  238.375;    0.000
490.855; 4603.250;  222.375;    0.000
490.991; 4554.250;  202.375;    0.000
491.126; 4604.250;  272.375;    0.000
491.261; 4660.250;  261.375;    0.000
491.396; 4613.250;  190.375;    0.000
491.532; 4671.250;  202.375;    0.000
491.667; 4611.250;  208.375;    0.000
491.802; 4558.250;  203.375;    0.000
491.937; 4516.250;  253.375;    0.000
492.073; 4622.250;  242.375;    0.000
492.208; 4607.250;  230.375;    0.000
492.343; 4449.250;  183.375;    0.000
492.478; 4491.250;  246.375;    0.000
492.613; 4572.250;  223.375;    0.000
492.749; 4481.250;  230.375;    0.000
492.884; 4473.250;  190.375;    0.000
493.019; 4516.250;  234.375;    0.000
493.154; 4497.250;  218.375;    0.000
493.289; 4550.250;  222.375;    0.000
493.424; 4610.250;  196.375;    0.000
493.559; 4468.250;  202.375;    0.000
493.694; 4608.250;  180.375;    0.000
493.829; 4508.250;  224.375;    0.000
493.964; 4453.250;  218.375;    0.000
494.099; 4613.250;  275.375;    0.000
494.234; 4628.250;  226.375;    0.000
494.369; 4676.250;  225.375;    0.000
494.504; 4588.250;  219.375;    0.000
494.639; 4512.250;  296.375;    0.000
494.774; 4472.250;  228.375;    0.000
494.909; 4596.250;  222.375;    0.000
495.044; 4662.250;  215.375;    0.000
495.179; 4486.250;  200.375;    0.000
495.314; 4458.250;  235.375;    0.000
495.449; 4474.250;  249.375;    0.000
495.584; 4408.250;  228.375;    0.000
495.719; 4467.250;  212.375;    0.000
495.854; 4617.250;  201.375;    0.000
495.988; 4567.250;  248.375;    0.000
496.123; 4639.250;  209.375;    0.000
496.258; 4680.250;  249.375;    0.000
496.393; 4665.250;  223.375;    0.000
496.528; 4698.250;  209.375;    0.000
496.663; 4545.250;  207.375;    0.000
496.797; 4673.250;  229.375;    0.000
496.932; 4730.250;  225.375;    0.000
497.067; 4786.250;  218.375;    0.000
497.202; 4799.250;  163.375;    0.000
497.336; 4934.250;  246.375;    0.000
497.471; 4818.250;  229.375;    0.000
497.606; 4839.250;  251.375;    0.000
497.740; 4903.250;  220.375;    0.000
497.875; 4975.250;  216.375;    0.000
498.010; 5193.250;  226.375;    0.000
498.144; 5145.250;  237.375;    0.000
498.279; 5377.250;  196.375;    0.000
498.414; 5531.250;  219.375;    0.000
498.548; 5605.250;  205.375;    0.000
498.683; 5798.250;  206.375;    0.000
498.817; 5796.250;  225.375;    0.000
498.952; 5836.250;  221.375;    0.000
499.087; 6139.250;  220.375;    0.000
499.221; 6314.250;  233.375;    0.000
499.356; 6445.250;  230.375;    0.000
499.490; 6798.250;  229.375;    0.000
499.625; 7142.250;  231.375;    0.000
499.759; 7123.250;  243.375;    0.000
499.894; 7555.250;  241.375;    0.000
500.028; 7848.250;  264.375;    0.000
500.162; 7945.250;  287.375;    0.000
500.297; 8451.250;  234.375;    0.000
500.431; 8419.250;  230.375;    0.000
500.566; 8431.250;  213.375;    0.000
500.700; 8286.250;  243.375;    0.000
500.835; 7886.250;  272.375;    0.000
500.969; 7597.250;  188.375;    0.000
501.103; 7317.250;  200.375;    0.000
501.238; 7141.250;  257.375;    0.000
501.372; 6937.250;  224.375;    0.000
501.506; 6483.250;  225.375;    0.000
501.641; 6360.250;  271.375;    0.000
501.775; 6252.250;  199.375;    0.000
501.909; 5970.250;  249.375;    0.000
502.043; 5518.250;  211.375;    0.000
502.178; 5641.250;  269.375;    0.000
502.312; 5486.250;  198.375;    0.000
502.446; 5274.250;  256.375;    0.000
502.580; 5099.250;  195.375;    0.000
502.715; 5177.250;  224.375;    0.000
502.849; 5138.250;  245.375;    0.000
502.983; 5149.250;  250.375;    0.000
503.117; 4961.250;  193.375;    0.000
503.251; 4839.250;  242.375;    0.000
503.385; 4812.250;  227.375;    0.000
503.520; 4709.250;  235.375;    0.000
503.654; 4674.250;  220.375;    0.000
503.788; 4658.250;  267.375;    0.000
503.922; 4621.250;  220.375;    0.000
504.056; 4588.250;  238.375;    0.000
504.190; 4436.250;  212.375;    0.000
504.324; 4563.250;  265.375;    0.000
504.458; 4641.250;  228.375;    0.000
504.592; 4502.250;  231.375;    0.000
504.726; 4502.250;  218.375;    0.000
504.860; 4306.250;  253.375;    0.000
504.994; 4229.250;  217.375;    0.000
505.128; 4218.250;  243.375;    0.000
505.262; 4199.250;  194.375;    0.000
505.396; 4155.250;  210.375;    0.000
505.530; 3925.250;  211.375;    0.000
505.664; 3912.250;  219.375;    0.000
505.798; 3955.250;  240.375;    0.000
505.932; 3869.250;  240.375;    0.000
506.066; 3823.250;  252.375;    0.000
506.199; 3890.250;  242.375;    0.000
506.333; 3770.250;  244.375;    0.000
506.467; 3791.250;  223.375;    0.000
506.601; 3798.250;  183.375;    0.000
506.735; 3761.250;  249.375;    0.000
506.869; 3811.250;  270.375;    0.000
507.002; 3709.250;  207.375;    0.000
507.136; 3625.250;  242.375;    0.000
507.270; 3601.250;  232.375;    0.000
507.404; 3658.250;  195.375;    0.000
507.537; 3693.250;  218.375;    0.000
507.671; 3562.250;  246.375;    0.000
507.805; 3588.250;  244.375;    0.000
507.939; 3532.250;  251.375;    0.000
508.072; 3635.250;  212.375;    0.000
508.206; 3478.250;  198.375;    0.000
508.340; 3553.250;  234.375;    0.000
508.473; 3428.250;  217.375;    0.000
508.607; 3552.250;  224.375;    0.000
508.740; 3503.250;  207.375;    0.000
508.874; 3423.250;  230.375;    0.000
509.008; 3448.250;  246.375;    0.000
509.141; 3478.250;  239.375;    0.000
509.275; 3548.250;  229.375;    0.000
509.408; 3451.250;  234.375;    0.000
509.542; 3407.250;  212.375;    0.000
509.675; 3420.250;  256.375;    0.000
509.809; 3475.250;  232.375;    0.000
509.942; 3460.250;  237.375;    0.000
510.076; 3383.250;  226.375;    0.000
510.209; 3461.250;  251.375;    0.000
510.343; 3444.250;  229.375;    0.000
510.476; 3355.250;  285.375;    0.000
510.610; 3340.250;  211.375;    0.000
510.743; 3473.250;  258.375;    0.000
510.877; 3390.250;  244.375;    0.000
511.010; 3162.250;  235.375;    0.000
511.143; 3229.250;  251.375;    0.000
511.277; 3202.250;  228.375;    0.000
511.410; 3360.250;  216.375;    0.000
511.543; 3357.250;  231.375;    0.000
511.677; 3293.250;  244.375;    0.000
511.810; 3228.250;  186.375;    0.000
511.943; 3439.250;  211.375;    0.000
512.077; 3274.250;  201.375;    0.000
512.210; 3240.250;  194.375;    0.000
512.343; 3336.250;  233.375;    0.000
512.476; 3414.250;  234.375;    0.000
512.610; 3187.250;  224.375;    0.000
512.743; 3383.250;  255.375;    0.000
512.876; 3268.250;  264.375;    0.000
513.009; 3252.250;  283.375;    0.000
513.142; 3297.250;  246.375;    0.000
513.276; 3259.250;  217.375;    0.000
513.409; 3339.250;  222.375;    0.000
513.542; 3190.250;  237.375;    0.000
513.675; 3322.250;  238.375;    0.000
513.808; 3170.250;  220.375;    0.000
513.941; 3265.250;  233.375;    0.000
514.074; 3235.250;  248.375;    0.000
514.207; 3295.250;  233.375;    0.000
514.340; 3217.250;  190.375;    0.000
514.474; 3275.250;  221.375;    0.000
514.607; 3276.250;  213.375;    0.000
514.740; 3375.250;  251.375;    0.000
514.873; 3325.250;  257.375;    0.000
515.006; 3344.250;  268.375;    0.000
515.139; 3279.250;  257.375;    0.000
515.272; 3320.250;  227.375;    0.000
515.404; 3439.250;  238.375;    0.000
515.537; 3332.250;  275.375;    0.000
515.670; 3412.250;  239.375;    0.000
515.803; 3525.250;  223.375;    0.000
515.936; 3476.250;  202.375;    0.000
516.069; 3545.250;  188.375;    0.000
516.202; 3656.250;  240.375;    0.000
516.335; 3652.250;  252.375;    0.000
516.468; 3880.250;  254.375;    0.000
516.600; 4886.250;  254.375;    0.000
516.733; 6310.250;  255.375;    0.000
516.866; 6052.250;  265.375;    0.000
516.999; 5138.250;  251.375;    0.000
517.132; 7050.250;  256.375;    0.000
517.264; 9831.250;  202.375;    0.000
517.397; 9371.250;  248.375;    0.000
517.530; 6376.250;  221.375;    0.000
517.663; 5257.250;  244.375;    0.000
517.795; 4905.250;  245.375;    0.000
517.928; 4639.250;  236.375;    0.000
518.061; 4819.250;  219.375;    0.000
518.193; 6914.250;  251.375;    0.000
518.326;11780.250;  271.375;    0.000
518.459;11772.250;  207.375;    0.000
518.591; 8015.250;  217.375;    0.000
518.724; 5589.250;  200.375;    0.000
518.857; 4899.250;  204.375;    0.000
518.989; 4522.250;  242.375;    0.000
519.122; 4238.250;  254.375;    0.000
519.254; 4039.250;  239.375;    0.000
519.387; 3742.250;  235.375;    0.000
519.519; 3753.250;  227.375;    0.000
519.652; 3561.250;  178.375;    0.000
519.784; 3523.250;  226.375;    0.000
519.917; 3515.250;  256.375;    0.000
520.049; 3451.250;  234.375;    0.000
520.182; 3488.250;  258.375;    0.000
520.314; 3258.250;  298.375;    0.000
520.447; 3393.250;  204.375;    0.000
520.579; 3309.250;  235.375;    0.000
520.712; 3229.250;  208.375;    0.000
520.844; 3228.250;  272.375;    0.000
520.976; 3149.250;  234.375;    0.000
521.109; 3144.250;  235.375;    0.000
521.241; 3072.250;  250.375;    0.000
521.373; 3032.250;  233.375;    0.000
521.506; 3162.250;  231.375;    0.000
521.638; 3014.250;  258.375;    0.000
521.770; 3140.250;  226.375;    0.000
521.903; 3114.250;  258.375;    0.000
522.035; 2972.250;  263.375;    0.000
522.167; 3015.250;  214.375;    0.000
522.300; 3067.250;  212.375;    0.000
522.432; 3024.250;  220.375;    0.000
522.564; 2873.250;  228.375;    0.000
522.696; 3058.250;  272.375;    0.000
522.828; 2957.250;  222.375;    0.000
522.961; 2877.250;  205.375;    0.000
523.093; 3024.250;  253.375;    0.000
523.225; 2974.250;  239.375;    0.000
523.357; 2949.250;  263.375;    0.000
523.489; 2870.250;  264.375;    0.000
523.621; 2884.250;  259.375;    0.000
523.753; 2962.250;  233.375;    0.000
523.885; 2835.250;  232.375;    0.000
524.018; 2918.250;  214.375;    0.000
524.150; 2815.250;  235.375;    0.000
524.282; 2806.250;  242.375;    0.000
524.414; 2961.250;  261.375;    0.000
524.546; 2669.250;  233.375;    0.000
524.678; 2699.250;  242.375;    0.000
524.810; 2779.250;  216.375;    0.000
524.942; 2805.250;  220.375;    0.000
525.074; 2732.250;  249.375;    0.000
525.206; 2678.250;  227.375;    0.000
525.338; 2675.250;  250.375;    0.000
525.469; 2689.250;  231.375;    0.000
525.601; 2782.250;  245.375;    0.000
525.733; 2690.250;  187.375;    0.000
525.865; 2707.250;  280.375;    0.000
525.997; 2697.250;  216.375;    0.000
526.129; 2756.250;  228.375;    0.000
526.261; 2639.250;  187.375;    0.000
526.393; 2673.250;  228.375;    0.000
526.524; 2653.250;  201.375;    0.000
526.656; 2744.250;  199.375;    0.000
526.788; 2666.250;  233.375;    0.000
526.920; 2621.250;  256.375;    0.000
527.052; 2654.250;  219.375;    0.000
527.183; 2666.250;  227.375;    0.000
527.315; 2600.250;  266.375;    0.000
527.447; 2677.250;  239.375;    0.000
527.578; 2574.250;  213.375;    0.000
527.710; 2713.250;  216.375;    0.000
527.842; 2683.250;  240.375;    0.000
527.973; 2644.250;  286.375;    0.000
528.105; 2666.250;  222.375;    0.000
528.237; 2665.250;  223.375;    0.000
528.368; 2534.250;  211.375;    0.000
528.500; 2635.250;  215.375;    0.000
528.632; 2658.250;  216.375;    0.000
528.763; 2529.250;  234.375;    0.000
528.895; 2588.250;  196.375;    0.000
529.026; 2561.250;  202.375;    0.000
529.158; 2511.250;  226.375;    0.000
529.289; 2623.250;  229.375;    0.000
529.421; 2702.250;  264.375;    0.000
529.552; 2672.250;  265.375;    0.000
529.684; 2612.250;  260.375;    0.000
529.815; 2671.250;  284.375;    0.000
529.947; 2613.250;  237.375;    0.000
530.078; 2671.250;  223.375;    0.000
530.210; 2538.250;  223.375;    0.000
530.341; 2548.250;  209.375;    0.000
530.472; 2603.250;  203.375;    0.000
530.604; 2626.250;  223.375;    0.000
530.735; 2625.250;  218.375;    0.000
530.867; 2613.250;  222.375;    0.000
530.998; 2664.250;  239.375;    0.000
531.129; 2605.250;  250.375;    0.000
531.260; 2641.250;  224.375;    0.000
531.392; 2702.250;  216.375;    0.000
531.523; 2712.250;  234.375;    0.000
531.654; 2712.250;  256.375;    0.000
531.786; 2672.250;  226.375;    0.000
531.917; 2800.250;  239.375;    0.000
532.048; 2693.250;  205.375;    0.000
532.179; 2624.250;  244.375;    0.000
532.311; 2644.250;  235.375;    0.000
532.442; 2700.250;  258.375;    0.000
532.573; 2712.250;  220.375;    0.000
532.704; 2702.250;  213.375;    0.000
532.835; 2694.250;  249.375;    0.000
532.966; 2620.250;  226.375;    0.000
533.097; 2614.250;  246.375;    0.000
533.229; 2606.250;  237.375;    0.000
533.360; 2571.250;  225.375;    0.000
533.491; 2615.250;  241.375;    0.000
533.622; 2634.250;  242.375;    0.000
533.753; 2657.250;  264.375;    0.000
533.884; 2593.250;  245.375;    0.000
534.015; 2607.250;  269.375;    0.000
534.146; 2599.250;  267.375;    0.000
534.277; 2701.250;  282.375;    0.000
534.408; 2638.250;  229.375;    0.000
534.539; 2706.250;  269.375;    0.000
534.670; 2557.250;  231.375;    0.000
534.801; 2619.250;  260.375;    0.000
534.932; 2550.250;  232.375;    0.000
535.063; 2631.250;  227.375;    0.000
535.194; 2627.250;  281.375;    0.000
535.324; 2610.250;  206.375;    0.000
535.455; 2515.250;  257.375;    0.000
535.586; 2621.250;  275.375;    0.000
535.717; 2525.250;  206.375;    0.000
535.848; 2595.250;  271.375;    0.000
535.979; 2611.250;  250.375;    0.000
536.109; 2547.250;  253.375;    0.000
536.240; 2596.250;  234.375;    0.000
536.371; 2526.250;  230.375;    0.000
536.502; 2627.250;  270.375;    0.000
536.632; 2537.250;  228.375;    0.000
536.763; 2585.250;  249.375;    0.000
536.894; 2550.250;  262.375;    0.000
537.025; 2477.250;  258.375;    0.000
537.155; 2603.250;  278.375;    0.000
537.286; 2582.250;  209.375;    0.000
537.417; 2610.250;  255.375;    0.000
537.547; 2575.250;  208.375;    0.000
537.678; 2546.250;  224.375;    0.000
537.808; 2499.250;  224.375;    0.000
537.939; 2469.250;  257.375;    0.000
538.070; 2527.250;  240.375;    0.000
538.200; 2587.250;  259.375;    0.000
538.331; 2519.250;  235.375;    0.000
538.461; 2633.250;  251.375;    0.000
538.592; 2416.250;  245.375;    0.000
538.722; 2595.250;  239.375;    0.000
538.853; 2485.250;  216.375;    0.000
538.983; 2505.250;  226.375;    0.000
539.114; 2528.250;  240.375;    0.000
539.244; 2506.250;  237.375;    0.000
539.375; 2487.250;  198.375;    0.000
539.505; 2538.250;  263.375;    0.000
539.636; 2516.250;  226.375;    0.000
539.766; 2578.250;  229.375;    0.000
539.896; 2459.250;  219.375;    0.000
540.027; 2501.250;  246.375;    0.000
540.157; 2471.250;  218.375;    0.000
540.287; 2448.250;  216.375;    0.000
540.418; 2507.250;  267.375;    0.000
540.548; 2431.250;  260.375;    0.000
540.678; 2442.250;  242.375;    0.000
540.809; 2489.250;  260.375;    0.000
540.939; 2594.250;  257.375;    0.000
541.069; 2543.250;  226.375;    0.000
541.200; 2421.250;  227.375;    0.000
541.330; 2421.250;  218.375;    0.000
541.460; 2532.250;  223.375;    0.000
541.590; 2387.250;  237.375;    0.000
541.720; 2451.250;  222.375;    0.000
541.851; 2422.250;  250.375;    0.000
541.981; 2452.250;  222.375;    0.000
542.111; 2560.250;  212.375;    0.000
542.241; 2573.250;  205.375;    0.000
542.371; 2625.250;  202.375;    0.000
542.501; 2729.250;  218.375;    0.000
542.631; 2534.250;  222.375;    0.000
542.761; 2634.250;  249.375;    0.000
542.891; 2630.250;  173.375;    0.000
543.021; 2554.250;  218.375;    0.000
543.151; 2584.250;  222.375;    0.000
543.281; 2541.250;  188.375;    0.000
543.411; 2603.250;  239.375;    0.000
543.542; 2549.250;  215.375;    0.000
543.671; 2637.250;  250.375;    0.000
543.801; 2598.250;  212.375;    0.000
543.931; 2630.250;  233.375;    0.000
544.061; 2575.250;  194.375;    0.000
544.191; 2552.250;  218.375;    0.000
544.321; 2500.250;  220.375;    0.000
544.451; 2521.250;  183.375;    0.000
544.581; 2665.250;  221.375;    0.000
544.711; 2673.250;  224.375;    0.000
544.841; 2676.250;  214.375;    0.000
544.970; 2772.250;  227.375;    0.000
545.100; 2696.250;  186.375;    0.000
545.230; 2758.250;  205.375;    0.000
545.360; 2718.250;  211.375;    0.000
545.490; 2680.250;  202.375;    0.000
545.619; 2620.250;  182.375;    0.000
545.749; 2652.250;  174.375;    0.000
545.879; 2551.250;  169.375;    0.000
546.009; 2581.250;  182.375;    0.000
546.138; 2520.250;  200.375;    0.000
546.268; 2586.250;  204.375;    0.000
546.398; 2694.250;  200.375;    0.000
546.527; 2615.250;  179.375;    0.000
546.657; 2522.250;  162.375;    0.000
546.786; 2632.250;  179.375;    0.000
546.916; 2553.250;  221.375;    0.000
547.046; 2597.250;  179.375;    0.000
547.175; 2549.250;  168.375;    0.000
547.305; 2737.250;  200.375;    0.000
547.434; 2702.250;  166.375;    0.000
547.564; 2686.250;  177.375;    0.000
547.693; 2618.250;  152.375;    0.000
547.823; 2610.250;  171.375;    0.000
547.953; 2638.250;  195.375;    0.000
548.082; 2589.250;  214.375;    0.000
548.211; 2581.250;  177.375;    0.000
548.341; 2623.250;  189.375;    0.000
548.470; 2605.250;  194.375;    0.000
548.600; 2549.250;  172.375;    0.000
548.729; 2680.250;  158.375;    0.000
548.859; 2546.250;  193.375;    0.000
548.988; 2675.250;  131.375;    0.000
549.117; 2626.250;  204.375;    0.000
549.247; 2664.250;  191.375;    0.000
549.376; 2636.250;  202.375;    0.000
549.505; 2623.250;  187.375;    0.000
549.635; 2637.250;  198.375;    0.000
549.764; 2609.250;  155.375;    0.000
549.893; 2740.250;  176.375;    0.000
550.023; 2630.250;  202.375;    0.000
550.152; 2723.250;  168.375;    0.000
550.281; 2724.250;  180.375;    0.000
550.410; 2640.250;  180.375;    0.000
550.539; 2716.250;  181.375;    0.000
550.669; 2635.250;  168.375;    0.000
550.798; 2687.250;  223.375;    0.000
550.927; 2712.250;  179.375;    0.000
551.056; 2616.250;  159.375;    0.000
551.185; 2638.250;  199.375;    0.000
551.314; 2755.250;  185.375;    0.000
551.443; 2655.250;  172.375;    0.000
551.573; 2696.250;  158.375;    0.000
551.702; 2684.250;  210.375;    0.000
551.831; 2741.250;  238.375;    0.000
551.960; 2629.250;  191.375;    0.000
552.089; 2737.250;  195.375;    0.000
552.218; 2760.250;  196.375;    0.000
552.347; 2862.250;  194.375;    0.000
552.476; 2870.250;  192.375;    0.000
552.605; 2826.250;  172.375;    0.000
552.734; 3004.250;  214.375;    0.000
552.863; 3164.250;  177.375;    0.000
552.992; 3089.250;  190.375;    0.000
553.121; 2959.250;  185.375;    0.000
553.249; 2945.250;  175.375;    0.000
553.378; 2924.250;  192.375;    0.000
553.507; 2900.250;  193.375;    0.000
553.636; 2804.250;  182.375;    0.000
553.765; 2983.250;  187.375;    0.000
553.894; 2704.250;  214.375;    0.000
554.023; 2810.250;  217.375;    0.000
554.151; 2816.250;  223.375;    0.000
554.280; 2708.250;  170.375;    0.000
554.409; 2661.250;  172.375;    0.000
554.538; 2820.250;  182.375;    0.000
554.666; 2753.250;  195.375;    0.000
554.795; 2754.250;  176.375;    0.000
554.924; 2630.250;  164.375;    0.000
555.052; 2758.250;  171.375;    0.000
555.181; 2824.250;  208.375;    0.000
555.310; 2724.250;  214.375;    0.000
555.439; 2753.250;  193.375;    0.000
555.567; 2597.250;  189.375;    0.000
555.696; 2661.250;  196.375;    0.000
555.824; 2664.250;  183.375;    0.000
555.953; 2640.250;  234.375;    0.000
556.082; 2542.250;  183.375;    0.000
556.210; 2530.250;  199.375;    0.000
556.339; 2644.250;  201.375;    0.000
556.467; 2730.250;  208.375;    0.000
556.596; 2548.250;  194.375;    0.000
556.724; 2555.250;  170.375;    0.000
556.853; 2517.250;  166.375;    0.000
556.981; 2464.250;  185.375;    0.000
557.110; 2579.250;  213.375;    0.000
557.238; 2592.250;  188.375;    0.000
557.367; 2531.250;  176.375;    0.000
557.495; 2602.250;  180.375;    0.000
557.623; 2568.250;  193.375;    0.000
557.752; 2589.250;  207.375;    0.000
557.880; 2560.250;  189.375;    0.000
558.008; 2653.250;  169.375;    0.000
558.137; 2569.250;  203.375;    0.000
558.265; 2572.250;  167.375;    0.000
558.393; 2554.250;  204.375;    0.000
558.522; 2506.250;  203.375;    0.000
558.650; 2654.250;  215.375;    0.000
558.778; 2522.250;  190.375;    0.000
558.906; 2572.250;  186.375;    0.000
559.035; 2521.250;  193.375;    0.000
559.163; 2603.250;  198.375;    0.000
559.291; 2491.250;  222.375;    0.000
559.419; 2661.250;  192.375;    0.000
559.548; 2560.250;  186.375;    0.000
559.676; 2536.250;  199.375;    0.000
559.804; 2627.250;  186.375;    0.000
559.932; 2603.250;  202.375;    0.000
560.060; 2598.250;  183.375;    0.000
560.188; 2616.250;  212.375;    0.000
560.316; 2582.250;  192.375;    0.000
560.444; 2595.250;  180.375;    0.000
560.572; 2561.250;  206.375;    0.000
560.700; 2693.250;  184.375;    0.000
560.828; 2630.250;  177.375;    0.000
560.956; 2735.250;  221.375;    0.000
561.085; 2707.250;  227.375;    0.000
561.212; 2624.250;  208.375;    0.000
561.340; 2636.250;  189.375;    0.000
561.468; 2693.250;  189.375;    0.000
561.596; 2647.250;  183.375;    0.000
561.724; 2721.250;  188.375;    0.000
561.852; 2608.250;  183.375;    0.000
561.980; 2690.250;  209.375;    0.000
562.108; 2772.250;  165.375;    0.000
562.236; 2627.250;  188.375;    0.000
562.364; 2720.250;  177.375;    0.000
562.492; 2696.250;  192.375;    0.000
562.619; 2701.250;  187.375;    0.000
562.747; 2744.250;  217.375;    0.000
562.875; 2737.250;  221.375;    0.000
563.003; 2680.250;  199.375;    0.000
563.130; 2758.250;  191.375;    0.000
563.258; 2778.250;  186.375;    0.000
563.386; 2778.250;  191.375;    0.000
563.514; 2868.250;  217.375;    0.000
563.641; 2786.250;  220.375;    0.000
563.769; 2829.250;  186.375;    0.000
563.897; 2825.250;  158.375;    0.000
564.024; 3045.250;  192.375;    0.000
564.152; 3032.250;  217.375;    0.000
564.280; 2929.250;  203.375;    0.000
564.407; 2872.250;  190.375;    0.000
564.535; 2982.250;  188.375;    0.000
564.662; 3066.250;  199.375;    0.000
564.790; 3086.250;  227.375;    0.000
564.917; 3054.250;  160.375;    0.000
565.045; 3064.250;  222.375;    0.000
565.173; 3053.250;  169.375;    0.000
565.300; 3075.250;  208.375;    0.000
565.428; 3137.250;  174.375;    0.000
565.555; 3091.250;  201.375;    0.000
565.682; 3194.250;  180.375;    0.000
565.810; 3334.250;  165.375;    0.000
565.937; 3437.250;  167.375;    0.000
566.065; 3492.250;  190.375;    0.000
566.192; 3541.250;  169.375;    0.000
566.320; 3641.250;  167.375;    0.000
566.447; 3767.250;  151.375;    0.000
566.574; 3780.250;  176.375;    0.000
566.702; 3822.250;  198.375;    0.000
566.829; 3840.250;  209.375;    0.000
566.956; 3914.250;  186.375;    0.000
567.083; 3803.250;  188.375;    0.000
567.211; 3862.250;  159.375;    0.000
567.338; 4025.250;  204.375;    0.000
567.465; 3960.250;  141.375;    0.000
567.593; 3993.250;  168.375;    0.000
567.720; 4047.250;  177.375;    0.000
567.847; 4069.250;  160.375;    0.000
567.974; 4116.250;  139.375;    0.000
568.101; 4038.250;  153.375;    0.000
568.228; 3882.250;  173.375;    0.000
568.356; 3789.250;  149.375;    0.000
568.483; 3618.250;  185.375;    0.000
568.610; 3564.250;  170.375;    0.000
568.737; 3565.250;  223.375;    0.000
568.864; 3553.250;  167.375;    0.000
568.991; 3424.250;  177.375;    0.000
569.118; 3347.250;  169.375;    0.000
569.245; 3272.250;  128.375;    0.000
569.372; 3314.250;  160.375;    0.000
569.499; 3072.250;  156.375;    0.000
569.626; 3092.250;  191.375;    0.000
569.753; 3033.250;  163.375;    0.000
569.880; 3046.250;  167.375;    0.000
570.007; 2969.250;  143.375;    0.000
570.134; 3044.250;  191.375;    0.000
570.261; 2996.250;  164.375;    0.000
570.388; 2904.250;  162.375;    0.000
570.515; 3005.250;  220.375;    0.000
570.642; 3062.250;  184.375;    0.000
570.768; 3034.250;  174.375;    0.000
570.895; 2910.250;  177.375;    0.000
571.022; 2952.250;  152.375;    0.000
571.149; 2978.250;  183.375;    0.000
571.276; 2839.250;  153.375;    0.000
571.402; 2785.250;  190.375;    0.000
571.529; 2871.250;  187.375;    0.000
571.656; 2872.250;  167.375;    0.000
571.783; 2791.250;  186.375;    0.000
571.909; 2817.250;  183.375;    0.000
572.036; 2794.250;  162.375;    0.000
572.163; 2749.250;  196.375;    0.000
572.289; 2840.250;  180.375;    0.000
572.416; 2703.250;  190.375;    0.000
572.543; 2704.250;  174.375;    0.000
572.669; 2757.250;  186.375;    0.000
572.796; 2742.250;  205.375;    0.000
572.922; 2714.250;  185.375;    0.000
573.049; 2773.250;  178.375;    0.000
573.176; 2670.250;  196.375;    0.000
573.302; 2738.250;  202.375;    0.000
573.429; 2657.250;  189.375;    0.000
573.555; 2645.250;  145.375;    0.000
573.682; 2608.250;  228.375;    0.000
573.808; 2645.250;  197.375;    0.000
573.935; 2655.250;  216.375;    0.000
574.061; 2590.250;  173.375;    0.000
574.188; 2630.250;  151.375;    0.000
574.314; 2614.250;  181.375;    0.000
574.440; 2592.250;  167.375;    0.000
574.567; 2565.250;  185.375;    0.000
574.693; 2489.250;  173.375;    0.000
574.820; 2629.250;  164.375;    0.000
574.946; 2561.250;  199.375;    0.000
575.072; 2638.250;  162.375;    0.000
575.198; 2654.250;  225.375;    0.000
575.325; 2610.250;  171.375;    0.000
575.451; 2646.250;  183.375;    0.000
575.577; 2614.250;  190.375;    0.000
575.704; 2557.250;  210.375;    0.000
575.830; 2611.250;  185.375;    0.000
575.956; 2587.250;  168.375;    0.000
576.082; 2539.250;  158.375;    0.000
576.208; 2547.250;  158.375;    0.000
576.335; 2604.250;  196.375;    0.000
576.461; 2565.250;  187.375;    0.000
576.587; 2515.250;  157.375;    0.000
576.713; 2529.250;  156.375;    0.000
576.839; 2685.250;  196.375;    0.000
576.965; 2588.250;  187.375;    0.000
577.091; 2558.250;  204.375;    0.000
577.217; 2541.250;  207.375;    0.000
577.343; 2476.250;  175.375;    0.000
577.469; 2512.250;  197.375;    0.000
577.596; 2610.250;  182.375;    0.000
577.722; 2567.250;  159.375;    0.000
577.848; 2452.250;  162.375;    0.000
577.974; 2612.250;  180.375;    0.000
578.099; 2516.250;  161.375;    0.000
578.225; 2551.250;  180.375;    0.000
578.351; 2451.250;  190.375;    0.000
578.477; 2508.250;  212.375;    0.000
578.603; 2574.250;  179.375;    0.000
578.729; 2514.250;  195.375;    0.000
578.855; 2557.250;  153.375;    0.000
578.981; 2571.250;  162.375;    0.000
579.107; 2448.250;  149.375;    0.000
579.232; 2561.250;  164.375;    0.000
579.358; 2483.250;  162.375;    0.000
579.484; 2562.250;  181.375;    0.000
579.610; 2547.250;  190.375;    0.000
579.735; 2556.250;  191.375;    0.000
579.861; 2444.250;  189.375;    0.000
579.987; 2555.250;  202.375;    0.000
580.113; 2531.250;  197.375;    0.000
580.238; 2457.250;  228.375;    0.000
580.364; 2580.250;  212.375;    0.000
580.490; 2544.250;  225.375;    0.000
580.615; 2479.250;  218.375;    0.000
580.741; 2529.250;  167.375;    0.000
580.867; 2544.250;  215.375;    0.000
580.992; 2456.250;  191.375;    0.000
581.118; 2480.250;  171.375;    0.000
581.243; 2547.250;  204.375;    0.000
581.369; 2538.250;  186.375;    0.000
581.494; 2514.250;  184.375;    0.000
581.620; 2442.250;  212.375;    0.000
581.745; 2494.250;  192.375;    0.000
581.871; 2593.250;  195.375;    0.000
581.996; 2463.250;  160.375;    0.000
582.122; 2627.250;  217.375;    0.000
582.247; 2469.250;  213.375;    0.000
582.373; 2465.250;  187.375;    0.000
582.498; 2492.250;  208.375;    0.000
582.624; 2513.250;  189.375;    0.000
582.749; 2579.250;  185.375;    0.000
582.874; 2440.250;  195.375;    0.000
583.000; 2482.250;  208.375;    0.000
583.125; 2452.250;  147.375;    0.000
583.250; 2520.250;  201.375;    0.000
583.376; 2521.250;  191.375;    0.000
583.501; 2566.250;  206.375;    0.000
583.626; 2483.250;  167.375;    0.000
583.751; 2560.250;  180.375;    0.000
583.877; 2538.250;  185.375;    0.000
584.002; 2436.250;  186.375;    0.000
584.127; 2537.250;  176.375;    0.000
584.252; 2513.250;  214.375;    0.000
584.377; 2502.250;  225.375;    0.000
584.503; 2587.250;  195.375;    0.000
584.628; 2544.250;  206.375;    0.000
584.753; 2466.250;  181.375;    0.000
584.878; 2498.250;  136.375;    0.000
585.003; 2547.250;  215.375;    0.000
585.128; 2525.250;  206.375;    0.000
585.253; 2608.250;  200.375;    0.000
585.378; 2603.250;  169.375;    0.000
585.503; 2553.250;  191.375;    0.000
585.628; 2487.250;  182.375;    0.000
585.753; 2520.250;  164.375;    0.000
585.878; 2512.250;  123.375;    0.000
586.003; 2495.250;  187.375;    0.000
586.128; 2548.250;  198.375;    0.000
586.253; 2501.250;  172.375;    0.000
586.378; 2520.250;  191.375;    0.000
586.503; 2662.250;  190.375;    0.000
586.628; 2531.250;  178.375;    0.000
586.753; 2572.250;  184.375;    0.000
586.878; 2550.250;  169.375;    0.000
587.003; 2724.250;  186.375;    0.000
587.127; 2541.250;  170.375;    0.000
587.252; 2597.250;  170.375;    0.000
587.377; 2690.250;  181.375;    0.000
587.502; 2683.250;  209.375;    0.000
587.627; 2618.250;  210.375;    0.000
587.751; 2564.250;  212.375;    0.000
587.876; 2704.250;  198.375;    0.000
588.001; 2721.250;  161.375;    0.000
588.125; 2747.250;  191.375;    0.000
588.250; 2863.250;  132.375;    0.000
588.375; 2848.250;  183.375;    0.000
588.499; 3024.250;  176.375;    0.000
588.624; 3338.250;  173.375;    0.000
588.749; 4055.250;  204.375;    0.000
588.873; 8787.250;  179.375;    0.000
588.998;14046.250;  182.375;    0.000
589.122;10820.250;  165.375;    0.000
589.247; 5941.250;  185.375;    0.000
589.372; 4973.250;  199.375;    0.000
589.496; 8539.250;  182.375;    0.000
589.621;10907.250;  158.375;    0.000
589.745; 7640.250;  213.375;    0.000
589.870; 4130.250;  175.375;    0.000
589.994; 3468.250;  194.375;    0.000
590.118; 3141.250;  218.375;    0.000
590.243; 3049.250;  170.375;    0.000
590.367; 2952.250;  189.375;    0.000
590.492; 2997.250;  196.375;    0.000
590.616; 2916.250;  182.375;    0.000
590.740; 2916.250;  210.375;    0.000
590.865; 2724.250;  242.375;    0.000
590.989; 2876.250;  191.375;    0.000
591.114; 2802.250;  167.375;    0.000
591.238; 2816.250;  194.375;    0.000
591.362; 2762.250;  236.375;    0.000
591.486; 2812.250;  194.375;    0.000
591.611; 2892.250;  154.375;    0.000
591.735; 2899.250;  186.375;    0.000
591.859; 2852.250;  148.375;    0.000
591.983; 2969.250;  211.375;    0.000
592.107; 2800.250;  204.375;    0.000
592.232; 2984.250;  194.375;    0.000
592.356; 2937.250;  238.375;    0.000
592.480; 2994.250;  179.375;    0.000
592.604; 3014.250;  192.375;    0.000
592.728; 3108.250;  201.375;    0.000
592.852; 2974.250;  158.375;    0.000
592.976; 3076.250;  152.375;    0.000
593.100; 3071.250;  194.375;    0.000
593.224; 3091.250;  235.375;    0.000
593.349; 3114.250;  233.375;    0.000
593.473; 3035.250;  194.375;    0.000
593.597; 3030.250;  215.375;    0.000
593.721; 3043.250;  212.375;    0.000
593.844; 3017.250;  220.375;    0.000
593.968; 3155.250;  221.375;    0.000
594.092; 3045.250;  150.375;    0.000
594.216; 2957.250;  212.375;    0.000
594.340; 2919.250;  209.375;    0.000
594.464; 3026.250;  207.375;    0.000
594.588; 2939.250;  195.375;    0.000
594.712; 2994.250;  176.375;    0.000
594.836; 2948.250;  219.375;    0.000
594.959; 2955.250;  215.375;    0.000
595.083; 2799.250;  200.375;    0.000
595.207; 2833.250;  206.375;    0.000
595.331; 2801.250;  207.375;    0.000
595.455; 2766.250;  206.375;    0.000
595.578; 2835.250;  204.375;    0.000
595.702; 2709.250;  225.375;    0.000
595.826; 2696.250;  186.375;    0.000
595.949; 2766.250;  196.375;    0.000
596.073; 2673.250;  188.375;    0.000
596.197; 2583.250;  217.375;    0.000
596.320; 2678.250;  225.375;    0.000
596.444; 2534.250;  220.375;    0.000
596.568; 2609.250;  155.375;    0.000
596.691; 2646.250;  195.375;    0.000
596.815; 2585.250;  163.375;    0.000
596.938; 2667.250;  181.375;    0.000
597.062; 2587.250;  201.375;    0.000
597.186; 2500.250;  200.375;    0.000
597.309; 2557.250;  214.375;    0.000
597.433; 2574.250;  176.375;    0.000
597.556; 2565.250;  193.375;    0.000
597.680; 2511.250;  241.375;    0.000
597.803; 2422.250;  185.375;    0.000
597.926; 2586.250;  200.375;    0.000
598.050; 2521.250;  193.375;    0.000
598.173; 2442.250;  219.375;    0.000
598.297; 2605.250;  223.375;    0.000
598.420; 2507.250;  187.375;    0.000
598.543; 2457.250;  205.375;    0.000
598.667; 2494.250;  177.375;    0.000
598.790; 2459.250;  208.375;    0.000
598.913; 2480.250;  170.375;    0.000
599.037; 2483.250;  212.375;    0.000
599.160; 2500.250;  165.375;    0.000
599.283; 2489.250;  211.375;    0.000
599.406; 2455.250;  207.375;    0.000
599.530; 2488.250;  182.375;    0.000
599.653; 2509.250;  215.375;    0.000
599.776; 2378.250;  167.375;    0.000
599.899; 2474.250;  190.375;    0.000
600.022; 2457.250;  182.375;    0.000
600.145; 2458.250;  180.375;    0.000
600.269; 2462.250;  208.375;    0.000
600.392; 2373.250;  214.375;    0.000
600.515; 2431.250;  196.375;    0.000
600.638; 2404.250;  204.375;    0.000
600.761; 2453.250;  209.375;    0.000
600.884; 2459.250;  207.375;    0.000
601.007; 2496.250;  234.375;    0.000
601.130; 2469.250;  183.375;    0.000
601.253; 2408.250;  211.375;    0.000
601.376; 2424.250;  199.375;    0.000
601.499; 2339.250;  190.375;    0.000
601.622; 2422.250;  210.375;    0.000
601.745; 2354.250;  180.375;    0.000
601.868; 2488.250;  204.375;    0.000
601.991; 2418.250;  188.375;    0.000
602.113; 2335.250;  210.375;    0.000
602.236; 2459.250;  194.375;    0.000
602.359; 2471.250;  213.375;    0.000
602.482; 2466.250;  169.375;    0.000
602.605; 2445.250;  189.375;    0.000
602.728; 2455.250;  236.375;    0.000
602.850; 2455.250;  230.375;    0.000
602.973; 2315.250;  187.375;    0.000
603.096; 2419.250;  201.375;    0.000
603.219; 2382.250;  209.375;    0.000
603.341; 2357.250;  209.375;    0.000
603.464; 2367.250;  194.375;    0.000
603.587; 2475.250;  166.375;    0.000
603.709; 2343.250;  175.375;    0.000
603.832; 2443.250;  239.375;    0.000
603.955; 2432.250;  205.375;    0.000
604.077; 2367.250;  196.375;    0.000
604.200; 2393.250;  188.375;    0.000
604.323; 2385.250;  224.375;    0.000
604.445; 2325.250;  182.375;    0.000
604.568; 2316.250;  199.375;    0.000
604.690; 2323.250;  175.375;    0.000
604.813; 2310.250;  211.375;    0.000
604.935; 2428.250;  171.375;    0.000
605.058; 2278.250;  196.375;    0.000
605.180; 2418.250;  194.375;    0.000
605.303; 2305.250;  198.375;    0.000
605.425; 2375.250;  212.375;    0.000
605.547; 2338.250;  238.375;    0.000
605.670; 2405.250;  207.375;    0.000
605.792; 2291.250;  204.375;    0.000
605.915; 2314.250;  198.375;    0.000
606.037; 2277.250;  215.375;    0.000
606.159; 2275.250;  170.375;    0.000
606.282; 2370.250;  194.375;    0.000
606.404; 2397.250;  207.375;    0.000
606.526; 2351.250;  208.375;    0.000
606.648; 2268.250;  174.375;    0.000
606.771; 2283.250;  170.375;    0.000
606.893; 2357.250;  182.375;    0.000
607.015; 2374.250;  180.375;    0.000
607.137; 2345.250;  187.375;    0.000
607.260; 2346.250;  202.375;    0.000
607.382; 2341.250;  226.375;    0.000
607.504; 2376.250;  208.375;    0.000
607.626; 2367.250;  229.375;    0.000
607.748; 2486.250;  170.375;    0.000
607.870; 2343.250;  208.375;    0.000
607.992; 2306.250;  184.375;    0.000
608.114; 2286.250;  213.375;    0.000
608.237; 2299.250;  237.375;    0.000
608.359; 2303.250;  176.375;    0.000
608.481; 2275.250;  173.375;    0.000
608.603; 2251.250;  189.375;    0.000
608.725; 2275.250;  185.375;    0.000
608.847; 2379.250;  239.375;    0.000
608.969; 2287.250;  237.375;    0.000
609.090; 2319.250;  189.375;    0.000
609.212; 2279.250;  147.375;    0.000
609.334; 2353.250;  177.375;    0.000
609.456; 2373.250;  196.375;    0.000
609.578; 2237.250;  199.375;    0.000
609.700; 2189.250;  167.375;    0.000
609.822; 2237.250;  140.375;    0.000
609.944; 2324.250;  225.375;    0.000
610.065; 2280.250;  183.375;    0.000
610.187; 2350.250;  170.375;    0.000
610.309; 2266.250;  210.375;    0.000
610.431; 2252.250;  185.375;    0.000
610.552; 2260.250;  197.375;    0.000
610.674; 2322.250;  188.375;    0.000
610.796; 2251.250;  162.375;    0.000
610.918; 2279.250;  200.375;    0.000
611.039; 2294.250;  209.375;    0.000
611.161; 2314.250;  201.375;    0.000
611.282; 2279.250;  197.375;    0.000
611.404; 2363.250;  220.375;    0.000
611.526; 2235.250;  159.375;    0.000
611.647; 2335.250;  205.375;    0.000
611.769; 2247.250;  161.375;    0.000
611.890; 2283.250;  173.375;    0.000
612.012; 2325.250;  225.375;    0.000
612.133; 2225.250;  188.375;    0.000
612.255; 2301.250;  217.375;    0.000
612.377; 2235.250;  219.375;    0.000
612.498; 2275.250;  177.375;    0.000
612.619; 2322.250;  211.375;    0.000
612.741; 2278.250;  185.375;    0.000
612.862; 2336.250;  191.375;    0.000
612.984; 2209.250;  190.375;    0.000
613.105; 2275.250;  211.375;    0.000
613.226; 2245.250;  174.375;    0.000
613.348; 2267.250;  235.375;    0.000
613.469; 2276.250;  230.375;    0.000
613.590; 2164.250;  208.375;    0.000
613.712; 2247.250;  244.375;    0.000
613.833; 2326.250;  202.375;    0.000
613.954; 2283.250;  228.375;    0.000
614.076; 2278.250;  220.375;    0.000
614.197; 2214.250;  191.375;    0.000
614.318; 2239.250;  201.375;    0.000
614.439; 2271.250;  212.375;    0.000
614.560; 2307.250;  219.375;    0.000
614.682; 2225.250;  189.375;    0.000
614.803; 2269.250;  188.375;    0.000
614.924; 2197.250;  225.375;    0.000
615.045; 2309.250;  227.375;    0.000
615.166; 2325.250;  200.375;    0.000
615.287; 2216.250;  195.375;    0.000
615.408; 2270.250;  199.375;    0.000
615.529; 2336.250;  227.375;    0.000
615.650; 2280.250;  176.375;    0.000
615.771; 2238.250;  211.375;    0.000
615.892; 2306.250;  212.375;    0.000
616.013; 2301.250;  172.375;    0.000
616.134; 2356.250;  220.375;    0.000
616.255; 2422.250;  251.375;    0.000
616.376; 2215.250;  186.375;    0.000
616.497; 2261.250;  201.375;    0.000
616.618; 2272.250;  149.375;    0.000
616.739; 2306.250;  213.375;    0.000
616.860; 2343.250;  224.375;    0.000
616.981; 2343.250;  224.375;    0.000
617.102; 2310.250;  217.375;    0.000
617.222; 2314.250;  237.375;    0.000
617.343; 2193.250;  205.375;    0.000
617.464; 2373.250;  229.375;    0.000
617.585; 2297.250;  227.375;    0.000
617.705; 2267.250;  191.375;    0.000
617.826; 2255.250;  237.375;    0.000
617.947; 2190.250;  223.375;    0.000
618.068; 2232.250;  189.375;    0.000
618.188; 2218.250;  194.375;    0.000
618.309; 2311.250;  206.375;    0.000
618.430; 2231.250;  229.375;    0.000
618.550; 2229.250;  250.375;    0.000
618.671; 2202.250;  201.375;    0.000
618.791; 2177.250;  226.375;    0.000
618.912; 2275.250;  246.375;    0.000
619.033; 2285.250;  243.375;    0.000
619.153; 2274.250;  208.375;    0.000
619.274; 2157.250;  223.375;    0.000
619.394; 2226.250;  226.375;    0.000
619.515; 2149.250;  188.375;    0.000
619.635; 2192.250;  216.375;    0.000
619.756; 2231.250;  229.375;    0.000
619.876; 2214.250;  216.375;    0.000
619.996; 2249.250;  244.375;    0.000
620.117; 2196.250;  225.375;    0.000
620.237; 2180.250;  207.375;    0.000
620.358; 2169.250;  239.375;    0.000
620.478; 2221.250;  237.375;    0.000
620.598; 2188.250;  237.375;    0.000
620.719; 2168.250;  223.375;    0.000
620.839; 2306.250;  254.375;    0.000
620.959; 2278.250;  244.375;    0.000
621.079; 2164.250;  193.375;    0.000
621.200; 2172.250;  233.375;    0.000
621.320; 2138.250;  270.375;    0.000
621.440; 2157.250;  206.375;    0.000
621.560; 2237.250;  241.375;    0.000
621.681; 2220.250;  231.375;    0.000
621.801; 2168.250;  235.375;    0.000
621.921; 2189.250;  240.375;    0.000
622.041; 2204.250;  244.375;    0.000
622.161; 2184.250;  225.375;    0.000
622.281; 2186.250;  222.375;    0.000
622.401; 2294.250;  238.375;    0.000
622.521; 2216.250;  233.375;    0.000
622.641; 2098.250;  241.375;    0.000
622.761; 2152.250;  233.375;    0.000
622.882; 2153.250;  230.375;    0.000
623.002; 2183.250;  206.375;    0.000
623.121; 2106.250;  217.375;    0.000
623.241; 2275.250;  263.375;    0.000
623.361; 2146.250;  245.375;    0.000
623.481; 2112.250;  194.375;    0.000
623.601; 2185.250;  228.375;    0.000
623.721; 2263.250;  219.375;    0.000
623.841; 2213.250;  234.375;    0.000
623.961; 2219.250;  235.375;    0.000
624.081; 2178.250;  166.375;    0.000
624.201; 2154.250;  229.375;    0.000
624.320; 2165.250;  224.375;    0.000
624.440; 2090.250;  200.375;    0.000
624.560; 2159.250;  220.375;    0.000
624.680; 2107.250;  214.375;    0.000
624.799; 2119.250;  179.375;    0.000
624.919; 2184.250;  199.375;    0.000
625.039; 2165.250;  211.375;    0.000
625.159; 2179.250;  213.375;    0.000
625.278; 2139.250;  178.375;    0.000
625.398; 2133.250;  206.375;    0.000
625.518; 2090.250;  182.375;    0.000
625.637; 2150.250;  206.375;    0.000
625.757; 2165.250;  197.375;    0.000
625.876; 2061.250;  204.375;    0.000
625.996; 2110.250;  222.375;    0.000
626.115; 2073.250;  222.375;    0.000
626.235; 2117.250;  222.375;    0.000
626.354; 2098.250;  211.375;    0.000
626.474; 2106.250;  217.375;    0.000
626.594; 2073.250;  190.375;    0.000
626.713; 2066.250;  200.375;    0.000
626.832; 2112.250;  234.375;    0.000
626.952; 2129.250;  214.375;    0.000
627.071; 2155.250;  243.375;    0.000
627.191; 2098.250;  192.375;    0.000
627.310; 2061.250;  211.375;    0.000
627.429; 2082.250;  218.375;    0.000
627.549; 2044.250;  214.375;    0.000
627.668; 2021.250;  208.375;    0.000
627.787; 2087.250;  199.375;    0.000
627.907; 2124.250;  208.375;    0.000
628.026; 2063.250;  216.375;    0.000
628.145; 2078.250;  170.375;    0.000
628.264; 2086.250;  217.375;    0.000
628.384; 2163.250;  190.375;    0.000
628.503; 2068.250;  203.375;    0.000
628.622; 2051.250;  197.375;    0.000
628.741; 2051.250;  186.375;    0.000
628.860; 2023.250;  191.375;    0.000
628.980; 2171.250;  196.375;    0.000
629.099; 2084.250;  190.375;    0.000
629.218; 2019.250;  165.375;    0.000
629.337; 2103.250;  190.375;    0.000
629.456; 2069.250;  222.375;    0.000
629.575; 2059.250;  197.375;    0.000
629.694; 2066.250;  210.375;    0.000
629.813; 2073.250;  187.375;    0.000
629.932; 1983.250;  224.375;    0.000
630.051; 1994.250;  216.375;    0.000
630.170; 2085.250;  203.375;    0.000
630.289; 2023.250;  178.375;    0.000
630.408; 2030.250;  192.375;    0.000
630.527; 2075.250;  223.375;    0.000
630.646; 2013.250;  177.375;    0.000
630.764; 2046.250;  224.375;    0.000
630.883; 2093.250;  220.375;    0.000
631.002; 2007.250;  187.375;    0.000
631.121; 2057.250;  208.375;    0.000
631.240; 2094.250;  217.375;    0.000
631.359; 2135.250;  241.375;    0.000
631.477; 2068.250;  189.375;    0.000
631.596; 2183.250;  244.375;    0.000
631.715; 2164.250;  241.375;    0.000
631.834; 2039.250;  219.375;    0.000
631.952; 2023.250;  231.375;    0.000
632.071; 2006.250;  197.375;    0.000
632.190; 2011.250;  193.375;    0.000
632.308; 2062.250;  185.375;    0.000
632.427; 2023.250;  188.375;    0.000
632.546; 2067.250;  208.375;    0.000
632.664; 2019.250;  191.375;    0.000
632.783; 2163.250;  201.375;    0.000
632.901; 2183.250;  239.375;    0.000
633.020; 2007.250;  197.375;    0.000
633.138; 2049.250;  189.375;    0.000
633.257; 2053.250;  210.375;    0.000
633.375; 2039.250;  213.375;    0.000
633.494; 2029.250;  206.375;    0.000
633.612; 2045.250;  231.375;    0.000
633.731; 2084.250;  213.375;    0.000
633.849; 2028.250;  244.375;    0.000
633.968; 2031.250;  251.375;    0.000
634.086; 2038.250;  224.375;    0.000
634.204; 2010.250;  212.375;    0.000
634.323; 2136.250;  213.375;    0.000
634.441; 2056.250;  219.375;    0.000
634.559; 2019.250;  198.375;    0.000
634.678; 1981.250;  201.375;    0.000
634.796; 2043.250;  179.375;    0.000
634.914; 2010.250;  255.375;    0.000
635.032; 2034.250;  264.375;    0.000
635.151; 2003.250;  228.375;    0.000
635.269; 1982.250;  223.375;    0.000
635.387; 2103.250;  228.375;    0.000
635.505; 2059.250;  214.375;    0.000
635.623; 2067.250;  279.375;    0.000
635.742; 2069.250;  237.375;    0.000
635.860; 1993.250;  244.375;    0.000
635.978; 2031.250;  213.375;    0.000
636.096; 2067.250;  230.375;    0.000
636.214; 2043.250;  252.375;    0.000
636.332; 2004.250;  221.375;    0.000
636.450; 2034.250;  227.375;    0.000
636.568; 2157.250;  193.375;    0.000
636.686; 1933.250;  208.375;    0.000
636.804; 2057.250;  213.375;    0.000
636.922; 2040.250;  199.375;    0.000
637.040; 1969.250;  202.375;    0.000
637.158; 2002.250;  239.375;    0.000
637.276; 2034.250;  225.375;    0.000
637.394; 2028.250;  217.375;    0.000
637.512; 2050.250;  192.375;    0.000
637.629; 2072.250;  216.375;    0.000
637.747; 2115.250;  198.375;    0.000
637.865; 2027.250;  265.375;    0.000
637.983; 2006.250;  245.375;    0.000
638.101; 1995.250;  199.375;    0.000
638.218; 1950.250;  197.375;    0.000
638.336; 2041.250;  212.375;    0.000
638.454; 1961.250;  227.375;    0.000
638.572; 2083.250;  215.375;    0.000
638.689; 2093.250;  214.375;    0.000
638.807; 2049.250;  233.375;    0.000
638.925; 2036.250;  217.375;    0.000
639.042; 1970.250;  180.375;    0.000
639.160; 2049.250;  220.375;    0.000
639.278; 2014.250;  180.375;    0.000
639.395; 2032.250;  243.375;    0.000
639.513; 1974.250;  207.375;    0.000
639.630; 2103.250;  183.375;    0.000
639.748; 2056.250;  231.375;    0.000
639.865; 2073.250;  215.375;    0.000
639.983; 1974.250;  182.375;    0.000
640.100; 1999.250;  190.375;    0.000
640.218; 2013.250;  224.375;    0.000
640.335; 1988.250;  214.375;    0.000
640.453; 1950.250;  212.375;    0.000
640.570; 1969.250;  224.375;    0.000
640.688; 2075.250;  220.375;    0.000
640.805; 1994.250;  189.375;    0.000
640.922; 2116.250;  256.375;    0.000
641.040; 2077.250;  209.375;    0.000
641.157; 2062.250;  195.375;    0.000
641.274; 2103.250;  195.375;    0.000
641.391; 1955.250;  231.375;    0.000
641.509; 2028.250;  207.375;    0.000
641.626; 2028.250;  227.375;    0.000
641.743; 2047.250;  188.375;    0.000
641.860; 2045.250;  208.375;    0.000
641.978; 2025.250;  222.375;    0.000
642.095; 2044.250;  194.375;    0.000
642.212; 1998.250;  202.375;    0.000
642.329; 2043.250;  241.375;    0.000
642.446; 2044.250;  261.375;    0.000
642.563; 2054.250;  236.375;    0.000
642.681; 1980.250;  228.375;    0.000
642.798; 2055.250;  242.375;    0.000
642.915; 2001.250;  197.375;    0.000
643.032; 2078.250;  239.375;    0.000
643.149; 2059.250;  241.375;    0.000
643.266; 2052.250;  199.375;    0.000
643.383; 2075.250;  200.375;    0.000
643.500; 2066.250;  221.375;    0.000
643.617; 2145.250;  196.375;    0.000
643.734; 2111.250;  207.375;    0.000
643.850; 2108.250;  222.375;    0.000
643.967; 2093.250;  235.375;    0.000
644.084; 2105.250;  233.375;    0.000
644.201; 2104.250;  229.375;    0.000
644.318; 2167.250;  210.375;    0.000
644.435; 2126.250;  234.375;    0.000
644.552; 2122.250;  220.375;    0.000
644.668; 2136.250;  231.375;    0.000
644.785; 2220.250;  231.375;    0.000
644.902; 2129.250;  238.375;    0.000
645.019; 2147.250;  226.375;    0.000
645.135; 2171.250;  179.375;    0.000
645.252; 2124.250;  224.375;    0.000
645.369; 2120.250;  206.375;    0.000
645.485; 2124.250;  200.375;    0.000
645.602; 2129.250;  210.375;    0.000
645.719; 2267.250;  206.375;    0.000
645.835; 2230.250;  247.375;    0.000
645.952; 2210.250;  222.375;    0.000
646.068; 2278.250;  205.375;    0.000
646.185; 2166.250;  230.375;    0.000
646.302; 2239.250;  254.375;    0.000
646.418; 2213.250;  230.375;    0.000
646.535; 2303.250;  214.375;    0.000
646.651; 2217.250;  179.375;    0.000
646.768; 2255.250;  190.375;    0.000
646.884; 2361.250;  208.375;    0.000
647.000; 2312.250;  262.375;    0.000
647.117; 2341.250;  212.375;    0.000
647.233; 2288.250;  228.375;    0.000
647.350; 2305.250;  208.375;    0.000
647.466; 2412.250;  211.375;    0.000
647.582; 2324.250;  196.375;    0.000
647.699; 2388.250;  217.375;    0.000
647.815; 2450.250;  203.375;    0.000
647.931; 2276.250;  201.375;    0.000
648.047; 2412.250;  182.375;    0.000
648.164; 2394.250;  219.375;    0.000
648.280; 2384.250;  213.375;    0.000
648.396; 2373.250;  202.375;    0.000
648.512; 2412.250;  233.375;    0.000
648.629; 2482.250;  206.375;    0.000
648.745; 2459.250;  188.375;    0.000
648.861; 2490.250;  209.375;    0.000
648.977; 2596.250;  218.375;    0.000
649.093; 2550.250;  225.375;    0.000
649.209; 2469.250;  240.375;    0.000
649.325; 2525.250;  253.375;    0.000
649.441; 2485.250;  263.375;    0.000
649.557; 2518.250;  256.375;    0.000
649.673; 2465.250;  211.375;    0.000
649.789; 2574.250;  237.375;    0.000
649.905; 2430.250;  183.375;    0.000
650.021; 2614.250;  238.375;    0.000
650.137; 2583.250;  241.375;    0.000
650.253; 2666.250;  228.375;    0.000
650.369; 2545.250;  221.375;    0.000
650.485; 2459.250;  240.375;    0.000
650.601; 2639.250;  254.375;    0.000
650.717; 2595.250;  201.375;    0.000
650.833; 2611.250;  257.375;    0.000
650.948; 2670.250;  213.375;    0.000
651.064; 2657.250;  223.375;    0.000
651.180; 2729.250;  230.375;    0.000
651.296; 2745.250;  235.375;    0.000
651.411; 2757.250;  221.375;    0.000
651.527; 2765.250;  233.375;    0.000
651.643; 2890.250;  236.375;    0.000
651.759; 2884.250;  268.375;    0.000
651.874; 2806.250;  214.375;    0.000
651.990; 2916.250;  251.375;    0.000
652.105; 2924.250;  217.375;    0.000
652.221; 2975.250;  243.375;    0.000
652.337; 2892.250;  231.375;    0.000
652.452; 3051.250;  238.375;    0.000
652.568; 3004.250;  188.375;    0.000
652.683; 3102.250;  197.375;    0.000
652.799; 3087.250;  194.375;    0.000
652.914; 3088.250;  222.375;    0.000
653.030; 3227.250;  200.375;    0.000
653.145; 3214.250;  235.375;    0.000
653.261; 3161.250;  261.375;    0.000
653.376; 3287.250;  228.375;    0.000
653.492; 3374.250;  222.375;    0.000
653.607; 3437.250;  227.375;    0.000
653.722; 3385.250;  250.375;    0.000
653.838; 3572.250;  255.375;    0.000
653.953; 3631.250;  235.375;    0.000
654.068; 3771.250;  266.375;    0.000
654.184; 3840.250;  210.375;    0.000
654.299; 3942.250;  240.375;    0.000
654.414; 3968.250;  222.375;    0.000
654.530; 4021.250;  222.375;    0.000
654.645; 4147.250;  256.375;    0.000
654.760; 4438.250;  244.375;    0.000
654.875; 4391.250;  229.375;    0.000
654.990; 4616.250;  226.375;    0.000
655.106; 4764.250;  254.375;    0.000
655.221; 5029.250;  251.375;    0.000
655.336; 5035.250;  245.375;    0.000
655.451; 5355.250;  199.375;    0.000
655.566; 5578.250;  228.375;    0.000
655.681; 5854.250;  208.375;    0.000
655.796; 6286.250;  218.375;    0.000
655.911; 6503.250;  233.375;    0.000
656.026; 6843.250;  232.375;    0.000
656.141; 7391.250;  223.375;    0.000
656.256; 7817.250;  247.375;    0.000
656.371; 7861.250;  220.375;    0.000
656.486; 7785.250;  225.375;    0.000
656.601; 7585.250;  257.375;    0.000
656.716; 7183.250;  248.375;    0.000
656.831; 6930.250;  262.375;    0.000
656.946; 6624.250;  249.375;    0.000
657.060; 6462.250;  245.375;    0.000
657.175; 6222.250;  245.375;    0.000
657.290; 5797.250;  219.375;    0.000
657.405; 5653.250;  286.375;    0.000
657.520; 5468.250;  259.375;    0.000
657.634; 5301.250;  239.375;    0.000
657.749; 5021.250;  227.375;    0.000
657.864; 4964.250;  210.375;    0.000
657.979; 4968.250;  236.375;    0.000
658.093; 4712.250;  210.375;    0.000
658.208; 4578.250;  248.375;    0.000
658.323; 4534.250;  216.375;    0.000
658.437; 4454.250;  248.375;    0.000
658.552; 4394.250;  249.375;    0.000
658.666; 4158.250;  256.375;    0.000
658.781; 4121.250;  247.375;    0.000
658.895; 4077.250;  209.375;    0.000
659.010; 4009.250;  219.375;    0.000
659.125; 3799.250;  215.375;    0.000
659.239; 3761.250;  205.375;    0.000
659.353; 3692.250;  246.375;    0.000
659.468; 3670.250;  245.375;    0.000
659.582; 3638.250;  244.375;    0.000
659.697; 3467.250;  242.375;    0.000
659.811; 3546.250;  239.375;    0.000
659.926; 3420.250;  226.375;    0.000
660.040; 3409.250;  255.375;    0.000
660.154; 3351.250;  225.375;    0.000
660.269; 3375.250;  200.375;    0.000
660.383; 3155.250;  192.375;    0.000
660.497; 3270.250;  218.375;    0.000
660.612; 3170.250;  236.375;    0.000
660.726; 3153.250;  263.375;    0.000
660.840; 3145.250;  205.375;    0.000
660.954; 3081.250;  219.375;    0.000
661.068; 3035.250;  240.375;    0.000
661.183; 2943.250;  221.375;    0.000
661.297; 2928.250;  194.375;    0.000
661.411; 2844.250;  253.375;    0.000
661.525; 2868.250;  246.375;    0.000
661.639; 2781.250;  217.375;    0.000
661.753; 2799.250;  241.375;    0.000
661.867; 2814.250;  276.375;    0.000
661.981; 2658.250;  203.375;    0.000
662.095; 2740.250;  224.375;    0.000
662.209; 2680.250;  217.375;    0.000
662.323; 2611.250;  251.375;    0.000
662.437; 2509.250;  243.375;    0.000
662.551; 2557.250;  244.375;    0.000
662.665; 2518.250;  247.375;    0.000
662.779; 2556.250;  251.375;    0.000
662.893; 2597.250;  254.375;    0.000
663.007; 2530.250;  222.375;    0.000
663.121; 2482.250;  253.375;    0.000
663.235; 2493.250;  270.375;    0.000
663.349; 2372.250;  242.375;    0.000
663.462; 2368.250;  230.375;    0.000
663.576; 2381.250;  230.375;    0.000
663.690; 2309.250;  249.375;    0.000
663.804; 2282.250;  200.375;    0.000
663.917; 2300.250;  204.375;    0.000
664.031; 2304.250;  206.375;    0.000
664.145; 2258.250;  202.375;    0.000
664.258; 2272.250;  221.375;    0.000
664.372; 2137.250;  215.375;    0.000
664.486; 2260.250;  179.375;    0.000
664.599; 2280.250;  208.375;    0.000
664.713; 2281.250;  268.375;    0.000
664.827; 2130.250;  225.375;    0.000
664.940; 2206.250;  222.375;    0.000
665.054; 2150.250;  208.375;    0.000
665.167; 2190.250;  253.375;    0.000
665.281; 2166.250;  237.375;    0.000
665.394; 2127.250;  227.375;    0.000
665.508; 2111.250;  192.375;    0.000
665.621; 2145.250;  175.375;    0.000
665.735; 2135.250;  249.375;    0.000
665.848; 2125.250;  197.375;    0.000
665.961; 2137.250;  206.375;    0.000
666.075; 2099.250;  245.375;    0.000
666.188; 2058.250;  230.375;    0.000
666.301; 2049.250;  219.375;    0.000
666.415; 2070.250;  231.375;    0.000
666.528; 2066.250;  258.375;    0.000
666.641; 2011.250;  243.375;    0.000
666.755; 2035.250;  208.375;    0.000
666.868; 1958.250;  228.375;    0.000
666.981; 1989.250;  244.375;    0.000
667.094; 1991.250;  244.375;    0.000
667.207; 2047.250;  226.375;    0.000
667.321; 1921.250;  175.375;    0.000
667.434; 1881.250;  211.375;    0.000
667.547; 2044.250;  249.375;    0.000
667.660; 1887.250;  225.375;    0.000
667.773; 1987.250;  242.375;    0.000
667.886; 1870.250;  246.375;    0.000
667.999; 1914.250;  244.375;    0.000
668.112; 1848.250;  227.375;    0.000
668.225; 1907.250;  231.375;    0.000
668.338; 1885.250;  256.375;    0.000
668.451; 1823.250;  216.375;    0.000
668.564; 1871.250;  261.375;    0.000
668.677; 1812.250;  230.375;    0.000
668.790; 1751.250;  192.375;    0.000
668.903; 1786.250;  243.375;    0.000
669.016; 1795.250;  201.375;    0.000
669.129; 1745.250;  249.375;    0.000
669.242; 1738.250;  190.375;    0.000
669.354; 1831.250;  219.375;    0.000
669.467; 1765.250;  242.375;    0.000
669.580; 1791.250;  237.375;    0.000
669.693; 1822.250;  243.375;    0.000
669.806; 1771.250;  234.375;    0.000
669.918; 1717.250;  206.375;    0.000
670.031; 1792.250;  258.375;    0.000
670.144; 1801.250;  231.375;    0.000
670.256; 1729.250;  244.375;    0.000
670.369; 1745.250;  262.375;    0.000
670.482; 1714.250;  264.375;    0.000
670.594; 1684.250;  256.375;    0.000
670.707; 1626.250;  224.375;    0.000
670.820; 1708.250;  261.375;    0.000
670.932; 1668.250;  226.375;    0.000
671.045; 1715.250;  243.375;    0.000
671.157; 1730.250;  235.375;    0.000
671.270; 1695.250;  217.375;    0.000
671.382; 1706.250;  267.375;    0.000
671.495; 1684.250;  258.375;    0.000
671.607; 1757.250;  236.375;    0.000
671.720; 1671.250;  200.375;    0.000
671.832; 1635.250;  219.375;    0.000
671.944; 1659.250;  234.375;    0.000
672.057; 1670.250;  226.375;    0.000
672.169; 1702.250;  225.375;    0.000
672.281; 1697.250;  253.375;    0.000
672.394; 1701.250;  238.375;    0.000
672.506; 1693.250;  244.375;    0.000
672.618; 1681.250;  272.375;    0.000
672.731; 1595.250;  247.375;    0.000
672.843; 1622.250;  261.375;    0.000
672.955; 1688.250;  262.375;    0.000
673.067; 1674.250;  253.375;    0.000
673.180; 1656.250;  239.375;    0.000
673.292; 1613.250;  240.375;    0.000
673.404; 1623.250;  243.375;    0.000
673.516; 1574.250;  258.375;    0.000
673.628; 1617.250;  263.375;    0.000
673.740; 1624.250;  250.375;    0.000
673.852; 1678.250;  285.375;    0.000
673.964; 1693.250;  264.375;    0.000
674.076; 1561.250;  260.375;    0.000
674.188; 1630.250;  226.375;    0.000
674.300; 1612.250;  272.375;    0.000
674.412; 1597.250;  259.375;    0.000
674.524; 1650.250;  283.375;    0.000
674.636; 1638.250;  259.375;    0.000
674.748; 1601.250;  238.375;    0.000
674.860; 1636.250;  277.375;    0.000
674.972; 1628.250;  272.375;    0.000
675.084; 1571.250;  244.375;    0.000
675.196; 1637.250;  272.375;    0.000
675.307; 1572.250;  244.375;    0.000
675.419; 1526.250;  219.375;    0.000
675.531; 1666.250;  275.375;    0.000
675.643; 1545.250;  215.375;    0.000
675.755; 1490.250;  243.375;    0.000
675.866; 1630.250;  223.375;    0.000
675.978; 1553.250;  216.375;    0.000
676.090; 1579.250;  242.375;    0.000
676.201; 1516.250;  276.375;    0.000
676.313; 1511.250;  226.375;    0.000
676.425; 1559.250;  234.375;    0.000
676.536; 1554.250;  231.375;    0.000
676.648; 1547.250;  254.375;    0.000
676.759; 1570.250;  273.375;    0.000
676.871; 1587.250;  250.375;    0.000
676.983; 1511.250;  256.375;    0.000
677.094; 1521.250;  210.375;    0.000
677.206; 1535.250;  248.375;    0.000
677.317; 1533.250;  263.375;    0.000
677.429; 1477.250;  238.375;    0.000
677.540; 1529.250;  247.375;    0.000
677.651; 1430.250;  224.375;    0.000
677.763; 1471.250;  217.375;    0.000
677.874; 1482.250;  234.375;    0.000
677.986; 1460.250;  238.375;    0.000
678.097; 1466.250;  226.375;    0.000
678.208; 1491.250;  253.375;    0.000
678.320; 1491.250;  217.375;    0.000
678.431; 1451.250;  238.375;    0.000
678.542; 1494.250;  236.375;    0.000
678.653; 1389.250;  218.375;    0.000
678.765; 1473.250;  275.375;    0.000
678.876; 1483.250;  213.375;    0.000
678.987; 1433.250;  182.375;    0.000
679.098; 1443.250;  221.375;    0.000
679.209; 1466.250;  238.375;    0.000
679.320; 1410.250;  212.375;    0.000
679.432; 1407.250;  231.375;    0.000
679.543; 1356.250;  198.375;    0.000
679.654; 1375.250;  191.375;    0.000
679.765; 1465.250;  214.375;    0.000
679.876; 1407.250;  221.375;    0.000
679.987; 1437.250;  162.375;    0.000
680.098; 1404.250;  230.375;    0.000
680.209; 1473.250;  206.375;    0.000
680.320; 1392.250;  196.375;    0.000
680.431; 1441.250;  191.375;    0.000
680.542; 1382.250;  214.375;    0.000
680.653; 1410.250;  238.375;    0.000
680.763; 1408.250;  182.375;    0.000
680.874; 1366.250;  213.375;    0.000
680.985; 1370.250;  224.375;    0.000
681.096; 1409.250;  222.375;    0.000
681.207; 1489.250;  220.375;    0.000
681.318; 1398.250;  216.375;    0.000
681.428; 1467.250;  229.375;    0.000
681.539; 1353.250;  183.375;    0.000
681.650; 1342.250;  202.375;    0.000
681.760; 1468.250;  223.375;    0.000
681.871; 1375.250;  211.375;    0.000
681.982; 1349.250;  189.375;    0.000
682.093; 1430.250;  222.375;    0.000
682.203; 1417.250;  220.375;    0.000
682.314; 1380.250;  214.375;    0.000
682.424; 1393.250;  208.375;    0.000
682.535; 1350.250;  213.375;    0.000
682.646; 1413.250;  302.375;    0.000
682.756; 1330.250;  255.375;    0.000
682.867; 1410.250;  244.375;    0.000
682.977; 1388.250;  221.375;    0.000
683.088; 1361.250;  259.375;    0.000
683.198; 1326.250;  212.375;    0.000
683.308; 1387.250;  202.375;    0.000
683.419; 1379.250;  255.375;    0.000
683.529; 1418.250;  217.375;    0.000
683.640; 1368.250;  240.375;    0.000
683.750; 1319.250;  181.375;    0.000
683.860; 1437.250;  246.375;    0.000
683.971; 1395.250;  254.375;    0.000
684.081; 1439.250;  235.375;    0.000
684.191; 1472.250;  251.375;    0.000
684.301; 1345.250;  233.375;    0.000
684.412; 1316.250;  202.375;    0.000
684.522; 1309.250;  232.375;    0.000
684.632; 1353.250;  202.375;    0.000
684.742; 1422.250;  254.375;    0.000
684.852; 1316.250;  219.375;    0.000
684.963; 1288.250;  256.375;    0.000
685.073; 1366.250;  253.375;    0.000
685.183; 1380.250;  254.375;    0.000
685.293; 1371.250;  232.375;    0.000
685.403; 1374.250;  242.375;    0.000
685.513; 1376.250;  261.375;    0.000
685.623; 1359.250;  245.375;    0.000
685.733; 1364.250;  254.375;    0.000
685.843; 1309.250;  249.375;    0.000
685.953; 1327.250;  252.375;    0.000
686.063; 1308.250;  227.375;    0.000
686.173; 1367.250;  223.375;    0.000
686.283; 1336.250;  234.375;    0.000
686.393; 1336.250;  239.375;    0.000
686.503; 1291.250;  231.375;    0.000
686.612; 1382.250;  232.375;    0.000
686.722; 1337.250;  258.375;    0.000
686.832; 1348.250;  256.375;    0.000
686.942; 1418.250;  230.375;    0.000
687.052; 1327.250;  274.375;    0.000
687.161; 1361.250;  269.375;    0.000
687.271; 1358.250;  218.375;    0.000
687.381; 1350.250;  235.375;    0.000
687.491; 1311.250;  262.375;    0.000
687.600; 1331.250;  256.375;    0.000
687.710; 1344.250;  225.375;    0.000
687.820; 1315.250;  230.375;    0.000
687.929; 1355.250;  226.375;    0.000
688.039; 1311.250;  228.375;    0.000
688.148; 1349.250;  249.375;    0.000
688.258; 1354.250;  237.375;    0.000
688.367; 1335.250;  260.375;    0.000
688.477; 1259.250;  200.375;    0.000
688.586; 1321.250;  223.375;    0.000
688.696; 1332.250;  223.375;    0.000
688.805; 1387.250;  257.375;    0.000
688.915; 1291.250;  185.375;    0.000
689.024; 1277.250;  227.375;    0.000
689.134; 1338.250;  224.375;    0.000
689.243; 1232.250;  206.375;    0.000
689.352; 1387.250;  275.375;    0.000
689.462; 1317.250;  233.375;    0.000
689.571; 1338.250;  244.375;    0.000
689.680; 1315.250;  261.375;    0.000
689.790; 1330.250;  192.375;    0.000
689.899; 1321.250;  214.375;    0.000
690.008; 1306.250;  255.375;    0.000
690.117; 1293.250;  219.375;    0.000
690.227; 1287.250;  241.375;    0.000
690.336; 1319.250;  231.375;    0.000
690.445; 1312.250;  212.375;    0.000
690.554; 1297.250;  234.375;    0.000
690.663; 1310.250;  210.375;    0.000
690.772; 1311.250;  221.375;    0.000
690.881; 1377.250;  244.375;    0.000
690.990; 1288.250;  247.375;    0.000
691.099; 1244.250;  222.375;    0.000
691.209; 1255.250;  240.375;    0.000
691.318; 1289.250;  223.375;    0.000
691.427; 1298.250;  217.375;    0.000
691.536; 1286.250;  216.375;    0.000
691.644; 1228.250;  194.375;    0.000
691.753; 1333.250;  221.375;    0.000
691.862; 1332.250;  224.375;    0.000
691.971; 1281.250;  191.375;    0.000
692.080; 1259.250;  247.375;    0.000
692.189; 1300.250;  208.375;    0.000
692.298; 1272.250;  203.375;    0.000
692.406; 1338.250;  239.375;    0.000
692.515; 1288.250;  250.375;    0.000
692.624; 1269.250;  226.375;    0.000
692.733; 1258.250;  229.375;    0.000
692.842; 1258.250;  254.375;    0.000
692.950; 1345.250;  242.375;    0.000
693.059; 1258.250;  204.375;    0.000
693.168; 1328.250;  252.375;    0.000
693.276; 1227.250;  195.375;    0.000
693.385; 1237.250;  228.375;    0.000
693.494; 1236.250;  282.375;    0.000
693.602; 1301.250;  221.375;    0.000
693.711; 1302.250;  225.375;    0.000
693.819; 1237.250;  234.375;    0.000
693.928; 1254.250;  229.375;    0.000
694.036; 1270.250;  192.375;    0.000
694.145; 1320.250;  233.375;    0.000
694.253; 1297.250;  277.375;    0.000
694.362; 1322.250;  188.375;    0.000
694.470; 1297.250;  263.375;    0.000
694.579; 1339.250;  253.375;    0.000
694.687; 1378.250;  281.375;    0.000
694.795; 1250.250;  233.375;    0.000
694.904; 1259.250;  223.375;    0.000
695.012; 1314.250;  296.375;    0.000
695.120; 1379.250;  227.375;    0.000
695.229; 1309.250;  269.375;    0.000
695.337; 1243.250;  229.375;    0.000
695.445; 1371.250;  244.375;    0.000
695.553; 1265.250;  259.375;    0.000
695.662; 1333.250;  208.375;    0.000
695.770; 1244.250;  241.375;    0.000
695.878; 1327.250;  239.375;    0.000
695.986; 1249.250;  247.375;    0.000
696.094; 1348.250;  224.375;    0.000
696.202; 1186.250;  205.375;    0.000
696.310; 1292.250;  217.375;    0.000
696.419; 1299.250;  228.375;    0.000
696.527; 1286.250;  246.375;    0.000
696.635; 1264.250;  245.375;    0.000
696.743; 1323.250;  233.375;    0.000
696.851; 1258.250;  251.375;    0.000
696.959; 1241.250;  257.375;    0.000
697.067; 1235.250;  260.375;    0.000
697.174; 1272.250;  223.375;    0.000
697.282; 1251.250;  239.375;    0.000
697.390; 1287.250;  264.375;    0.000
697.498; 1206.250;  227.375;    0.000
697.606; 1257.250;  243.375;    0.000
697.714; 1290.250;  256.375;    0.000
697.822; 1275.250;  278.375;    0.000
697.929; 1215.250;  227.375;    0.000
698.037; 1209.250;  232.375;    0.000
698.145; 1256.250;  256.375;    0.000
698.253; 1233.250;  245.375;    0.000
698.360; 1255.250;  282.375;    0.000
698.468; 1299.250;  244.375;    0.000
698.576; 1258.250;  279.375;    0.000
698.683; 1250.250;  259.375;    0.000
698.791; 1256.250;  265.375;    0.000
698.899; 1287.250;  250.375;    0.000
699.006; 1255.250;  245.375;    0.000
699.114; 1279.250;  280.375;    0.000
699.221; 1255.250;  240.375;    0.000
699.329; 1258.250;  293.375;    0.000
699.436; 1291.250;  216.375;    0.000
699.544; 1201.250;  269.375;    0.000
699.651; 1277.250;  219.375;    0.000
699.759; 1223.250;  245.375;    0.000
699.866; 1237.250;  261.375;    0.000
699.974; 1165.250;  245.375;    0.000
700.081; 1258.250;  257.375;    0.000
700.188; 1290.250;  268.375;    0.000
700.296; 1273.250;  225.375;    0.000
700.403; 1256.250;  257.375;    0.000
700.510; 1236.250;  267.375;    0.000
700.618; 1229.250;  299.375;    0.000
700.725; 1249.250;  223.375;    0.000
700.832; 1192.250;  233.375;    0.000
700.940; 1328.250;  255.375;    0.000
701.047; 1222.250;  244.375;    0.000
701.154; 1228.250;  248.375;    0.000
701.261; 1198.250;  264.375;    0.000
701.368; 1270.250;  299.375;    0.000
701.475; 1180.250;  264.375;    0.000
701.582; 1299.250;  275.375;    0.000
701.690; 1258.250;  261.375;    0.000
701.797; 1243.250;  273.375;    0.000
701.904; 1241.250;  320.375;    0.000
702.011; 1312.250;  299.375;    0.000
702.118; 1255.250;  292.375;    0.000
702.225; 1319.250;  317.375;    0.000
702.332; 1255.250;  307.375;    0.000
702.439; 1250.250;  313.375;    0.000
702.546; 1304.250;  312.375;    0.000
702.652; 1283.250;  297.375;    0.000
702.759; 1333.250;  345.375;    0.000
702.866; 1297.250;  330.375;    0.000
702.973; 1355.250;  303.375;    0.000
703.080; 1310.250;  303.375;    0.000
703.187; 1279.250;  327.375;    0.000
703.294; 1270.250;  325.375;    0.000
703.400; 1192.250;  302.375;    0.000
703.507;  443.250;  344.375;    0.000
703.614;  309.250;  294.375;    0.000
703.720;  311.250;  322.375;    0.000
703.827;  347.250;  329.375;    0.000
703.934;  306.250;  318.375;    0.000
704.040;  315.250;  299.375;    0.000
704.147;  292.250;  352.375;    0.000
704.254;  345.250;  350.375;    0.000
704.360;  325.250;  347.375;    0.000
704.467;  327.250;  336.375;    0.000
704.573;  337.250;  344.375;    0.000
704.680;  316.250;  365.375;    0.000
704.786;  342.250;  332.375;    0.000
704.893;  312.250;  304.375;    0.000
704.999;  303.250;  299.375;    0.000
705.106;  352.250;  365.375;    0.000

