
Integration time [ms]:   1.000
Averaging Nr. [scans]: 1
Smoothing Nr. [pixels]: 0
Data measured with spectrometer [name]: UV2
Wave   ;Sample   ;Dark     ;Reference
[nm]   ;[counts] ;[counts] ;[counts] 

353.533;  241.600;  216.475;    0.000
353.597;  219.600;  244.475;    0.000
353.660;  211.600;  181.475;    0.000
353.723;  141.600;  203.475;    0.000
353.786;  216.600;  180.475;    0.000
353.850;  233.600;  213.475;    0.000
353.913;  196.600;  191.475;    0.000
353.976;  230.600;  195.475;    0.000
354.039;  185.600;  158.475;    0.000
354.102;  204.600;  199.475;    0.000
354.166;  197.600;  185.475;    0.000
354.229;  212.600;  188.475;    0.000
354.292;  175.600;  188.475;    0.000
354.355;  213.600;  226.475;    0.000
354.418;  238.600;  158.475;    0.000
354.481;  215.600;  185.475;    0.000
354.545;  898.600;  191.475;    0.000
354.608;  888.600;  247.475;    0.000
354.671;  925.600;  176.475;    0.000
354.734;  923.600;  198.475;    0.000
354.797;  924.600;  195.475;    0.000
354.860; 1025.600;  212.475;    0.000
354.923; 1020.600;  184.475;    0.000
354.986;  997.600;  169.475;    0.000
355.050; 1032.600;  206.475;    0.000
355.113; 1040.600;  210.475;    0.000
355.176; 1063.600;  217.475;    0.000
355.239; 1098.600;  201.475;    0.000
355.302; 1077.600;  193.475;    0.000
355.365; 1122.600;  234.475;    0.000
355.428; 1132.600;  182.475;    0.000
355.491; 1176.600;  233.475;    0.000
355.554; 1143.600;  167.475;    0.000
355.617; 1145.600;  195.475;    0.000
355.680; 1227.600;  198.475;    0.000
355.743; 1160.600;  186.475;    0.000
355.806; 1206.600;  171.475;    0.000
355.869; 1288.600;  244.475;    0.000
355.932; 1203.600;  164.475;    0.000
355.995; 1242.600;  220.475;    0.000
356.058; 1210.600;  172.475;    0.000
356.121; 1233.600;  228.475;    0.000
356.184; 1276.600;  225.475;    0.000
356.247; 1340.600;  161.475;    0.000
356.310; 1307.600;  195.475;    0.000
356.373; 1265.600;  191.475;    0.000
356.436; 1313.600;  147.475;    0.000
356.498; 1364.600;  183.475;    0.000
356.561; 1310.600;  137.475;    0.000
356.624; 1310.600;  186.475;    0.000
356.687; 1349.600;  158.475;    0.000
356.750; 1337.600;  194.475;    0.000
356.813; 1298.600;  186.475;    0.000
356.876; 1349.600;  161.475;    0.000
356.939; 1361.600;  188.475;    0.000
357.001; 1405.600;  200.475;    0.000
357.064; 1407.600;  182.475;    0.000
357.127; 1391.600;  168.475;    0.000
357.190; 1395.600;  157.475;    0.000
357.253; 1399.600;  199.475;    0.000
357.316; 1383.600;  187.475;    0.000
357.378; 1416.600;  174.475;    0.000
357.441; 1406.600;  165.475;    0.000
357.504; 1390.600;  189.475;    0.000
357.567; 1426.600;  116.475;    0.000
357.629; 1450.600;  176.475;    0.000
357.692; 1302.600;  134.475;    0.000
357.755; 1349.600;  175.475;    0.000
357.818; 1361.600;  159.475;    0.000
357.880; 1431.600;  185.475;    0.000
357.943; 1411.600;  159.475;    0.000
358.006; 1471.600;  176.475;    0.000
358.069; 1417.600;  156.475;    0.000
358.131; 1435.600;  170.475;    0.000
358.194; 1416.600;  125.475;    0.000
358.257; 1416.600;  186.475;    0.000
358.319; 1464.600;  139.475;    0.000
358.382; 1483.600;  175.475;    0.000
358.445; 1398.600;  170.475;    0.000
358.507; 1386.600;  129.475;    0.000
358.570; 1470.600;  168.475;    0.000
358.633; 1480.600;  152.475;    0.000
358.695; 1464.600;  194.475;    0.000
358.758; 1415.600;  154.475;    0.000
358.821; 1473.600;  147.475;    0.000
358.883; 1441.600;  163.475;    0.000
358.946; 1510.600;  155.475;    0.000
359.008; 1488.600;  208.475;    0.000
359.071; 1516.600;  182.475;    0.000
359.134; 1435.600;  126.475;    0.000
359.196; 1475.600;  142.475;    0.000
359.259; 1533.600;  138.475;    0.000
359.321; 1506.600;  153.475;    0.000
359.384; 1506.600;  186.475;    0.000
359.446; 1482.600;  152.475;    0.000
359.509; 1520.600;  144.475;    0.000
359.571; 1543.600;  164.475;    0.000
359.634; 1489.600;  171.475;    0.000
359.696; 1447.600;  144.475;    0.000
359.759; 1411.600;  171.475;    0.000
359.821; 1494.600;  161.475;    0.000
359.884; 1530.600;  159.475;    0.000
359.946; 1549.600;  186.475;    0.000
360.009; 1590.600;  171.475;    0.000
360.071; 1534.600;  166.475;    0.000
360.134; 1593.600;  215.475;    0.000
360.196; 1537.600;  138.475;    0.000
360.259; 1573.600;  196.475;    0.000
360.321; 1545.600;  148.475;    0.000
360.384; 1585.600;  150.475;    0.000
360.446; 1529.600;  148.475;    0.000
360.508; 1597.600;  172.475;    0.000
360.571; 1631.600;  155.475;    0.000
360.633; 1589.600;  153.475;    0.000
360.696; 1525.600;  142.475;    0.000
360.758; 1573.600;  165.475;    0.000
360.820; 1559.600;  155.475;    0.000
360.883; 1570.600;  156.475;    0.000
360.945; 1657.600;  171.475;    0.000
361.007; 1591.600;  138.475;    0.000
361.070; 1619.600;  129.475;    0.000
361.132; 1644.600;  166.475;    0.000
361.194; 1587.600;  143.475;    0.000
361.257; 1597.600;  154.475;    0.000
361.319; 1658.600;  176.475;    0.000
361.381; 1588.600;  143.475;    0.000
361.443; 1572.600;  136.475;    0.000
361.506; 1688.600;  160.475;    0.000
361.568; 1595.600;  140.475;    0.000
361.630; 1603.600;  159.475;    0.000
361.693; 1628.600;  162.475;    0.000
361.755; 1620.600;  185.475;    0.000
361.817; 1684.600;  209.475;    0.000
361.879; 1680.600;  161.475;    0.000
361.941; 1658.600;  152.475;    0.000
362.004; 1652.600;  132.475;    0.000
362.066; 1624.600;  159.475;    0.000
362.128; 1638.600;  143.475;    0.000
362.190; 1702.600;  131.475;    0.000
362.252; 1635.600;  131.475;    0.000
362.315; 1656.600;  175.475;    0.000
362.377; 1736.600;  140.475;    0.000
362.439; 1645.600;  140.475;    0.000
362.501; 1613.600;  140.475;    0.000
362.563; 1636.600;  152.475;    0.000
362.625; 1614.600;  174.475;    0.000
362.688; 1706.600;  195.475;    0.000
362.750; 1799.600;  221.475;    0.000
362.812; 1657.600;  171.475;    0.000
362.874; 1730.600;  117.475;    0.000
362.936; 1715.600;  162.475;    0.000
362.998; 1627.600;  142.475;    0.000
363.060; 1708.600;  143.475;    0.000
363.122; 1707.600;  148.475;    0.000
363.184; 1835.600;  179.475;    0.000
363.246; 1764.600;  186.475;    0.000
363.308; 1766.600;  180.475;    0.000
363.370; 1712.600;  200.475;    0.000
363.432; 1744.600;  139.475;    0.000
363.494; 1744.600;  138.475;    0.000
363.556; 1718.600;  114.475;    0.000
363.618; 1667.600;  153.475;    0.000
363.680; 1706.600;  153.475;    0.000
363.742; 1706.600;  178.475;    0.000
363.804; 1718.600;  214.475;    0.000
363.866; 1789.600;  170.475;    0.000
363.928; 1572.600;  145.475;    0.000
363.990; 1763.600;  215.475;    0.000
364.052; 1819.600;  166.475;    0.000
364.114; 1703.600;  168.475;    0.000
364.176; 1783.600;  176.475;    0.000
364.238; 1796.600;  203.475;    0.000
364.300; 1756.600;  158.475;    0.000
364.362; 1746.600;  152.475;    0.000
364.424; 1654.600;  119.475;    0.000
364.486; 1748.600;  187.475;    0.000
364.548; 1764.600;  180.475;    0.000
364.609; 1784.600;  212.475;    0.000
364.671; 1781.600;  165.475;    0.000
364.733; 1759.600;  190.475;    0.000
364.795; 1808.600;  148.475;    0.000
364.857; 1786.600;  159.475;    0.000
364.919; 1754.600;  159.475;    0.000
364.981; 1767.600;  191.475;    0.000
365.042; 1842.600;  170.475;    0.000
365.104; 1792.600;  145.475;    0.000
365.166; 1725.600;  134.475;    0.000
365.228; 1763.600;  150.475;    0.000
365.290; 1738.600;  158.475;    0.000
365.351; 1793.600;  168.475;    0.000
365.413; 1786.600;  173.475;    0.000
365.475; 1755.600;  172.475;    0.000
365.537; 1724.600;  126.475;    0.000
365.598; 1783.600;  160.475;    0.000
365.660; 1703.600;  127.475;    0.000
365.722; 1789.600;  189.475;    0.000
365.784; 1794.600;  161.475;    0.000
365.845; 1796.600;  152.475;    0.000
365.907; 1766.600;  117.475;    0.000
365.969; 1826.600;  146.475;    0.000
366.030; 1769.600;  171.475;    0.000
366.092; 1779.600;  155.475;    0.000
366.154; 1772.600;  137.475;    0.000
366.215; 1867.600;  147.475;    0.000
366.277; 1865.600;  148.475;    0.000
366.339; 1763.600;  158.475;    0.000
366.400; 1796.600;  140.475;    0.000
366.462; 1814.600;  159.475;    0.000
366.524; 1834.600;  160.475;    0.000
366.585; 1733.600;  157.475;    0.000
366.647; 1834.600;  170.475;    0.000
366.708; 1764.600;  123.475;    0.000
366.770; 1841.600;  194.475;    0.000
366.832; 1821.600;  191.475;    0.000
366.893; 1893.600;  155.475;    0.000
366.955; 1853.600;  132.475;    0.000
367.016; 1812.600;  126.475;    0.000
367.078; 1781.600;  202.475;    0.000
367.139; 1877.600;  116.475;    0.000
367.201; 1855.600;  134.475;    0.000
367.262; 1799.600;  157.475;    0.000
367.324; 1808.600;  202.475;    0.000
367.385; 1793.600;  118.475;    0.000
367.447; 1873.600;  155.475;    0.000
367.508; 1858.600;  134.475;    0.000
367.570; 1858.600;  165.475;    0.000
367.631; 1830.600;  118.475;    0.000
367.693; 1875.600;  170.475;    0.000
367.754; 1911.600;  154.475;    0.000
367.816; 1851.600;  146.475;    0.000
367.877; 1873.600;  175.475;    0.000
367.939; 1957.600;  200.475;    0.000
368.000; 1812.600;  168.475;    0.000
368.062; 1870.600;  138.475;    0.000
368.123; 1892.600;  170.475;    0.000
368.184; 1843.600;  188.475;    0.000
368.246; 1921.600;  145.475;    0.000
368.307; 1916.600;  163.475;    0.000
368.369; 1797.600;  144.475;    0.000
368.430; 1848.600;  140.475;    0.000
368.491; 1892.600;  133.475;    0.000
368.553; 1907.600;  145.475;    0.000
368.614; 1830.600;  158.475;    0.000
368.675; 1845.600;  147.475;    0.000
368.737; 1906.600;  157.475;    0.000
368.798; 1894.600;  163.475;    0.000
368.859; 1942.600;  173.475;    0.000
368.921; 1923.600;  122.475;    0.000
368.982; 1831.600;  184.475;    0.000
369.043; 1905.600;  169.475;    0.000
369.104; 1865.600;  142.475;    0.000
369.166; 1905.600;  169.475;    0.000
369.227; 1862.600;  156.475;    0.000
369.288; 1850.600;  151.475;    0.000
369.349; 1911.600;  191.475;    0.000
369.411; 1887.600;  168.475;    0.000
369.472; 1913.600;  155.475;    0.000
369.533; 1891.600;  149.475;    0.000
369.594; 1911.600;  174.475;    0.000
369.656; 1860.600;  188.475;    0.000
369.717; 1842.600;  113.475;    0.000
369.778; 1969.600;  184.475;    0.000
369.839; 1920.600;  151.475;    0.000
369.900; 2022.600;  180.475;    0.000
369.961; 1926.600;  171.475;    0.000
370.023; 1949.600;  143.475;    0.000
370.084; 1889.600;  137.475;    0.000
370.145; 1928.600;  152.475;    0.000
370.206; 1987.600;  151.475;    0.000
370.267; 1849.600;  134.475;    0.000
370.328; 1933.600;  178.475;    0.000
370.389; 1963.600;  181.475;    0.000
370.451; 1926.600;  169.475;    0.000
370.512; 1962.600;  172.475;    0.000
370.573; 1943.600;  148.475;    0.000
370.634; 1951.600;  156.475;    0.000
370.695; 1958.600;  151.475;    0.000
370.756; 1961.600;  185.475;    0.000
370.817; 1939.600;  185.475;    0.000
370.878; 1932.600;  191.475;    0.000
370.939; 1880.600;  147.475;    0.000
371.000; 1985.600;  162.475;    0.000
371.061; 1969.600;  145.475;    0.000
371.122; 1970.600;  179.475;    0.000
371.183; 1912.600;  114.475;    0.000
371.244; 1992.600;  180.475;    0.000
371.305; 1895.600;  138.475;    0.000
371.366; 1965.600;  157.475;    0.000
371.427; 1971.600;  148.475;    0.000
371.488; 1970.600;  138.475;    0.000
371.549; 2030.600;  193.475;    0.000
371.610; 1912.600;  158.475;    0.000
371.671; 1917.600;  119.475;    0.000
371.732; 1920.600;  159.475;    0.000
371.793; 2015.600;  178.475;    0.000
371.853; 1871.600;  155.475;    0.000
371.914; 2040.600;  148.475;    0.000
371.975; 1893.600;  124.475;    0.000
372.036; 1968.600;  158.475;    0.000
372.097; 1898.600;  136.475;    0.000
372.158; 1892.600;  116.475;    0.000
372.219; 2010.600;  157.475;    0.000
372.280; 1981.600;  151.475;    0.000
372.340; 1958.600;  190.475;    0.000
372.401; 1949.600;  151.475;    0.000
372.462; 2026.600;  129.475;    0.000
372.523; 1973.600;  121.475;    0.000
372.584; 2025.600;  152.475;    0.000
372.645; 1953.600;  132.475;    0.000
372.705; 1993.600;  190.475;    0.000
372.766; 1959.600;  153.475;    0.000
372.827; 1957.600;  133.475;    0.000
372.888; 2015.600;  161.475;    0.000
372.948; 2043.600;  159.475;    0.000
373.009; 1963.600;  164.475;    0.000
373.070; 1982.600;  139.475;    0.000
373.131; 2087.600;  137.475;    0.000
373.191; 2082.600;  181.475;    0.000
373.252; 1948.600;  154.475;    0.000
373.313; 1994.600;  179.475;    0.000
373.373; 2051.600;  136.475;    0.000
373.434; 2058.600;  169.475;    0.000
373.495; 2045.600;   97.475;    0.000
373.555; 2074.600;  142.475;    0.000
373.616; 1995.600;  178.475;    0.000
373.677; 2010.600;  167.475;    0.000
373.737; 2159.600;  139.475;    0.000
373.798; 2051.600;  155.475;    0.000
373.859; 2007.600;  162.475;    0.000
373.919; 2036.600;  174.475;    0.000
373.980; 2075.600;  172.475;    0.000
374.041; 2048.600;  166.475;    0.000
374.101; 2038.600;  172.475;    0.000
374.162; 2120.600;  188.475;    0.000
374.222; 2078.600;  186.475;    0.000
374.283; 2068.600;  195.475;    0.000
374.343; 2106.600;  204.475;    0.000
374.404; 2105.600;  187.475;    0.000
374.465; 2108.600;  183.475;    0.000
374.525; 2121.600;  136.475;    0.000
374.586; 2062.600;  140.475;    0.000
374.646; 2149.600;  191.475;    0.000
374.707; 2121.600;  208.475;    0.000
374.767; 2122.600;  178.475;    0.000
374.828; 2119.600;  159.475;    0.000
374.888; 2137.600;  143.475;    0.000
374.949; 2233.600;  202.475;    0.000
375.009; 2175.600;  151.475;    0.000
375.070; 2153.600;  160.475;    0.000
375.130; 2196.600;  160.475;    0.000
375.190; 2165.600;  164.475;    0.000
375.251; 2203.600;  196.475;    0.000
375.311; 2160.600;  154.475;    0.000
375.372; 2119.600;  197.475;    0.000
375.432; 2074.600;  159.475;    0.000
375.493; 2203.600;  197.475;    0.000
375.553; 2014.600;  165.475;    0.000
375.613; 2166.600;  174.475;    0.000
375.674; 2190.600;  165.475;    0.000
375.734; 2187.600;  128.475;    0.000
375.794; 2136.600;  169.475;    0.000
375.855; 2163.600;  193.475;    0.000
375.915; 2227.600;  162.475;    0.000
375.975; 2201.600;  181.475;    0.000
376.036; 2092.600;  161.475;    0.000
376.096; 2136.600;  131.475;    0.000
376.156; 2190.600;  165.475;    0.000
376.217; 2120.600;  182.475;    0.000
376.277; 2191.600;  185.475;    0.000
376.337; 2128.600;  177.475;    0.000
376.398; 2152.600;  162.475;    0.000
376.458; 2201.600;  179.475;    0.000
376.518; 2114.600;  150.475;    0.000
376.578; 2190.600;  165.475;    0.000
376.639; 2152.600;  159.475;    0.000
376.699; 2150.600;  180.475;    0.000
376.759; 2205.600;  206.475;    0.000
376.819; 2191.600;  146.475;    0.000
376.880; 2237.600;  177.475;    0.000
376.940; 2168.600;  160.475;    0.000
377.000; 2277.600;  149.475;    0.000
377.060; 2221.600;  180.475;    0.000
377.120; 2242.600;  146.475;    0.000
377.180; 2193.600;  137.475;    0.000
377.241; 2196.600;  163.475;    0.000
377.301; 2265.600;  169.475;    0.000
377.361; 2287.600;  137.475;    0.000
377.421; 2215.600;  184.475;    0.000
377.481; 2255.600;  185.475;    0.000
377.541; 2292.600;  146.475;    0.000
377.601; 2207.600;  179.475;    0.000
377.661; 2226.600;  181.475;    0.000
377.722; 2236.600;  185.475;    0.000
377.782; 2226.600;  147.475;    0.000
377.842; 2318.600;  190.475;    0.000
377.902; 2266.600;  166.475;    0.000
377.962; 2149.600;  153.475;    0.000
378.022; 2240.600;  163.475;    0.000
378.082; 2295.600;  146.475;    0.000
378.142; 2315.600;  152.475;    0.000
378.202; 2355.600;  164.475;    0.000
378.262; 2241.600;  195.475;    0.000
378.322; 2358.600;  190.475;    0.000
378.382; 2284.600;  152.475;    0.000
378.442; 2298.600;  175.475;    0.000
378.502; 2252.600;  153.475;    0.000
378.562; 2261.600;  142.475;    0.000
378.622; 2379.600;  166.475;    0.000
378.682; 2366.600;  173.475;    0.000
378.742; 2343.600;  182.475;    0.000
378.802; 2346.600;  145.475;    0.000
378.862; 2419.600;  210.475;    0.000
378.921; 2392.600;  182.475;    0.000
378.981; 2393.600;  185.475;    0.000
379.041; 2440.600;  130.475;    0.000
379.101; 2393.600;  177.475;    0.000
379.161; 2348.600;  166.475;    0.000
379.221; 2370.600;  162.475;    0.000
379.281; 2483.600;  167.475;    0.000
379.341; 2386.600;  136.475;    0.000
379.401; 2457.600;  145.475;    0.000
379.460; 2486.600;  176.475;    0.000
379.520; 2479.600;  162.475;    0.000
379.580; 2450.600;  144.475;    0.000
379.640; 2473.600;  163.475;    0.000
379.700; 2395.600;  157.475;    0.000
379.759; 2447.600;  165.475;    0.000
379.819; 2418.600;  190.475;    0.000
379.879; 2513.600;  143.475;    0.000
379.939; 2501.600;  188.475;    0.000
379.999; 2514.600;  141.475;    0.000
380.058; 2418.600;  169.475;    0.000
380.118; 2533.600;  158.475;    0.000
380.178; 2581.600;  114.475;    0.000
380.237; 2607.600;  157.475;    0.000
380.297; 2583.600;  177.475;    0.000
380.357; 2575.600;  189.475;    0.000
380.417; 2569.600;  182.475;    0.000
380.476; 2525.600;  178.475;    0.000
380.536; 2542.600;  189.475;    0.000
380.596; 2614.600;  183.475;    0.000
380.655; 2602.600;  195.475;    0.000
380.715; 2515.600;  170.475;    0.000
380.775; 2553.600;  170.475;    0.000
380.834; 2617.600;  179.475;    0.000
380.894; 2631.600;  188.475;    0.000
380.954; 2563.600;  142.475;    0.000
381.013; 2692.600;  178.475;    0.000
381.073; 2601.600;  164.475;    0.000
381.132; 2663.600;  192.475;    0.000
381.192; 2626.600;  187.475;    0.000
381.252; 2730.600;  176.475;    0.000
381.311; 2640.600;  206.475;    0.000
381.371; 2715.600;  167.475;    0.000
381.430; 2636.600;  131.475;    0.000
381.490; 2651.600;  150.475;    0.000
381.549; 2729.600;  129.475;    0.000
381.609; 2766.600;  178.475;    0.000
381.668; 2690.600;  194.475;    0.000
381.728; 2906.600;  210.475;    0.000
381.787; 2770.600;  190.475;    0.000
381.847; 2869.600;  181.475;    0.000
381.906; 2859.600;  156.475;    0.000
381.966; 2879.600;  176.475;    0.000
382.025; 2909.600;  186.475;    0.000
382.085; 2935.600;  192.475;    0.000
382.144; 3027.600;  173.475;    0.000
382.204; 3024.600;  207.475;    0.000
382.263; 3022.600;  193.475;    0.000
382.323; 3065.600;  164.475;    0.000
382.382; 3146.600;  161.475;    0.000
382.441; 3124.600;  199.475;    0.000
382.501; 3234.600;  208.475;    0.000
382.560; 3327.600;  173.475;    0.000
382.619; 3371.600;  179.475;    0.000
382.679; 3497.600;  177.475;    0.000
382.738; 3662.600;  190.475;    0.000
382.798; 3787.600;  213.475;    0.000
382.857; 4190.600;  195.475;    0.000
382.916; 4614.600;  184.475;    0.000
382.976; 4773.600;  169.475;    0.000
383.035; 4343.600;  194.475;    0.000
383.094; 4428.600;  185.475;    0.000
383.154; 4835.600;  198.475;    0.000
383.213; 5753.600;  147.475;    0.000
383.272; 5629.600;  175.475;    0.000
383.331; 4640.600;  122.475;    0.000
383.391; 4280.600;  185.475;    0.000
383.450; 4152.600;  160.475;    0.000
383.509; 4153.600;  168.475;    0.000
383.568; 4241.600;  196.475;    0.000
383.628; 4554.600;  156.475;    0.000
383.687; 4966.600;  171.475;    0.000
383.746; 5622.600;  155.475;    0.000
383.805; 6371.600;  201.475;    0.000
383.864; 6349.600;  125.475;    0.000
383.924; 4907.600;  213.475;    0.000
383.983; 4231.600;  188.475;    0.000
384.042; 3889.600;  162.475;    0.000
384.101; 3680.600;  183.475;    0.000
384.160; 3555.600;  155.475;    0.000
384.219; 3452.600;  155.475;    0.000
384.279; 3370.600;  189.475;    0.000
384.338; 3313.600;  156.475;    0.000
384.397; 3282.600;  148.475;    0.000
384.456; 3142.600;  154.475;    0.000
384.515; 3126.600;  160.475;    0.000
384.574; 3073.600;  223.475;    0.000
384.633; 3039.600;  133.475;    0.000
384.692; 3017.600;  163.475;    0.000
384.751; 3053.600;  186.475;    0.000
384.810; 3105.600;  187.475;    0.000
384.869; 3017.600;  172.475;    0.000
384.929; 2990.600;  153.475;    0.000
384.988; 3007.600;  174.475;    0.000
385.047; 3063.600;  154.475;    0.000
385.106; 2997.600;  164.475;    0.000
385.165; 2871.600;  151.475;    0.000
385.224; 3053.600;  147.475;    0.000
385.283; 2936.600;  176.475;    0.000
385.342; 3012.600;  142.475;    0.000
385.401; 2979.600;  175.475;    0.000
385.459; 2952.600;  150.475;    0.000
385.518; 2989.600;  124.475;    0.000
385.577; 3010.600;  115.475;    0.000
385.636; 3078.600;  174.475;    0.000
385.695; 2954.600;  158.475;    0.000
385.754; 2988.600;  150.475;    0.000
385.813; 3015.600;  129.475;    0.000
385.872; 3023.600;  146.475;    0.000
385.931; 2945.600;  194.475;    0.000
385.990; 2979.600;  174.475;    0.000
386.049; 2896.600;  176.475;    0.000
386.107; 2914.600;  151.475;    0.000
386.166; 2928.600;  178.475;    0.000
386.225; 2899.600;  162.475;    0.000
386.284; 2942.600;  180.475;    0.000
386.343; 2954.600;  171.475;    0.000
386.402; 2935.600;  176.475;    0.000
386.460; 2972.600;  144.475;    0.000
386.519; 2930.600;  140.475;    0.000
386.578; 2953.600;  145.475;    0.000
386.637; 2843.600;  164.475;    0.000
386.696; 2946.600;  189.475;    0.000
386.754; 2924.600;  135.475;    0.000
386.813; 2981.600;  139.475;    0.000
386.872; 2897.600;  121.475;    0.000
386.931; 2910.600;  153.475;    0.000
386.989; 2971.600;  211.475;    0.000
387.048; 3030.600;  156.475;    0.000
387.107; 2969.600;  210.475;    0.000
387.165; 2845.600;  129.475;    0.000
387.224; 2853.600;  205.475;    0.000
387.283; 2820.600;  130.475;    0.000
387.342; 2903.600;  171.475;    0.000
387.400; 2923.600;  156.475;    0.000
387.459; 2915.600;  141.475;    0.000
387.517; 2919.600;  219.475;    0.000
387.576; 2952.600;  166.475;    0.000
387.635; 3006.600;  136.475;    0.000
387.693; 2928.600;  191.475;    0.000
387.752; 2894.600;  165.475;    0.000
387.811; 2928.600;  158.475;    0.000
387.869; 2970.600;  204.475;    0.000
387.928; 2891.600;  149.475;    0.000
387.986; 2784.600;  156.475;    0.000
388.045; 2761.600;  123.475;    0.000
388.103; 2950.600;  150.475;    0.000
388.162; 2871.600;  173.475;    0.000
388.221; 2934.600;  143.475;    0.000
388.279; 2910.600;  129.475;    0.000
388.338; 2927.600;  212.475;    0.000
388.396; 2903.600;  150.475;    0.000
388.455; 2918.600;  167.475;    0.000
388.513; 2959.600;  116.475;    0.000
388.572; 2885.600;  181.475;    0.000
388.630; 2886.600;  187.475;    0.000
388.689; 2810.600;  180.475;    0.000
388.747; 2895.600;  154.475;    0.000
388.806; 2824.600;  161.475;    0.000
388.864; 2843.600;  167.475;    0.000
388.922; 2905.600;  184.475;    0.000
388.981; 2855.600;  169.475;    0.000
389.039; 3002.600;  102.475;    0.000
389.098; 2958.600;  183.475;    0.000
389.156; 2850.600;  182.475;    0.000
389.214; 2897.600;  173.475;    0.000
389.273; 2892.600;  167.475;    0.000
389.331; 2891.600;  170.475;    0.000
389.390; 2909.600;  150.475;    0.000
389.448; 2947.600;  156.475;    0.000
389.506; 2879.600;  149.475;    0.000
389.565; 2856.600;  162.475;    0.000
389.623; 2992.600;  188.475;    0.000
389.681; 2949.600;  204.475;    0.000
389.740; 2912.600;  187.475;    0.000
389.798; 2984.600;  153.475;    0.000
389.856; 2934.600;  214.475;    0.000
389.914; 2984.600;  177.475;    0.000
389.973; 2905.600;  189.475;    0.000
390.031; 2898.600;  178.475;    0.000
390.089; 2874.600;  163.475;    0.000
390.147; 2833.600;  170.475;    0.000
390.206; 2822.600;  183.475;    0.000
390.264; 2859.600;  161.475;    0.000
390.322; 2793.600;  148.475;    0.000
390.380; 2955.600;  138.475;    0.000
390.439; 2905.600;  194.475;    0.000
390.497; 2995.600;  170.475;    0.000
390.555; 2830.600;  165.475;    0.000
390.613; 2833.600;  177.475;    0.000
390.671; 2952.600;  170.475;    0.000
390.729; 2895.600;  158.475;    0.000
390.788; 2916.600;  162.475;    0.000
390.846; 2945.600;  161.475;    0.000
390.904; 2967.600;  197.475;    0.000
390.962; 2926.600;  212.475;    0.000
391.020; 2948.600;  224.475;    0.000
391.078; 2928.600;  184.475;    0.000
391.136; 2923.600;  191.475;    0.000
391.194; 2888.600;  187.475;    0.000
391.253; 2993.600;  197.475;    0.000
391.311; 2916.600;  185.475;    0.000
391.369; 2858.600;  207.475;    0.000
391.427; 3060.600;  222.475;    0.000
391.485; 3016.600;  184.475;    0.000
391.543; 2849.600;  203.475;    0.000
391.601; 2988.600;  151.475;    0.000
391.659; 2977.600;  176.475;    0.000
391.717; 2990.600;  190.475;    0.000
391.775; 2978.600;  159.475;    0.000
391.833; 2941.600;  186.475;    0.000
391.891; 3016.600;  154.475;    0.000
391.949; 3031.600;  181.475;    0.000
392.007; 3041.600;  190.475;    0.000
392.065; 3117.600;  182.475;    0.000
392.123; 3017.600;  158.475;    0.000
392.180; 3028.600;  198.475;    0.000
392.238; 3106.600;  191.475;    0.000
392.296; 3069.600;  164.475;    0.000
392.354; 3135.600;  172.475;    0.000
392.412; 3021.600;  194.475;    0.000
392.470; 3028.600;  154.475;    0.000
392.528; 3005.600;  172.475;    0.000
392.586; 3059.600;  179.475;    0.000
392.644; 2998.600;  173.475;    0.000
392.701; 2997.600;  202.475;    0.000
392.759; 3100.600;  180.475;    0.000
392.817; 2987.600;  181.475;    0.000
392.875; 3168.600;  168.475;    0.000
392.933; 2993.600;  161.475;    0.000
392.991; 3055.600;  216.475;    0.000
393.048; 3134.600;  197.475;    0.000
393.106; 3048.600;  199.475;    0.000
393.164; 3082.600;  173.475;    0.000
393.222; 3093.600;  179.475;    0.000
393.279; 3084.600;  209.475;    0.000
393.337; 3169.600;  185.475;    0.000
393.395; 3234.600;  174.475;    0.000
393.453; 3065.600;  181.475;    0.000
393.510; 3147.600;  188.475;    0.000
393.568; 3120.600;  191.475;    0.000
393.626; 3215.600;  151.475;    0.000
393.684; 3119.600;  208.475;    0.000
393.741; 3193.600;  179.475;    0.000
393.799; 3082.600;  149.475;    0.000
393.857; 3070.600;  136.475;    0.000
393.914; 3146.600;  190.475;    0.000
393.972; 3144.600;  155.475;    0.000
394.030; 3155.600;  170.475;    0.000
394.087; 3133.600;  213.475;    0.000
394.145; 3117.600;  191.475;    0.000
394.202; 3213.600;  188.475;    0.000
394.260; 3040.600;  168.475;    0.000
394.318; 3130.600;  176.475;    0.000
394.375; 3177.600;  159.475;    0.000
394.433; 3125.600;  168.475;    0.000
394.490; 3175.600;  163.475;    0.000
394.548; 3140.600;  163.475;    0.000
394.605; 3195.600;  181.475;    0.000
394.663; 3287.600;  180.475;    0.000
394.720; 3197.600;  193.475;    0.000
394.778; 3242.600;  168.475;    0.000
394.836; 3150.600;  128.475;    0.000
394.893; 3194.600;  151.475;    0.000
394.951; 3308.600;  173.475;    0.000
395.008; 3317.600;  201.475;    0.000
395.065; 3201.600;  139.475;    0.000
395.123; 3245.600;  173.475;    0.000
395.180; 3267.600;  144.475;    0.000
395.238; 3258.600;  135.475;    0.000
395.295; 3217.600;  167.475;    0.000
395.353; 3295.600;  150.475;    0.000
395.410; 3361.600;  165.475;    0.000
395.468; 3334.600;  223.475;    0.000
395.525; 3337.600;  156.475;    0.000
395.582; 3271.600;  178.475;    0.000
395.640; 3324.600;  178.475;    0.000
395.697; 3241.600;  173.475;    0.000
395.754; 3357.600;  154.475;    0.000
395.812; 3241.600;  169.475;    0.000
395.869; 3378.600;  196.475;    0.000
395.927; 3392.600;  190.475;    0.000
395.984; 3369.600;  195.475;    0.000
396.041; 3293.600;  160.475;    0.000
396.098; 3257.600;  161.475;    0.000
396.156; 3391.600;  187.475;    0.000
396.213; 3286.600;  200.475;    0.000
396.270; 3359.600;  160.475;    0.000
396.328; 3335.600;  113.475;    0.000
396.385; 3409.600;  165.475;    0.000
396.442; 3334.600;  168.475;    0.000
396.499; 3299.600;  117.475;    0.000
396.557; 3336.600;  203.475;    0.000
396.614; 3360.600;  155.475;    0.000
396.671; 3439.600;  187.475;    0.000
396.728; 3411.600;  169.475;    0.000
396.785; 3426.600;  167.475;    0.000
396.843; 3418.600;  154.475;    0.000
396.900; 3454.600;  172.475;    0.000
396.957; 3404.600;  176.475;    0.000
397.014; 3346.600;  193.475;    0.000
397.071; 3445.600;  170.475;    0.000
397.128; 3451.600;  172.475;    0.000
397.186; 3417.600;  205.475;    0.000
397.243; 3556.600;  163.475;    0.000
397.300; 3427.600;  193.475;    0.000
397.357; 3505.600;  166.475;    0.000
397.414; 3518.600;  149.475;    0.000
397.471; 3407.600;  157.475;    0.000
397.528; 3506.600;  180.475;    0.000
397.585; 3568.600;  203.475;    0.000
397.642; 3523.600;  156.475;    0.000
397.699; 3585.600;  229.475;    0.000
397.756; 3464.600;  185.475;    0.000
397.814; 3509.600;  191.475;    0.000
397.871; 3550.600;  170.475;    0.000
397.928; 3612.600;  191.475;    0.000
397.985; 3479.600;  183.475;    0.000
398.042; 3526.600;  161.475;    0.000
398.099; 3617.600;  192.475;    0.000
398.156; 3537.600;  176.475;    0.000
398.212; 3578.600;  170.475;    0.000
398.269; 3564.600;  158.475;    0.000
398.326; 3595.600;  175.475;    0.000
398.383; 3711.600;  177.475;    0.000
398.440; 3687.600;  169.475;    0.000
398.497; 3609.600;  184.475;    0.000
398.554; 3664.600;  196.475;    0.000
398.611; 3800.600;  198.475;    0.000
398.668; 3598.600;  135.475;    0.000
398.725; 3692.600;  181.475;    0.000
398.782; 3715.600;  195.475;    0.000
398.839; 3778.600;  179.475;    0.000
398.895; 3688.600;  188.475;    0.000
398.952; 3711.600;  176.475;    0.000
399.009; 3760.600;  183.475;    0.000
399.066; 3934.600;  190.475;    0.000
399.123; 3827.600;  174.475;    0.000
399.180; 3940.600;  191.475;    0.000
399.236; 3890.600;  217.475;    0.000
399.293; 3972.600;  154.475;    0.000
399.350; 3957.600;  210.475;    0.000
399.407; 4150.600;  202.475;    0.000
399.463; 4040.600;  162.475;    0.000
399.520; 4061.600;  207.475;    0.000
399.577; 4146.600;  174.475;    0.000
399.634; 4161.600;  170.475;    0.000
399.690; 4151.600;  186.475;    0.000
399.747; 4198.600;  218.475;    0.000
399.804; 4135.600;  200.475;    0.000
399.861; 4119.600;  190.475;    0.000
399.917; 4035.600;  218.475;    0.000
399.974; 4164.600;  200.475;    0.000
400.031; 4015.600;  200.475;    0.000
400.087; 4040.600;  153.475;    0.000
400.144; 4152.600;  188.475;    0.000
400.201; 4112.600;  198.475;    0.000
400.257; 4054.600;  205.475;    0.000
400.314; 3970.600;  183.475;    0.000
400.370; 4036.600;  227.475;    0.000
400.427; 4076.600;  177.475;    0.000
400.484; 4020.600;  202.475;    0.000
400.540; 3971.600;  173.475;    0.000
400.597; 4001.600;  212.475;    0.000
400.653; 3984.600;  182.475;    0.000
400.710; 3944.600;  201.475;    0.000
400.766; 4016.600;  188.475;    0.000
400.823; 3896.600;  205.475;    0.000
400.879; 3969.600;  165.475;    0.000
400.936; 3902.600;  180.475;    0.000
400.993; 3908.600;  181.475;    0.000
401.049; 3958.600;  147.475;    0.000
401.105; 3964.600;  205.475;    0.000
401.162; 3909.600;  197.475;    0.000
401.218; 3963.600;  177.475;    0.000
401.275; 3952.600;  183.475;    0.000
401.331; 4023.600;  198.475;    0.000
401.388; 3932.600;  209.475;    0.000
401.444; 3927.600;  211.475;    0.000
401.501; 3946.600;  185.475;    0.000
401.557; 3850.600;  190.475;    0.000
401.614; 3900.600;  172.475;    0.000
401.670; 3910.600;  185.475;    0.000
401.726; 4002.600;  196.475;    0.000
401.783; 3883.600;  187.475;    0.000
401.839; 3993.600;  192.475;    0.000
401.895; 3912.600;  173.475;    0.000
401.952; 3971.600;  145.475;    0.000
402.008; 3877.600;  197.475;    0.000
402.064; 3936.600;  146.475;    0.000
402.121; 3901.600;  197.475;    0.000
402.177; 3886.600;  173.475;    0.000
402.233; 3948.600;  185.475;    0.000
402.290; 3983.600;  175.475;    0.000
402.346; 3890.600;  164.475;    0.000
402.402; 3961.600;  173.475;    0.000
402.458; 4077.600;  183.475;    0.000
402.515; 3976.600;  147.475;    0.000
402.571; 4054.600;  210.475;    0.000
402.627; 3903.600;  181.475;    0.000
402.683; 3951.600;  177.475;    0.000
402.740; 3961.600;  162.475;    0.000
402.796; 4022.600;  178.475;    0.000
402.852; 4011.600;  138.475;    0.000
402.908; 4064.600;  181.475;    0.000
402.964; 3936.600;  151.475;    0.000
403.021; 3999.600;  170.475;    0.000
403.077; 4047.600;  204.475;    0.000
403.133; 3950.600;  144.475;    0.000
403.189; 4040.600;  207.475;    0.000
403.245; 4020.600;  184.475;    0.000
403.301; 4084.600;  170.475;    0.000
403.357; 4018.600;  201.475;    0.000
403.414; 4115.600;  205.475;    0.000
403.470; 4112.600;  170.475;    0.000
403.526; 3974.600;  135.475;    0.000
403.582; 4084.600;  180.475;    0.000
403.638; 4053.600;  185.475;    0.000
403.694; 4098.600;  169.475;    0.000
403.750; 4102.600;  210.475;    0.000
403.806; 4107.600;  210.475;    0.000
403.862; 4154.600;  219.475;    0.000
403.918; 4095.600;  191.475;    0.000
403.974; 4087.600;  193.475;    0.000
404.030; 4113.600;  154.475;    0.000
404.086; 4072.600;  170.475;    0.000
404.142; 4161.600;  194.475;    0.000
404.198; 4146.600;  224.475;    0.000
404.254; 4156.600;  177.475;    0.000
404.310; 4219.600;  204.475;    0.000
404.366; 4222.600;  170.475;    0.000
404.422; 4115.600;  172.475;    0.000
404.478; 4103.600;  153.475;    0.000
404.534; 4150.600;  159.475;    0.000
404.590; 4150.600;  203.475;    0.000
404.646; 4143.600;  164.475;    0.000
404.701; 4116.600;  141.475;    0.000
404.757; 4124.600;  195.475;    0.000
404.813; 4099.600;  152.475;    0.000
404.869; 4229.600;  174.475;    0.000
404.925; 4204.600;  167.475;    0.000
404.981; 4206.600;  175.475;    0.000
405.037; 4110.600;  170.475;    0.000
405.092; 4240.600;  155.475;    0.000
405.148; 4209.600;  160.475;    0.000
405.204; 4268.600;  158.475;    0.000
405.260; 4163.600;  128.475;    0.000
405.316; 4187.600;  168.475;    0.000
405.371; 4186.600;  162.475;    0.000
405.427; 4227.600;  187.475;    0.000
405.483; 4256.600;  214.475;    0.000
405.539; 4242.600;  163.475;    0.000
405.594; 4372.600;  191.475;    0.000
405.650; 4143.600;  124.475;    0.000
405.706; 4224.600;  188.475;    0.000
405.761; 4348.600;  204.475;    0.000
405.817; 4121.600;  150.475;    0.000
405.873; 4236.600;  152.475;    0.000
405.928; 4186.600;  135.475;    0.000
405.984; 4330.600;  209.475;    0.000
406.040; 4284.600;  165.475;    0.000
406.095; 4321.600;  146.475;    0.000
406.151; 4236.600;  169.475;    0.000
406.207; 4329.600;  174.475;    0.000
406.262; 4235.600;  189.475;    0.000
406.318; 4244.600;  141.475;    0.000
406.374; 4407.600;  178.475;    0.000
406.429; 4346.600;  197.475;    0.000
406.485; 4319.600;  194.475;    0.000
406.540; 4222.600;  149.475;    0.000
406.596; 4402.600;  173.475;    0.000
406.651; 4504.600;  154.475;    0.000
406.707; 4419.600;  183.475;    0.000
406.763; 4392.600;  156.475;    0.000
406.818; 4419.600;  181.475;    0.000
406.874; 4623.600;  135.475;    0.000
406.929; 4610.600;  194.475;    0.000
406.985; 4572.600;  166.475;    0.000
407.040; 4534.600;  207.475;    0.000
407.095; 4552.600;  213.475;    0.000
407.151; 4646.600;  198.475;    0.000
407.206; 4575.600;  186.475;    0.000
407.262; 4624.600;  148.475;    0.000
407.317; 4735.600;  212.475;    0.000
407.373; 4870.600;  209.475;    0.000
407.428; 4769.600;  218.475;    0.000
407.484; 4662.600;  158.475;    0.000
407.539; 4696.600;  165.475;    0.000
407.594; 4738.600;  197.475;    0.000
407.650; 4789.600;  177.475;    0.000
407.705; 4727.600;  154.475;    0.000
407.760; 4789.600;  198.475;    0.000
407.816; 4592.600;  181.475;    0.000
407.871; 4723.600;  185.475;    0.000
407.926; 4705.600;  167.475;    0.000
407.982; 4754.600;  172.475;    0.000
408.037; 4663.600;  202.475;    0.000
408.092; 4680.600;  201.475;    0.000
408.148; 4742.600;  199.475;    0.000
408.203; 4803.600;  174.475;    0.000
408.258; 4709.600;  157.475;    0.000
408.314; 4806.600;  194.475;    0.000
408.369; 4630.600;  189.475;    0.000
408.424; 4669.600;  204.475;    0.000
408.479; 4608.600;  192.475;    0.000
408.534; 4649.600;  215.475;    0.000
408.590; 4633.600;  190.475;    0.000
408.645; 4589.600;  159.475;    0.000
408.700; 4613.600;  191.475;    0.000
408.755; 4722.600;  217.475;    0.000
408.810; 4483.600;  158.475;    0.000
408.866; 4687.600;  166.475;    0.000
408.921; 4623.600;  214.475;    0.000
408.976; 4667.600;  158.475;    0.000
409.031; 4517.600;  185.475;    0.000
409.086; 4572.600;  158.475;    0.000
409.141; 4560.600;  180.475;    0.000
409.196; 4710.600;  188.475;    0.000
409.252; 4492.600;  186.475;    0.000
409.307; 4629.600;  135.475;    0.000
409.362; 4568.600;  162.475;    0.000
409.417; 4548.600;  149.475;    0.000
409.472; 4569.600;  205.475;    0.000
409.527; 4684.600;  184.475;    0.000
409.582; 4713.600;  174.475;    0.000
409.637; 4636.600;  188.475;    0.000
409.692; 4678.600;  211.475;    0.000
409.747; 4535.600;  159.475;    0.000
409.802; 4608.600;  199.475;    0.000
409.857; 4541.600;  118.475;    0.000
409.912; 4576.600;  177.475;    0.000
409.967; 4627.600;  182.475;    0.000
410.022; 4546.600;  188.475;    0.000
410.077; 4566.600;  204.475;    0.000
410.132; 4593.600;  174.475;    0.000
410.187; 4576.600;  169.475;    0.000
410.242; 4502.600;  178.475;    0.000
410.297; 4675.600;  185.475;    0.000
410.351; 4527.600;  203.475;    0.000
410.406; 4619.600;  180.475;    0.000
410.461; 4564.600;  213.475;    0.000
410.516; 4473.600;  198.475;    0.000
410.571; 4538.600;  171.475;    0.000
410.626; 4636.600;  186.475;    0.000
410.681; 4596.600;  187.475;    0.000
410.736; 4672.600;  147.475;    0.000
410.790; 4681.600;  186.475;    0.000
410.845; 4685.600;  152.475;    0.000
410.900; 4646.600;  202.475;    0.000
410.955; 4550.600;  196.475;    0.000
411.010; 4704.600;  150.475;    0.000
411.064; 4571.600;  200.475;    0.000
411.119; 4595.600;  203.475;    0.000
411.174; 4591.600;  176.475;    0.000
411.229; 4663.600;  203.475;    0.000
411.283; 4694.600;  176.475;    0.000
411.338; 4614.600;  153.475;    0.000
411.393; 4634.600;  168.475;    0.000
411.447; 4632.600;  223.475;    0.000
411.502; 4654.600;  238.475;    0.000
411.557; 4655.600;  179.475;    0.000
411.612; 4649.600;  159.475;    0.000
411.666; 4571.600;  189.475;    0.000
411.721; 4586.600;  212.475;    0.000
411.776; 4693.600;  242.475;    0.000
411.830; 4688.600;  194.475;    0.000
411.885; 4617.600;  188.475;    0.000
411.939; 4562.600;  245.475;    0.000
411.994; 4565.600;  177.475;    0.000
412.049; 4653.600;  170.475;    0.000
412.103; 4670.600;  196.475;    0.000
412.158; 4607.600;  215.475;    0.000
412.212; 4577.600;  199.475;    0.000
412.267; 4573.600;  191.475;    0.000
412.322; 4685.600;  238.475;    0.000
412.376; 4615.600;  243.475;    0.000
412.431; 4620.600;  214.475;    0.000
412.485; 4701.600;  210.475;    0.000
412.540; 4613.600;  200.475;    0.000
412.594; 4517.600;  174.475;    0.000
412.649; 4578.600;  246.475;    0.000
412.703; 4440.600;  182.475;    0.000
412.758; 4653.600;  222.475;    0.000
412.812; 4421.600;  201.475;    0.000
412.866; 4509.600;  162.475;    0.000
412.921; 4445.600;  202.475;    0.000
412.975; 4644.600;  212.475;    0.000
413.030; 4567.600;  238.475;    0.000
413.084; 4579.600;  201.475;    0.000
413.139; 4671.600;  210.475;    0.000
413.193; 4645.600;  218.475;    0.000
413.247; 4536.600;  203.475;    0.000
413.302; 4616.600;  176.475;    0.000
413.356; 4522.600;  215.475;    0.000
413.410; 4460.600;  204.475;    0.000
413.465; 4591.600;  186.475;    0.000
413.519; 4574.600;  196.475;    0.000
413.573; 4554.600;  181.475;    0.000
413.628; 4641.600;  200.475;    0.000
413.682; 4532.600;  157.475;    0.000
413.736; 4530.600;  194.475;    0.000
413.791; 4541.600;  193.475;    0.000
413.845; 4619.600;  225.475;    0.000
413.899; 4609.600;  195.475;    0.000
413.953; 4468.600;  173.475;    0.000
414.008; 4531.600;  186.475;    0.000
414.062; 4617.600;  217.475;    0.000
414.116; 4564.600;  169.475;    0.000
414.170; 4697.600;  228.475;    0.000
414.225; 4478.600;  177.475;    0.000
414.279; 4646.600;  210.475;    0.000
414.333; 4643.600;  207.475;    0.000
414.387; 4666.600;  217.475;    0.000
414.441; 4579.600;  187.475;    0.000
414.496; 4511.600;  215.475;    0.000
414.550; 4663.600;  204.475;    0.000
414.604; 4552.600;  206.475;    0.000
414.658; 4595.600;  139.475;    0.000
414.712; 4596.600;  198.475;    0.000
414.766; 4630.600;  208.475;    0.000
414.820; 4526.600;  199.475;    0.000
414.874; 4622.600;  216.475;    0.000
414.928; 4632.600;  186.475;    0.000
414.982; 4612.600;  176.475;    0.000
415.037; 4531.600;  181.475;    0.000
415.091; 4631.600;  208.475;    0.000
415.145; 4617.600;  209.475;    0.000
415.199; 4524.600;  186.475;    0.000
415.253; 4584.600;  203.475;    0.000
415.307; 4700.600;  197.475;    0.000
415.361; 4546.600;  223.475;    0.000
415.415; 4579.600;  213.475;    0.000
415.469; 4458.600;  226.475;    0.000
415.523; 4574.600;  222.475;    0.000
415.577; 4432.600;  205.475;    0.000
415.631; 4489.600;  224.475;    0.000
415.684; 4508.600;  193.475;    0.000
415.738; 4677.600;  224.475;    0.000
415.792; 4635.600;  204.475;    0.000
415.846; 4416.600;  189.475;    0.000
415.900; 4695.600;  223.475;    0.000
415.954; 4550.600;  187.475;    0.000
416.008; 4473.600;  237.475;    0.000
416.062; 4522.600;  195.475;    0.000
416.116; 4474.600;  223.475;    0.000
416.169; 4394.600;  210.475;    0.000
416.223; 4557.600;  232.475;    0.000
416.277; 4479.600;  227.475;    0.000
416.331; 4429.600;  216.475;    0.000
416.385; 4403.600;  186.475;    0.000
416.439; 4567.600;  226.475;    0.000
416.492; 4493.600;  229.475;    0.000
416.546; 4570.600;  216.475;    0.000
416.600; 4479.600;  211.475;    0.000
416.654; 4582.600;  226.475;    0.000
416.707; 4524.600;  248.475;    0.000
416.761; 4419.600;  217.475;    0.000
416.815; 4431.600;  207.475;    0.000
416.869; 4418.600;  226.475;    0.000
416.922; 4453.600;  192.475;    0.000
416.976; 4430.600;  205.475;    0.000
417.030; 4504.600;  233.475;    0.000
417.083; 4478.600;  226.475;    0.000
417.137; 4429.600;  222.475;    0.000
417.191; 4489.600;  217.475;    0.000
417.244; 4477.600;  221.475;    0.000
417.298; 4468.600;  201.475;    0.000
417.352; 4595.600;  170.475;    0.000
417.405; 4475.600;  234.475;    0.000
417.459; 4517.600;  241.475;    0.000
417.512; 4403.600;  247.475;    0.000
417.566; 4506.600;  219.475;    0.000
417.620; 4528.600;  228.475;    0.000
417.673; 4464.600;  192.475;    0.000
417.727; 4445.600;  203.475;    0.000
417.780; 4532.600;  204.475;    0.000
417.834; 4455.600;  234.475;    0.000
417.887; 4554.600;  245.475;    0.000
417.941; 4516.600;  211.475;    0.000
417.994; 4405.600;  244.475;    0.000
418.048; 4370.600;  203.475;    0.000
418.101; 4422.600;  212.475;    0.000
418.155; 4413.600;  251.475;    0.000
418.208; 4546.600;  286.475;    0.000
418.262; 4547.600;  243.475;    0.000
418.315; 4555.600;  214.475;    0.000
418.369; 4377.600;  269.475;    0.000
418.422; 4435.600;  222.475;    0.000
418.476; 4553.600;  226.475;    0.000
418.529; 4570.600;  238.475;    0.000
418.582; 4502.600;  210.475;    0.000
418.636; 4473.600;  221.475;    0.000
418.689; 4560.600;  224.475;    0.000
418.743; 4517.600;  228.475;    0.000
418.796; 4509.600;  192.475;    0.000
418.849; 4463.600;  230.475;    0.000
418.903; 4483.600;  257.475;    0.000
418.956; 4512.600;  241.475;    0.000
419.009; 4479.600;  247.475;    0.000
419.063; 4483.600;  235.475;    0.000
419.116; 4436.600;  218.475;    0.000
419.169; 4522.600;  219.475;    0.000
419.222; 4388.600;  215.475;    0.000
419.276; 4522.600;  202.475;    0.000
419.329; 4512.600;  210.475;    0.000
419.382; 4480.600;  188.475;    0.000
419.435; 4405.600;  222.475;    0.000
419.489; 4390.600;  232.475;    0.000
419.542; 4499.600;  250.475;    0.000
419.595; 4428.600;  240.475;    0.000
419.648; 4470.600;  261.475;    0.000
419.701; 4451.600;  222.475;    0.000
419.755; 4409.600;  233.475;    0.000
419.808; 4496.600;  178.475;    0.000
419.861; 4494.600;  207.475;    0.000
419.914; 4451.600;  223.475;    0.000
419.967; 4460.600;  216.475;    0.000
420.020; 4371.600;  211.475;    0.000
420.073; 4454.600;  200.475;    0.000
420.127; 4425.600;  248.475;    0.000
420.180; 4332.600;  220.475;    0.000
420.233; 4388.600;  215.475;    0.000
420.286; 4456.600;  222.475;    0.000
420.339; 4297.600;  229.475;    0.000
420.392; 4435.600;  245.475;    0.000
420.445; 4362.600;  221.475;    0.000
420.498; 4414.600;  224.475;    0.000
420.551; 4312.600;  170.475;    0.000
420.604; 4315.600;  237.475;    0.000
420.657; 4242.600;  235.475;    0.000
420.710; 4327.600;  223.475;    0.000
420.763; 4429.600;  219.475;    0.000
420.816; 4356.600;  200.475;    0.000
420.869; 4308.600;  197.475;    0.000
420.922; 4341.600;  212.475;    0.000
420.975; 4338.600;  274.475;    0.000
421.028; 4413.600;  228.475;    0.000
421.081; 4370.600;  243.475;    0.000
421.134; 4288.600;  227.475;    0.000
421.187; 4389.600;  245.475;    0.000
421.239; 4241.600;  210.475;    0.000
421.292; 4301.600;  193.475;    0.000
421.345; 4411.600;  226.475;    0.000
421.398; 4306.600;  226.475;    0.000
421.451; 4297.600;  259.475;    0.000
421.504; 4205.600;  204.475;    0.000
421.557; 4363.600;  215.475;    0.000
421.609; 4282.600;  194.475;    0.000
421.662; 4331.600;  216.475;    0.000
421.715; 4211.600;  226.475;    0.000
421.768; 4201.600;  177.475;    0.000
421.821; 4204.600;  210.475;    0.000
421.873; 4287.600;  208.475;    0.000
421.926; 4210.600;  223.475;    0.000
421.979; 4202.600;  230.475;    0.000
422.032; 4183.600;  227.475;    0.000
422.084; 4220.600;  234.475;    0.000
422.137; 4234.600;  207.475;    0.000
422.190; 4213.600;  228.475;    0.000
422.243; 4151.600;  206.475;    0.000
422.295; 4174.600;  236.475;    0.000
422.348; 4148.600;  232.475;    0.000
422.401; 4207.600;  228.475;    0.000
422.453; 4193.600;  239.475;    0.000
422.506; 4198.600;  226.475;    0.000
422.559; 4143.600;  205.475;    0.000
422.611; 4144.600;  235.475;    0.000
422.664; 4186.600;  231.475;    0.000
422.716; 4257.600;  228.475;    0.000
422.769; 4119.600;  204.475;    0.000
422.822; 4182.600;  205.475;    0.000
422.874; 4200.600;  228.475;    0.000
422.927; 4083.600;  266.475;    0.000
422.979; 4099.600;  223.475;    0.000
423.032; 4316.600;  207.475;    0.000
423.084; 4223.600;  211.475;    0.000
423.137; 4122.600;  205.475;    0.000
423.189; 4136.600;  254.475;    0.000
423.242; 4138.600;  208.475;    0.000
423.294; 4180.600;  240.475;    0.000
423.347; 4146.600;  218.475;    0.000
423.399; 4215.600;  237.475;    0.000
423.452; 4156.600;  242.475;    0.000
423.504; 4137.600;  225.475;    0.000
423.557; 4056.600;  195.475;    0.000
423.609; 4087.600;  206.475;    0.000
423.662; 4134.600;  211.475;    0.000
423.714; 3996.600;  252.475;    0.000
423.766; 4189.600;  181.475;    0.000
423.819; 4224.600;  216.475;    0.000
423.871; 4062.600;  216.475;    0.000
423.923; 4071.600;  222.475;    0.000
423.976; 4120.600;  223.475;    0.000
424.028; 4057.600;  229.475;    0.000
424.081; 4176.600;  267.475;    0.000
424.133; 4065.600;  251.475;    0.000
424.185; 4136.600;  238.475;    0.000
424.238; 4084.600;  220.475;    0.000
424.290; 4089.600;  259.475;    0.000
424.342; 4156.600;  248.475;    0.000
424.394; 4101.600;  234.475;    0.000
424.447; 3986.600;  248.475;    0.000
424.499; 4110.600;  233.475;    0.000
424.551; 4069.600;  236.475;    0.000
424.603; 4064.600;  207.475;    0.000
424.656; 4035.600;  210.475;    0.000
424.708; 4015.600;  251.475;    0.000
424.760; 4175.600;  221.475;    0.000
424.812; 4087.600;  275.475;    0.000
424.864; 4072.600;  206.475;    0.000
424.917; 4006.600;  198.475;    0.000
424.969; 4074.600;  246.475;    0.000
425.021; 4014.600;  209.475;    0.000
425.073; 4026.600;  242.475;    0.000
425.125; 4152.600;  254.475;    0.000
425.177; 4071.600;  224.475;    0.000
425.229; 4107.600;  256.475;    0.000
425.282; 4021.600;  265.475;    0.000
425.334; 4061.600;  266.475;    0.000
425.386; 3984.600;  242.475;    0.000
425.438; 4104.600;  205.475;    0.000
425.490; 4008.600;  227.475;    0.000
425.542; 3897.600;  235.475;    0.000
425.594; 3939.600;  210.475;    0.000
425.646; 4034.600;  232.475;    0.000
425.698; 4008.600;  243.475;    0.000
425.750; 3966.600;  230.475;    0.000
425.802; 4017.600;  218.475;    0.000
425.854; 3950.600;  222.475;    0.000
425.906; 3983.600;  235.475;    0.000
425.958; 4036.600;  220.475;    0.000
426.010; 3951.600;  236.475;    0.000
426.062; 4005.600;  230.475;    0.000
426.114; 4017.600;  216.475;    0.000
426.166; 3882.600;  230.475;    0.000
426.218; 3940.600;  237.475;    0.000
426.270; 3894.600;  217.475;    0.000
426.321; 3905.600;  224.475;    0.000
426.373; 3877.600;  207.475;    0.000
426.425; 3997.600;  278.475;    0.000
426.477; 3978.600;  243.475;    0.000
426.529; 3959.600;  247.475;    0.000
426.581; 3965.600;  229.475;    0.000
426.633; 3853.600;  212.475;    0.000
426.684; 3897.600;  244.475;    0.000
426.736; 3919.600;  250.475;    0.000
426.788; 3770.600;  210.475;    0.000
426.840; 3817.600;  201.475;    0.000
426.892; 3849.600;  225.475;    0.000
426.943; 3847.600;  215.475;    0.000
426.995; 3794.600;  216.475;    0.000
427.047; 3901.600;  216.475;    0.000
427.099; 3909.600;  203.475;    0.000
427.150; 3805.600;  195.475;    0.000
427.202; 3806.600;  212.475;    0.000
427.254; 3749.600;  233.475;    0.000
427.306; 3861.600;  211.475;    0.000
427.357; 3861.600;  210.475;    0.000
427.409; 3851.600;  244.475;    0.000
427.461; 3831.600;  187.475;    0.000
427.512; 3849.600;  227.475;    0.000
427.564; 3879.600;  210.475;    0.000
427.616; 3827.600;  202.475;    0.000
427.667; 3778.600;  185.475;    0.000
427.719; 3824.600;  222.475;    0.000
427.770; 3703.600;  230.475;    0.000
427.822; 3770.600;  254.475;    0.000
427.874; 3814.600;  222.475;    0.000
427.925; 3775.600;  199.475;    0.000
427.977; 3752.600;  228.475;    0.000
428.028; 3774.600;  226.475;    0.000
428.080; 3777.600;  236.475;    0.000
428.131; 3711.600;  220.475;    0.000
428.183; 3848.600;  256.475;    0.000
428.234; 3778.600;  217.475;    0.000
428.286; 3783.600;  234.475;    0.000
428.337; 3755.600;  209.475;    0.000
428.389; 3724.600;  219.475;    0.000
428.440; 3752.600;  249.475;    0.000
428.492; 3667.600;  255.475;    0.000
428.543; 3766.600;  224.475;    0.000
428.595; 3714.600;  225.475;    0.000
428.646; 3696.600;  240.475;    0.000
428.697; 3792.600;  211.475;    0.000
428.749; 3768.600;  200.475;    0.000
428.800; 3779.600;  235.475;    0.000
428.852; 3715.600;  265.475;    0.000
428.903; 3664.600;  201.475;    0.000
428.954; 3756.600;  242.475;    0.000
429.006; 3618.600;  245.475;    0.000
429.057; 3592.600;  252.475;    0.000
429.108; 3558.600;  211.475;    0.000
429.160; 3620.600;  217.475;    0.000
429.211; 3730.600;  234.475;    0.000
429.262; 3571.600;  205.475;    0.000
429.314; 3578.600;  211.475;    0.000
429.365; 3715.600;  240.475;    0.000
429.416; 3716.600;  263.475;    0.000
429.467; 3703.600;  244.475;    0.000
429.519; 3706.600;  223.475;    0.000
429.570; 3643.600;  214.475;    0.000
429.621; 3736.600;  235.475;    0.000
429.672; 3606.600;  202.475;    0.000
429.724; 3698.600;  189.475;    0.000
429.775; 3731.600;  214.475;    0.000
429.826; 3594.600;  178.475;    0.000
429.877; 3578.600;  224.475;    0.000
429.928; 3555.600;  230.475;    0.000
429.980; 3631.600;  199.475;    0.000
430.031; 3692.600;  208.475;    0.000
430.082; 3695.600;  224.475;    0.000
430.133; 3577.600;  193.475;    0.000
430.184; 3552.600;  220.475;    0.000
430.235; 3650.600;  184.475;    0.000
430.286; 3570.600;  197.475;    0.000
430.337; 3514.600;  199.475;    0.000
430.388; 3625.600;  207.475;    0.000
430.439; 3602.600;  227.475;    0.000
430.490; 3565.600;  215.475;    0.000
430.542; 3643.600;  211.475;    0.000
430.593; 3637.600;  230.475;    0.000
430.644; 3589.600;  186.475;    0.000
430.695; 3491.600;  232.475;    0.000
430.746; 3623.600;  214.475;    0.000
430.797; 3552.600;  260.475;    0.000
430.848; 3625.600;  214.475;    0.000
430.898; 3467.600;  204.475;    0.000
430.949; 3580.600;  189.475;    0.000
431.000; 3544.600;  240.475;    0.000
431.051; 3552.600;  201.475;    0.000
431.102; 3497.600;  188.475;    0.000
431.153; 3690.600;  209.475;    0.000
431.204; 3552.600;  187.475;    0.000
431.255; 3546.600;  171.475;    0.000
431.306; 3548.600;  181.475;    0.000
431.357; 3525.600;  221.475;    0.000
431.408; 3651.600;  217.475;    0.000
431.458; 3598.600;  206.475;    0.000
431.509; 3651.600;  194.475;    0.000
431.560; 3596.600;  235.475;    0.000
431.611; 3467.600;  213.475;    0.000
431.662; 3622.600;  237.475;    0.000
431.713; 3639.600;  220.475;    0.000
431.763; 3612.600;  212.475;    0.000
431.814; 3528.600;  238.475;    0.000
431.865; 3606.600;  213.475;    0.000
431.916; 3561.600;  191.475;    0.000
431.966; 3622.600;  171.475;    0.000
432.017; 3544.600;  263.475;    0.000
432.068; 3640.600;  240.475;    0.000
432.118; 3609.600;  235.475;    0.000
432.169; 3535.600;  212.475;    0.000
432.220; 3681.600;  188.475;    0.000
432.271; 3646.600;  216.475;    0.000
432.321; 3560.600;  223.475;    0.000
432.372; 3663.600;  254.475;    0.000
432.423; 3534.600;  193.475;    0.000
432.473; 3633.600;  219.475;    0.000
432.524; 3613.600;  215.475;    0.000
432.574; 3554.600;  234.475;    0.000
432.625; 3546.600;  226.475;    0.000
432.676; 3527.600;  219.475;    0.000
432.726; 3601.600;  254.475;    0.000
432.777; 3669.600;  210.475;    0.000
432.827; 3587.600;  234.475;    0.000
432.878; 3559.600;  212.475;    0.000
432.928; 3642.600;  238.475;    0.000
432.979; 3489.600;  252.475;    0.000
433.029; 3613.600;  222.475;    0.000
433.080; 3534.600;  188.475;    0.000
433.130; 3558.600;  223.475;    0.000
433.181; 3513.600;  254.475;    0.000
433.231; 3663.600;  237.475;    0.000
433.282; 3579.600;  242.475;    0.000
433.332; 3553.600;  261.475;    0.000
433.383; 3579.600;  266.475;    0.000
433.433; 3615.600;  286.475;    0.000
433.484; 3514.600;  231.475;    0.000
433.534; 3604.600;  256.475;    0.000
433.585; 3669.600;  253.475;    0.000
433.635; 3486.600;  228.475;    0.000
433.685; 3588.600;  226.475;    0.000
433.736; 3551.600;  276.475;    0.000
433.786; 3566.600;  253.475;    0.000
433.836; 3567.600;  289.475;    0.000
433.887; 3551.600;  241.475;    0.000
433.937; 3520.600;  252.475;    0.000
433.987; 3562.600;  223.475;    0.000
434.038; 3579.600;  241.475;    0.000
434.088; 3582.600;  231.475;    0.000
434.138; 3554.600;  259.475;    0.000
434.189; 3652.600;  263.475;    0.000
434.239; 3599.600;  194.475;    0.000
434.289; 3636.600;  273.475;    0.000
434.339; 3593.600;  212.475;    0.000
434.389; 3681.600;  248.475;    0.000
434.440; 3724.600;  250.475;    0.000
434.490; 3668.600;  278.475;    0.000
434.540; 3560.600;  241.475;    0.000
434.590; 3563.600;  251.475;    0.000
434.640; 3615.600;  207.475;    0.000
434.691; 3722.600;  242.475;    0.000
434.741; 3660.600;  218.475;    0.000
434.791; 3680.600;  267.475;    0.000
434.841; 3690.600;  272.475;    0.000
434.891; 3652.600;  260.475;    0.000
434.941; 3811.600;  258.475;    0.000
434.991; 3724.600;  264.475;    0.000
435.042; 3630.600;  264.475;    0.000
435.092; 3665.600;  271.475;    0.000
435.142; 3556.600;  229.475;    0.000
435.192; 3638.600;  226.475;    0.000
435.242; 3604.600;  253.475;    0.000
435.292; 3687.600;  215.475;    0.000
435.342; 3489.600;  240.475;    0.000
435.392; 3650.600;  235.475;    0.000
435.442; 3581.600;  230.475;    0.000
435.492; 3538.600;  235.475;    0.000
435.542; 3484.600;  230.475;    0.000
435.592; 3497.600;  239.475;    0.000
435.642; 3441.600;  244.475;    0.000
435.692; 3507.600;  236.475;    0.000
435.742; 3539.600;  236.475;    0.000
435.792; 3518.600;  230.475;    0.000
435.842; 3463.600;  248.475;    0.000
435.891; 3539.600;  233.475;    0.000
435.941; 3456.600;  243.475;    0.000
435.991; 3544.600;  279.475;    0.000
436.041; 3471.600;  204.475;    0.000
436.091; 3382.600;  217.475;    0.000
436.141; 3426.600;  205.475;    0.000
436.191; 3470.600;  220.475;    0.000
436.241; 3392.600;  248.475;    0.000
436.290; 3368.600;  255.475;    0.000
436.340; 3397.600;  235.475;    0.000
436.390; 3439.600;  207.475;    0.000
436.440; 3459.600;  207.475;    0.000
436.490; 3398.600;  251.475;    0.000
436.539; 3422.600;  240.475;    0.000
436.589; 3403.600;  198.475;    0.000
436.639; 3502.600;  240.475;    0.000
436.689; 3440.600;  216.475;    0.000
436.738; 3495.600;  246.475;    0.000
436.788; 3351.600;  203.475;    0.000
436.838; 3498.600;  230.475;    0.000
436.887; 3367.600;  235.475;    0.000
436.937; 3368.600;  249.475;    0.000
436.987; 3240.600;  208.475;    0.000
437.036; 3394.600;  232.475;    0.000
437.086; 3391.600;  238.475;    0.000
437.136; 3408.600;  228.475;    0.000
437.185; 3302.600;  219.475;    0.000
437.235; 3414.600;  227.475;    0.000
437.285; 3445.600;  241.475;    0.000
437.334; 3318.600;  216.475;    0.000
437.384; 3346.600;  243.475;    0.000
437.433; 3347.600;  214.475;    0.000
437.483; 3307.600;  246.475;    0.000
437.532; 3247.600;  261.475;    0.000
437.582; 3291.600;  205.475;    0.000
437.631; 3325.600;  218.475;    0.000
437.681; 3224.600;  240.475;    0.000
437.730; 3320.600;  258.475;    0.000
437.780; 3274.600;  237.475;    0.000
437.829; 3352.600;  209.475;    0.000
437.879; 3297.600;  214.475;    0.000
437.928; 3330.600;  223.475;    0.000
437.978; 3220.600;  220.475;    0.000
438.027; 3331.600;  239.475;    0.000
438.077; 3282.600;  231.475;    0.000
438.126; 3213.600;  266.475;    0.000
438.176; 3355.600;  234.475;    0.000
438.225; 3256.600;  237.475;    0.000
438.274; 3240.600;  234.475;    0.000
438.324; 3321.600;  244.475;    0.000
438.373; 3205.600;  232.475;    0.000
438.422; 3372.600;  218.475;    0.000
438.472; 3284.600;  221.475;    0.000
438.521; 3314.600;  190.475;    0.000
438.570; 3213.600;  243.475;    0.000
438.620; 3293.600;  255.475;    0.000
438.669; 3320.600;  210.475;    0.000
438.718; 3290.600;  237.475;    0.000
438.768; 3203.600;  220.475;    0.000
438.817; 3319.600;  218.475;    0.000
438.866; 3175.600;  198.475;    0.000
438.915; 3264.600;  256.475;    0.000
438.965; 3305.600;  221.475;    0.000
439.014; 3188.600;  255.475;    0.000
439.063; 3344.600;  276.475;    0.000
439.112; 3266.600;  220.475;    0.000
439.162; 3208.600;  253.475;    0.000
439.211; 3325.600;  247.475;    0.000
439.260; 3300.600;  220.475;    0.000
439.309; 3230.600;  235.475;    0.000
439.358; 3233.600;  205.475;    0.000
439.407; 3310.600;  207.475;    0.000
439.456; 3281.600;  216.475;    0.000
439.506; 3348.600;  245.475;    0.000
439.555; 3369.600;  264.475;    0.000
439.604; 3191.600;  227.475;    0.000
439.653; 3249.600;  220.475;    0.000
439.702; 3277.600;  223.475;    0.000
439.751; 3150.600;  197.475;    0.000
439.800; 3327.600;  207.475;    0.000
439.849; 3330.600;  238.475;    0.000
439.898; 3187.600;  209.475;    0.000
439.947; 3249.600;  170.475;    0.000
439.996; 3255.600;  233.475;    0.000
440.045; 3298.600;  222.475;    0.000
440.094; 3299.600;  240.475;    0.000
440.143; 3312.600;  249.475;    0.000
440.192; 3267.600;  252.475;    0.000
440.241; 3360.600;  239.475;    0.000
440.290; 3349.600;  234.475;    0.000
440.339; 3342.600;  241.475;    0.000
440.388; 3234.600;  239.475;    0.000
440.437; 3292.600;  231.475;    0.000
440.486; 3250.600;  254.475;    0.000
440.535; 3295.600;  266.475;    0.000
440.583; 3333.600;  205.475;    0.000
440.632; 3247.600;  234.475;    0.000
440.681; 3350.600;  218.475;    0.000
440.730; 3453.600;  248.475;    0.000
440.779; 3292.600;  246.475;    0.000
440.828; 3281.600;  235.475;    0.000
440.876; 3322.600;  218.475;    0.000
440.925; 3463.600;  228.475;    0.000
440.974; 3365.600;  249.475;    0.000
441.023; 3374.600;  192.475;    0.000
441.072; 3333.600;  226.475;    0.000
441.120; 3417.600;  238.475;    0.000
441.169; 3422.600;  255.475;    0.000
441.218; 3303.600;  233.475;    0.000
441.267; 3465.600;  231.475;    0.000
441.315; 3547.600;  214.475;    0.000
441.364; 3493.600;  250.475;    0.000
441.413; 3461.600;  228.475;    0.000
441.461; 3586.600;  209.475;    0.000
441.510; 3501.600;  260.475;    0.000
441.559; 3436.600;  230.475;    0.000
441.607; 3441.600;  220.475;    0.000
441.656; 3449.600;  251.475;    0.000
441.705; 3481.600;  237.475;    0.000
441.753; 3485.600;  257.475;    0.000
441.802; 3492.600;  256.475;    0.000
441.850; 3283.600;  253.475;    0.000
441.899; 3407.600;  212.475;    0.000
441.948; 3547.600;  251.475;    0.000
441.996; 3411.600;  239.475;    0.000
442.045; 3388.600;  223.475;    0.000
442.093; 3456.600;  211.475;    0.000
442.142; 3522.600;  235.475;    0.000
442.190; 3512.600;  254.475;    0.000
442.239; 3500.600;  226.475;    0.000
442.287; 3406.600;  242.475;    0.000
442.336; 3552.600;  256.475;    0.000
442.384; 3469.600;  252.475;    0.000
442.433; 3578.600;  262.475;    0.000
442.481; 3508.600;  246.475;    0.000
442.529; 3509.600;  290.475;    0.000
442.578; 3356.600;  247.475;    0.000
442.626; 3429.600;  247.475;    0.000
442.675; 3531.600;  272.475;    0.000
442.723; 3384.600;  230.475;    0.000
442.771; 3505.600;  234.475;    0.000
442.820; 3524.600;  224.475;    0.000
442.868; 3493.600;  246.475;    0.000
442.917; 3438.600;  249.475;    0.000
442.965; 3534.600;  260.475;    0.000
443.013; 3511.600;  258.475;    0.000
443.062; 3456.600;  259.475;    0.000
443.110; 3551.600;  226.475;    0.000
443.158; 3579.600;  213.475;    0.000
443.206; 3365.600;  201.475;    0.000
443.255; 3560.600;  280.475;    0.000
443.303; 3436.600;  292.475;    0.000
443.351; 3504.600;  256.475;    0.000
443.399; 3524.600;  215.475;    0.000
443.448; 3565.600;  243.475;    0.000
443.496; 3460.600;  249.475;    0.000
443.544; 3468.600;  231.475;    0.000
443.592; 3588.600;  243.475;    0.000
443.640; 3594.600;  252.475;    0.000
443.689; 3485.600;  220.475;    0.000
443.737; 3570.600;  231.475;    0.000
443.785; 3504.600;  256.475;    0.000
443.833; 3656.600;  268.475;    0.000
443.881; 3459.600;  181.475;    0.000
443.929; 3597.600;  245.475;    0.000
443.977; 3567.600;  278.475;    0.000
444.025; 3570.600;  245.475;    0.000
444.074; 3658.600;  233.475;    0.000
444.122; 3534.600;  267.475;    0.000
444.170; 3645.600;  247.475;    0.000
444.218; 3600.600;  246.475;    0.000
444.266; 3577.600;  275.475;    0.000
444.314; 3571.600;  263.475;    0.000
444.362; 3731.600;  240.475;    0.000
444.410; 3621.600;  220.475;    0.000
444.458; 3636.600;  258.475;    0.000
444.506; 3753.600;  258.475;    0.000
444.554; 3644.600;  224.475;    0.000
444.602; 3748.600;  245.475;    0.000
444.650; 3713.600;  261.475;    0.000
444.698; 3682.600;  232.475;    0.000
444.746; 3729.600;  206.475;    0.000
444.793; 3686.600;  249.475;    0.000
444.841; 3722.600;  261.475;    0.000
444.889; 3657.600;  221.475;    0.000
444.937; 3765.600;  215.475;    0.000
444.985; 3745.600;  244.475;    0.000
445.033; 3759.600;  211.475;    0.000
445.081; 3781.600;  225.475;    0.000
445.129; 3631.600;  217.475;    0.000
445.176; 3757.600;  196.475;    0.000
445.224; 3683.600;  211.475;    0.000
445.272; 3750.600;  242.475;    0.000
445.320; 3703.600;  225.475;    0.000
445.368; 3634.600;  249.475;    0.000
445.415; 3707.600;  243.475;    0.000
445.463; 3756.600;  242.475;    0.000
445.511; 3703.600;  248.475;    0.000
445.559; 3730.600;  219.475;    0.000
445.606; 3745.600;  221.475;    0.000
445.654; 3708.600;  202.475;    0.000
445.702; 3704.600;  210.475;    0.000
445.749; 3874.600;  249.475;    0.000
445.797; 3733.600;  206.475;    0.000
445.845; 3711.600;  213.475;    0.000
445.892; 3804.600;  224.475;    0.000
445.940; 3632.600;  214.475;    0.000
445.988; 3791.600;  247.475;    0.000
446.035; 3835.600;  204.475;    0.000
446.083; 3726.600;  235.475;    0.000
446.130; 3732.600;  195.475;    0.000
446.178; 3782.600;  236.475;    0.000
446.226; 3794.600;  218.475;    0.000
446.273; 3794.600;  215.475;    0.000
446.321; 3749.600;  222.475;    0.000
446.368; 3830.600;  228.475;    0.000
446.416; 3805.600;  223.475;    0.000
446.463; 3897.600;  220.475;    0.000
446.511; 3955.600;  198.475;    0.000
446.558; 3849.600;  208.475;    0.000
446.606; 3993.600;  253.475;    0.000
446.653; 3977.600;  198.475;    0.000
446.701; 3971.600;  231.475;    0.000
446.748; 3918.600;  224.475;    0.000
446.796; 4091.600;  201.475;    0.000
446.843; 4045.600;  257.475;    0.000
446.891; 4067.600;  218.475;    0.000
446.938; 3974.600;  232.475;    0.000
446.985; 4093.600;  229.475;    0.000
447.033; 4036.600;  251.475;    0.000
447.080; 4019.600;  257.475;    0.000
447.128; 4094.600;  232.475;    0.000
447.175; 4147.600;  269.475;    0.000
447.222; 4161.600;  185.475;    0.000
447.270; 4240.600;  264.475;    0.000
447.317; 4242.600;  225.475;    0.000
447.364; 4195.600;  243.475;    0.000
447.411; 4304.600;  263.475;    0.000
447.459; 4367.600;  257.475;    0.000
447.506; 4376.600;  175.475;    0.000
447.553; 4477.600;  203.475;    0.000
447.601; 4512.600;  238.475;    0.000
447.648; 4476.600;  244.475;    0.000
447.695; 4562.600;  249.475;    0.000
447.742; 4638.600;  234.475;    0.000
447.789; 4731.600;  228.475;    0.000
447.837; 4826.600;  258.475;    0.000
447.884; 4914.600;  243.475;    0.000
447.931; 4897.600;  235.475;    0.000
447.978; 4973.600;  224.475;    0.000
448.025; 5040.600;  245.475;    0.000
448.072; 5071.600;  212.475;    0.000
448.120; 5141.600;  256.475;    0.000
448.167; 5179.600;  240.475;    0.000
448.214; 5003.600;  247.475;    0.000
448.261; 4954.600;  245.475;    0.000
448.308; 4854.600;  273.475;    0.000
448.355; 4665.600;  257.475;    0.000
448.402; 4550.600;  259.475;    0.000
448.449; 4624.600;  238.475;    0.000
448.496; 4569.600;  245.475;    0.000
448.543; 4447.600;  217.475;    0.000
448.590; 4493.600;  269.475;    0.000
448.637; 4299.600;  250.475;    0.000
448.684; 4188.600;  250.475;    0.000
448.731; 4227.600;  235.475;    0.000
448.778; 4154.600;  265.475;    0.000
448.825; 4135.600;  257.475;    0.000
448.872; 4136.600;  234.475;    0.000
448.919; 4116.600;  216.475;    0.000
448.966; 4070.600;  274.475;    0.000
449.013; 4087.600;  263.475;    0.000
449.060; 4058.600;  247.475;    0.000
449.107; 3878.600;  218.475;    0.000
449.154; 3884.600;  225.475;    0.000
449.200; 3919.600;  212.475;    0.000
449.247; 3840.600;  242.475;    0.000
449.294; 3975.600;  228.475;    0.000
449.341; 3829.600;  232.475;    0.000
449.388; 3838.600;  247.475;    0.000
449.435; 3784.600;  227.475;    0.000
449.481; 3834.600;  270.475;    0.000
449.528; 3736.600;  265.475;    0.000
449.575; 3753.600;  255.475;    0.000
449.622; 3741.600;  210.475;    0.000
449.668; 3666.600;  234.475;    0.000
449.715; 3679.600;  262.475;    0.000
449.762; 3578.600;  247.475;    0.000
449.809; 3697.600;  286.475;    0.000
449.855; 3575.600;  246.475;    0.000
449.902; 3555.600;  224.475;    0.000
449.949; 3642.600;  244.475;    0.000
449.995; 3641.600;  274.475;    0.000
450.042; 3563.600;  272.475;    0.000
450.089; 3582.600;  274.475;    0.000
450.135; 3472.600;  285.475;    0.000
450.182; 3543.600;  251.475;    0.000
450.229; 3469.600;  242.475;    0.000
450.275; 3562.600;  277.475;    0.000
450.322; 3459.600;  260.475;    0.000
450.368; 3678.600;  257.475;    0.000
450.415; 3550.600;  276.475;    0.000
450.462; 3527.600;  298.475;    0.000
450.508; 3547.600;  255.475;    0.000
450.555; 3486.600;  271.475;    0.000
450.601; 3445.600;  281.475;    0.000
450.648; 3575.600;  249.475;    0.000
450.694; 3486.600;  270.475;    0.000
450.741; 3498.600;  256.475;    0.000
450.787; 3443.600;  292.475;    0.000
450.834; 3475.600;  221.475;    0.000
450.880; 3356.600;  265.475;    0.000
450.927; 3409.600;  242.475;    0.000
450.973; 3367.600;  259.475;    0.000
451.019; 3302.600;  221.475;    0.000
451.066; 3416.600;  257.475;    0.000
451.112; 3432.600;  251.475;    0.000
451.159; 3437.600;  278.475;    0.000
451.205; 3324.600;  274.475;    0.000
451.251; 3343.600;  281.475;    0.000
451.298; 3338.600;  273.475;    0.000
451.344; 3412.600;  246.475;    0.000
451.390; 3395.600;  286.475;    0.000
451.437; 3372.600;  268.475;    0.000
451.483; 3364.600;  315.475;    0.000
451.529; 3321.600;  251.475;    0.000
451.576; 3216.600;  306.475;    0.000
451.622; 3406.600;  234.475;    0.000
451.668; 3376.600;  243.475;    0.000
451.714; 3348.600;  256.475;    0.000
451.761; 3235.600;  264.475;    0.000
451.807; 3336.600;  284.475;    0.000
451.853; 3309.600;  282.475;    0.000
451.899; 3218.600;  240.475;    0.000
451.945; 3326.600;  263.475;    0.000
451.992; 3220.600;  255.475;    0.000
452.038; 3150.600;  273.475;    0.000
452.084; 3245.600;  274.475;    0.000
452.130; 3307.600;  261.475;    0.000
452.176; 3179.600;  246.475;    0.000
452.222; 3208.600;  238.475;    0.000
452.268; 3283.600;  267.475;    0.000
452.315; 3307.600;  274.475;    0.000
452.361; 3276.600;  241.475;    0.000
452.407; 3184.600;  274.475;    0.000
452.453; 3190.600;  260.475;    0.000
452.499; 3204.600;  232.475;    0.000
452.545; 3254.600;  252.475;    0.000
452.591; 3136.600;  263.475;    0.000
452.637; 3226.600;  208.475;    0.000
452.683; 3165.600;  237.475;    0.000
452.729; 3176.600;  263.475;    0.000
452.775; 3173.600;  291.475;    0.000
452.821; 3224.600;  238.475;    0.000
452.867; 3129.600;  223.475;    0.000
452.913; 3177.600;  257.475;    0.000
452.959; 3138.600;  238.475;    0.000
453.005; 3193.600;  252.475;    0.000
453.051; 3156.600;  260.475;    0.000
453.097; 3143.600;  268.475;    0.000
453.142; 3159.600;  231.475;    0.000
453.188; 3193.600;  266.475;    0.000
453.234; 3217.600;  233.475;    0.000
453.280; 3160.600;  219.475;    0.000
453.326; 3204.600;  265.475;    0.000
453.372; 3132.600;  238.475;    0.000
453.418; 3135.600;  240.475;    0.000
453.463; 3069.600;  219.475;    0.000
453.509; 3088.600;  264.475;    0.000
453.555; 3066.600;  247.475;    0.000
453.601; 3054.600;  230.475;    0.000
453.647; 3026.600;  285.475;    0.000
453.692; 3135.600;  240.475;    0.000
453.738; 3120.600;  233.475;    0.000
453.784; 3075.600;  230.475;    0.000
453.829; 3121.600;  246.475;    0.000
453.875; 3097.600;  261.475;    0.000
453.921; 3072.600;  203.475;    0.000
453.967; 3130.600;  241.475;    0.000
454.012; 3136.600;  250.475;    0.000
454.058; 3169.600;  252.475;    0.000
454.104; 3073.600;  239.475;    0.000
454.149; 3146.600;  250.475;    0.000
454.195; 3065.600;  243.475;    0.000
454.240; 3110.600;  252.475;    0.000
454.286; 3123.600;  245.475;    0.000
454.332; 3105.600;  286.475;    0.000
454.377; 3105.600;  254.475;    0.000
454.423; 3023.600;  246.475;    0.000
454.468; 3109.600;  235.475;    0.000
454.514; 3080.600;  231.475;    0.000
454.559; 3101.600;  246.475;    0.000
454.605; 3035.600;  204.475;    0.000
454.650; 3062.600;  272.475;    0.000
454.696; 2981.600;  222.475;    0.000
454.741; 3122.600;  290.475;    0.000
454.787; 3017.600;  262.475;    0.000
454.832; 3202.600;  227.475;    0.000
454.878; 2969.600;  241.475;    0.000
454.923; 3099.600;  272.475;    0.000
454.969; 3051.600;  290.475;    0.000
455.014; 3125.600;  278.475;    0.000
455.060; 3125.600;  246.475;    0.000
455.105; 3131.600;  231.475;    0.000
455.150; 3146.600;  265.475;    0.000
455.196; 3140.600;  266.475;    0.000
455.241; 3115.600;  258.475;    0.000
455.286; 2969.600;  266.475;    0.000
455.332; 3040.600;  252.475;    0.000
455.377; 3071.600;  219.475;    0.000
455.422; 3008.600;  262.475;    0.000
455.468; 3032.600;  260.475;    0.000
455.513; 3109.600;  212.475;    0.000
455.558; 2954.600;  197.475;    0.000
455.604; 2998.600;  262.475;    0.000
455.649; 3066.600;  238.475;    0.000
455.694; 3092.600;  221.475;    0.000
455.739; 3057.600;  251.475;    0.000
455.785; 2983.600;  287.475;    0.000
455.830; 3019.600;  284.475;    0.000
455.875; 3023.600;  234.475;    0.000
455.920; 3006.600;  215.475;    0.000
455.965; 2909.600;  256.475;    0.000
456.010; 3000.600;  266.475;    0.000
456.056; 3022.600;  263.475;    0.000
456.101; 3060.600;  240.475;    0.000
456.146; 3047.600;  258.475;    0.000
456.191; 2957.600;  241.475;    0.000
456.236; 2992.600;  252.475;    0.000
456.281; 3011.600;  218.475;    0.000
456.326; 2984.600;  251.475;    0.000
456.371; 3040.600;  256.475;    0.000
456.416; 3045.600;  301.475;    0.000
456.461; 3100.600;  233.475;    0.000
456.507; 3038.600;  218.475;    0.000
456.552; 3006.600;  278.475;    0.000
456.597; 3018.600;  223.475;    0.000
456.642; 3031.600;  203.475;    0.000
456.687; 3106.600;  245.475;    0.000
456.732; 3023.600;  256.475;    0.000
456.776; 3089.600;  244.475;    0.000
456.821; 3047.600;  276.475;    0.000
456.866; 3038.600;  232.475;    0.000
456.911; 3025.600;  225.475;    0.000
456.956; 3090.600;  237.475;    0.000
457.001; 3015.600;  261.475;    0.000
457.046; 3048.600;  205.475;    0.000
457.091; 3069.600;  241.475;    0.000
457.136; 3011.600;  217.475;    0.000
457.181; 3079.600;  251.475;    0.000
457.225; 3124.600;  241.475;    0.000
457.270; 3000.600;  237.475;    0.000
457.315; 3097.600;  279.475;    0.000
457.360; 3012.600;  245.475;    0.000
457.405; 3070.600;  202.475;    0.000
457.450; 3056.600;  247.475;    0.000
457.494; 2950.600;  243.475;    0.000
457.539; 3051.600;  222.475;    0.000
457.584; 3122.600;  239.475;    0.000
457.629; 3069.600;  236.475;    0.000
457.673; 3132.600;  234.475;    0.000
457.718; 3129.600;  202.475;    0.000
457.763; 3110.600;  274.475;    0.000
457.807; 3113.600;  236.475;    0.000
457.852; 3125.600;  265.475;    0.000
457.897; 3160.600;  252.475;    0.000
457.941; 3153.600;  264.475;    0.000
457.986; 3105.600;  280.475;    0.000
458.031; 3065.600;  217.475;    0.000
458.075; 3047.600;  249.475;    0.000
458.120; 3160.600;  257.475;    0.000
458.165; 3095.600;  183.475;    0.000
458.209; 3125.600;  245.475;    0.000
458.254; 3147.600;  245.475;    0.000
458.298; 3182.600;  265.475;    0.000
458.343; 3128.600;  241.475;    0.000
458.387; 3122.600;  262.475;    0.000
458.432; 3097.600;  245.475;    0.000
458.476; 3282.600;  255.475;    0.000
458.521; 3221.600;  269.475;    0.000
458.565; 3234.600;  265.475;    0.000
458.610; 3207.600;  222.475;    0.000
458.654; 3195.600;  257.475;    0.000
458.699; 3223.600;  296.475;    0.000
458.743; 3151.600;  203.475;    0.000
458.788; 3237.600;  267.475;    0.000
458.832; 3152.600;  274.475;    0.000
458.877; 3278.600;  251.475;    0.000
458.921; 3232.600;  237.475;    0.000
458.965; 3248.600;  264.475;    0.000
459.010; 3193.600;  256.475;    0.000
459.054; 3302.600;  280.475;    0.000
459.099; 3257.600;  240.475;    0.000
459.143; 3310.600;  287.475;    0.000
459.187; 3330.600;  257.475;    0.000
459.231; 3275.600;  273.475;    0.000
459.276; 3349.600;  231.475;    0.000
459.320; 3333.600;  261.475;    0.000
459.364; 3397.600;  278.475;    0.000
459.409; 3295.600;  249.475;    0.000
459.453; 3274.600;  235.475;    0.000
459.497; 3331.600;  262.475;    0.000
459.541; 3399.600;  269.475;    0.000
459.586; 3393.600;  240.475;    0.000
459.630; 3334.600;  261.475;    0.000
459.674; 3285.600;  276.475;    0.000
459.718; 3328.600;  236.475;    0.000
459.762; 3334.600;  263.475;    0.000
459.807; 3395.600;  263.475;    0.000
459.851; 3349.600;  225.475;    0.000
459.895; 3373.600;  247.475;    0.000
459.939; 3428.600;  231.475;    0.000
459.983; 3307.600;  242.475;    0.000
460.027; 3354.600;  248.475;    0.000
460.071; 3445.600;  273.475;    0.000
460.115; 3419.600;  282.475;    0.000
460.159; 3384.600;  264.475;    0.000
460.204; 3414.600;  288.475;    0.000
460.248; 3503.600;  293.475;    0.000
460.292; 3531.600;  277.475;    0.000
460.336; 3390.600;  250.475;    0.000
460.380; 3510.600;  275.475;    0.000
460.424; 3519.600;  243.475;    0.000
460.468; 3470.600;  277.475;    0.000
460.512; 3500.600;  261.475;    0.000
460.556; 3511.600;  266.475;    0.000
460.599; 3397.600;  246.475;    0.000
460.643; 3434.600;  256.475;    0.000
460.687; 3557.600;  257.475;    0.000
460.731; 3392.600;  235.475;    0.000
460.775; 3530.600;  278.475;    0.000
460.819; 3509.600;  268.475;    0.000
460.863; 3439.600;  257.475;    0.000
460.907; 3495.600;  213.475;    0.000
460.951; 3486.600;  274.475;    0.000
460.995; 3491.600;  258.475;    0.000
461.038; 3489.600;  219.475;    0.000
461.082; 3508.600;  253.475;    0.000
461.126; 3486.600;  281.475;    0.000
461.170; 3535.600;  244.475;    0.000
461.214; 3512.600;  262.475;    0.000
461.257; 3559.600;  284.475;    0.000
461.301; 3592.600;  275.475;    0.000
461.345; 3517.600;  267.475;    0.000
461.389; 3484.600;  255.475;    0.000
461.432; 3528.600;  282.475;    0.000
461.476; 3638.600;  263.475;    0.000
461.520; 3456.600;  260.475;    0.000
461.563; 3547.600;  278.475;    0.000
461.607; 3534.600;  236.475;    0.000
461.651; 3430.600;  262.475;    0.000
461.694; 3541.600;  236.475;    0.000
461.738; 3524.600;  295.475;    0.000
461.782; 3472.600;  252.475;    0.000
461.825; 3543.600;  271.475;    0.000
461.869; 3581.600;  278.475;    0.000
461.913; 3539.600;  255.475;    0.000
461.956; 3564.600;  254.475;    0.000
462.000; 3590.600;  299.475;    0.000
462.043; 3630.600;  282.475;    0.000
462.087; 3597.600;  274.475;    0.000
462.130; 3554.600;  270.475;    0.000
462.174; 3580.600;  274.475;    0.000
462.217; 3609.600;  272.475;    0.000
462.261; 3607.600;  286.475;    0.000
462.304; 3641.600;  236.475;    0.000
462.348; 3539.600;  262.475;    0.000
462.391; 3744.600;  244.475;    0.000
462.435; 3747.600;  321.475;    0.000
462.478; 3740.600;  230.475;    0.000
462.522; 3671.600;  245.475;    0.000
462.565; 3652.600;  278.475;    0.000
462.608; 3754.600;  303.475;    0.000
462.652; 3634.600;  275.475;    0.000
462.695; 3846.600;  314.475;    0.000
462.739; 3802.600;  307.475;    0.000
462.782; 3758.600;  286.475;    0.000
462.825; 3769.600;  312.475;    0.000
462.869; 3915.600;  338.475;    0.000
462.912; 3847.600;  304.475;    0.000
462.955; 3815.600;  288.475;    0.000
462.998; 3857.600;  292.475;    0.000
463.042; 3901.600;  309.475;    0.000
463.085; 3848.600;  292.475;    0.000
463.128; 3906.600;  317.475;    0.000
463.172; 3648.600;  287.475;    0.000
463.215;  421.600;  313.475;    0.000
463.258;  321.600;  295.475;    0.000
463.301;  290.600;  275.475;    0.000
463.344;  315.600;  311.475;    0.000
463.388;  338.600;  296.475;    0.000
463.431;  287.600;  277.475;    0.000
463.474;  347.600;  364.475;    0.000
463.517;  323.600;  306.475;    0.000
463.560;  318.600;  308.475;    0.000
463.603;  333.600;  343.475;    0.000
463.646;  294.600;  309.475;    0.000
463.690;  320.600;  309.475;    0.000
463.733;  304.600;  320.475;    0.000
463.776;  319.600;  299.475;    0.000
463.819;  333.600;  320.475;    0.000
463.862;  269.600;  283.475;    0.000

