
Integration time [ms]:   1.000
Averaging Nr. [scans]: 1
Smoothing Nr. [pixels]: 0
Data measured with spectrometer [name]: VIS
Wave   ;Sample   ;Dark     ;Reference
[nm]   ;[counts] ;[counts] ;[counts] 

450.961;  210.600;  200.375;    0.000
451.100;  201.600;  241.375;    0.000
451.239;  196.600;  201.375;    0.000
451.377;  257.600;  262.375;    0.000
451.516;  212.600;  229.375;    0.000
451.655;  194.600;  211.375;    0.000
451.794;  194.600;  225.375;    0.000
451.932;  241.600;  247.375;    0.000
452.071;  222.600;  260.375;    0.000
452.210;  251.600;  235.375;    0.000
452.348;  216.600;  276.375;    0.000
452.487;  246.600;  259.375;    0.000
452.626;  178.600;  254.375;    0.000
452.764;  246.600;  233.375;    0.000
452.903;  235.600;  202.375;    0.000
453.042;  301.600;  211.375;    0.000
453.180; 4894.600;  240.375;    0.000
453.319; 4858.600;  238.375;    0.000
453.458; 4876.600;  215.375;    0.000
453.596; 4839.600;  252.375;    0.000
453.735; 4932.600;  240.375;    0.000
453.873; 5016.600;  257.375;    0.000
454.012; 5058.600;  228.375;    0.000
454.150; 5099.600;  270.375;    0.000
454.289; 4983.600;  233.375;    0.000
454.427; 5121.600;  243.375;    0.000
454.566; 5263.600;  257.375;    0.000
454.704; 5300.600;  243.375;    0.000
454.843; 5277.600;  190.375;    0.000
454.981; 5343.600;  271.375;    0.000
455.120; 5390.600;  210.375;    0.000
455.258; 5403.600;  235.375;    0.000
455.397; 5415.600;  214.375;    0.000
455.535; 5578.600;  214.375;    0.000
455.674; 5611.600;  184.375;    0.000
455.812; 5732.600;  228.375;    0.000
455.951; 5731.600;  204.375;    0.000
456.089; 5721.600;  220.375;    0.000
456.227; 5778.600;  196.375;    0.000
456.366; 5923.600;  261.375;    0.000
456.504; 5963.600;  249.375;    0.000
456.642; 5995.600;  245.375;    0.000
456.781; 6028.600;  183.375;    0.000
456.919; 6202.600;  203.375;    0.000
457.057; 6195.600;  177.375;    0.000
457.196; 6357.600;  191.375;    0.000
457.334; 6309.600;  233.375;    0.000
457.472; 6429.600;  214.375;    0.000
457.610; 6466.600;  230.375;    0.000
457.749; 6621.600;  247.375;    0.000
457.887; 6690.600;  220.375;    0.000
458.025; 6750.600;  195.375;    0.000
458.163; 6796.600;  224.375;    0.000
458.301; 6916.600;  228.375;    0.000
458.440; 7022.600;  200.375;    0.000
458.578; 7018.600;  233.375;    0.000
458.716; 7318.600;  182.375;    0.000
458.854; 7389.600;  251.375;    0.000
458.992; 7495.600;  187.375;    0.000
459.130; 7528.600;  229.375;    0.000
459.269; 7556.600;  237.375;    0.000
459.407; 7626.600;  228.375;    0.000
459.545; 7704.600;  216.375;    0.000
459.683; 7731.600;  204.375;    0.000
459.821; 7745.600;  191.375;    0.000
459.959; 7839.600;  227.375;    0.000
460.097; 8006.600;  221.375;    0.000
460.235; 8083.600;  241.375;    0.000
460.373; 8141.600;  231.375;    0.000
460.511; 8200.600;  214.375;    0.000
460.649; 8341.600;  172.375;    0.000
460.787; 8398.600;  275.375;    0.000
460.925; 8249.600;  175.375;    0.000
461.063; 8530.600;  252.375;    0.000
461.201; 8407.600;  210.375;    0.000
461.339; 8544.600;  237.375;    0.000
461.477; 8518.600;  210.375;    0.000
461.615; 8740.600;  236.375;    0.000
461.753; 8748.600;  215.375;    0.000
461.891; 8665.600;  222.375;    0.000
462.029; 8931.600;  227.375;    0.000
462.166; 8968.600;  202.375;    0.000
462.304; 9103.600;  191.375;    0.000
462.442; 9339.600;  210.375;    0.000
462.580; 9298.600;  184.375;    0.000
462.718; 9333.600;  220.375;    0.000
462.856; 9325.600;  226.375;    0.000
462.993; 9393.600;  254.375;    0.000
463.131; 9307.600;  200.375;    0.000
463.269; 9160.600;  215.375;    0.000
463.407; 8936.600;  213.375;    0.000
463.545; 8960.600;  242.375;    0.000
463.682; 9056.600;  212.375;    0.000
463.820; 9329.600;  185.375;    0.000
463.958; 9579.600;  212.375;    0.000
464.095; 9925.600;  181.375;    0.000
464.233; 9903.600;  192.375;    0.000
464.371; 9867.600;  247.375;    0.000
464.509; 9794.600;  151.375;    0.000
464.646; 9873.600;  207.375;    0.000
464.784; 9706.600;  199.375;    0.000
464.921; 9457.600;  253.375;    0.000
465.059; 9341.600;  214.375;    0.000
465.197; 9266.600;  200.375;    0.000
465.334; 9256.600;  180.375;    0.000
465.472; 9046.600;  204.375;    0.000
465.609; 8980.600;  203.375;    0.000
465.747; 8892.600;  214.375;    0.000
465.885; 8780.600;  233.375;    0.000
466.022; 8785.600;  215.375;    0.000
466.160; 8868.600;  201.375;    0.000
466.297; 8819.600;  196.375;    0.000
466.435; 8755.600;  230.375;    0.000
466.572; 8685.600;  227.375;    0.000
466.710; 8786.600;  218.375;    0.000
466.847; 8763.600;  245.375;    0.000
466.985; 8801.600;  223.375;    0.000
467.122; 8575.600;  168.375;    0.000
467.260; 8548.600;  196.375;    0.000
467.397; 8542.600;  198.375;    0.000
467.534; 8709.600;  219.375;    0.000
467.672; 8612.600;  214.375;    0.000
467.809; 8695.600;  185.375;    0.000
467.947; 8605.600;  247.375;    0.000
468.084; 8622.600;  196.375;    0.000
468.221; 8698.600;  238.375;    0.000
468.359; 8755.600;  236.375;    0.000
468.496; 8569.600;  235.375;    0.000
468.633; 8644.600;  218.375;    0.000
468.771; 8818.600;  223.375;    0.000
468.908; 8748.600;  208.375;    0.000
469.045; 8827.600;  249.375;    0.000
469.183; 8786.600;  222.375;    0.000
469.320; 9001.600;  216.375;    0.000
469.457; 9016.600;  224.375;    0.000
469.594; 8995.600;  259.375;    0.000
469.732; 9139.600;  223.375;    0.000
469.869; 9190.600;  234.375;    0.000
470.006; 9130.600;  225.375;    0.000
470.143; 9371.600;  243.375;    0.000
470.280; 9237.600;  208.375;    0.000
470.417; 9513.600;  232.375;    0.000
470.555; 9296.600;  218.375;    0.000
470.692; 9290.600;  223.375;    0.000
470.829; 9343.600;  238.375;    0.000
470.966; 9146.600;  205.375;    0.000
471.103; 9332.600;  259.375;    0.000
471.240; 9435.600;  214.375;    0.000
471.377; 9300.600;  226.375;    0.000
471.514; 9325.600;  250.375;    0.000
471.651; 9268.600;  221.375;    0.000
471.789; 9099.600;  242.375;    0.000
471.926; 9171.600;  190.375;    0.000
472.063; 9033.600;  234.375;    0.000
472.200; 9014.600;  252.375;    0.000
472.337; 9135.600;  241.375;    0.000
472.474; 9121.600;  244.375;    0.000
472.611; 9015.600;  268.375;    0.000
472.748; 9020.600;  222.375;    0.000
472.884; 9120.600;  271.375;    0.000
473.021; 8983.600;  195.375;    0.000
473.158; 8990.600;  205.375;    0.000
473.295; 9053.600;  223.375;    0.000
473.432; 9005.600;  216.375;    0.000
473.569; 9013.600;  196.375;    0.000
473.706; 8937.600;  190.375;    0.000
473.843; 8888.600;  211.375;    0.000
473.980; 8812.600;  254.375;    0.000
474.117; 9104.600;  185.375;    0.000
474.253; 9046.600;  229.375;    0.000
474.390; 8892.600;  238.375;    0.000
474.527; 9087.600;  220.375;    0.000
474.664; 9061.600;  242.375;    0.000
474.801; 9105.600;  229.375;    0.000
474.937; 8996.600;  229.375;    0.000
475.074; 8999.600;  210.375;    0.000
475.211; 9019.600;  219.375;    0.000
475.348; 9190.600;  226.375;    0.000
475.484; 9166.600;  207.375;    0.000
475.621; 9219.600;  233.375;    0.000
475.758; 9289.600;  230.375;    0.000
475.894; 9251.600;  234.375;    0.000
476.031; 9194.600;  202.375;    0.000
476.168; 9152.600;  222.375;    0.000
476.304; 9279.600;  237.375;    0.000
476.441; 9444.600;  238.375;    0.000
476.578; 9305.600;  216.375;    0.000
476.714; 9390.600;  212.375;    0.000
476.851; 9483.600;  210.375;    0.000
476.987; 9495.600;  239.375;    0.000
477.124; 9675.600;  250.375;    0.000
477.261; 9544.600;  227.375;    0.000
477.397; 9518.600;  189.375;    0.000
477.534; 9497.600;  204.375;    0.000
477.670; 9769.600;  190.375;    0.000
477.807; 9715.600;  198.375;    0.000
477.943; 9841.600;  216.375;    0.000
478.080; 9936.600;  213.375;    0.000
478.216; 9976.600;  239.375;    0.000
478.353; 9960.600;  218.375;    0.000
478.489; 9947.600;  184.375;    0.000
478.626;10226.600;  223.375;    0.000
478.762;10005.600;  213.375;    0.000
478.898;10155.600;  216.375;    0.000
479.035;10295.600;  250.375;    0.000
479.171;10223.600;  201.375;    0.000
479.308;10194.600;  242.375;    0.000
479.444;10204.600;  205.375;    0.000
479.580;10359.600;  203.375;    0.000
479.717;10243.600;  260.375;    0.000
479.853;10353.600;  225.375;    0.000
479.989;10404.600;  226.375;    0.000
480.126;10515.600;  211.375;    0.000
480.262;10437.600;  220.375;    0.000
480.398;10427.600;  207.375;    0.000
480.535;10396.600;  179.375;    0.000
480.671;10543.600;  200.375;    0.000
480.807;10291.600;  190.375;    0.000
480.943;10326.600;  165.375;    0.000
481.080;10551.600;  210.375;    0.000
481.216;10389.600;  232.375;    0.000
481.352;10203.600;  235.375;    0.000
481.488;10309.600;  208.375;    0.000
481.624;10276.600;  245.375;    0.000
481.760;10195.600;  210.375;    0.000
481.897;10266.600;  189.375;    0.000
482.033;10159.600;  256.375;    0.000
482.169;10308.600;  257.375;    0.000
482.305;10131.600;  199.375;    0.000
482.441;10133.600;  182.375;    0.000
482.577;10302.600;  223.375;    0.000
482.713;10267.600;  243.375;    0.000
482.849;10319.600;  197.375;    0.000
482.985;10325.600;  240.375;    0.000
483.121;10174.600;  210.375;    0.000
483.258;10258.600;  248.375;    0.000
483.394;10337.600;  224.375;    0.000
483.530;10401.600;  209.375;    0.000
483.665;10164.600;  225.375;    0.000
483.801;10126.600;  216.375;    0.000
483.937;10292.600;  211.375;    0.000
484.073;10250.600;  259.375;    0.000
484.209;10288.600;  191.375;    0.000
484.345;10447.600;  239.375;    0.000
484.481;10384.600;  231.375;    0.000
484.617;10355.600;  216.375;    0.000
484.753;10294.600;  180.375;    0.000
484.889;10469.600;  252.375;    0.000
485.025;10433.600;  244.375;    0.000
485.161;10369.600;  242.375;    0.000
485.296;10507.600;  235.375;    0.000
485.432;10608.600;  247.375;    0.000
485.568;10556.600;  203.375;    0.000
485.704;10550.600;  229.375;    0.000
485.840;10696.600;  230.375;    0.000
485.975;10385.600;  266.375;    0.000
486.111;10627.600;  220.375;    0.000
486.247;10651.600;  264.375;    0.000
486.383;10554.600;  213.375;    0.000
486.518;10613.600;  222.375;    0.000
486.654;10492.600;  244.375;    0.000
486.790;10597.600;  273.375;    0.000
486.926;10435.600;  203.375;    0.000
487.061;10616.600;  227.375;    0.000
487.197;10624.600;  210.375;    0.000
487.333;10529.600;  209.375;    0.000
487.468;10424.600;  197.375;    0.000
487.604;10457.600;  230.375;    0.000
487.740;10371.600;  254.375;    0.000
487.875;10575.600;  286.375;    0.000
488.011;10416.600;  225.375;    0.000
488.146;10497.600;  251.375;    0.000
488.282;10476.600;  242.375;    0.000
488.417;10563.600;  230.375;    0.000
488.553;10615.600;  260.375;    0.000
488.688;10355.600;  207.375;    0.000
488.824;10506.600;  204.375;    0.000
488.960;10655.600;  248.375;    0.000
489.095;10631.600;  204.375;    0.000
489.230;10505.600;  227.375;    0.000
489.366;10549.600;  226.375;    0.000
489.501;10492.600;  199.375;    0.000
489.637;10549.600;  233.375;    0.000
489.772;10557.600;  249.375;    0.000
489.908;10456.600;  200.375;    0.000
490.043;10554.600;  246.375;    0.000
490.178;10603.600;  222.375;    0.000
490.314;10448.600;  219.375;    0.000
490.449;10666.600;  227.375;    0.000
490.585;10483.600;  209.375;    0.000
490.720;10416.600;  238.375;    0.000
490.855;10477.600;  222.375;    0.000
490.991;10483.600;  202.375;    0.000
491.126;10460.600;  272.375;    0.000
491.261;10405.600;  261.375;    0.000
491.396;10457.600;  190.375;    0.000
491.532;10360.600;  202.375;    0.000
491.667;10485.600;  208.375;    0.000
491.802;10507.600;  203.375;    0.000
491.937;10450.600;  253.375;    0.000
492.073;10570.600;  242.375;    0.000
492.208;10365.600;  230.375;    0.000
492.343;10548.600;  183.375;    0.000
492.478;10609.600;  246.375;    0.000
492.613;10626.600;  223.375;    0.000
492.749;10478.600;  230.375;    0.000
492.884;10494.600;  190.375;    0.000
493.019;10573.600;  234.375;    0.000
493.154;10540.600;  218.375;    0.000
493.289;10682.600;  222.375;    0.000
493.424;10482.600;  196.375;    0.000
493.559;10446.600;  202.375;    0.000
493.694;10450.600;  180.375;    0.000
493.829;10761.600;  224.375;    0.000
493.964;10630.600;  218.375;    0.000
494.099;10554.600;  275.375;    0.000
494.234;10834.600;  226.375;    0.000
494.369;10604.600;  225.375;    0.000
494.504;10614.600;  219.375;    0.000
494.639;10494.600;  296.375;    0.000
494.774;10624.600;  228.375;    0.000
494.909;10472.600;  222.375;    0.000
495.044;10533.600;  215.375;    0.000
495.179;10536.600;  200.375;    0.000
495.314;10540.600;  235.375;    0.000
495.449;10349.600;  249.375;    0.000
495.584;10533.600;  228.375;    0.000
495.719;10776.600;  212.375;    0.000
495.854;10577.600;  201.375;    0.000
495.988;10621.600;  248.375;    0.000
496.123;10588.600;  209.375;    0.000
496.258;10818.600;  249.375;    0.000
496.393;10861.600;  223.375;    0.000
496.528;10844.600;  209.375;    0.000
496.663;11170.600;  207.375;    0.000
496.797;10885.600;  229.375;    0.000
496.932;11062.600;  225.375;    0.000
497.067;11114.600;  218.375;    0.000
497.202;11317.600;  163.375;    0.000
497.336;11180.600;  246.375;    0.000
497.471;11370.600;  229.375;    0.000
497.606;11650.600;  251.375;    0.000
497.740;11494.600;  220.375;    0.000
497.875;11736.600;  216.375;    0.000
498.010;11741.600;  226.375;    0.000
498.144;12074.600;  237.375;    0.000
498.279;12286.600;  196.375;    0.000
498.414;12490.600;  219.375;    0.000
498.548;12467.600;  205.375;    0.000
498.683;12842.600;  206.375;    0.000
498.817;13114.600;  225.375;    0.000
498.952;13342.600;  221.375;    0.000
499.087;13662.600;  220.375;    0.000
499.221;13909.600;  233.375;    0.000
499.356;14134.600;  230.375;    0.000
499.490;14618.600;  229.375;    0.000
499.625;15030.600;  231.375;    0.000
499.759;15586.600;  243.375;    0.000
499.894;15748.600;  241.375;    0.000
500.028;16254.600;  264.375;    0.000
500.162;16698.600;  287.375;    0.000
500.297;16740.600;  234.375;    0.000
500.431;16930.600;  230.375;    0.000
500.566;16889.600;  213.375;    0.000
500.700;16696.600;  243.375;    0.000
500.835;16536.600;  272.375;    0.000
500.969;15981.600;  188.375;    0.000
501.103;15810.600;  200.375;    0.000
501.238;15504.600;  257.375;    0.000
501.372;14837.600;  224.375;    0.000
501.506;14463.600;  225.375;    0.000
501.641;14054.600;  271.375;    0.000
501.775;13670.600;  199.375;    0.000
501.909;13311.600;  249.375;    0.000
502.043;13070.600;  211.375;    0.000
502.178;13025.600;  269.375;    0.000
502.312;12446.600;  198.375;    0.000
502.446;12314.600;  256.375;    0.000
502.580;12213.600;  195.375;    0.000
502.715;12130.600;  224.375;    0.000
502.849;11772.600;  245.375;    0.000
502.983;11746.600;  250.375;    0.000
503.117;11534.600;  193.375;    0.000
503.251;11398.600;  242.375;    0.000
503.385;11170.600;  227.375;    0.000
503.520;11153.600;  235.375;    0.000
503.654;10806.600;  220.375;    0.000
503.788;10976.600;  267.375;    0.000
503.922;10610.600;  220.375;    0.000
504.056;10800.600;  238.375;    0.000
504.190;10590.600;  212.375;    0.000
504.324;10442.600;  265.375;    0.000
504.458;10619.600;  228.375;    0.000
504.592;10444.600;  231.375;    0.000
504.726;10285.600;  218.375;    0.000
504.860;10058.600;  253.375;    0.000
504.994;10014.600;  217.375;    0.000
505.128;10037.600;  243.375;    0.000
505.262; 9807.600;  194.375;    0.000
505.396; 9726.600;  210.375;    0.000
505.530; 9602.600;  211.375;    0.000
505.664; 9442.600;  219.375;    0.000
505.798; 9400.600;  240.375;    0.000
505.932; 9117.600;  240.375;    0.000
506.066; 9254.600;  252.375;    0.000
506.199; 9204.600;  242.375;    0.000
506.333; 9110.600;  244.375;    0.000
506.467; 9081.600;  223.375;    0.000
506.601; 8918.600;  183.375;    0.000
506.735; 8652.600;  249.375;    0.000
506.869; 8893.600;  270.375;    0.000
507.002; 8692.600;  207.375;    0.000
507.136; 8680.600;  242.375;    0.000
507.270; 8534.600;  232.375;    0.000
507.404; 8661.600;  195.375;    0.000
507.537; 8608.600;  218.375;    0.000
507.671; 8557.600;  246.375;    0.000
507.805; 8427.600;  244.375;    0.000
507.939; 8280.600;  251.375;    0.000
508.072; 8378.600;  212.375;    0.000
508.206; 8375.600;  198.375;    0.000
508.340; 8262.600;  234.375;    0.000
508.473; 8249.600;  217.375;    0.000
508.607; 8319.600;  224.375;    0.000
508.740; 8308.600;  207.375;    0.000
508.874; 8233.600;  230.375;    0.000
509.008; 8142.600;  246.375;    0.000
509.141; 8150.600;  239.375;    0.000
509.275; 8161.600;  229.375;    0.000
509.408; 8129.600;  234.375;    0.000
509.542; 8108.600;  212.375;    0.000
509.675; 8100.600;  256.375;    0.000
509.809; 8082.600;  232.375;    0.000
509.942; 7916.600;  237.375;    0.000
510.076; 7902.600;  226.375;    0.000
510.209; 7845.600;  251.375;    0.000
510.343; 7979.600;  229.375;    0.000
510.476; 7894.600;  285.375;    0.000
510.610; 7897.600;  211.375;    0.000
510.743; 7784.600;  258.375;    0.000
510.877; 7766.600;  244.375;    0.000
511.010; 7865.600;  235.375;    0.000
511.143; 7790.600;  251.375;    0.000
511.277; 7828.600;  228.375;    0.000
511.410; 7649.600;  216.375;    0.000
511.543; 7826.600;  231.375;    0.000
511.677; 7716.600;  244.375;    0.000
511.810; 7838.600;  186.375;    0.000
511.943; 7747.600;  211.375;    0.000
512.077; 7772.600;  201.375;    0.000
512.210; 7694.600;  194.375;    0.000
512.343; 7769.600;  233.375;    0.000
512.476; 7540.600;  234.375;    0.000
512.610; 7731.600;  224.375;    0.000
512.743; 7633.600;  255.375;    0.000
512.876; 7554.600;  264.375;    0.000
513.009; 7740.600;  283.375;    0.000
513.142; 7713.600;  246.375;    0.000
513.276; 7609.600;  217.375;    0.000
513.409; 7762.600;  222.375;    0.000
513.542; 7806.600;  237.375;    0.000
513.675; 7645.600;  238.375;    0.000
513.808; 7566.600;  220.375;    0.000
513.941; 7498.600;  233.375;    0.000
514.074; 7756.600;  248.375;    0.000
514.207; 7676.600;  233.375;    0.000
514.340; 7650.600;  190.375;    0.000
514.474; 7726.600;  221.375;    0.000
514.607; 7754.600;  213.375;    0.000
514.740; 7633.600;  251.375;    0.000
514.873; 7691.600;  257.375;    0.000
515.006; 7726.600;  268.375;    0.000
515.139; 7782.600;  257.375;    0.000
515.272; 7724.600;  227.375;    0.000
515.404; 7782.600;  238.375;    0.000
515.537; 7991.600;  275.375;    0.000
515.670; 7874.600;  239.375;    0.000
515.803; 7992.600;  223.375;    0.000
515.936; 8097.600;  202.375;    0.000
516.069; 8014.600;  188.375;    0.000
516.202; 8189.600;  240.375;    0.000
516.335; 8408.600;  252.375;    0.000
516.468; 8713.600;  254.375;    0.000
516.600;10194.600;  254.375;    0.000
516.733;12554.600;  255.375;    0.000
516.866;12018.600;  265.375;    0.000
516.999;10959.600;  251.375;    0.000
517.132;13360.600;  256.375;    0.000
517.264;18166.600;  202.375;    0.000
517.397;16952.600;  248.375;    0.000
517.530;13076.600;  221.375;    0.000
517.663;11265.600;  244.375;    0.000
517.795;10643.600;  245.375;    0.000
517.928;10326.600;  236.375;    0.000
518.061;10545.600;  219.375;    0.000
518.193;13353.600;  251.375;    0.000
518.326;20422.600;  271.375;    0.000
518.459;21095.600;  207.375;    0.000
518.591;15700.600;  217.375;    0.000
518.724;12328.600;  200.375;    0.000
518.857;10884.600;  204.375;    0.000
518.989;10014.600;  242.375;    0.000
519.122; 9691.600;  254.375;    0.000
519.254; 9283.600;  239.375;    0.000
519.387; 9005.600;  235.375;    0.000
519.519; 8713.600;  227.375;    0.000
519.652; 8344.600;  178.375;    0.000
519.784; 8249.600;  226.375;    0.000
519.917; 8175.600;  256.375;    0.000
520.049; 8040.600;  234.375;    0.000
520.182; 7910.600;  258.375;    0.000
520.314; 7789.600;  298.375;    0.000
520.447; 7870.600;  204.375;    0.000
520.579; 7749.600;  235.375;    0.000
520.712; 7749.600;  208.375;    0.000
520.844; 7612.600;  272.375;    0.000
520.976; 7442.600;  234.375;    0.000
521.109; 7368.600;  235.375;    0.000
521.241; 7250.600;  250.375;    0.000
521.373; 7072.600;  233.375;    0.000
521.506; 7243.600;  231.375;    0.000
521.638; 7256.600;  258.375;    0.000
521.770; 7245.600;  226.375;    0.000
521.903; 7212.600;  258.375;    0.000
522.035; 7049.600;  263.375;    0.000
522.167; 6985.600;  214.375;    0.000
522.300; 6757.600;  212.375;    0.000
522.432; 6964.600;  220.375;    0.000
522.564; 6941.600;  228.375;    0.000
522.696; 7042.600;  272.375;    0.000
522.828; 6920.600;  222.375;    0.000
522.961; 6906.600;  205.375;    0.000
523.093; 6885.600;  253.375;    0.000
523.225; 6972.600;  239.375;    0.000
523.357; 6844.600;  263.375;    0.000
523.489; 6761.600;  264.375;    0.000
523.621; 6750.600;  259.375;    0.000
523.753; 6620.600;  233.375;    0.000
523.885; 6701.600;  232.375;    0.000
524.018; 6727.600;  214.375;    0.000
524.150; 6664.600;  235.375;    0.000
524.282; 6588.600;  242.375;    0.000
524.414; 6661.600;  261.375;    0.000
524.546; 6552.600;  233.375;    0.000
524.678; 6503.600;  242.375;    0.000
524.810; 6573.600;  216.375;    0.000
524.942; 6535.600;  220.375;    0.000
525.074; 6386.600;  249.375;    0.000
525.206; 6359.600;  227.375;    0.000
525.338; 6471.600;  250.375;    0.000
525.469; 6426.600;  231.375;    0.000
525.601; 6313.600;  245.375;    0.000
525.733; 6362.600;  187.375;    0.000
525.865; 6373.600;  280.375;    0.000
525.997; 6381.600;  216.375;    0.000
526.129; 6446.600;  228.375;    0.000
526.261; 6280.600;  187.375;    0.000
526.393; 6322.600;  228.375;    0.000
526.524; 6176.600;  201.375;    0.000
526.656; 6294.600;  199.375;    0.000
526.788; 6394.600;  233.375;    0.000
526.920; 6227.600;  256.375;    0.000
527.052; 6114.600;  219.375;    0.000
527.183; 6167.600;  227.375;    0.000
527.315; 6164.600;  266.375;    0.000
527.447; 6174.600;  239.375;    0.000
527.578; 6289.600;  213.375;    0.000
527.710; 6278.600;  216.375;    0.000
527.842; 6173.600;  240.375;    0.000
527.973; 6127.600;  286.375;    0.000
528.105; 6164.600;  222.375;    0.000
528.237; 6266.600;  223.375;    0.000
528.368; 6106.600;  211.375;    0.000
528.500; 6148.600;  215.375;    0.000
528.632; 6191.600;  216.375;    0.000
528.763; 6125.600;  234.375;    0.000
528.895; 6070.600;  196.375;    0.000
529.026; 6118.600;  202.375;    0.000
529.158; 5943.600;  226.375;    0.000
529.289; 6253.600;  229.375;    0.000
529.421; 6016.600;  264.375;    0.000
529.552; 6076.600;  265.375;    0.000
529.684; 6130.600;  260.375;    0.000
529.815; 6169.600;  284.375;    0.000
529.947; 5974.600;  237.375;    0.000
530.078; 6147.600;  223.375;    0.000
530.210; 6053.600;  223.375;    0.000
530.341; 6094.600;  209.375;    0.000
530.472; 6032.600;  203.375;    0.000
530.604; 6096.600;  223.375;    0.000
530.735; 6161.600;  218.375;    0.000
530.867; 6104.600;  222.375;    0.000
530.998; 6076.600;  239.375;    0.000
531.129; 6041.600;  250.375;    0.000
531.260; 6127.600;  224.375;    0.000
531.392; 6178.600;  216.375;    0.000
531.523; 6235.600;  234.375;    0.000
531.654; 6177.600;  256.375;    0.000
531.786; 6188.600;  226.375;    0.000
531.917; 6259.600;  239.375;    0.000
532.048; 6064.600;  205.375;    0.000
532.179; 6081.600;  244.375;    0.000
532.311; 6148.600;  235.375;    0.000
532.442; 6029.600;  258.375;    0.000
532.573; 6101.600;  220.375;    0.000
532.704; 6059.600;  213.375;    0.000
532.835; 6088.600;  249.375;    0.000
532.966; 5963.600;  226.375;    0.000
533.097; 5974.600;  246.375;    0.000
533.229; 6134.600;  237.375;    0.000
533.360; 6029.600;  225.375;    0.000
533.491; 6083.600;  241.375;    0.000
533.622; 5985.600;  242.375;    0.000
533.753; 6082.600;  264.375;    0.000
533.884; 5990.600;  245.375;    0.000
534.015; 6090.600;  269.375;    0.000
534.146; 6105.600;  267.375;    0.000
534.277; 6060.600;  282.375;    0.000
534.408; 6180.600;  229.375;    0.000
534.539; 6148.600;  269.375;    0.000
534.670; 6012.600;  231.375;    0.000
534.801; 6114.600;  260.375;    0.000
534.932; 5971.600;  232.375;    0.000
535.063; 6091.600;  227.375;    0.000
535.194; 6077.600;  281.375;    0.000
535.324; 5987.600;  206.375;    0.000
535.455; 5990.600;  257.375;    0.000
535.586; 6093.600;  275.375;    0.000
535.717; 5871.600;  206.375;    0.000
535.848; 5992.600;  271.375;    0.000
535.979; 5979.600;  250.375;    0.000
536.109; 5832.600;  253.375;    0.000
536.240; 5964.600;  234.375;    0.000
536.371; 5923.600;  230.375;    0.000
536.502; 6001.600;  270.375;    0.000
536.632; 5857.600;  228.375;    0.000
536.763; 5915.600;  249.375;    0.000
536.894; 5881.600;  262.375;    0.000
537.025; 5813.600;  258.375;    0.000
537.155; 5932.600;  278.375;    0.000
537.286; 5864.600;  209.375;    0.000
537.417; 5891.600;  255.375;    0.000
537.547; 5762.600;  208.375;    0.000
537.678; 5776.600;  224.375;    0.000
537.808; 5705.600;  224.375;    0.000
537.939; 5869.600;  257.375;    0.000
538.070; 5781.600;  240.375;    0.000
538.200; 5766.600;  259.375;    0.000
538.331; 5819.600;  235.375;    0.000
538.461; 5878.600;  251.375;    0.000
538.592; 5866.600;  245.375;    0.000
538.722; 5740.600;  239.375;    0.000
538.853; 5768.600;  216.375;    0.000
538.983; 5893.600;  226.375;    0.000
539.114; 5738.600;  240.375;    0.000
539.244; 5762.600;  237.375;    0.000
539.375; 5731.600;  198.375;    0.000
539.505; 5711.600;  263.375;    0.000
539.636; 5854.600;  226.375;    0.000
539.766; 5822.600;  229.375;    0.000
539.896; 5790.600;  219.375;    0.000
540.027; 5857.600;  246.375;    0.000
540.157; 5803.600;  218.375;    0.000
540.287; 5744.600;  216.375;    0.000
540.418; 5916.600;  267.375;    0.000
540.548; 5846.600;  260.375;    0.000
540.678; 5804.600;  242.375;    0.000
540.809; 5901.600;  260.375;    0.000
540.939; 5771.600;  257.375;    0.000
541.069; 5813.600;  226.375;    0.000
541.200; 5808.600;  227.375;    0.000
541.330; 5797.600;  218.375;    0.000
541.460; 5998.600;  223.375;    0.000
541.590; 5829.600;  237.375;    0.000
541.720; 5800.600;  222.375;    0.000
541.851; 5833.600;  250.375;    0.000
541.981; 5764.600;  222.375;    0.000
542.111; 5896.600;  212.375;    0.000
542.241; 5924.600;  205.375;    0.000
542.371; 5875.600;  202.375;    0.000
542.501; 5934.600;  218.375;    0.000
542.631; 5783.600;  222.375;    0.000
542.761; 6039.600;  249.375;    0.000
542.891; 5905.600;  173.375;    0.000
543.021; 5967.600;  218.375;    0.000
543.151; 5964.600;  222.375;    0.000
543.281; 6031.600;  188.375;    0.000
543.411; 5971.600;  239.375;    0.000
543.542; 5866.600;  215.375;    0.000
543.671; 5975.600;  250.375;    0.000
543.801; 5895.600;  212.375;    0.000
543.931; 6023.600;  233.375;    0.000
544.061; 5819.600;  194.375;    0.000
544.191; 5940.600;  218.375;    0.000
544.321; 5965.600;  220.375;    0.000
544.451; 5931.600;  183.375;    0.000
544.581; 5987.600;  221.375;    0.000
544.711; 6173.600;  224.375;    0.000
544.841; 6123.600;  214.375;    0.000
544.970; 6126.600;  227.375;    0.000
545.100; 6023.600;  186.375;    0.000
545.230; 6241.600;  205.375;    0.000
545.360; 6108.600;  211.375;    0.000
545.490; 6149.600;  202.375;    0.000
545.619; 6142.600;  182.375;    0.000
545.749; 6025.600;  174.375;    0.000
545.879; 5938.600;  169.375;    0.000
546.009; 5961.600;  182.375;    0.000
546.138; 6048.600;  200.375;    0.000
546.268; 6006.600;  204.375;    0.000
546.398; 5912.600;  200.375;    0.000
546.527; 5990.600;  179.375;    0.000
546.657; 5890.600;  162.375;    0.000
546.786; 6035.600;  179.375;    0.000
546.916; 6038.600;  221.375;    0.000
547.046; 6105.600;  179.375;    0.000
547.175; 6024.600;  168.375;    0.000
547.305; 5982.600;  200.375;    0.000
547.434; 5977.600;  166.375;    0.000
547.564; 5878.600;  177.375;    0.000
547.693; 6118.600;  152.375;    0.000
547.823; 6055.600;  171.375;    0.000
547.953; 6092.600;  195.375;    0.000
548.082; 6196.600;  214.375;    0.000
548.211; 5984.600;  177.375;    0.000
548.341; 6088.600;  189.375;    0.000
548.470; 6049.600;  194.375;    0.000
548.600; 6067.600;  172.375;    0.000
548.729; 6077.600;  158.375;    0.000
548.859; 6109.600;  193.375;    0.000
548.988; 6051.600;  131.375;    0.000
549.117; 6078.600;  204.375;    0.000
549.247; 6099.600;  191.375;    0.000
549.376; 6176.600;  202.375;    0.000
549.505; 6130.600;  187.375;    0.000
549.635; 6081.600;  198.375;    0.000
549.764; 6262.600;  155.375;    0.000
549.893; 6117.600;  176.375;    0.000
550.023; 6313.600;  202.375;    0.000
550.152; 6142.600;  168.375;    0.000
550.281; 6074.600;  180.375;    0.000
550.410; 6164.600;  180.375;    0.000
550.539; 6210.600;  181.375;    0.000
550.669; 6364.600;  168.375;    0.000
550.798; 6276.600;  223.375;    0.000
550.927; 6284.600;  179.375;    0.000
551.056; 6069.600;  159.375;    0.000
551.185; 6154.600;  199.375;    0.000
551.314; 6251.600;  185.375;    0.000
551.443; 6181.600;  172.375;    0.000
551.573; 6271.600;  158.375;    0.000
551.702; 6298.600;  210.375;    0.000
551.831; 6282.600;  238.375;    0.000
551.960; 6321.600;  191.375;    0.000
552.089; 6372.600;  195.375;    0.000
552.218; 6285.600;  196.375;    0.000
552.347; 6422.600;  194.375;    0.000
552.476; 6424.600;  192.375;    0.000
552.605; 6460.600;  172.375;    0.000
552.734; 6693.600;  214.375;    0.000
552.863; 6898.600;  177.375;    0.000
552.992; 6918.600;  190.375;    0.000
553.121; 6725.600;  185.375;    0.000
553.249; 6651.600;  175.375;    0.000
553.378; 6682.600;  192.375;    0.000
553.507; 6548.600;  193.375;    0.000
553.636; 6538.600;  182.375;    0.000
553.765; 6428.600;  187.375;    0.000
553.894; 6411.600;  214.375;    0.000
554.023; 6448.600;  217.375;    0.000
554.151; 6385.600;  223.375;    0.000
554.280; 6354.600;  170.375;    0.000
554.409; 6315.600;  172.375;    0.000
554.538; 6319.600;  182.375;    0.000
554.666; 6321.600;  195.375;    0.000
554.795; 6312.600;  176.375;    0.000
554.924; 6348.600;  164.375;    0.000
555.052; 6161.600;  171.375;    0.000
555.181; 6249.600;  208.375;    0.000
555.310; 6042.600;  214.375;    0.000
555.439; 6235.600;  193.375;    0.000
555.567; 6121.600;  189.375;    0.000
555.696; 6144.600;  196.375;    0.000
555.824; 6180.600;  183.375;    0.000
555.953; 6098.600;  234.375;    0.000
556.082; 6119.600;  183.375;    0.000
556.210; 6186.600;  199.375;    0.000
556.339; 6163.600;  201.375;    0.000
556.467; 6027.600;  208.375;    0.000
556.596; 6128.600;  194.375;    0.000
556.724; 6089.600;  170.375;    0.000
556.853; 5960.600;  166.375;    0.000
556.981; 6015.600;  185.375;    0.000
557.110; 5895.600;  213.375;    0.000
557.238; 5949.600;  188.375;    0.000
557.367; 5896.600;  176.375;    0.000
557.495; 6109.600;  180.375;    0.000
557.623; 5893.600;  193.375;    0.000
557.752; 6125.600;  207.375;    0.000
557.880; 5966.600;  189.375;    0.000
558.008; 6067.600;  169.375;    0.000
558.137; 6140.600;  203.375;    0.000
558.265; 6076.600;  167.375;    0.000
558.393; 6006.600;  204.375;    0.000
558.522; 5904.600;  203.375;    0.000
558.650; 5993.600;  215.375;    0.000
558.778; 6029.600;  190.375;    0.000
558.906; 6109.600;  186.375;    0.000
559.035; 5968.600;  193.375;    0.000
559.163; 6167.600;  198.375;    0.000
559.291; 6022.600;  222.375;    0.000
559.419; 6092.600;  192.375;    0.000
559.548; 5996.600;  186.375;    0.000
559.676; 6093.600;  199.375;    0.000
559.804; 6125.600;  186.375;    0.000
559.932; 6100.600;  202.375;    0.000
560.060; 6135.600;  183.375;    0.000
560.188; 6145.600;  212.375;    0.000
560.316; 6208.600;  192.375;    0.000
560.444; 6114.600;  180.375;    0.000
560.572; 5991.600;  206.375;    0.000
560.700; 6125.600;  184.375;    0.000
560.828; 6116.600;  177.375;    0.000
560.956; 6107.600;  221.375;    0.000
561.085; 6272.600;  227.375;    0.000
561.212; 6103.600;  208.375;    0.000
561.340; 6166.600;  189.375;    0.000
561.468; 6247.600;  189.375;    0.000
561.596; 6193.600;  183.375;    0.000
561.724; 6163.600;  188.375;    0.000
561.852; 6243.600;  183.375;    0.000
561.980; 6212.600;  209.375;    0.000
562.108; 6321.600;  165.375;    0.000
562.236; 6334.600;  188.375;    0.000
562.364; 6341.600;  177.375;    0.000
562.492; 6249.600;  192.375;    0.000
562.619; 6355.600;  187.375;    0.000
562.747; 6394.600;  217.375;    0.000
562.875; 6440.600;  221.375;    0.000
563.003; 6526.600;  199.375;    0.000
563.130; 6454.600;  191.375;    0.000
563.258; 6511.600;  186.375;    0.000
563.386; 6440.600;  191.375;    0.000
563.514; 6659.600;  217.375;    0.000
563.641; 6652.600;  220.375;    0.000
563.769; 6770.600;  186.375;    0.000
563.897; 6563.600;  158.375;    0.000
564.024; 6741.600;  192.375;    0.000
564.152; 6739.600;  217.375;    0.000
564.280; 6813.600;  203.375;    0.000
564.407; 6860.600;  190.375;    0.000
564.535; 6915.600;  188.375;    0.000
564.662; 6814.600;  199.375;    0.000
564.790; 6955.600;  227.375;    0.000
564.917; 6920.600;  160.375;    0.000
565.045; 7199.600;  222.375;    0.000
565.173; 7151.600;  169.375;    0.000
565.300; 7166.600;  208.375;    0.000
565.428; 7315.600;  174.375;    0.000
565.555; 7353.600;  201.375;    0.000
565.682; 7475.600;  180.375;    0.000
565.810; 7579.600;  165.375;    0.000
565.937; 7718.600;  167.375;    0.000
566.065; 7829.600;  190.375;    0.000
566.192; 7880.600;  169.375;    0.000
566.320; 8195.600;  167.375;    0.000
566.447; 8189.600;  151.375;    0.000
566.574; 8016.600;  176.375;    0.000
566.702; 8234.600;  198.375;    0.000
566.829; 8379.600;  209.375;    0.000
566.956; 8459.600;  186.375;    0.000
567.083; 8496.600;  188.375;    0.000
567.211; 8499.600;  159.375;    0.000
567.338; 8710.600;  204.375;    0.000
567.465; 8645.600;  141.375;    0.000
567.593; 8745.600;  168.375;    0.000
567.720; 8757.600;  177.375;    0.000
567.847; 8699.600;  160.375;    0.000
567.974; 8606.600;  139.375;    0.000
568.101; 8488.600;  153.375;    0.000
568.228; 8334.600;  173.375;    0.000
568.356; 8236.600;  149.375;    0.000
568.483; 8079.600;  185.375;    0.000
568.610; 7902.600;  170.375;    0.000
568.737; 7857.600;  223.375;    0.000
568.864; 7464.600;  167.375;    0.000
568.991; 7565.600;  177.375;    0.000
569.118; 7383.600;  169.375;    0.000
569.245; 7462.600;  128.375;    0.000
569.372; 7266.600;  160.375;    0.000
569.499; 7159.600;  156.375;    0.000
569.626; 7068.600;  191.375;    0.000
569.753; 7121.600;  163.375;    0.000
569.880; 7064.600;  167.375;    0.000
570.007; 6858.600;  143.375;    0.000
570.134; 6851.600;  191.375;    0.000
570.261; 6959.600;  164.375;    0.000
570.388; 6776.600;  162.375;    0.000
570.515; 6749.600;  220.375;    0.000
570.642; 6780.600;  184.375;    0.000
570.768; 6809.600;  174.375;    0.000
570.895; 6727.600;  177.375;    0.000
571.022; 6763.600;  152.375;    0.000
571.149; 6764.600;  183.375;    0.000
571.276; 6665.600;  153.375;    0.000
571.402; 6666.600;  190.375;    0.000
571.529; 6639.600;  187.375;    0.000
571.656; 6601.600;  167.375;    0.000
571.783; 6341.600;  186.375;    0.000
571.909; 6484.600;  183.375;    0.000
572.036; 6380.600;  162.375;    0.000
572.163; 6393.600;  196.375;    0.000
572.289; 6354.600;  180.375;    0.000
572.416; 6292.600;  190.375;    0.000
572.543; 6257.600;  174.375;    0.000
572.669; 6333.600;  186.375;    0.000
572.796; 6320.600;  205.375;    0.000
572.922; 6108.600;  185.375;    0.000
573.049; 6217.600;  178.375;    0.000
573.176; 6156.600;  196.375;    0.000
573.302; 6180.600;  202.375;    0.000
573.429; 6201.600;  189.375;    0.000
573.555; 6151.600;  145.375;    0.000
573.682; 6088.600;  228.375;    0.000
573.808; 6093.600;  197.375;    0.000
573.935; 6183.600;  216.375;    0.000
574.061; 6152.600;  173.375;    0.000
574.188; 6143.600;  151.375;    0.000
574.314; 6041.600;  181.375;    0.000
574.440; 6066.600;  167.375;    0.000
574.567; 5945.600;  185.375;    0.000
574.693; 5985.600;  173.375;    0.000
574.820; 6083.600;  164.375;    0.000
574.946; 6178.600;  199.375;    0.000
575.072; 6072.600;  162.375;    0.000
575.198; 6214.600;  225.375;    0.000
575.325; 6014.600;  171.375;    0.000
575.451; 5981.600;  183.375;    0.000
575.577; 6166.600;  190.375;    0.000
575.704; 6107.600;  210.375;    0.000
575.830; 5950.600;  185.375;    0.000
575.956; 6026.600;  168.375;    0.000
576.082; 6086.600;  158.375;    0.000
576.208; 6022.600;  158.375;    0.000
576.335; 5989.600;  196.375;    0.000
576.461; 6170.600;  187.375;    0.000
576.587; 5962.600;  157.375;    0.000
576.713; 5974.600;  156.375;    0.000
576.839; 5962.600;  196.375;    0.000
576.965; 5992.600;  187.375;    0.000
577.091; 5920.600;  204.375;    0.000
577.217; 5968.600;  207.375;    0.000
577.343; 5912.600;  175.375;    0.000
577.469; 6074.600;  197.375;    0.000
577.596; 5975.600;  182.375;    0.000
577.722; 5937.600;  159.375;    0.000
577.848; 5951.600;  162.375;    0.000
577.974; 6003.600;  180.375;    0.000
578.099; 5846.600;  161.375;    0.000
578.225; 5911.600;  180.375;    0.000
578.351; 5886.600;  190.375;    0.000
578.477; 6003.600;  212.375;    0.000
578.603; 5849.600;  179.375;    0.000
578.729; 5918.600;  195.375;    0.000
578.855; 5883.600;  153.375;    0.000
578.981; 5858.600;  162.375;    0.000
579.107; 6037.600;  149.375;    0.000
579.232; 5974.600;  164.375;    0.000
579.358; 5870.600;  162.375;    0.000
579.484; 5781.600;  181.375;    0.000
579.610; 5886.600;  190.375;    0.000
579.735; 5860.600;  191.375;    0.000
579.861; 5760.600;  189.375;    0.000
579.987; 6000.600;  202.375;    0.000
580.113; 5850.600;  197.375;    0.000
580.238; 5784.600;  228.375;    0.000
580.364; 5925.600;  212.375;    0.000
580.490; 5839.600;  225.375;    0.000
580.615; 5763.600;  218.375;    0.000
580.741; 5842.600;  167.375;    0.000
580.867; 5817.600;  215.375;    0.000
580.992; 5858.600;  191.375;    0.000
581.118; 5859.600;  171.375;    0.000
581.243; 5791.600;  204.375;    0.000
581.369; 5872.600;  186.375;    0.000
581.494; 5874.600;  184.375;    0.000
581.620; 5882.600;  212.375;    0.000
581.745; 5933.600;  192.375;    0.000
581.871; 6029.600;  195.375;    0.000
581.996; 5855.600;  160.375;    0.000
582.122; 5842.600;  217.375;    0.000
582.247; 5794.600;  213.375;    0.000
582.373; 5854.600;  187.375;    0.000
582.498; 5828.600;  208.375;    0.000
582.624; 5871.600;  189.375;    0.000
582.749; 5896.600;  185.375;    0.000
582.874; 5732.600;  195.375;    0.000
583.000; 5730.600;  208.375;    0.000
583.125; 5687.600;  147.375;    0.000
583.250; 5811.600;  201.375;    0.000
583.376; 5937.600;  191.375;    0.000
583.501; 5885.600;  206.375;    0.000
583.626; 5924.600;  167.375;    0.000
583.751; 5839.600;  180.375;    0.000
583.877; 5915.600;  185.375;    0.000
584.002; 5808.600;  186.375;    0.000
584.127; 5840.600;  176.375;    0.000
584.252; 5951.600;  214.375;    0.000
584.377; 5963.600;  225.375;    0.000
584.503; 5899.600;  195.375;    0.000
584.628; 5829.600;  206.375;    0.000
584.753; 5795.600;  181.375;    0.000
584.878; 5949.600;  136.375;    0.000
585.003; 5949.600;  215.375;    0.000
585.128; 5923.600;  206.375;    0.000
585.253; 5968.600;  200.375;    0.000
585.378; 5903.600;  169.375;    0.000
585.503; 5912.600;  191.375;    0.000
585.628; 5914.600;  182.375;    0.000
585.753; 5899.600;  164.375;    0.000
585.878; 5801.600;  123.375;    0.000
586.003; 5785.600;  187.375;    0.000
586.128; 5873.600;  198.375;    0.000
586.253; 5880.600;  172.375;    0.000
586.378; 5901.600;  191.375;    0.000
586.503; 5872.600;  190.375;    0.000
586.628; 5788.600;  178.375;    0.000
586.753; 5890.600;  184.375;    0.000
586.878; 5929.600;  169.375;    0.000
587.003; 5946.600;  186.375;    0.000
587.127; 5717.600;  170.375;    0.000
587.252; 5853.600;  170.375;    0.000
587.377; 5996.600;  181.375;    0.000
587.502; 5854.600;  209.375;    0.000
587.627; 5940.600;  210.375;    0.000
587.751; 5938.600;  212.375;    0.000
587.876; 5966.600;  198.375;    0.000
588.001; 5863.600;  161.375;    0.000
588.125; 5980.600;  191.375;    0.000
588.250; 5761.600;  132.375;    0.000
588.375; 6004.600;  183.375;    0.000
588.499; 5938.600;  176.375;    0.000
588.624; 6079.600;  173.375;    0.000
588.749; 6497.600;  204.375;    0.000
588.873; 9380.600;  179.375;    0.000
588.998;12547.600;  182.375;    0.000
589.122;10406.600;  165.375;    0.000
589.247; 7327.600;  185.375;    0.000
589.372; 6702.600;  199.375;    0.000
589.496; 9205.600;  182.375;    0.000
589.621;10775.600;  158.375;    0.000
589.745; 8612.600;  213.375;    0.000
589.870; 6621.600;  175.375;    0.000
589.994; 6390.600;  194.375;    0.000
590.118; 6112.600;  218.375;    0.000
590.243; 6145.600;  170.375;    0.000
590.367; 6011.600;  189.375;    0.000
590.492; 6216.600;  196.375;    0.000
590.616; 6126.600;  182.375;    0.000
590.740; 6125.600;  210.375;    0.000
590.865; 6172.600;  242.375;    0.000
590.989; 6149.600;  191.375;    0.000
591.114; 6221.600;  167.375;    0.000
591.238; 6104.600;  194.375;    0.000
591.362; 6336.600;  236.375;    0.000
591.486; 6251.600;  194.375;    0.000
591.611; 6312.600;  154.375;    0.000
591.735; 6174.600;  186.375;    0.000
591.859; 6397.600;  148.375;    0.000
591.983; 6469.600;  211.375;    0.000
592.107; 6435.600;  204.375;    0.000
592.232; 6425.600;  194.375;    0.000
592.356; 6550.600;  238.375;    0.000
592.480; 6444.600;  179.375;    0.000
592.604; 6598.600;  192.375;    0.000
592.728; 6691.600;  201.375;    0.000
592.852; 6674.600;  158.375;    0.000
592.976; 6714.600;  152.375;    0.000
593.100; 6743.600;  194.375;    0.000
593.224; 6698.600;  235.375;    0.000
593.349; 6693.600;  233.375;    0.000
593.473; 6652.600;  194.375;    0.000
593.597; 6738.600;  215.375;    0.000
593.721; 6709.600;  212.375;    0.000
593.844; 6774.600;  220.375;    0.000
593.968; 6626.600;  221.375;    0.000
594.092; 6727.600;  150.375;    0.000
594.216; 6684.600;  212.375;    0.000
594.340; 6586.600;  209.375;    0.000
594.464; 6744.600;  207.375;    0.000
594.588; 6600.600;  195.375;    0.000
594.712; 6515.600;  176.375;    0.000
594.836; 6567.600;  219.375;    0.000
594.959; 6490.600;  215.375;    0.000
595.083; 6401.600;  200.375;    0.000
595.207; 6309.600;  206.375;    0.000
595.331; 6349.600;  207.375;    0.000
595.455; 6219.600;  206.375;    0.000
595.578; 6300.600;  204.375;    0.000
595.702; 6298.600;  225.375;    0.000
595.826; 6158.600;  186.375;    0.000
595.949; 6062.600;  196.375;    0.000
596.073; 6085.600;  188.375;    0.000
596.197; 6133.600;  217.375;    0.000
596.320; 6078.600;  225.375;    0.000
596.444; 6062.600;  220.375;    0.000
596.568; 6004.600;  155.375;    0.000
596.691; 5950.600;  195.375;    0.000
596.815; 6020.600;  163.375;    0.000
596.938; 6016.600;  181.375;    0.000
597.062; 5862.600;  201.375;    0.000
597.186; 5997.600;  200.375;    0.000
597.309; 5918.600;  214.375;    0.000
597.433; 5983.600;  176.375;    0.000
597.556; 5745.600;  193.375;    0.000
597.680; 5708.600;  241.375;    0.000
597.803; 5776.600;  185.375;    0.000
597.926; 5856.600;  200.375;    0.000
598.050; 5849.600;  193.375;    0.000
598.173; 5800.600;  219.375;    0.000
598.297; 5723.600;  223.375;    0.000
598.420; 5837.600;  187.375;    0.000
598.543; 5583.600;  205.375;    0.000
598.667; 5680.600;  177.375;    0.000
598.790; 5721.600;  208.375;    0.000
598.913; 5817.600;  170.375;    0.000
599.037; 5650.600;  212.375;    0.000
599.160; 5765.600;  165.375;    0.000
599.283; 5731.600;  211.375;    0.000
599.406; 5610.600;  207.375;    0.000
599.530; 5676.600;  182.375;    0.000
599.653; 5626.600;  215.375;    0.000
599.776; 5750.600;  167.375;    0.000
599.899; 5671.600;  190.375;    0.000
600.022; 5620.600;  182.375;    0.000
600.145; 5659.600;  180.375;    0.000
600.269; 5686.600;  208.375;    0.000
600.392; 5720.600;  214.375;    0.000
600.515; 5529.600;  196.375;    0.000
600.638; 5503.600;  204.375;    0.000
600.761; 5499.600;  209.375;    0.000
600.884; 5454.600;  207.375;    0.000
601.007; 5413.600;  234.375;    0.000
601.130; 5310.600;  183.375;    0.000
601.253; 5529.600;  211.375;    0.000
601.376; 5561.600;  199.375;    0.000
601.499; 5366.600;  190.375;    0.000
601.622; 5572.600;  210.375;    0.000
601.745; 5432.600;  180.375;    0.000
601.868; 5414.600;  204.375;    0.000
601.991; 5456.600;  188.375;    0.000
602.113; 5482.600;  210.375;    0.000
602.236; 5423.600;  194.375;    0.000
602.359; 5483.600;  213.375;    0.000
602.482; 5486.600;  169.375;    0.000
602.605; 5369.600;  189.375;    0.000
602.728; 5344.600;  236.375;    0.000
602.850; 5427.600;  230.375;    0.000
602.973; 5363.600;  187.375;    0.000
603.096; 5422.600;  201.375;    0.000
603.219; 5396.600;  209.375;    0.000
603.341; 5507.600;  209.375;    0.000
603.464; 5333.600;  194.375;    0.000
603.587; 5469.600;  166.375;    0.000
603.709; 5420.600;  175.375;    0.000
603.832; 5463.600;  239.375;    0.000
603.955; 5353.600;  205.375;    0.000
604.077; 5454.600;  196.375;    0.000
604.200; 5430.600;  188.375;    0.000
604.323; 5395.600;  224.375;    0.000
604.445; 5355.600;  182.375;    0.000
604.568; 5382.600;  199.375;    0.000
604.690; 5330.600;  175.375;    0.000
604.813; 5356.600;  211.375;    0.000
604.935; 5431.600;  171.375;    0.000
605.058; 5425.600;  196.375;    0.000
605.180; 5270.600;  194.375;    0.000
605.303; 5372.600;  198.375;    0.000
605.425; 5381.600;  212.375;    0.000
605.547; 5323.600;  238.375;    0.000
605.670; 5332.600;  207.375;    0.000
605.792; 5200.600;  204.375;    0.000
605.915; 5241.600;  198.375;    0.000
606.037; 5334.600;  215.375;    0.000
606.159; 5357.600;  170.375;    0.000
606.282; 5275.600;  194.375;    0.000
606.404; 5181.600;  207.375;    0.000
606.526; 5248.600;  208.375;    0.000
606.648; 5202.600;  174.375;    0.000
606.771; 5236.600;  170.375;    0.000
606.893; 5287.600;  182.375;    0.000
607.015; 5184.600;  180.375;    0.000
607.137; 5263.600;  187.375;    0.000
607.260; 5266.600;  202.375;    0.000
607.382; 5415.600;  226.375;    0.000
607.504; 5377.600;  208.375;    0.000
607.626; 5383.600;  229.375;    0.000
607.748; 5329.600;  170.375;    0.000
607.870; 5268.600;  208.375;    0.000
607.992; 5213.600;  184.375;    0.000
608.114; 5206.600;  213.375;    0.000
608.237; 5331.600;  237.375;    0.000
608.359; 5214.600;  176.375;    0.000
608.481; 5231.600;  173.375;    0.000
608.603; 5224.600;  189.375;    0.000
608.725; 5168.600;  185.375;    0.000
608.847; 5239.600;  239.375;    0.000
608.969; 5164.600;  237.375;    0.000
609.090; 5261.600;  189.375;    0.000
609.212; 5183.600;  147.375;    0.000
609.334; 5167.600;  177.375;    0.000
609.456; 5271.600;  196.375;    0.000
609.578; 5201.600;  199.375;    0.000
609.700; 5144.600;  167.375;    0.000
609.822; 5161.600;  140.375;    0.000
609.944; 5335.600;  225.375;    0.000
610.065; 5141.600;  183.375;    0.000
610.187; 5096.600;  170.375;    0.000
610.309; 5191.600;  210.375;    0.000
610.431; 5260.600;  185.375;    0.000
610.552; 5059.600;  197.375;    0.000
610.674; 5252.600;  188.375;    0.000
610.796; 5113.600;  162.375;    0.000
610.918; 5137.600;  200.375;    0.000
611.039; 5117.600;  209.375;    0.000
611.161; 5107.600;  201.375;    0.000
611.282; 5057.600;  197.375;    0.000
611.404; 5220.600;  220.375;    0.000
611.526; 5190.600;  159.375;    0.000
611.647; 5082.600;  205.375;    0.000
611.769; 5083.600;  161.375;    0.000
611.890; 5082.600;  173.375;    0.000
612.012; 5225.600;  225.375;    0.000
612.133; 5092.600;  188.375;    0.000
612.255; 5012.600;  217.375;    0.000
612.377; 5137.600;  219.375;    0.000
612.498; 5052.600;  177.375;    0.000
612.619; 5064.600;  211.375;    0.000
612.741; 5015.600;  185.375;    0.000
612.862; 5099.600;  191.375;    0.000
612.984; 5038.600;  190.375;    0.000
613.105; 5207.600;  211.375;    0.000
613.226; 5077.600;  174.375;    0.000
613.348; 5141.600;  235.375;    0.000
613.469; 5055.600;  230.375;    0.000
613.590; 5092.600;  208.375;    0.000
613.712; 5075.600;  244.375;    0.000
613.833; 5144.600;  202.375;    0.000
613.954; 5026.600;  228.375;    0.000
614.076; 5063.600;  220.375;    0.000
614.197; 5147.600;  191.375;    0.000
614.318; 5069.600;  201.375;    0.000
614.439; 5073.600;  212.375;    0.000
614.560; 5010.600;  219.375;    0.000
614.682; 5005.600;  189.375;    0.000
614.803; 5085.600;  188.375;    0.000
614.924; 5056.600;  225.375;    0.000
615.045; 4922.600;  227.375;    0.000
615.166; 5078.600;  200.375;    0.000
615.287; 5094.600;  195.375;    0.000
615.408; 4960.600;  199.375;    0.000
615.529; 5093.600;  227.375;    0.000
615.650; 5000.600;  176.375;    0.000
615.771; 5034.600;  211.375;    0.000
615.892; 5000.600;  212.375;    0.000
616.013; 5069.600;  172.375;    0.000
616.134; 5034.600;  220.375;    0.000
616.255; 5135.600;  251.375;    0.000
616.376; 5096.600;  186.375;    0.000
616.497; 4949.600;  201.375;    0.000
616.618; 5052.600;  149.375;    0.000
616.739; 5014.600;  213.375;    0.000
616.860; 4973.600;  224.375;    0.000
616.981; 5005.600;  224.375;    0.000
617.102; 5056.600;  217.375;    0.000
617.222; 5087.600;  237.375;    0.000
617.343; 5026.600;  205.375;    0.000
617.464; 5138.600;  229.375;    0.000
617.585; 4996.600;  227.375;    0.000
617.705; 5077.600;  191.375;    0.000
617.826; 5101.600;  237.375;    0.000
617.947; 5004.600;  223.375;    0.000
618.068; 4976.600;  189.375;    0.000
618.188; 5037.600;  194.375;    0.000
618.309; 5020.600;  206.375;    0.000
618.430; 5016.600;  229.375;    0.000
618.550; 4895.600;  250.375;    0.000
618.671; 4987.600;  201.375;    0.000
618.791; 4930.600;  226.375;    0.000
618.912; 5041.600;  246.375;    0.000
619.033; 5007.600;  243.375;    0.000
619.153; 5117.600;  208.375;    0.000
619.274; 5061.600;  223.375;    0.000
619.394; 5032.600;  226.375;    0.000
619.515; 4942.600;  188.375;    0.000
619.635; 4967.600;  216.375;    0.000
619.756; 4928.600;  229.375;    0.000
619.876; 4848.600;  216.375;    0.000
619.996; 4861.600;  244.375;    0.000
620.117; 4832.600;  225.375;    0.000
620.237; 4909.600;  207.375;    0.000
620.358; 5077.600;  239.375;    0.000
620.478; 4889.600;  237.375;    0.000
620.598; 4830.600;  237.375;    0.000
620.719; 4887.600;  223.375;    0.000
620.839; 4922.600;  254.375;    0.000
620.959; 4902.600;  244.375;    0.000
621.079; 4950.600;  193.375;    0.000
621.200; 4880.600;  233.375;    0.000
621.320; 5037.600;  270.375;    0.000
621.440; 4928.600;  206.375;    0.000
621.560; 4892.600;  241.375;    0.000
621.681; 4926.600;  231.375;    0.000
621.801; 4949.600;  235.375;    0.000
621.921; 4886.600;  240.375;    0.000
622.041; 4885.600;  244.375;    0.000
622.161; 4777.600;  225.375;    0.000
622.281; 4848.600;  222.375;    0.000
622.401; 4874.600;  238.375;    0.000
622.521; 4764.600;  233.375;    0.000
622.641; 4832.600;  241.375;    0.000
622.761; 4842.600;  233.375;    0.000
622.882; 4795.600;  230.375;    0.000
623.002; 4790.600;  206.375;    0.000
623.121; 4779.600;  217.375;    0.000
623.241; 4809.600;  263.375;    0.000
623.361; 4788.600;  245.375;    0.000
623.481; 4777.600;  194.375;    0.000
623.601; 4806.600;  228.375;    0.000
623.721; 4751.600;  219.375;    0.000
623.841; 4768.600;  234.375;    0.000
623.961; 4849.600;  235.375;    0.000
624.081; 4788.600;  166.375;    0.000
624.201; 4690.600;  229.375;    0.000
624.320; 4785.600;  224.375;    0.000
624.440; 4727.600;  200.375;    0.000
624.560; 4660.600;  220.375;    0.000
624.680; 4701.600;  214.375;    0.000
624.799; 4742.600;  179.375;    0.000
624.919; 4796.600;  199.375;    0.000
625.039; 4801.600;  211.375;    0.000
625.159; 4675.600;  213.375;    0.000
625.278; 4758.600;  178.375;    0.000
625.398; 4718.600;  206.375;    0.000
625.518; 4637.600;  182.375;    0.000
625.637; 4708.600;  206.375;    0.000
625.757; 4687.600;  197.375;    0.000
625.876; 4592.600;  204.375;    0.000
625.996; 4748.600;  222.375;    0.000
626.115; 4716.600;  222.375;    0.000
626.235; 4625.600;  222.375;    0.000
626.354; 4645.600;  211.375;    0.000
626.474; 4719.600;  217.375;    0.000
626.594; 4601.600;  190.375;    0.000
626.713; 4649.600;  200.375;    0.000
626.832; 4668.600;  234.375;    0.000
626.952; 4678.600;  214.375;    0.000
627.071; 4701.600;  243.375;    0.000
627.191; 4652.600;  192.375;    0.000
627.310; 4682.600;  211.375;    0.000
627.429; 4643.600;  218.375;    0.000
627.549; 4738.600;  214.375;    0.000
627.668; 4658.600;  208.375;    0.000
627.787; 4687.600;  199.375;    0.000
627.907; 4604.600;  208.375;    0.000
628.026; 4537.600;  216.375;    0.000
628.145; 4520.600;  170.375;    0.000
628.264; 4680.600;  217.375;    0.000
628.384; 4551.600;  190.375;    0.000
628.503; 4615.600;  203.375;    0.000
628.622; 4626.600;  197.375;    0.000
628.741; 4589.600;  186.375;    0.000
628.860; 4715.600;  191.375;    0.000
628.980; 4671.600;  196.375;    0.000
629.099; 4653.600;  190.375;    0.000
629.218; 4618.600;  165.375;    0.000
629.337; 4590.600;  190.375;    0.000
629.456; 4585.600;  222.375;    0.000
629.575; 4633.600;  197.375;    0.000
629.694; 4534.600;  210.375;    0.000
629.813; 4542.600;  187.375;    0.000
629.932; 4738.600;  224.375;    0.000
630.051; 4556.600;  216.375;    0.000
630.170; 4660.600;  203.375;    0.000
630.289; 4562.600;  178.375;    0.000
630.408; 4450.600;  192.375;    0.000
630.527; 4692.600;  223.375;    0.000
630.646; 4521.600;  177.375;    0.000
630.764; 4605.600;  224.375;    0.000
630.883; 4486.600;  220.375;    0.000
631.002; 4592.600;  187.375;    0.000
631.121; 4465.600;  208.375;    0.000
631.240; 4564.600;  217.375;    0.000
631.359; 4600.600;  241.375;    0.000
631.477; 4662.600;  189.375;    0.000
631.596; 4487.600;  244.375;    0.000
631.715; 4558.600;  241.375;    0.000
631.834; 4627.600;  219.375;    0.000
631.952; 4611.600;  231.375;    0.000
632.071; 4550.600;  197.375;    0.000
632.190; 4529.600;  193.375;    0.000
632.308; 4534.600;  185.375;    0.000
632.427; 4497.600;  188.375;    0.000
632.546; 4517.600;  208.375;    0.000
632.664; 4496.600;  191.375;    0.000
632.783; 4544.600;  201.375;    0.000
632.901; 4510.600;  239.375;    0.000
633.020; 4612.600;  197.375;    0.000
633.138; 4570.600;  189.375;    0.000
633.257; 4529.600;  210.375;    0.000
633.375; 4569.600;  213.375;    0.000
633.494; 4440.600;  206.375;    0.000
633.612; 4563.600;  231.375;    0.000
633.731; 4506.600;  213.375;    0.000
633.849; 4552.600;  244.375;    0.000
633.968; 4462.600;  251.375;    0.000
634.086; 4541.600;  224.375;    0.000
634.204; 4481.600;  212.375;    0.000
634.323; 4460.600;  213.375;    0.000
634.441; 4439.600;  219.375;    0.000
634.559; 4510.600;  198.375;    0.000
634.678; 4482.600;  201.375;    0.000
634.796; 4476.600;  179.375;    0.000
634.914; 4495.600;  255.375;    0.000
635.032; 4529.600;  264.375;    0.000
635.151; 4482.600;  228.375;    0.000
635.269; 4592.600;  223.375;    0.000
635.387; 4643.600;  228.375;    0.000
635.505; 4593.600;  214.375;    0.000
635.623; 4422.600;  279.375;    0.000
635.742; 4544.600;  237.375;    0.000
635.860; 4401.600;  244.375;    0.000
635.978; 4439.600;  213.375;    0.000
636.096; 4560.600;  230.375;    0.000
636.214; 4500.600;  252.375;    0.000
636.332; 4473.600;  221.375;    0.000
636.450; 4554.600;  227.375;    0.000
636.568; 4487.600;  193.375;    0.000
636.686; 4437.600;  208.375;    0.000
636.804; 4431.600;  213.375;    0.000
636.922; 4456.600;  199.375;    0.000
637.040; 4416.600;  202.375;    0.000
637.158; 4461.600;  239.375;    0.000
637.276; 4492.600;  225.375;    0.000
637.394; 4517.600;  217.375;    0.000
637.512; 4403.600;  192.375;    0.000
637.629; 4429.600;  216.375;    0.000
637.747; 4480.600;  198.375;    0.000
637.865; 4545.600;  265.375;    0.000
637.983; 4508.600;  245.375;    0.000
638.101; 4513.600;  199.375;    0.000
638.218; 4480.600;  197.375;    0.000
638.336; 4473.600;  212.375;    0.000
638.454; 4518.600;  227.375;    0.000
638.572; 4583.600;  215.375;    0.000
638.689; 4498.600;  214.375;    0.000
638.807; 4531.600;  233.375;    0.000
638.925; 4384.600;  217.375;    0.000
639.042; 4484.600;  180.375;    0.000
639.160; 4477.600;  220.375;    0.000
639.278; 4374.600;  180.375;    0.000
639.395; 4431.600;  243.375;    0.000
639.513; 4425.600;  207.375;    0.000
639.630; 4451.600;  183.375;    0.000
639.748; 4400.600;  231.375;    0.000
639.865; 4546.600;  215.375;    0.000
639.983; 4487.600;  182.375;    0.000
640.100; 4444.600;  190.375;    0.000
640.218; 4531.600;  224.375;    0.000
640.335; 4383.600;  214.375;    0.000
640.453; 4440.600;  212.375;    0.000
640.570; 4447.600;  224.375;    0.000
640.688; 4363.600;  220.375;    0.000
640.805; 4447.600;  189.375;    0.000
640.922; 4427.600;  256.375;    0.000
641.040; 4457.600;  209.375;    0.000
641.157; 4465.600;  195.375;    0.000
641.274; 4557.600;  195.375;    0.000
641.391; 4483.600;  231.375;    0.000
641.509; 4481.600;  207.375;    0.000
641.626; 4468.600;  227.375;    0.000
641.743; 4396.600;  188.375;    0.000
641.860; 4496.600;  208.375;    0.000
641.978; 4557.600;  222.375;    0.000
642.095; 4402.600;  194.375;    0.000
642.212; 4543.600;  202.375;    0.000
642.329; 4385.600;  241.375;    0.000
642.446; 4393.600;  261.375;    0.000
642.563; 4522.600;  236.375;    0.000
642.681; 4430.600;  228.375;    0.000
642.798; 4479.600;  242.375;    0.000
642.915; 4478.600;  197.375;    0.000
643.032; 4534.600;  239.375;    0.000
643.149; 4566.600;  241.375;    0.000
643.266; 4446.600;  199.375;    0.000
643.383; 4461.600;  200.375;    0.000
643.500; 4502.600;  221.375;    0.000
643.617; 4476.600;  196.375;    0.000
643.734; 4536.600;  207.375;    0.000
643.850; 4508.600;  222.375;    0.000
643.967; 4528.600;  235.375;    0.000
644.084; 4502.600;  233.375;    0.000
644.201; 4507.600;  229.375;    0.000
644.318; 4549.600;  210.375;    0.000
644.435; 4583.600;  234.375;    0.000
644.552; 4523.600;  220.375;    0.000
644.668; 4636.600;  231.375;    0.000
644.785; 4625.600;  231.375;    0.000
644.902; 4642.600;  238.375;    0.000
645.019; 4601.600;  226.375;    0.000
645.135; 4703.600;  179.375;    0.000
645.252; 4737.600;  224.375;    0.000
645.369; 4756.600;  206.375;    0.000
645.485; 4766.600;  200.375;    0.000
645.602; 4610.600;  210.375;    0.000
645.719; 4711.600;  206.375;    0.000
645.835; 4750.600;  247.375;    0.000
645.952; 4809.600;  222.375;    0.000
646.068; 4686.600;  205.375;    0.000
646.185; 4880.600;  230.375;    0.000
646.302; 4911.600;  254.375;    0.000
646.418; 4836.600;  230.375;    0.000
646.535; 4922.600;  214.375;    0.000
646.651; 4876.600;  179.375;    0.000
646.768; 4885.600;  190.375;    0.000
646.884; 4955.600;  208.375;    0.000
647.000; 4971.600;  262.375;    0.000
647.117; 4850.600;  212.375;    0.000
647.233; 4935.600;  228.375;    0.000
647.350; 5016.600;  208.375;    0.000
647.466; 4931.600;  211.375;    0.000
647.582; 4959.600;  196.375;    0.000
647.699; 4988.600;  217.375;    0.000
647.815; 4945.600;  203.375;    0.000
647.931; 4987.600;  201.375;    0.000
648.047; 5023.600;  182.375;    0.000
648.164; 5049.600;  219.375;    0.000
648.280; 5177.600;  213.375;    0.000
648.396; 5190.600;  202.375;    0.000
648.512; 5069.600;  233.375;    0.000
648.629; 5083.600;  206.375;    0.000
648.745; 5132.600;  188.375;    0.000
648.861; 5220.600;  209.375;    0.000
648.977; 5136.600;  218.375;    0.000
649.093; 5224.600;  225.375;    0.000
649.209; 5105.600;  240.375;    0.000
649.325; 5111.600;  253.375;    0.000
649.441; 5359.600;  263.375;    0.000
649.557; 5253.600;  256.375;    0.000
649.673; 5281.600;  211.375;    0.000
649.789; 5370.600;  237.375;    0.000
649.905; 5173.600;  183.375;    0.000
650.021; 5331.600;  238.375;    0.000
650.137; 5170.600;  241.375;    0.000
650.253; 5338.600;  228.375;    0.000
650.369; 5252.600;  221.375;    0.000
650.485; 5334.600;  240.375;    0.000
650.601; 5445.600;  254.375;    0.000
650.717; 5338.600;  201.375;    0.000
650.833; 5532.600;  257.375;    0.000
650.948; 5539.600;  213.375;    0.000
651.064; 5666.600;  223.375;    0.000
651.180; 5512.600;  230.375;    0.000
651.296; 5640.600;  235.375;    0.000
651.411; 5595.600;  221.375;    0.000
651.527; 5561.600;  233.375;    0.000
651.643; 5778.600;  236.375;    0.000
651.759; 5695.600;  268.375;    0.000
651.874; 5745.600;  214.375;    0.000
651.990; 5793.600;  251.375;    0.000
652.105; 5882.600;  217.375;    0.000
652.221; 5900.600;  243.375;    0.000
652.337; 5843.600;  231.375;    0.000
652.452; 6066.600;  238.375;    0.000
652.568; 6116.600;  188.375;    0.000
652.683; 6042.600;  197.375;    0.000
652.799; 6245.600;  194.375;    0.000
652.914; 6149.600;  222.375;    0.000
653.030; 6294.600;  200.375;    0.000
653.145; 6353.600;  235.375;    0.000
653.261; 6388.600;  261.375;    0.000
653.376; 6572.600;  228.375;    0.000
653.492; 6712.600;  222.375;    0.000
653.607; 6574.600;  227.375;    0.000
653.722; 6786.600;  250.375;    0.000
653.838; 6833.600;  255.375;    0.000
653.953; 6991.600;  235.375;    0.000
654.068; 7155.600;  266.375;    0.000
654.184; 7232.600;  210.375;    0.000
654.299; 7298.600;  240.375;    0.000
654.414; 7526.600;  222.375;    0.000
654.530; 7677.600;  222.375;    0.000
654.645; 7759.600;  256.375;    0.000
654.760; 7991.600;  244.375;    0.000
654.875; 8064.600;  229.375;    0.000
654.990; 8378.600;  226.375;    0.000
655.106; 8614.600;  254.375;    0.000
655.221; 8703.600;  251.375;    0.000
655.336; 8841.600;  245.375;    0.000
655.451; 9283.600;  199.375;    0.000
655.566; 9558.600;  228.375;    0.000
655.681;10074.600;  208.375;    0.000
655.796;10247.600;  218.375;    0.000
655.911;10612.600;  233.375;    0.000
656.026;11135.600;  232.375;    0.000
656.141;11680.600;  223.375;    0.000
656.256;12080.600;  247.375;    0.000
656.371;12155.600;  220.375;    0.000
656.486;12195.600;  225.375;    0.000
656.601;11867.600;  257.375;    0.000
656.716;11575.600;  248.375;    0.000
656.831;11187.600;  262.375;    0.000
656.946;10943.600;  249.375;    0.000
657.060;10643.600;  245.375;    0.000
657.175;10231.600;  245.375;    0.000
657.290;10067.600;  219.375;    0.000
657.405; 9803.600;  286.375;    0.000
657.520; 9659.600;  259.375;    0.000
657.634; 9527.600;  239.375;    0.000
657.749; 9201.600;  227.375;    0.000
657.864; 9057.600;  210.375;    0.000
657.979; 8979.600;  236.375;    0.000
658.093; 8643.600;  210.375;    0.000
658.208; 8633.600;  248.375;    0.000
658.323; 8298.600;  216.375;    0.000
658.437; 8140.600;  248.375;    0.000
658.552; 8087.600;  249.375;    0.000
658.666; 7901.600;  256.375;    0.000
658.781; 7758.600;  247.375;    0.000
658.895; 7662.600;  209.375;    0.000
659.010; 7501.600;  219.375;    0.000
659.125; 7361.600;  215.375;    0.000
659.239; 7162.600;  205.375;    0.000
659.353; 7210.600;  246.375;    0.000
659.468; 7150.600;  245.375;    0.000
659.582; 7086.600;  244.375;    0.000
659.697; 6982.600;  242.375;    0.000
659.811; 6750.600;  239.375;    0.000
659.926; 6754.600;  226.375;    0.000
660.040; 6694.600;  255.375;    0.000
660.154; 6550.600;  225.375;    0.000
660.269; 6660.600;  200.375;    0.000
660.383; 6316.600;  192.375;    0.000
660.497; 6534.600;  218.375;    0.000
660.612; 6260.600;  236.375;    0.000
660.726; 6318.600;  263.375;    0.000
660.840; 6123.600;  205.375;    0.000
660.954; 6109.600;  219.375;    0.000
661.068; 6032.600;  240.375;    0.000
661.183; 6021.600;  221.375;    0.000
661.297; 5928.600;  194.375;    0.000
661.411; 5939.600;  253.375;    0.000
661.525; 5946.600;  246.375;    0.000
661.639; 5805.600;  217.375;    0.000
661.753; 5722.600;  241.375;    0.000
661.867; 5689.600;  276.375;    0.000
661.981; 5465.600;  203.375;    0.000
662.095; 5438.600;  224.375;    0.000
662.209; 5498.600;  217.375;    0.000
662.323; 5426.600;  251.375;    0.000
662.437; 5378.600;  243.375;    0.000
662.551; 5206.600;  244.375;    0.000
662.665; 5322.600;  247.375;    0.000
662.779; 5236.600;  251.375;    0.000
662.893; 5196.600;  254.375;    0.000
663.007; 5126.600;  222.375;    0.000
663.121; 5102.600;  253.375;    0.000
663.235; 4996.600;  270.375;    0.000
663.349; 4991.600;  242.375;    0.000
663.462; 5023.600;  230.375;    0.000
663.576; 5020.600;  230.375;    0.000
663.690; 5020.600;  249.375;    0.000
663.804; 4839.600;  200.375;    0.000
663.917; 4941.600;  204.375;    0.000
664.031; 4825.600;  206.375;    0.000
664.145; 4847.600;  202.375;    0.000
664.258; 4735.600;  221.375;    0.000
664.372; 4753.600;  215.375;    0.000
664.486; 4694.600;  179.375;    0.000
664.599; 4786.600;  208.375;    0.000
664.713; 4645.600;  268.375;    0.000
664.827; 4649.600;  225.375;    0.000
664.940; 4522.600;  222.375;    0.000
665.054; 4666.600;  208.375;    0.000
665.167; 4610.600;  253.375;    0.000
665.281; 4536.600;  237.375;    0.000
665.394; 4584.600;  227.375;    0.000
665.508; 4450.600;  192.375;    0.000
665.621; 4504.600;  175.375;    0.000
665.735; 4506.600;  249.375;    0.000
665.848; 4507.600;  197.375;    0.000
665.961; 4347.600;  206.375;    0.000
666.075; 4422.600;  245.375;    0.000
666.188; 4325.600;  230.375;    0.000
666.301; 4330.600;  219.375;    0.000
666.415; 4239.600;  231.375;    0.000
666.528; 4251.600;  258.375;    0.000
666.641; 4322.600;  243.375;    0.000
666.755; 4280.600;  208.375;    0.000
666.868; 4266.600;  228.375;    0.000
666.981; 4323.600;  244.375;    0.000
667.094; 4147.600;  244.375;    0.000
667.207; 4106.600;  226.375;    0.000
667.321; 4073.600;  175.375;    0.000
667.434; 4082.600;  211.375;    0.000
667.547; 4193.600;  249.375;    0.000
667.660; 4061.600;  225.375;    0.000
667.773; 4120.600;  242.375;    0.000
667.886; 4072.600;  246.375;    0.000
667.999; 4098.600;  244.375;    0.000
668.112; 4070.600;  227.375;    0.000
668.225; 4136.600;  231.375;    0.000
668.338; 4031.600;  256.375;    0.000
668.451; 4005.600;  216.375;    0.000
668.564; 4038.600;  261.375;    0.000
668.677; 3932.600;  230.375;    0.000
668.790; 3971.600;  192.375;    0.000
668.903; 3943.600;  243.375;    0.000
669.016; 3848.600;  201.375;    0.000
669.129; 3810.600;  249.375;    0.000
669.242; 3789.600;  190.375;    0.000
669.354; 3827.600;  219.375;    0.000
669.467; 3787.600;  242.375;    0.000
669.580; 3801.600;  237.375;    0.000
669.693; 3850.600;  243.375;    0.000
669.806; 3824.600;  234.375;    0.000
669.918; 3767.600;  206.375;    0.000
670.031; 3793.600;  258.375;    0.000
670.144; 3738.600;  231.375;    0.000
670.256; 3724.600;  244.375;    0.000
670.369; 3815.600;  262.375;    0.000
670.482; 3725.600;  264.375;    0.000
670.594; 3712.600;  256.375;    0.000
670.707; 3814.600;  224.375;    0.000
670.820; 3667.600;  261.375;    0.000
670.932; 3661.600;  226.375;    0.000
671.045; 3792.600;  243.375;    0.000
671.157; 3693.600;  235.375;    0.000
671.270; 3704.600;  217.375;    0.000
671.382; 3707.600;  267.375;    0.000
671.495; 3634.600;  258.375;    0.000
671.607; 3619.600;  236.375;    0.000
671.720; 3604.600;  200.375;    0.000
671.832; 3501.600;  219.375;    0.000
671.944; 3579.600;  234.375;    0.000
672.057; 3590.600;  226.375;    0.000
672.169; 3651.600;  225.375;    0.000
672.281; 3509.600;  253.375;    0.000
672.394; 3644.600;  238.375;    0.000
672.506; 3633.600;  244.375;    0.000
672.618; 3548.600;  272.375;    0.000
672.731; 3589.600;  247.375;    0.000
672.843; 3512.600;  261.375;    0.000
672.955; 3509.600;  262.375;    0.000
673.067; 3550.600;  253.375;    0.000
673.180; 3575.600;  239.375;    0.000
673.292; 3512.600;  240.375;    0.000
673.404; 3543.600;  243.375;    0.000
673.516; 3440.600;  258.375;    0.000
673.628; 3548.600;  263.375;    0.000
673.740; 3491.600;  250.375;    0.000
673.852; 3469.600;  285.375;    0.000
673.964; 3497.600;  264.375;    0.000
674.076; 3365.600;  260.375;    0.000
674.188; 3381.600;  226.375;    0.000
674.300; 3453.600;  272.375;    0.000
674.412; 3430.600;  259.375;    0.000
674.524; 3460.600;  283.375;    0.000
674.636; 3368.600;  259.375;    0.000
674.748; 3452.600;  238.375;    0.000
674.860; 3468.600;  277.375;    0.000
674.972; 3452.600;  272.375;    0.000
675.084; 3367.600;  244.375;    0.000
675.196; 3351.600;  272.375;    0.000
675.307; 3431.600;  244.375;    0.000
675.419; 3399.600;  219.375;    0.000
675.531; 3385.600;  275.375;    0.000
675.643; 3377.600;  215.375;    0.000
675.755; 3343.600;  243.375;    0.000
675.866; 3335.600;  223.375;    0.000
675.978; 3321.600;  216.375;    0.000
676.090; 3342.600;  242.375;    0.000
676.201; 3286.600;  276.375;    0.000
676.313; 3323.600;  226.375;    0.000
676.425; 3383.600;  234.375;    0.000
676.536; 3248.600;  231.375;    0.000
676.648; 3306.600;  254.375;    0.000
676.759; 3322.600;  273.375;    0.000
676.871; 3221.600;  250.375;    0.000
676.983; 3263.600;  256.375;    0.000
677.094; 3187.600;  210.375;    0.000
677.206; 3276.600;  248.375;    0.000
677.317; 3186.600;  263.375;    0.000
677.429; 3310.600;  238.375;    0.000
677.540; 3221.600;  247.375;    0.000
677.651; 3157.600;  224.375;    0.000
677.763; 3153.600;  217.375;    0.000
677.874; 3218.600;  234.375;    0.000
677.986; 3096.600;  238.375;    0.000
678.097; 3128.600;  226.375;    0.000
678.208; 3194.600;  253.375;    0.000
678.320; 3180.600;  217.375;    0.000
678.431; 3134.600;  238.375;    0.000
678.542; 3151.600;  236.375;    0.000
678.653; 3119.600;  218.375;    0.000
678.765; 3148.600;  275.375;    0.000
678.876; 3095.600;  213.375;    0.000
678.987; 3080.600;  182.375;    0.000
679.098; 3111.600;  221.375;    0.000
679.209; 3135.600;  238.375;    0.000
679.320; 3055.600;  212.375;    0.000
679.432; 3103.600;  231.375;    0.000
679.543; 3075.600;  198.375;    0.000
679.654; 3147.600;  191.375;    0.000
679.765; 3011.600;  214.375;    0.000
679.876; 3019.600;  221.375;    0.000
679.987; 2995.600;  162.375;    0.000
680.098; 3061.600;  230.375;    0.000
680.209; 3081.600;  206.375;    0.000
680.320; 3037.600;  196.375;    0.000
680.431; 3079.600;  191.375;    0.000
680.542; 3047.600;  214.375;    0.000
680.653; 3066.600;  238.375;    0.000
680.763; 3014.600;  182.375;    0.000
680.874; 3052.600;  213.375;    0.000
680.985; 3019.600;  224.375;    0.000
681.096; 2953.600;  222.375;    0.000
681.207; 3072.600;  220.375;    0.000
681.318; 3022.600;  216.375;    0.000
681.428; 3069.600;  229.375;    0.000
681.539; 2921.600;  183.375;    0.000
681.650; 2966.600;  202.375;    0.000
681.760; 3021.600;  223.375;    0.000
681.871; 2978.600;  211.375;    0.000
681.982; 2966.600;  189.375;    0.000
682.093; 2934.600;  222.375;    0.000
682.203; 2974.600;  220.375;    0.000
682.314; 2958.600;  214.375;    0.000
682.424; 2998.600;  208.375;    0.000
682.535; 2976.600;  213.375;    0.000
682.646; 3080.600;  302.375;    0.000
682.756; 2924.600;  255.375;    0.000
682.867; 3004.600;  244.375;    0.000
682.977; 2928.600;  221.375;    0.000
683.088; 2925.600;  259.375;    0.000
683.198; 3007.600;  212.375;    0.000
683.308; 2917.600;  202.375;    0.000
683.419; 2999.600;  255.375;    0.000
683.529; 2973.600;  217.375;    0.000
683.640; 2906.600;  240.375;    0.000
683.750; 2943.600;  181.375;    0.000
683.860; 2934.600;  246.375;    0.000
683.971; 2943.600;  254.375;    0.000
684.081; 2986.600;  235.375;    0.000
684.191; 2970.600;  251.375;    0.000
684.301; 2949.600;  233.375;    0.000
684.412; 2938.600;  202.375;    0.000
684.522; 2961.600;  232.375;    0.000
684.632; 2942.600;  202.375;    0.000
684.742; 2926.600;  254.375;    0.000
684.852; 2926.600;  219.375;    0.000
684.963; 2888.600;  256.375;    0.000
685.073; 2980.600;  253.375;    0.000
685.183; 2976.600;  254.375;    0.000
685.293; 2850.600;  232.375;    0.000
685.403; 2862.600;  242.375;    0.000
685.513; 2911.600;  261.375;    0.000
685.623; 2965.600;  245.375;    0.000
685.733; 2863.600;  254.375;    0.000
685.843; 2924.600;  249.375;    0.000
685.953; 2936.600;  252.375;    0.000
686.063; 2921.600;  227.375;    0.000
686.173; 2918.600;  223.375;    0.000
686.283; 2909.600;  234.375;    0.000
686.393; 2879.600;  239.375;    0.000
686.503; 2943.600;  231.375;    0.000
686.612; 2906.600;  232.375;    0.000
686.722; 2908.600;  258.375;    0.000
686.832; 2946.600;  256.375;    0.000
686.942; 2873.600;  230.375;    0.000
687.052; 2821.600;  274.375;    0.000
687.161; 2882.600;  269.375;    0.000
687.271; 2917.600;  218.375;    0.000
687.381; 2880.600;  235.375;    0.000
687.491; 2784.600;  262.375;    0.000
687.600; 2868.600;  256.375;    0.000
687.710; 2868.600;  225.375;    0.000
687.820; 2912.600;  230.375;    0.000
687.929; 2777.600;  226.375;    0.000
688.039; 2873.600;  228.375;    0.000
688.148; 2887.600;  249.375;    0.000
688.258; 2849.600;  237.375;    0.000
688.367; 2835.600;  260.375;    0.000
688.477; 2768.600;  200.375;    0.000
688.586; 2824.600;  223.375;    0.000
688.696; 2871.600;  223.375;    0.000
688.805; 2796.600;  257.375;    0.000
688.915; 2763.600;  185.375;    0.000
689.024; 2881.600;  227.375;    0.000
689.134; 2833.600;  224.375;    0.000
689.243; 2743.600;  206.375;    0.000
689.352; 2773.600;  275.375;    0.000
689.462; 2807.600;  233.375;    0.000
689.571; 2794.600;  244.375;    0.000
689.680; 2834.600;  261.375;    0.000
689.790; 2743.600;  192.375;    0.000
689.899; 2780.600;  214.375;    0.000
690.008; 2791.600;  255.375;    0.000
690.117; 2718.600;  219.375;    0.000
690.227; 2750.600;  241.375;    0.000
690.336; 2799.600;  231.375;    0.000
690.445; 2839.600;  212.375;    0.000
690.554; 2817.600;  234.375;    0.000
690.663; 2766.600;  210.375;    0.000
690.772; 2756.600;  221.375;    0.000
690.881; 2853.600;  244.375;    0.000
690.990; 2775.600;  247.375;    0.000
691.099; 2802.600;  222.375;    0.000
691.209; 2810.600;  240.375;    0.000
691.318; 2785.600;  223.375;    0.000
691.427; 2768.600;  217.375;    0.000
691.536; 2743.600;  216.375;    0.000
691.644; 2710.600;  194.375;    0.000
691.753; 2738.600;  221.375;    0.000
691.862; 2792.600;  224.375;    0.000
691.971; 2707.600;  191.375;    0.000
692.080; 2797.600;  247.375;    0.000
692.189; 2702.600;  208.375;    0.000
692.298; 2752.600;  203.375;    0.000
692.406; 2775.600;  239.375;    0.000
692.515; 2651.600;  250.375;    0.000
692.624; 2792.600;  226.375;    0.000
692.733; 2654.600;  229.375;    0.000
692.842; 2743.600;  254.375;    0.000
692.950; 2737.600;  242.375;    0.000
693.059; 2711.600;  204.375;    0.000
693.168; 2769.600;  252.375;    0.000
693.276; 2734.600;  195.375;    0.000
693.385; 2735.600;  228.375;    0.000
693.494; 2744.600;  282.375;    0.000
693.602; 2705.600;  221.375;    0.000
693.711; 2756.600;  225.375;    0.000
693.819; 2724.600;  234.375;    0.000
693.928; 2759.600;  229.375;    0.000
694.036; 2701.600;  192.375;    0.000
694.145; 2736.600;  233.375;    0.000
694.253; 2669.600;  277.375;    0.000
694.362; 2707.600;  188.375;    0.000
694.470; 2725.600;  263.375;    0.000
694.579; 2784.600;  253.375;    0.000
694.687; 2725.600;  281.375;    0.000
694.795; 2740.600;  233.375;    0.000
694.904; 2723.600;  223.375;    0.000
695.012; 2694.600;  296.375;    0.000
695.120; 2659.600;  227.375;    0.000
695.229; 2710.600;  269.375;    0.000
695.337; 2719.600;  229.375;    0.000
695.445; 2751.600;  244.375;    0.000
695.553; 2708.600;  259.375;    0.000
695.662; 2733.600;  208.375;    0.000
695.770; 2730.600;  241.375;    0.000
695.878; 2731.600;  239.375;    0.000
695.986; 2725.600;  247.375;    0.000
696.094; 2645.600;  224.375;    0.000
696.202; 2710.600;  205.375;    0.000
696.310; 2704.600;  217.375;    0.000
696.419; 2643.600;  228.375;    0.000
696.527; 2558.600;  246.375;    0.000
696.635; 2700.600;  245.375;    0.000
696.743; 2732.600;  233.375;    0.000
696.851; 2679.600;  251.375;    0.000
696.959; 2667.600;  257.375;    0.000
697.067; 2784.600;  260.375;    0.000
697.174; 2707.600;  223.375;    0.000
697.282; 2641.600;  239.375;    0.000
697.390; 2705.600;  264.375;    0.000
697.498; 2609.600;  227.375;    0.000
697.606; 2675.600;  243.375;    0.000
697.714; 2667.600;  256.375;    0.000
697.822; 2658.600;  278.375;    0.000
697.929; 2628.600;  227.375;    0.000
698.037; 2628.600;  232.375;    0.000
698.145; 2711.600;  256.375;    0.000
698.253; 2669.600;  245.375;    0.000
698.360; 2650.600;  282.375;    0.000
698.468; 2665.600;  244.375;    0.000
698.576; 2587.600;  279.375;    0.000
698.683; 2715.600;  259.375;    0.000
698.791; 2652.600;  265.375;    0.000
698.899; 2694.600;  250.375;    0.000
699.006; 2646.600;  245.375;    0.000
699.114; 2641.600;  280.375;    0.000
699.221; 2623.600;  240.375;    0.000
699.329; 2677.600;  293.375;    0.000
699.436; 2666.600;  216.375;    0.000
699.544; 2586.600;  269.375;    0.000
699.651; 2572.600;  219.375;    0.000
699.759; 2643.600;  245.375;    0.000
699.866; 2632.600;  261.375;    0.000
699.974; 2640.600;  245.375;    0.000
700.081; 2564.600;  257.375;    0.000
700.188; 2685.600;  268.375;    0.000
700.296; 2661.600;  225.375;    0.000
700.403; 2689.600;  257.375;    0.000
700.510; 2591.600;  267.375;    0.000
700.618; 2595.600;  299.375;    0.000
700.725; 2528.600;  223.375;    0.000
700.832; 2584.600;  233.375;    0.000
700.940; 2608.600;  255.375;    0.000
701.047; 2587.600;  244.375;    0.000
701.154; 2587.600;  248.375;    0.000
701.261; 2535.600;  264.375;    0.000
701.368; 2631.600;  299.375;    0.000
701.475; 2607.600;  264.375;    0.000
701.582; 2607.600;  275.375;    0.000
701.690; 2617.600;  261.375;    0.000
701.797; 2621.600;  273.375;    0.000
701.904; 2623.600;  320.375;    0.000
702.011; 2683.600;  299.375;    0.000
702.118; 2579.600;  292.375;    0.000
702.225; 2600.600;  317.375;    0.000
702.332; 2594.600;  307.375;    0.000
702.439; 2585.600;  313.375;    0.000
702.546; 2655.600;  312.375;    0.000
702.652; 2627.600;  297.375;    0.000
702.759; 2679.600;  345.375;    0.000
702.866; 2740.600;  330.375;    0.000
702.973; 2648.600;  303.375;    0.000
703.080; 2643.600;  303.375;    0.000
703.187; 2605.600;  327.375;    0.000
703.294; 2589.600;  325.375;    0.000
703.400; 2389.600;  302.375;    0.000
703.507;  521.600;  344.375;    0.000
703.614;  293.600;  294.375;    0.000
703.720;  322.600;  322.375;    0.000
703.827;  326.600;  329.375;    0.000
703.934;  314.600;  318.375;    0.000
704.040;  312.600;  299.375;    0.000
704.147;  376.600;  352.375;    0.000
704.254;  322.600;  350.375;    0.000
704.360;  296.600;  347.375;    0.000
704.467;  288.600;  336.375;    0.000
704.573;  317.600;  344.375;    0.000
704.680;  335.600;  365.375;    0.000
704.786;  320.600;  332.375;    0.000
704.893;  345.600;  304.375;    0.000
704.999;  315.600;  299.375;    0.000
705.106;  344.600;  365.375;    0.000

