
Integration time [ms]:   1.000
Averaging Nr. [scans]: 1
Smoothing Nr. [pixels]: 0
Data measured with spectrometer [name]: NIR
Wave   ;Sample   ;Dark     ;Reference
[nm]   ;[counts] ;[counts] ;[counts] 

691.496;  -79.300;  163.125;    0.000
691.696;  -37.300;  208.125;    0.000
691.896;  -83.300;  111.125;    0.000
692.096;  -12.300;  178.125;    0.000
692.296;  -87.300;   93.125;    0.000
692.496;  -65.300;  161.125;    0.000
692.695;  -86.300;  135.125;    0.000
692.895;  -33.300;  179.125;    0.000
693.095; -105.300;  158.125;    0.000
693.295;   16.700;  168.125;    0.000
693.495;  -22.300;  170.125;    0.000
693.695;  -60.300;  155.125;    0.000
693.894;  -52.300;  151.125;    0.000
694.094;  -66.300;  164.125;    0.000
694.294;  -57.300;  129.125;    0.000
694.494;   75.700;  170.125;    0.000
694.693; 1172.700;  137.125;    0.000
694.893; 1262.700;  163.125;    0.000
695.093; 1243.700;  121.125;    0.000
695.293; 1269.700;  144.125;    0.000
695.492; 1238.700;   88.125;    0.000
695.692; 1240.700;  148.125;    0.000
695.891; 1327.700;  125.125;    0.000
696.091; 1296.700;  184.125;    0.000
696.291; 1343.700;  153.125;    0.000
696.490; 1307.700;  131.125;    0.000
696.690; 1370.700;  123.125;    0.000
696.889; 1342.700;  180.125;    0.000
697.089; 1290.700;  147.125;    0.000
697.288; 1350.700;  164.125;    0.000
697.488; 1312.700;  133.125;    0.000
697.687; 1321.700;  153.125;    0.000
697.887; 1311.700;  119.125;    0.000
698.086; 1313.700;  143.125;    0.000
698.286; 1347.700;  125.125;    0.000
698.485; 1316.700;  120.125;    0.000
698.684; 1313.700;  116.125;    0.000
698.884; 1356.700;  131.125;    0.000
699.083; 1265.700;  115.125;    0.000
699.282; 1324.700;  144.125;    0.000
699.482; 1328.700;  109.125;    0.000
699.681; 1361.700;  115.125;    0.000
699.880; 1328.700;  125.125;    0.000
700.080; 1383.700;  139.125;    0.000
700.279; 1278.700;  111.125;    0.000
700.478; 1370.700;  146.125;    0.000
700.677; 1315.700;  131.125;    0.000
700.877; 1348.700;  156.125;    0.000
701.076; 1410.700;  153.125;    0.000
701.275; 1385.700;  123.125;    0.000
701.474; 1385.700;  150.125;    0.000
701.673; 1340.700;   97.125;    0.000
701.872; 1350.700;  139.125;    0.000
702.071; 1359.700;  108.125;    0.000
702.271; 1365.700;  125.125;    0.000
702.470; 1397.700;  108.125;    0.000
702.669; 1402.700;  102.125;    0.000
702.868; 1375.700;  153.125;    0.000
703.067; 1400.700;  145.125;    0.000
703.266; 1367.700;   96.125;    0.000
703.465; 1317.700;  165.125;    0.000
703.664; 1349.700;  106.125;    0.000
703.863; 1416.700;  144.125;    0.000
704.062; 1384.700;   86.125;    0.000
704.260; 1356.700;   99.125;    0.000
704.459; 1383.700;  112.125;    0.000
704.658; 1367.700;  106.125;    0.000
704.857; 1394.700;  129.125;    0.000
705.056; 1368.700;   98.125;    0.000
705.255; 1402.700;   97.125;    0.000
705.454; 1352.700;  101.125;    0.000
705.652; 1370.700;  142.125;    0.000
705.851; 1329.700;  100.125;    0.000
706.050; 1486.700;  162.125;    0.000
706.249; 1303.700;  146.125;    0.000
706.447; 1330.700;  120.125;    0.000
706.646; 1393.700;  114.125;    0.000
706.845; 1411.700;  117.125;    0.000
707.043; 1413.700;  136.125;    0.000
707.242; 1398.700;   90.125;    0.000
707.441; 1397.700;  131.125;    0.000
707.639; 1441.700;  120.125;    0.000
707.838; 1406.700;  122.125;    0.000
708.037; 1401.700;  109.125;    0.000
708.235; 1455.700;  122.125;    0.000
708.434; 1373.700;  109.125;    0.000
708.632; 1409.700;   47.125;    0.000
708.831; 1407.700;  122.125;    0.000
709.029; 1351.700;  130.125;    0.000
709.228; 1442.700;  112.125;    0.000
709.426; 1439.700;  128.125;    0.000
709.625; 1413.700;  129.125;    0.000
709.823; 1378.700;  130.125;    0.000
710.022; 1398.700;   90.125;    0.000
710.220; 1459.700;  131.125;    0.000
710.418; 1550.700;  133.125;    0.000
710.617; 1473.700;   82.125;    0.000
710.815; 1403.700;   90.125;    0.000
711.013; 1435.700;   86.125;    0.000
711.212; 1440.700;  117.125;    0.000
711.410; 1427.700;  106.125;    0.000
711.608; 1511.700;  138.125;    0.000
711.807; 1502.700;  116.125;    0.000
712.005; 1472.700;   82.125;    0.000
712.203; 1472.700;   90.125;    0.000
712.401; 1440.700;  124.125;    0.000
712.599; 1498.700;   64.125;    0.000
712.798; 1539.700;  113.125;    0.000
712.996; 1464.700;  100.125;    0.000
713.194; 1480.700;  130.125;    0.000
713.392; 1478.700;   89.125;    0.000
713.590; 1495.700;  105.125;    0.000
713.788; 1468.700;  100.125;    0.000
713.986; 1482.700;  117.125;    0.000
714.184; 1544.700;   72.125;    0.000
714.382; 1469.700;   88.125;    0.000
714.580; 1562.700;   88.125;    0.000
714.778; 1500.700;  129.125;    0.000
714.976; 1535.700;   90.125;    0.000
715.174; 1564.700;  119.125;    0.000
715.372; 1705.700;  117.125;    0.000
715.570; 1753.700;  101.125;    0.000
715.768; 1756.700;  122.125;    0.000
715.966; 1744.700;  114.125;    0.000
716.164; 1790.700;  135.125;    0.000
716.362; 1719.700;  126.125;    0.000
716.560; 1711.700;  126.125;    0.000
716.758; 1714.700;   98.125;    0.000
716.955; 1658.700;   76.125;    0.000
717.153; 1619.700;   45.125;    0.000
717.351; 1692.700;  106.125;    0.000
717.549; 1718.700;  108.125;    0.000
717.746; 1605.700;   66.125;    0.000
717.944; 1619.700;  127.125;    0.000
718.142; 1636.700;  148.125;    0.000
718.340; 1672.700;   94.125;    0.000
718.537; 1639.700;  107.125;    0.000
718.735; 1665.700;  130.125;    0.000
718.933; 1680.700;  111.125;    0.000
719.130; 1664.700;  107.125;    0.000
719.328; 1626.700;  128.125;    0.000
719.525; 1630.700;  141.125;    0.000
719.723; 1621.700;  122.125;    0.000
719.920; 1642.700;   85.125;    0.000
720.118; 1604.700;  115.125;    0.000
720.316; 1625.700;  153.125;    0.000
720.513; 1675.700;  120.125;    0.000
720.711; 1659.700;  134.125;    0.000
720.908; 1603.700;  126.125;    0.000
721.105; 1656.700;  119.125;    0.000
721.303; 1637.700;  112.125;    0.000
721.500; 1632.700;  125.125;    0.000
721.698; 1674.700;   94.125;    0.000
721.895; 1664.700;  118.125;    0.000
722.092; 1578.700;   77.125;    0.000
722.290; 1647.700;  135.125;    0.000
722.487; 1622.700;  154.125;    0.000
722.684; 1637.700;  122.125;    0.000
722.882; 1568.700;   90.125;    0.000
723.079; 1657.700;  132.125;    0.000
723.276; 1736.700;   95.125;    0.000
723.473; 1627.700;  106.125;    0.000
723.671; 1615.700;   80.125;    0.000
723.868; 1626.700;  112.125;    0.000
724.065; 1657.700;  107.125;    0.000
724.262; 1724.700;  119.125;    0.000
724.459; 1594.700;   80.125;    0.000
724.656; 1676.700;  109.125;    0.000
724.854; 1709.700;  107.125;    0.000
725.051; 1751.700;  103.125;    0.000
725.248; 1622.700;  101.125;    0.000
725.445; 1727.700;   93.125;    0.000
725.642; 1594.700;   92.125;    0.000
725.839; 1687.700;  157.125;    0.000
726.036; 1626.700;   71.125;    0.000
726.233; 1629.700;   80.125;    0.000
726.430; 1714.700;  146.125;    0.000
726.627; 1685.700;  103.125;    0.000
726.824; 1642.700;   46.125;    0.000
727.021; 1759.700;  149.125;    0.000
727.218; 1667.700;   87.125;    0.000
727.414; 1659.700;  112.125;    0.000
727.611; 1637.700;  111.125;    0.000
727.808; 1687.700;  122.125;    0.000
728.005; 1666.700;   58.125;    0.000
728.202; 1694.700;  129.125;    0.000
728.399; 1702.700;  111.125;    0.000
728.595; 1707.700;   93.125;    0.000
728.792; 1692.700;   78.125;    0.000
728.989; 1609.700;  104.125;    0.000
729.186; 1621.700;  110.125;    0.000
729.382; 1669.700;   93.125;    0.000
729.579; 1674.700;  102.125;    0.000
729.776; 1750.700;  112.125;    0.000
729.972; 1677.700;  101.125;    0.000
730.169; 1801.700;  150.125;    0.000
730.366; 1673.700;   92.125;    0.000
730.562; 1739.700;   74.125;    0.000
730.759; 1701.700;   97.125;    0.000
730.955; 1707.700;   86.125;    0.000
731.152; 1735.700;   88.125;    0.000
731.348; 1685.700;  117.125;    0.000
731.545; 1686.700;   62.125;    0.000
731.741; 1757.700;   84.125;    0.000
731.938; 1814.700;  108.125;    0.000
732.134; 1704.700;  115.125;    0.000
732.331; 1745.700;   88.125;    0.000
732.527; 1815.700;   96.125;    0.000
732.724; 1729.700;  103.125;    0.000
732.920; 1737.700;   93.125;    0.000
733.116; 1746.700;  109.125;    0.000
733.313; 1751.700;   77.125;    0.000
733.509; 1694.700;   81.125;    0.000
733.705; 1677.700;  141.125;    0.000
733.902; 1751.700;   88.125;    0.000
734.098; 1823.700;   56.125;    0.000
734.294; 1768.700;  122.125;    0.000
734.490; 1815.700;  102.125;    0.000
734.687; 1763.700;   70.125;    0.000
734.883; 1694.700;   73.125;    0.000
735.079; 1716.700;   65.125;    0.000
735.275; 1842.700;  112.125;    0.000
735.471; 1768.700;  124.125;    0.000
735.667; 1828.700;   94.125;    0.000
735.863; 1749.700;  106.125;    0.000
736.060; 1762.700;  106.125;    0.000
736.256; 1815.700;   95.125;    0.000
736.452; 1818.700;  103.125;    0.000
736.648; 1744.700;  106.125;    0.000
736.844; 1813.700;   98.125;    0.000
737.040; 1897.700;  118.125;    0.000
737.236; 1824.700;   95.125;    0.000
737.432; 1781.700;   59.125;    0.000
737.628; 1826.700;  120.125;    0.000
737.824; 1855.700;   78.125;    0.000
738.019; 1739.700;   98.125;    0.000
738.215; 1816.700;  127.125;    0.000
738.411; 1909.700;  111.125;    0.000
738.607; 1889.700;   69.125;    0.000
738.803; 1768.700;   40.125;    0.000
738.999; 1900.700;  128.125;    0.000
739.195; 1866.700;   81.125;    0.000
739.390; 1971.700;   97.125;    0.000
739.586; 1881.700;  100.125;    0.000
739.782; 1930.700;  135.125;    0.000
739.978; 1820.700;  121.125;    0.000
740.173; 1859.700;   92.125;    0.000
740.369; 1926.700;   92.125;    0.000
740.565; 1955.700;  119.125;    0.000
740.760; 1931.700;  139.125;    0.000
740.956; 1894.700;  134.125;    0.000
741.152; 1922.700;  107.125;    0.000
741.347; 1919.700;   63.125;    0.000
741.543; 1988.700;   99.125;    0.000
741.738; 2076.700;  119.125;    0.000
741.934; 2003.700;  156.125;    0.000
742.129; 2003.700;   87.125;    0.000
742.325; 2362.700;  143.125;    0.000
742.520; 2454.700;  109.125;    0.000
742.716; 2446.700;  135.125;    0.000
742.911; 2210.700;   77.125;    0.000
743.107; 2260.700;  117.125;    0.000
743.302; 2145.700;   93.125;    0.000
743.498; 2255.700;  118.125;    0.000
743.693; 2283.700;   95.125;    0.000
743.888; 2417.700;  122.125;    0.000
744.084; 2568.700;  104.125;    0.000
744.279; 2987.700;   94.125;    0.000
744.474; 3070.700;  138.125;    0.000
744.670; 2828.700;  113.125;    0.000
744.865; 2679.700;  116.125;    0.000
745.060; 2480.700;   89.125;    0.000
745.255; 2556.700;  144.125;    0.000
745.451; 2481.700;   98.125;    0.000
745.646; 2448.700;  110.125;    0.000
745.841; 2366.700;   87.125;    0.000
746.036; 2418.700;   98.125;    0.000
746.231; 2472.700;  153.125;    0.000
746.426; 2439.700;   90.125;    0.000
746.622; 2882.700;  154.125;    0.000
746.817; 3489.700;  111.125;    0.000
747.012; 3857.700;  110.125;    0.000
747.207; 3612.700;   76.125;    0.000
747.402; 3302.700;   94.125;    0.000
747.597; 3051.700;   68.125;    0.000
747.792; 2981.700;  125.125;    0.000
747.987; 2847.700;   92.125;    0.000
748.182; 2812.700;  113.125;    0.000
748.377; 2659.700;   72.125;    0.000
748.572; 2664.700;  135.125;    0.000
748.767; 2567.700;   98.125;    0.000
748.961; 2420.700;  123.125;    0.000
749.156; 2408.700;   96.125;    0.000
749.351; 2346.700;  121.125;    0.000
749.546; 2288.700;   95.125;    0.000
749.741; 2282.700;  144.125;    0.000
749.936; 2248.700;  105.125;    0.000
750.130; 2222.700;  101.125;    0.000
750.325; 2171.700;  126.125;    0.000
750.520; 2232.700;  113.125;    0.000
750.715; 2205.700;  135.125;    0.000
750.909; 2160.700;  138.125;    0.000
751.104; 2125.700;   96.125;    0.000
751.299; 2186.700;  118.125;    0.000
751.493; 2098.700;  124.125;    0.000
751.688; 2115.700;  131.125;    0.000
751.882; 2086.700;   96.125;    0.000
752.077; 2077.700;  123.125;    0.000
752.272; 2077.700;  112.125;    0.000
752.466; 2059.700;  143.125;    0.000
752.661; 2006.700;  107.125;    0.000
752.855; 2003.700;   97.125;    0.000
753.050; 2095.700;  125.125;    0.000
753.244; 2027.700;  161.125;    0.000
753.439; 1972.700;  101.125;    0.000
753.633; 1909.700;  129.125;    0.000
753.828; 2104.700;  114.125;    0.000
754.022; 1922.700;  118.125;    0.000
754.216; 2070.700;  126.125;    0.000
754.411; 1986.700;  148.125;    0.000
754.605; 1925.700;  100.125;    0.000
754.799; 2032.700;  146.125;    0.000
754.994; 2007.700;  116.125;    0.000
755.188; 2039.700;  146.125;    0.000
755.382; 1933.700;  103.125;    0.000
755.576; 1947.700;  119.125;    0.000
755.771; 1902.700;  100.125;    0.000
755.965; 1966.700;  129.125;    0.000
756.159; 2012.700;  100.125;    0.000
756.353; 1999.700;  153.125;    0.000
756.547; 1990.700;  113.125;    0.000
756.742; 2061.700;  129.125;    0.000
756.936; 1955.700;   70.125;    0.000
757.130; 1982.700;   91.125;    0.000
757.324; 2044.700;   92.125;    0.000
757.518; 1953.700;  128.125;    0.000
757.712; 1931.700;  146.125;    0.000
757.906; 1962.700;  114.125;    0.000
758.100; 2019.700;  153.125;    0.000
758.294; 1994.700;  133.125;    0.000
758.488; 2095.700;  149.125;    0.000
758.682; 1966.700;  132.125;    0.000
758.876; 2043.700;  128.125;    0.000
759.070; 1858.700;  178.125;    0.000
759.264; 1973.700;   98.125;    0.000
759.458; 1954.700;  168.125;    0.000
759.651; 1873.700;  131.125;    0.000
759.845; 2008.700;  133.125;    0.000
760.039; 1973.700;  120.125;    0.000
760.233; 1883.700;  116.125;    0.000
760.427; 1995.700;  121.125;    0.000
760.620; 2009.700;  163.125;    0.000
760.814; 1936.700;  106.125;    0.000
761.008; 1893.700;  119.125;    0.000
761.202; 1916.700;  121.125;    0.000
761.395; 2048.700;  136.125;    0.000
761.589; 1977.700;  111.125;    0.000
761.783; 1978.700;  116.125;    0.000
761.976; 1981.700;  139.125;    0.000
762.170; 1998.700;  140.125;    0.000
762.363; 1954.700;  115.125;    0.000
762.557; 1969.700;  129.125;    0.000
762.750; 1981.700;   85.125;    0.000
762.944; 1985.700;  107.125;    0.000
763.138; 1977.700;   99.125;    0.000
763.331; 1997.700;   97.125;    0.000
763.524; 2011.700;  100.125;    0.000
763.718; 2097.700;  130.125;    0.000
763.911; 1983.700;  127.125;    0.000
764.105; 1945.700;   69.125;    0.000
764.298; 1983.700;   94.125;    0.000
764.492; 1986.700;  129.125;    0.000
764.685; 1999.700;  114.125;    0.000
764.878; 1984.700;  145.125;    0.000
765.072; 2023.700;  124.125;    0.000
765.265; 2034.700;  124.125;    0.000
765.458; 2029.700;  108.125;    0.000
765.651; 2064.700;  132.125;    0.000
765.845; 2120.700;  106.125;    0.000
766.038; 2086.700;  155.125;    0.000
766.231; 2209.700;  153.125;    0.000
766.424; 3035.700;  165.125;    0.000
766.617; 3012.700;   85.125;    0.000
766.811; 2208.700;  140.125;    0.000
767.004; 2027.700;  151.125;    0.000
767.197; 2155.700;  178.125;    0.000
767.390; 2020.700;  112.125;    0.000
767.583; 2116.700;  134.125;    0.000
767.776; 2014.700;  101.125;    0.000
767.969; 2088.700;   99.125;    0.000
768.162; 2134.700;  152.125;    0.000
768.355; 2142.700;  115.125;    0.000
768.548; 2062.700;  154.125;    0.000
768.741; 2025.700;  124.125;    0.000
768.934; 2094.700;  129.125;    0.000
769.127; 2103.700;  137.125;    0.000
769.320; 2081.700;  115.125;    0.000
769.513; 2173.700;  144.125;    0.000
769.706; 2349.700;  107.125;    0.000
769.898; 3115.700;  134.125;    0.000
770.091; 2594.700;  128.125;    0.000
770.284; 2163.700;   97.125;    0.000
770.477; 2201.700;  135.125;    0.000
770.670; 2227.700;  137.125;    0.000
770.862; 2150.700;  112.125;    0.000
771.055; 2141.700;  127.125;    0.000
771.248; 2220.700;  116.125;    0.000
771.441; 2191.700;  101.125;    0.000
771.633; 2184.700;  130.125;    0.000
771.826; 2223.700;  147.125;    0.000
772.018; 2225.700;  117.125;    0.000
772.211; 2288.700;  141.125;    0.000
772.404; 2338.700;  104.125;    0.000
772.596; 2312.700;  128.125;    0.000
772.789; 2302.700;  131.125;    0.000
772.981; 2427.700;  134.125;    0.000
773.174; 2384.700;  108.125;    0.000
773.366; 2409.700;  153.125;    0.000
773.559; 2356.700;  137.125;    0.000
773.751; 2459.700;  119.125;    0.000
773.944; 2574.700;  148.125;    0.000
774.136; 2546.700;  155.125;    0.000
774.329; 2535.700;  126.125;    0.000
774.521; 2738.700;  116.125;    0.000
774.713; 2634.700;  119.125;    0.000
774.906; 2753.700;  179.125;    0.000
775.098; 2909.700;  127.125;    0.000
775.290; 2956.700;  146.125;    0.000
775.483; 3075.700;  123.125;    0.000
775.675; 3217.700;  119.125;    0.000
775.867; 3401.700;  119.125;    0.000
776.059; 3571.700;  137.125;    0.000
776.251; 4010.700;  154.125;    0.000
776.444; 4456.700;  101.125;    0.000
776.636; 5129.700;  153.125;    0.000
776.828; 6077.700;  127.125;    0.000
777.020; 8382.700;  140.125;    0.000
777.212;12225.700;  160.125;    0.000
777.404;13704.700;  170.125;    0.000
777.596;12967.700;  136.125;    0.000
777.788; 9623.700;  137.125;    0.000
777.980; 7467.700;  129.125;    0.000
778.172; 6167.700;  139.125;    0.000
778.364; 5446.700;  124.125;    0.000
778.556; 4936.700;  163.125;    0.000
778.748; 4452.700;  142.125;    0.000
778.940; 4068.700;  178.125;    0.000
779.132; 3846.700;  159.125;    0.000
779.324; 3515.700;  109.125;    0.000
779.516; 3318.700;  143.125;    0.000
779.708; 3150.700;  158.125;    0.000
779.900; 2988.700;  142.125;    0.000
780.091; 2973.700;  131.125;    0.000
780.283; 2840.700;  176.125;    0.000
780.475; 2815.700;  151.125;    0.000
780.667; 2733.700;  120.125;    0.000
780.859; 2678.700;  134.125;    0.000
781.050; 2539.700;  183.125;    0.000
781.242; 2538.700;   95.125;    0.000
781.434; 2468.700;  127.125;    0.000
781.625; 2461.700;  163.125;    0.000
781.817; 2441.700;  170.125;    0.000
782.008; 2418.700;  123.125;    0.000
782.200; 2319.700;  141.125;    0.000
782.392; 2232.700;  149.125;    0.000
782.583; 2245.700;  155.125;    0.000
782.775; 2291.700;  140.125;    0.000
782.966; 2307.700;  167.125;    0.000
783.158; 2218.700;  164.125;    0.000
783.349; 2162.700;  174.125;    0.000
783.541; 2175.700;  141.125;    0.000
783.732; 2166.700;  115.125;    0.000
783.924; 2232.700;  135.125;    0.000
784.115; 2111.700;  157.125;    0.000
784.306; 2115.700;  102.125;    0.000
784.498; 2162.700;  124.125;    0.000
784.689; 2091.700;  171.125;    0.000
784.880; 2076.700;  165.125;    0.000
785.072; 2058.700;  152.125;    0.000
785.263; 2056.700;  146.125;    0.000
785.454; 2051.700;  145.125;    0.000
785.645; 1994.700;  127.125;    0.000
785.837; 2006.700;  138.125;    0.000
786.028; 2075.700;  151.125;    0.000
786.219; 2094.700;  142.125;    0.000
786.410; 2010.700;  140.125;    0.000
786.601; 1969.700;  137.125;    0.000
786.792; 2079.700;  158.125;    0.000
786.984; 2056.700;  139.125;    0.000
787.175; 1999.700;  140.125;    0.000
787.366; 1963.700;  145.125;    0.000
787.557; 2093.700;  156.125;    0.000
787.748; 2000.700;  148.125;    0.000
787.939; 2040.700;  157.125;    0.000
788.130; 2086.700;  179.125;    0.000
788.321; 2008.700;  142.125;    0.000
788.512; 2081.700;  167.125;    0.000
788.703; 2086.700;  145.125;    0.000
788.894; 2064.700;  132.125;    0.000
789.084; 2043.700;  113.125;    0.000
789.275; 2024.700;  134.125;    0.000
789.466; 2119.700;  151.125;    0.000
789.657; 2111.700;  138.125;    0.000
789.848; 2064.700;  145.125;    0.000
790.039; 2014.700;  130.125;    0.000
790.229; 1968.700;  140.125;    0.000
790.420; 2088.700;  135.125;    0.000
790.611; 2048.700;  156.125;    0.000
790.801; 1990.700;   64.125;    0.000
790.992; 2177.700;  150.125;    0.000
791.183; 1982.700;  177.125;    0.000
791.373; 2114.700;   91.125;    0.000
791.564; 2004.700;   85.125;    0.000
791.755; 2009.700;  125.125;    0.000
791.945; 2067.700;   94.125;    0.000
792.136; 1895.700;   98.125;    0.000
792.326; 1999.700;  105.125;    0.000
792.517; 2076.700;  136.125;    0.000
792.707; 2125.700;  140.125;    0.000
792.898; 2080.700;  164.125;    0.000
793.088; 2108.700;  116.125;    0.000
793.279; 2110.700;  112.125;    0.000
793.469; 2046.700;  105.125;    0.000
793.660; 2111.700;  161.125;    0.000
793.850; 2100.700;  133.125;    0.000
794.040; 2232.700;  121.125;    0.000
794.231; 2221.700;  115.125;    0.000
794.421; 2423.700;  152.125;    0.000
794.611; 2644.700;  132.125;    0.000
794.802; 2878.700;  144.125;    0.000
794.992; 3014.700;  142.125;    0.000
795.182; 3153.700;  179.125;    0.000
795.372; 2950.700;  167.125;    0.000
795.563; 2764.700;  149.125;    0.000
795.753; 2557.700;  117.125;    0.000
795.943; 2447.700;  146.125;    0.000
796.133; 2309.700;  119.125;    0.000
796.323; 2247.700;  141.125;    0.000
796.513; 2330.700;  134.125;    0.000
796.703; 2131.700;  116.125;    0.000
796.893; 2142.700;  120.125;    0.000
797.083; 2183.700;  131.125;    0.000
797.273; 2100.700;  118.125;    0.000
797.463; 2043.700;  130.125;    0.000
797.653; 2074.700;   87.125;    0.000
797.843; 1999.700;  123.125;    0.000
798.033; 2046.700;  115.125;    0.000
798.223; 1886.700;  142.125;    0.000
798.413; 1970.700;  148.125;    0.000
798.603; 1919.700;  147.125;    0.000
798.793; 1896.700;  107.125;    0.000
798.983; 1859.700;  121.125;    0.000
799.172; 1813.700;  120.125;    0.000
799.362; 1845.700;  145.125;    0.000
799.552; 1800.700;  101.125;    0.000
799.742; 1830.700;  149.125;    0.000
799.932; 1804.700;  104.125;    0.000
800.121; 1841.700;  175.125;    0.000
800.311; 1753.700;  132.125;    0.000
800.501; 1838.700;  118.125;    0.000
800.690; 1901.700;  162.125;    0.000
800.880; 1738.700;  141.125;    0.000
801.070; 1741.700;  151.125;    0.000
801.259; 1789.700;  167.125;    0.000
801.449; 1699.700;  108.125;    0.000
801.638; 1737.700;  176.125;    0.000
801.828; 1741.700;  118.125;    0.000
802.017; 1795.700;  179.125;    0.000
802.207; 1701.700;  127.125;    0.000
802.396; 1712.700;  167.125;    0.000
802.586; 1713.700;  129.125;    0.000
802.775; 1757.700;  142.125;    0.000
802.965; 1730.700;  147.125;    0.000
803.154; 1733.700;  179.125;    0.000
803.343; 1714.700;  117.125;    0.000
803.533; 1713.700;  120.125;    0.000
803.722; 1635.700;  122.125;    0.000
803.911; 1647.700;  155.125;    0.000
804.101; 1669.700;  147.125;    0.000
804.290; 1625.700;  160.125;    0.000
804.479; 1687.700;  139.125;    0.000
804.668; 1678.700;  180.125;    0.000
804.857; 1688.700;  131.125;    0.000
805.047; 1651.700;  119.125;    0.000
805.236; 1715.700;  139.125;    0.000
805.425; 1680.700;  163.125;    0.000
805.614; 1729.700;  103.125;    0.000
805.803; 1688.700;  133.125;    0.000
805.992; 1588.700;  147.125;    0.000
806.181; 1680.700;  109.125;    0.000
806.370; 1688.700;  133.125;    0.000
806.559; 1617.700;  119.125;    0.000
806.748; 1614.700;  144.125;    0.000
806.937; 1692.700;  147.125;    0.000
807.126; 1666.700;  134.125;    0.000
807.315; 1696.700;  132.125;    0.000
807.504; 1615.700;  141.125;    0.000
807.693; 1663.700;  145.125;    0.000
807.882; 1622.700;   91.125;    0.000
808.071; 1609.700;  116.125;    0.000
808.260; 1608.700;  105.125;    0.000
808.448; 1634.700;  184.125;    0.000
808.637; 1696.700;  146.125;    0.000
808.826; 1663.700;  153.125;    0.000
809.015; 1585.700;  113.125;    0.000
809.203; 1648.700;  166.125;    0.000
809.392; 1653.700;  117.125;    0.000
809.581; 1700.700;  186.125;    0.000
809.770; 1606.700;  122.125;    0.000
809.958; 1663.700;  140.125;    0.000
810.147; 1664.700;  130.125;    0.000
810.335; 1617.700;  112.125;    0.000
810.524; 1656.700;  106.125;    0.000
810.713; 1697.700;  154.125;    0.000
810.901; 1682.700;  131.125;    0.000
811.090; 1700.700;  164.125;    0.000
811.278; 1639.700;  159.125;    0.000
811.467; 1690.700;  194.125;    0.000
811.655; 1719.700;  164.125;    0.000
811.844; 1689.700;  149.125;    0.000
812.032; 1698.700;  169.125;    0.000
812.220; 1698.700;  163.125;    0.000
812.409; 1691.700;  134.125;    0.000
812.597; 1648.700;  165.125;    0.000
812.785; 1681.700;  180.125;    0.000
812.974; 1627.700;  166.125;    0.000
813.162; 1687.700;  171.125;    0.000
813.350; 1728.700;  142.125;    0.000
813.539; 1606.700;  126.125;    0.000
813.727; 1685.700;  153.125;    0.000
813.915; 1650.700;  138.125;    0.000
814.103; 1714.700;  191.125;    0.000
814.291; 1628.700;  142.125;    0.000
814.479; 1639.700;  156.125;    0.000
814.668; 1747.700;  152.125;    0.000
814.856; 1689.700;  150.125;    0.000
815.044; 1699.700;  165.125;    0.000
815.232; 1756.700;  172.125;    0.000
815.420; 1786.700;  147.125;    0.000
815.608; 1680.700;  143.125;    0.000
815.796; 1703.700;  126.125;    0.000
815.984; 1754.700;  152.125;    0.000
816.172; 1712.700;  129.125;    0.000
816.360; 1725.700;  177.125;    0.000
816.548; 1770.700;  141.125;    0.000
816.736; 1730.700;  142.125;    0.000
816.924; 1779.700;  161.125;    0.000
817.111; 1888.700;  138.125;    0.000
817.299; 1839.700;  112.125;    0.000
817.487; 1901.700;  180.125;    0.000
817.675; 1921.700;  138.125;    0.000
817.863; 2106.700;  172.125;    0.000
818.050; 2170.700;  142.125;    0.000
818.238; 2548.700;  151.125;    0.000
818.426; 3193.700;  129.125;    0.000
818.613; 3301.700;  124.125;    0.000
818.801; 3405.700;  209.125;    0.000
818.989; 3441.700;  178.125;    0.000
819.176; 3056.700;  155.125;    0.000
819.364; 3131.700;  174.125;    0.000
819.552; 3467.700;  131.125;    0.000
819.739; 2827.700;  184.125;    0.000
819.927; 2631.700;  132.125;    0.000
820.114; 2620.700;  173.125;    0.000
820.302; 2524.700;  140.125;    0.000
820.489; 2570.700;  133.125;    0.000
820.677; 2568.700;  167.125;    0.000
820.864; 2566.700;  161.125;    0.000
821.052; 2846.700;  134.125;    0.000
821.239; 3146.700;  149.125;    0.000
821.426; 3473.700;  160.125;    0.000
821.614; 4310.700;  143.125;    0.000
821.801; 4637.700;  118.125;    0.000
821.988; 4165.700;  154.125;    0.000
822.176; 4223.700;  112.125;    0.000
822.363; 4333.700;  131.125;    0.000
822.550; 3915.700;  131.125;    0.000
822.737; 3519.700;  104.125;    0.000
822.924; 3389.700;  160.125;    0.000
823.112; 3180.700;  161.125;    0.000
823.299; 2993.700;  169.125;    0.000
823.486; 2922.700;  129.125;    0.000
823.673; 2658.700;  135.125;    0.000
823.860; 2647.700;  169.125;    0.000
824.047; 2732.700;  124.125;    0.000
824.234; 2991.700;  160.125;    0.000
824.421; 3055.700;  114.125;    0.000
824.608; 2737.700;  191.125;    0.000
824.795; 2516.700;  160.125;    0.000
824.982; 2390.700;  139.125;    0.000
825.169; 2276.700;  121.125;    0.000
825.356; 2202.700;  148.125;    0.000
825.543; 2047.700;  167.125;    0.000
825.730; 2012.700;  103.125;    0.000
825.917; 1971.700;  113.125;    0.000
826.104; 1968.700;  188.125;    0.000
826.290; 1889.700;  193.125;    0.000
826.477; 1864.700;  175.125;    0.000
826.664; 1818.700;  151.125;    0.000
826.851; 1796.700;  122.125;    0.000
827.038; 1804.700;  121.125;    0.000
827.224; 1739.700;  124.125;    0.000
827.411; 1742.700;  155.125;    0.000
827.598; 1675.700;  127.125;    0.000
827.784; 1714.700;  140.125;    0.000
827.971; 1650.700;  114.125;    0.000
828.157; 1590.700;  135.125;    0.000
828.344; 1573.700;  173.125;    0.000
828.531; 1592.700;  113.125;    0.000
828.717; 1645.700;  137.125;    0.000
828.904; 1535.700;  158.125;    0.000
829.090; 1573.700;  199.125;    0.000
829.277; 1569.700;  156.125;    0.000
829.463; 1570.700;  154.125;    0.000
829.650; 1457.700;  174.125;    0.000
829.836; 1528.700;  136.125;    0.000
830.022; 1589.700;  143.125;    0.000
830.209; 1507.700;  157.125;    0.000
830.395; 1525.700;  156.125;    0.000
830.581; 1403.700;  148.125;    0.000
830.768; 1494.700;  169.125;    0.000
830.954; 1457.700;  169.125;    0.000
831.140; 1536.700;  124.125;    0.000
831.327; 1437.700;  157.125;    0.000
831.513; 1450.700;  163.125;    0.000
831.699; 1479.700;  176.125;    0.000
831.885; 1473.700;  154.125;    0.000
832.071; 1464.700;  159.125;    0.000
832.257; 1377.700;  142.125;    0.000
832.444; 1399.700;  159.125;    0.000
832.630; 1430.700;  129.125;    0.000
832.816; 1467.700;  132.125;    0.000
833.002; 1434.700;  125.125;    0.000
833.188; 1425.700;  144.125;    0.000
833.374; 1388.700;  131.125;    0.000
833.560; 1373.700;  154.125;    0.000
833.746; 1460.700;  171.125;    0.000
833.932; 1441.700;  162.125;    0.000
834.118; 1403.700;  131.125;    0.000
834.303; 1286.700;  113.125;    0.000
834.489; 1385.700;  170.125;    0.000
834.675; 1374.700;  177.125;    0.000
834.861; 1413.700;  154.125;    0.000
835.047; 1400.700;  171.125;    0.000
835.233; 1431.700;   98.125;    0.000
835.418; 1371.700;  138.125;    0.000
835.604; 1387.700;  140.125;    0.000
835.790; 1347.700;  130.125;    0.000
835.976; 1372.700;  129.125;    0.000
836.161; 1314.700;  142.125;    0.000
836.347; 1350.700;  128.125;    0.000
836.533; 1354.700;  143.125;    0.000
836.718; 1378.700;  164.125;    0.000
836.904; 1378.700;  172.125;    0.000
837.089; 1361.700;  152.125;    0.000
837.275; 1303.700;  143.125;    0.000
837.460; 1327.700;  125.125;    0.000
837.646; 1347.700;  137.125;    0.000
837.831; 1373.700;  153.125;    0.000
838.017; 1385.700;  171.125;    0.000
838.202; 1326.700;  111.125;    0.000
838.388; 1518.700;  140.125;    0.000
838.573; 1420.700;  158.125;    0.000
838.759; 1325.700;  188.125;    0.000
838.944; 1367.700;  125.125;    0.000
839.129; 1309.700;  123.125;    0.000
839.315; 1333.700;  181.125;    0.000
839.500; 1370.700;  150.125;    0.000
839.685; 1423.700;  109.125;    0.000
839.870; 1396.700;  202.125;    0.000
840.056; 1339.700;  101.125;    0.000
840.241; 1365.700;  184.125;    0.000
840.426; 1461.700;  192.125;    0.000
840.611; 1442.700;  180.125;    0.000
840.796; 1456.700;  156.125;    0.000
840.981; 1352.700;  142.125;    0.000
841.166; 1435.700;  161.125;    0.000
841.352; 1433.700;  185.125;    0.000
841.537; 1481.700;  139.125;    0.000
841.722; 1466.700;  143.125;    0.000
841.907; 1494.700;  140.125;    0.000
842.092; 1506.700;  176.125;    0.000
842.277; 1521.700;  136.125;    0.000
842.461; 1523.700;  155.125;    0.000
842.646; 1545.700;  163.125;    0.000
842.831; 1531.700;  153.125;    0.000
843.016; 1553.700;  187.125;    0.000
843.201; 1585.700;  179.125;    0.000
843.386; 1668.700;  167.125;    0.000
843.571; 1725.700;  129.125;    0.000
843.755; 1798.700;  136.125;    0.000
843.940; 1849.700;  121.125;    0.000
844.125; 2065.700;  157.125;    0.000
844.310; 2414.700;  175.125;    0.000
844.494; 2937.700;  164.125;    0.000
844.679; 3909.700;  167.125;    0.000
844.864; 3869.700;  166.125;    0.000
845.048; 3197.700;  132.125;    0.000
845.233; 2849.700;  175.125;    0.000
845.418; 2513.700;  159.125;    0.000
845.602; 2217.700;  147.125;    0.000
845.787; 2117.700;  132.125;    0.000
845.971; 2003.700;  187.125;    0.000
846.156; 1839.700;  141.125;    0.000
846.340; 1799.700;  153.125;    0.000
846.525; 1717.700;  157.125;    0.000
846.709; 1711.700;  117.125;    0.000
846.893; 1666.700;  147.125;    0.000
847.078; 1594.700;  170.125;    0.000
847.262; 1568.700;  150.125;    0.000
847.447; 1451.700;  132.125;    0.000
847.631; 1412.700;  144.125;    0.000
847.815; 1475.700;  157.125;    0.000
848.000; 1425.700;  164.125;    0.000
848.184; 1432.700;  174.125;    0.000
848.368; 1424.700;  149.125;    0.000
848.552; 1400.700;  143.125;    0.000
848.736; 1412.700;  132.125;    0.000
848.921; 1379.700;  147.125;    0.000
849.105; 1400.700;  150.125;    0.000
849.289; 1428.700;  146.125;    0.000
849.473; 1304.700;  167.125;    0.000
849.657; 1408.700;  149.125;    0.000
849.841; 1364.700;  181.125;    0.000
850.025; 1382.700;  154.125;    0.000
850.209; 1374.700;  152.125;    0.000
850.393; 1298.700;  139.125;    0.000
850.577; 1374.700;  128.125;    0.000
850.761; 1296.700;  194.125;    0.000
850.945; 1317.700;  152.125;    0.000
851.129; 1319.700;  157.125;    0.000
851.313; 1283.700;  181.125;    0.000
851.497; 1249.700;  145.125;    0.000
851.680; 1270.700;  168.125;    0.000
851.864; 1359.700;  185.125;    0.000
852.048; 1326.700;  170.125;    0.000
852.232; 1280.700;  192.125;    0.000
852.416; 1323.700;  182.125;    0.000
852.599; 1321.700;  169.125;    0.000
852.783; 1304.700;  168.125;    0.000
852.967; 1287.700;  184.125;    0.000
853.150; 1264.700;  163.125;    0.000
853.334; 1252.700;  164.125;    0.000
853.518; 1267.700;  190.125;    0.000
853.701; 1312.700;  137.125;    0.000
853.885; 1228.700;  177.125;    0.000
854.068; 1278.700;  163.125;    0.000
854.252; 1274.700;  139.125;    0.000
854.435; 1294.700;  152.125;    0.000
854.619; 1268.700;  148.125;    0.000
854.802; 1238.700;  168.125;    0.000
854.986; 1363.700;  157.125;    0.000
855.169; 1241.700;  147.125;    0.000
855.353; 1295.700;  173.125;    0.000
855.536; 1296.700;  127.125;    0.000
855.719; 1245.700;  191.125;    0.000
855.903; 1308.700;  186.125;    0.000
856.086; 1295.700;  145.125;    0.000
856.269; 1278.700;  130.125;    0.000
856.452; 1340.700;  153.125;    0.000
856.636; 1283.700;  129.125;    0.000
856.819; 1420.700;  134.125;    0.000
857.002; 1472.700;  152.125;    0.000
857.185; 1377.700;  140.125;    0.000
857.368; 1372.700;  170.125;    0.000
857.552; 1372.700;  132.125;    0.000
857.735; 1344.700;  160.125;    0.000
857.918; 1376.700;  139.125;    0.000
858.101; 1329.700;  159.125;    0.000
858.284; 1350.700;  136.125;    0.000
858.467; 1434.700;  147.125;    0.000
858.650; 1362.700;  153.125;    0.000
858.833; 1348.700;  113.125;    0.000
859.016; 1401.700;  167.125;    0.000
859.199; 1397.700;  141.125;    0.000
859.382; 1617.700;  155.125;    0.000
859.564; 1651.700;  136.125;    0.000
859.747; 1532.700;  142.125;    0.000
859.930; 1511.700;  141.125;    0.000
860.113; 1495.700;  156.125;    0.000
860.296; 1539.700;  167.125;    0.000
860.478; 1440.700;  121.125;    0.000
860.661; 1452.700;  230.125;    0.000
860.844; 1474.700;  186.125;    0.000
861.027; 1468.700;  155.125;    0.000
861.209; 1450.700;  151.125;    0.000
861.392; 1380.700;  162.125;    0.000
861.575; 1404.700;  150.125;    0.000
861.757; 1433.700;  162.125;    0.000
861.940; 1552.700;  207.125;    0.000
862.122; 1489.700;  113.125;    0.000
862.305; 1478.700;  114.125;    0.000
862.487; 1582.700;  162.125;    0.000
862.670; 1607.700;  148.125;    0.000
862.852; 1746.700;  131.125;    0.000
863.035; 2087.700;  174.125;    0.000
863.217; 1987.700;  170.125;    0.000
863.400; 1909.700;  148.125;    0.000
863.582; 1894.700;  129.125;    0.000
863.764; 1757.700;  181.125;    0.000
863.947; 1698.700;  152.125;    0.000
864.129; 1716.700;  178.125;    0.000
864.311; 1675.700;  139.125;    0.000
864.493; 1647.700;  166.125;    0.000
864.676; 1567.700;  148.125;    0.000
864.858; 1649.700;  123.125;    0.000
865.040; 1540.700;  180.125;    0.000
865.222; 1518.700;  131.125;    0.000
865.404; 1666.700;  146.125;    0.000
865.587; 1740.700;  175.125;    0.000
865.769; 1743.700;  183.125;    0.000
865.951; 1740.700;  171.125;    0.000
866.133; 1793.700;  165.125;    0.000
866.315; 1779.700;  138.125;    0.000
866.497; 1782.700;  139.125;    0.000
866.679; 1790.700;  167.125;    0.000
866.861; 1772.700;  151.125;    0.000
867.043; 1897.700;  190.125;    0.000
867.225; 2032.700;  140.125;    0.000
867.407; 2123.700;  125.125;    0.000
867.589; 2401.700;  141.125;    0.000
867.770; 2826.700;  149.125;    0.000
867.952; 3627.700;  138.125;    0.000
868.134; 4538.700;  153.125;    0.000
868.316; 4570.700;  148.125;    0.000
868.498; 4393.700;  180.125;    0.000
868.679; 3951.700;  152.125;    0.000
868.861; 3382.700;  174.125;    0.000
869.043; 2951.700;  152.125;    0.000
869.224; 2733.700;  177.125;    0.000
869.406; 2419.700;  171.125;    0.000
869.588; 2396.700;  177.125;    0.000
869.769; 2177.700;  174.125;    0.000
869.951; 2158.700;  167.125;    0.000
870.132; 2205.700;  144.125;    0.000
870.314; 2344.700;  143.125;    0.000
870.495; 2402.700;  162.125;    0.000
870.677; 2243.700;  136.125;    0.000
870.858; 2195.700;  155.125;    0.000
871.040; 2279.700;  179.125;    0.000
871.221; 2498.700;  177.125;    0.000
871.403; 2415.700;  180.125;    0.000
871.584; 2344.700;  157.125;    0.000
871.765; 2442.700;  183.125;    0.000
871.947; 2444.700;  169.125;    0.000
872.128; 2223.700;  162.125;    0.000
872.309; 2040.700;  159.125;    0.000
872.491; 1826.700;  148.125;    0.000
872.672; 1821.700;  163.125;    0.000
872.853; 1788.700;  152.125;    0.000
873.034; 1690.700;  166.125;    0.000
873.215; 1746.700;  155.125;    0.000
873.396; 1649.700;  147.125;    0.000
873.578; 1499.700;  147.125;    0.000
873.759; 1512.700;  153.125;    0.000
873.940; 1537.700;  194.125;    0.000
874.121; 1473.700;  179.125;    0.000
874.302; 1453.700;  155.125;    0.000
874.483; 1444.700;  131.125;    0.000
874.664; 1482.700;  106.125;    0.000
874.845; 1403.700;  122.125;    0.000
875.026; 1333.700;  127.125;    0.000
875.207; 1381.700;  151.125;    0.000
875.388; 1376.700;  149.125;    0.000
875.568; 1359.700;  164.125;    0.000
875.749; 1316.700;  176.125;    0.000
875.930; 1315.700;  207.125;    0.000
876.111; 1315.700;  177.125;    0.000
876.292; 1306.700;  178.125;    0.000
876.472; 1362.700;  163.125;    0.000
876.653; 1250.700;  159.125;    0.000
876.834; 1288.700;  177.125;    0.000
877.015; 1260.700;  212.125;    0.000
877.195; 1319.700;  166.125;    0.000
877.376; 1261.700;  157.125;    0.000
877.556; 1277.700;  175.125;    0.000
877.737; 1266.700;  220.125;    0.000
877.918; 1280.700;  163.125;    0.000
878.098; 1210.700;  166.125;    0.000
878.279; 1197.700;  136.125;    0.000
878.459; 1213.700;  167.125;    0.000
878.640; 1267.700;  167.125;    0.000
878.820; 1210.700;  155.125;    0.000
879.000; 1221.700;  158.125;    0.000
879.181; 1223.700;  155.125;    0.000
879.361; 1331.700;  181.125;    0.000
879.542; 1214.700;  181.125;    0.000
879.722; 1229.700;  117.125;    0.000
879.902; 1263.700;  180.125;    0.000
880.083; 1304.700;  139.125;    0.000
880.263; 1242.700;  168.125;    0.000
880.443; 1357.700;  206.125;    0.000
880.623; 1365.700;  132.125;    0.000
880.803; 1538.700;  149.125;    0.000
880.984; 1350.700;  189.125;    0.000
881.164; 1333.700;  171.125;    0.000
881.344; 1269.700;  150.125;    0.000
881.524; 1305.700;  185.125;    0.000
881.704; 1245.700;  152.125;    0.000
881.884; 1349.700;  188.125;    0.000
882.064; 1379.700;  155.125;    0.000
882.244; 1415.700;  182.125;    0.000
882.424; 1301.700;  154.125;    0.000
882.604; 1213.700;  175.125;    0.000
882.784; 1263.700;  137.125;    0.000
882.964; 1268.700;  135.125;    0.000
883.144; 1272.700;  142.125;    0.000
883.324; 1297.700;  192.125;    0.000
883.504; 1311.700;  193.125;    0.000
883.683; 1262.700;  208.125;    0.000
883.863; 1260.700;  127.125;    0.000
884.043; 1130.700;  140.125;    0.000
884.223; 1259.700;  167.125;    0.000
884.402; 1198.700;  156.125;    0.000
884.582; 1217.700;  185.125;    0.000
884.762; 1216.700;  187.125;    0.000
884.941; 1179.700;  201.125;    0.000
885.121; 1192.700;  157.125;    0.000
885.301; 1263.700;  173.125;    0.000
885.480; 1191.700;  158.125;    0.000
885.660; 1176.700;  153.125;    0.000
885.839; 1240.700;  144.125;    0.000
886.019; 1198.700;  184.125;    0.000
886.198; 1150.700;  132.125;    0.000
886.378; 1176.700;  124.125;    0.000
886.557; 1178.700;  146.125;    0.000
886.737; 1216.700;  157.125;    0.000
886.916; 1181.700;  203.125;    0.000
887.095; 1253.700;  151.125;    0.000
887.275; 1162.700;  143.125;    0.000
887.454; 1159.700;  140.125;    0.000
887.633; 1202.700;  196.125;    0.000
887.813; 1225.700;  161.125;    0.000
887.992; 1217.700;  183.125;    0.000
888.171; 1169.700;  153.125;    0.000
888.350; 1166.700;  185.125;    0.000
888.530; 1135.700;  163.125;    0.000
888.709; 1199.700;  174.125;    0.000
888.888; 1173.700;  179.125;    0.000
889.067; 1177.700;  178.125;    0.000
889.246; 1251.700;  184.125;    0.000
889.425; 1172.700;  169.125;    0.000
889.604; 1212.700;  210.125;    0.000
889.783; 1199.700;  183.125;    0.000
889.962; 1145.700;  116.125;    0.000
890.141; 1202.700;  179.125;    0.000
890.320; 1184.700;  182.125;    0.000
890.499; 1244.700;  188.125;    0.000
890.678; 1226.700;  167.125;    0.000
890.857; 1217.700;  141.125;    0.000
891.036; 1167.700;  179.125;    0.000
891.214; 1138.700;  156.125;    0.000
891.393; 1226.700;  209.125;    0.000
891.572; 1191.700;  181.125;    0.000
891.751; 1195.700;  172.125;    0.000
891.930; 1154.700;  169.125;    0.000
892.108; 1163.700;  131.125;    0.000
892.287; 1211.700;  162.125;    0.000
892.466; 1218.700;  178.125;    0.000
892.644; 1242.700;  161.125;    0.000
892.823; 1131.700;  180.125;    0.000
893.001; 1166.700;  179.125;    0.000
893.180; 1136.700;  152.125;    0.000
893.359; 1201.700;  184.125;    0.000
893.537; 1153.700;  178.125;    0.000
893.716; 1152.700;  169.125;    0.000
893.894; 1225.700;  159.125;    0.000
894.073; 1166.700;  179.125;    0.000
894.251; 1215.700;  167.125;    0.000
894.429; 1133.700;  142.125;    0.000
894.608; 1100.700;  166.125;    0.000
894.786; 1133.700;  153.125;    0.000
894.964; 1151.700;  181.125;    0.000
895.143; 1204.700;  161.125;    0.000
895.321; 1139.700;  198.125;    0.000
895.499; 1172.700;  184.125;    0.000
895.677; 1113.700;  178.125;    0.000
895.856; 1204.700;  226.125;    0.000
896.034; 1244.700;  180.125;    0.000
896.212; 1216.700;  200.125;    0.000
896.390; 1228.700;  161.125;    0.000
896.568; 1205.700;  204.125;    0.000
896.746; 1180.700;  136.125;    0.000
896.924; 1200.700;  171.125;    0.000
897.102; 1254.700;  203.125;    0.000
897.280; 1242.700;  142.125;    0.000
897.458; 1235.700;  159.125;    0.000
897.636; 1232.700;  163.125;    0.000
897.814; 1232.700;  137.125;    0.000
897.992; 1239.700;  199.125;    0.000
898.170; 1275.700;  176.125;    0.000
898.348; 1244.700;  195.125;    0.000
898.526; 1214.700;  199.125;    0.000
898.704; 1258.700;  260.125;    0.000
898.882; 1230.700;  185.125;    0.000
899.059; 1212.700;  169.125;    0.000
899.237; 1258.700;  197.125;    0.000
899.415; 1211.700;  207.125;    0.000
899.593; 1221.700;  169.125;    0.000
899.770; 1231.700;  182.125;    0.000
899.948; 1312.700;  198.125;    0.000
900.125; 1261.700;  200.125;    0.000
900.303; 1224.700;  165.125;    0.000
900.481; 1253.700;  182.125;    0.000
900.658; 1236.700;  206.125;    0.000
900.836; 1256.700;  188.125;    0.000
901.013; 1267.700;  169.125;    0.000
901.191; 1314.700;  172.125;    0.000
901.368; 1275.700;  170.125;    0.000
901.546; 1322.700;  234.125;    0.000
901.723; 1274.700;  173.125;    0.000
901.901; 1328.700;  190.125;    0.000
902.078; 1399.700;  145.125;    0.000
902.255; 1336.700;  204.125;    0.000
902.433; 1357.700;  198.125;    0.000
902.610; 1333.700;  190.125;    0.000
902.787; 1294.700;  204.125;    0.000
902.964; 1366.700;  208.125;    0.000
903.142; 1376.700;  187.125;    0.000
903.319; 1357.700;  216.125;    0.000
903.496; 1377.700;  186.125;    0.000
903.673; 1401.700;  201.125;    0.000
903.850; 1431.700;  195.125;    0.000
904.027; 1472.700;  211.125;    0.000
904.204; 1535.700;  197.125;    0.000
904.381; 1533.700;  198.125;    0.000
904.558; 1657.700;  188.125;    0.000
904.735; 1860.700;  207.125;    0.000
904.912; 1790.700;  217.125;    0.000
905.089; 1826.700;  188.125;    0.000
905.266; 1783.700;  160.125;    0.000
905.443; 1673.700;  221.125;    0.000
905.620; 1600.700;  163.125;    0.000
905.797; 1535.700;  186.125;    0.000
905.974; 1549.700;  205.125;    0.000
906.151; 1498.700;  159.125;    0.000
906.327; 1577.700;  206.125;    0.000
906.504; 1542.700;  201.125;    0.000
906.681; 1506.700;  202.125;    0.000
906.858; 1479.700;  188.125;    0.000
907.034; 1457.700;  207.125;    0.000
907.211; 1447.700;  182.125;    0.000
907.388; 1423.700;  184.125;    0.000
907.564; 1477.700;  148.125;    0.000
907.741; 1462.700;  181.125;    0.000
907.917; 1337.700;  191.125;    0.000
908.094; 1414.700;  210.125;    0.000
908.271; 1370.700;  171.125;    0.000
908.447; 1397.700;  241.125;    0.000
908.623; 1339.700;  188.125;    0.000
908.800; 1363.700;  205.125;    0.000
908.976; 1255.700;  210.125;    0.000
909.153; 1327.700;  193.125;    0.000
909.329; 1343.700;  206.125;    0.000
909.505; 1306.700;  181.125;    0.000
909.682; 1376.700;  192.125;    0.000
909.858; 1292.700;  134.125;    0.000
910.034; 1326.700;  214.125;    0.000
910.211; 1270.700;  182.125;    0.000
910.387; 1363.700;  194.125;    0.000
910.563; 1320.700;  199.125;    0.000
910.739; 1274.700;  188.125;    0.000
910.915; 1295.700;  192.125;    0.000
911.091; 1321.700;  198.125;    0.000
911.268; 1312.700;  178.125;    0.000
911.444; 1292.700;  201.125;    0.000
911.620; 1297.700;  181.125;    0.000
911.796; 1278.700;  185.125;    0.000
911.972; 1251.700;  176.125;    0.000
912.148; 1304.700;  196.125;    0.000
912.324; 1268.700;  192.125;    0.000
912.500; 1289.700;  204.125;    0.000
912.676; 1305.700;  164.125;    0.000
912.851; 1322.700;  193.125;    0.000
913.027; 1324.700;  175.125;    0.000
913.203; 1244.700;  193.125;    0.000
913.379; 1253.700;  213.125;    0.000
913.555; 1287.700;  211.125;    0.000
913.730; 1271.700;  194.125;    0.000
913.906; 1244.700;  153.125;    0.000
914.082; 1318.700;  212.125;    0.000
914.258; 1271.700;  194.125;    0.000
914.433; 1242.700;  191.125;    0.000
914.609; 1208.700;  208.125;    0.000
914.784; 1264.700;  176.125;    0.000
914.960; 1241.700;  227.125;    0.000
915.136; 1218.700;  152.125;    0.000
915.311; 1271.700;  171.125;    0.000
915.487; 1244.700;  173.125;    0.000
915.662; 1350.700;  189.125;    0.000
915.838; 1247.700;  179.125;    0.000
916.013; 1285.700;  191.125;    0.000
916.189; 1234.700;  207.125;    0.000
916.364; 1298.700;  194.125;    0.000
916.539; 1285.700;  174.125;    0.000
916.715; 1310.700;  207.125;    0.000
916.890; 1221.700;  193.125;    0.000
917.065; 1253.700;  199.125;    0.000
917.240; 1327.700;  214.125;    0.000
917.416; 1259.700;  194.125;    0.000
917.591; 1363.700;  213.125;    0.000
917.766; 1289.700;  194.125;    0.000
917.941; 1217.700;  201.125;    0.000
918.116; 1316.700;  198.125;    0.000
918.292; 1298.700;  176.125;    0.000
918.467; 1286.700;  190.125;    0.000
918.642; 1259.700;  200.125;    0.000
918.817; 1315.700;  186.125;    0.000
918.992; 1274.700;  174.125;    0.000
919.167; 1387.700;  197.125;    0.000
919.342; 1305.700;  188.125;    0.000
919.517; 1312.700;  179.125;    0.000
919.692; 1376.700;  182.125;    0.000
919.867; 1305.700;  216.125;    0.000
920.041; 1348.700;  208.125;    0.000
920.216; 1421.700;  223.125;    0.000
920.391; 1320.700;  203.125;    0.000
920.566; 1300.700;  202.125;    0.000
920.741; 1363.700;  197.125;    0.000
920.915; 1372.700;  223.125;    0.000
921.090; 1437.700;  183.125;    0.000
921.265; 1506.700;  169.125;    0.000
921.439; 1646.700;  212.125;    0.000
921.614; 1486.700;  190.125;    0.000
921.789; 1470.700;  177.125;    0.000
921.963; 1511.700;  233.125;    0.000
922.138; 1363.700;  156.125;    0.000
922.312; 1463.700;  193.125;    0.000
922.487; 1431.700;  208.125;    0.000
922.661; 1461.700;  212.125;    0.000
922.836; 1436.700;  210.125;    0.000
923.010; 1476.700;  183.125;    0.000
923.185; 1430.700;  228.125;    0.000
923.359; 1406.700;  227.125;    0.000
923.534; 1459.700;  189.125;    0.000
923.708; 1476.700;  210.125;    0.000
923.882; 1540.700;  217.125;    0.000
924.057; 1421.700;  195.125;    0.000
924.231; 1393.700;  201.125;    0.000
924.405; 1392.700;  188.125;    0.000
924.579; 1430.700;  188.125;    0.000
924.753; 1448.700;  174.125;    0.000
924.928; 1405.700;  179.125;    0.000
925.102; 1429.700;  186.125;    0.000
925.276; 1494.700;  201.125;    0.000
925.450; 1475.700;  211.125;    0.000
925.624; 1388.700;  238.125;    0.000
925.798; 1509.700;  191.125;    0.000
925.972; 1521.700;  192.125;    0.000
926.146; 1561.700;  198.125;    0.000
926.320; 1564.700;  151.125;    0.000
926.494; 1634.700;  202.125;    0.000
926.668; 1743.700;  197.125;    0.000
926.842; 1799.700;  177.125;    0.000
927.016; 1743.700;  202.125;    0.000
927.190; 1646.700;  207.125;    0.000
927.363; 1719.700;  180.125;    0.000
927.537; 1690.700;  212.125;    0.000
927.711; 1642.700;  148.125;    0.000
927.885; 1614.700;  196.125;    0.000
928.058; 1593.700;  173.125;    0.000
928.232; 1608.700;  219.125;    0.000
928.406; 1535.700;  141.125;    0.000
928.579; 1549.700;  157.125;    0.000
928.753; 1549.700;  205.125;    0.000
928.927; 1563.700;  196.125;    0.000
929.100; 1494.700;  237.125;    0.000
929.274; 1418.700;  166.125;    0.000
929.447; 1505.700;  150.125;    0.000
929.621; 1451.700;  188.125;    0.000
929.794; 1514.700;  169.125;    0.000
929.968; 1409.700;  194.125;    0.000
930.141; 1437.700;  226.125;    0.000
930.315; 1379.700;  196.125;    0.000
930.488; 1450.700;  233.125;    0.000
930.661; 1355.700;  188.125;    0.000
930.835; 1405.700;  170.125;    0.000
931.008; 1421.700;  176.125;    0.000
931.181; 1360.700;  175.125;    0.000
931.354; 1465.700;  212.125;    0.000
931.528; 1352.700;  177.125;    0.000
931.701; 1373.700;  218.125;    0.000
931.874; 1371.700;  175.125;    0.000
932.047; 1362.700;  157.125;    0.000
932.220; 1369.700;  187.125;    0.000
932.393; 1448.700;  166.125;    0.000
932.566; 1317.700;  168.125;    0.000
932.739; 1392.700;  203.125;    0.000
932.912; 1355.700;  202.125;    0.000
933.085; 1383.700;  209.125;    0.000
933.258; 1370.700;  196.125;    0.000
933.431; 1317.700;  207.125;    0.000
933.604; 1312.700;  201.125;    0.000
933.777; 1424.700;  202.125;    0.000
933.950; 1338.700;  184.125;    0.000
934.123; 1341.700;  167.125;    0.000
934.296; 1403.700;  209.125;    0.000
934.468; 1410.700;  216.125;    0.000
934.641; 1250.700;  156.125;    0.000
934.814; 1295.700;  215.125;    0.000
934.987; 1343.700;  201.125;    0.000
935.159; 1316.700;  176.125;    0.000
935.332; 1337.700;  203.125;    0.000
935.505; 1381.700;  163.125;    0.000
935.677; 1314.700;  169.125;    0.000
935.850; 1290.700;  178.125;    0.000
936.022; 1308.700;  187.125;    0.000
936.195; 1355.700;  207.125;    0.000
936.367; 1351.700;  191.125;    0.000
936.540; 1401.700;  214.125;    0.000
936.712; 1391.700;  202.125;    0.000
936.885; 1370.700;  195.125;    0.000
937.057; 1302.700;  173.125;    0.000
937.229; 1362.700;  179.125;    0.000
937.402; 1387.700;  174.125;    0.000
937.574; 1334.700;  140.125;    0.000
937.746; 1427.700;  153.125;    0.000
937.919; 1393.700;  196.125;    0.000
938.091; 1439.700;  173.125;    0.000
938.263; 1576.700;  206.125;    0.000
938.435; 1559.700;  213.125;    0.000
938.608; 1708.700;  204.125;    0.000
938.780; 1825.700;  199.125;    0.000
938.952; 1914.700;  190.125;    0.000
939.124; 1934.700;  182.125;    0.000
939.296; 2070.700;  188.125;    0.000
939.468; 2062.700;  119.125;    0.000
939.640; 1939.700;  171.125;    0.000
939.812; 1965.700;  222.125;    0.000
939.984; 1713.700;  172.125;    0.000
940.156; 1789.700;  171.125;    0.000
940.328; 1617.700;  215.125;    0.000
940.500; 1564.700;  179.125;    0.000
940.672; 1489.700;  178.125;    0.000
940.843; 1531.700;  193.125;    0.000
941.015; 1525.700;  207.125;    0.000
941.187; 1481.700;  179.125;    0.000
941.359; 1496.700;  191.125;    0.000
941.531; 1437.700;  160.125;    0.000
941.702; 1442.700;  208.125;    0.000
941.874; 1361.700;  143.125;    0.000
942.046; 1383.700;  189.125;    0.000
942.217; 1378.700;  167.125;    0.000
942.389; 1411.700;  199.125;    0.000
942.560; 1361.700;  179.125;    0.000
942.732; 1401.700;  209.125;    0.000
942.904; 1274.700;  180.125;    0.000
943.075; 1371.700;  197.125;    0.000
943.247; 1272.700;  207.125;    0.000
943.418; 1321.700;  183.125;    0.000
943.589; 1311.700;  176.125;    0.000
943.761; 1351.700;  165.125;    0.000
943.932; 1298.700;  170.125;    0.000
944.104; 1320.700;  147.125;    0.000
944.275; 1341.700;  149.125;    0.000
944.446; 1356.700;  191.125;    0.000
944.617; 1246.700;  128.125;    0.000
944.789; 1341.700;  166.125;    0.000
944.960; 1332.700;  195.125;    0.000
945.131; 1239.700;  164.125;    0.000
945.302; 1400.700;  229.125;    0.000
945.473; 1251.700;  153.125;    0.000
945.645; 1333.700;  166.125;    0.000
945.816; 1362.700;  187.125;    0.000
945.987; 1336.700;  193.125;    0.000
946.158; 1366.700;  166.125;    0.000
946.329; 1322.700;  196.125;    0.000
946.500; 1299.700;  152.125;    0.000
946.671; 1293.700;  161.125;    0.000
946.842; 1314.700;  176.125;    0.000
947.013; 1401.700;  188.125;    0.000
947.183; 1359.700;  213.125;    0.000
947.354; 1288.700;  163.125;    0.000
947.525; 1351.700;  204.125;    0.000
947.696; 1319.700;  159.125;    0.000
947.867; 1299.700;  197.125;    0.000
948.037; 1274.700;  174.125;    0.000
948.208; 1250.700;  163.125;    0.000
948.379; 1238.700;  189.125;    0.000
948.550; 1300.700;  173.125;    0.000
948.720; 1256.700;  186.125;    0.000
948.891; 1305.700;  166.125;    0.000
949.061; 1293.700;  197.125;    0.000
949.232; 1299.700;  168.125;    0.000
949.403; 1306.700;  188.125;    0.000
949.573; 1242.700;  164.125;    0.000
949.744; 1267.700;  194.125;    0.000
949.914; 1291.700;  154.125;    0.000
950.085; 1272.700;  197.125;    0.000
950.255; 1291.700;  187.125;    0.000
950.425; 1279.700;  193.125;    0.000
950.596; 1280.700;  182.125;    0.000
950.766; 1254.700;  202.125;    0.000
950.936; 1318.700;  230.125;    0.000
951.107; 1250.700;  133.125;    0.000
951.277; 1294.700;  234.125;    0.000
951.447; 1280.700;  200.125;    0.000
951.617; 1319.700;  212.125;    0.000
951.788; 1253.700;  176.125;    0.000
951.958; 1265.700;  218.125;    0.000
952.128; 1273.700;  198.125;    0.000
952.298; 1322.700;  185.125;    0.000
952.468; 1302.700;  231.125;    0.000
952.638; 1283.700;  213.125;    0.000
952.808; 1365.700;  218.125;    0.000
952.978; 1343.700;  252.125;    0.000
953.148; 1319.700;  200.125;    0.000
953.318; 1323.700;  243.125;    0.000
953.488; 1260.700;  140.125;    0.000
953.658; 1317.700;  208.125;    0.000
953.828; 1254.700;  179.125;    0.000
953.998; 1260.700;  211.125;    0.000
954.167; 1268.700;  197.125;    0.000
954.337; 1284.700;  217.125;    0.000
954.507; 1321.700;  219.125;    0.000
954.677; 1289.700;  201.125;    0.000
954.846; 1298.700;  241.125;    0.000
955.016; 1332.700;  222.125;    0.000
955.186; 1366.700;  200.125;    0.000
955.355; 1293.700;  247.125;    0.000
955.525; 1215.700;  212.125;    0.000
955.695; 1261.700;  200.125;    0.000
955.864; 1270.700;  196.125;    0.000
956.034; 1227.700;  195.125;    0.000
956.203; 1223.700;  243.125;    0.000
956.373; 1222.700;  197.125;    0.000
956.542; 1295.700;  237.125;    0.000
956.711; 1313.700;  249.125;    0.000
956.881; 1292.700;  235.125;    0.000
957.050; 1354.700;  259.125;    0.000
957.220; 1271.700;  234.125;    0.000
957.389; 1290.700;  250.125;    0.000
957.558; 1225.700;  214.125;    0.000
957.727; 1296.700;  225.125;    0.000
957.897; 1265.700;  211.125;    0.000
958.066; 1210.700;  200.125;    0.000
958.235; 1269.700;  202.125;    0.000
958.404; 1257.700;  242.125;    0.000
958.573; 1294.700;  222.125;    0.000
958.743; 1205.700;  191.125;    0.000
958.912; 1271.700;  183.125;    0.000
959.081; 1307.700;  212.125;    0.000
959.250; 1339.700;  192.125;    0.000
959.419; 1251.700;  238.125;    0.000
959.588; 1283.700;  205.125;    0.000
959.757; 1276.700;  213.125;    0.000
959.926; 1286.700;  217.125;    0.000
960.094; 1192.700;  215.125;    0.000
960.263; 1284.700;  220.125;    0.000
960.432; 1270.700;  164.125;    0.000
960.601; 1246.700;  228.125;    0.000
960.770; 1233.700;  176.125;    0.000
960.939; 1226.700;  201.125;    0.000
961.107; 1238.700;  183.125;    0.000
961.276; 1215.700;  199.125;    0.000
961.445; 1255.700;  205.125;    0.000
961.613; 1307.700;  183.125;    0.000
961.782; 1275.700;  216.125;    0.000
961.951; 1237.700;  169.125;    0.000
962.119; 1208.700;  211.125;    0.000
962.288; 1240.700;  204.125;    0.000
962.456; 1216.700;  187.125;    0.000
962.625; 1230.700;  223.125;    0.000
962.793; 1229.700;  200.125;    0.000
962.962; 1266.700;  185.125;    0.000
963.130; 1280.700;  195.125;    0.000
963.298; 1260.700;  187.125;    0.000
963.467; 1231.700;  247.125;    0.000
963.635; 1237.700;  165.125;    0.000
963.803; 1303.700;  192.125;    0.000
963.972; 1280.700;  191.125;    0.000
964.140; 1268.700;  163.125;    0.000
964.308; 1250.700;  161.125;    0.000
964.477; 1221.700;  182.125;    0.000
964.645; 1232.700;  195.125;    0.000
964.813; 1228.700;  165.125;    0.000
964.981; 1178.700;  193.125;    0.000
965.149; 1237.700;  174.125;    0.000
965.317; 1229.700;  194.125;    0.000
965.485; 1272.700;  209.125;    0.000
965.653; 1270.700;  210.125;    0.000
965.821; 1239.700;  194.125;    0.000
965.989; 1279.700;  182.125;    0.000
966.157; 1289.700;  180.125;    0.000
966.325; 1234.700;  198.125;    0.000
966.493; 1269.700;  182.125;    0.000
966.661; 1226.700;  200.125;    0.000
966.829; 1230.700;  190.125;    0.000
966.996; 1233.700;  221.125;    0.000
967.164; 1329.700;  176.125;    0.000
967.332; 1261.700;  228.125;    0.000
967.500; 1295.700;  177.125;    0.000
967.667; 1299.700;  202.125;    0.000
967.835; 1181.700;  220.125;    0.000
968.003; 1249.700;  183.125;    0.000
968.170; 1257.700;  163.125;    0.000
968.338; 1244.700;  162.125;    0.000
968.505; 1234.700;  198.125;    0.000
968.673; 1291.700;  213.125;    0.000
968.841; 1269.700;  131.125;    0.000
969.008; 1297.700;  225.125;    0.000
969.175; 1274.700;  202.125;    0.000
969.343; 1275.700;  222.125;    0.000
969.510; 1230.700;  230.125;    0.000
969.678; 1251.700;  161.125;    0.000
969.845; 1343.700;  208.125;    0.000
970.012; 1225.700;  186.125;    0.000
970.180; 1354.700;  226.125;    0.000
970.347; 1343.700;  222.125;    0.000
970.514; 1192.700;  206.125;    0.000
970.681; 1280.700;  173.125;    0.000
970.849; 1239.700;  190.125;    0.000
971.016; 1307.700;  220.125;    0.000
971.183; 1322.700;  202.125;    0.000
971.350; 1326.700;  196.125;    0.000
971.517; 1324.700;  218.125;    0.000
971.684; 1342.700;  228.125;    0.000
971.851; 1354.700;  235.125;    0.000
972.018; 1337.700;  200.125;    0.000
972.185; 1271.700;  183.125;    0.000
972.352; 1358.700;  216.125;    0.000
972.519; 1369.700;  227.125;    0.000
972.686; 1315.700;  209.125;    0.000
972.853; 1297.700;  157.125;    0.000
973.020; 1234.700;  179.125;    0.000
973.186; 1287.700;  173.125;    0.000
973.353; 1333.700;  189.125;    0.000
973.520; 1308.700;  228.125;    0.000
973.687; 1323.700;  190.125;    0.000
973.853; 1309.700;  197.125;    0.000
974.020; 1296.700;  208.125;    0.000
974.187; 1241.700;  158.125;    0.000
974.353; 1254.700;  201.125;    0.000
974.520; 1348.700;  158.125;    0.000
974.687; 1315.700;  192.125;    0.000
974.853; 1290.700;  177.125;    0.000
975.020; 1233.700;  212.125;    0.000
975.186; 1255.700;  200.125;    0.000
975.353; 1284.700;  208.125;    0.000
975.519; 1256.700;  169.125;    0.000
975.685; 1233.700;  176.125;    0.000
975.852; 1293.700;  201.125;    0.000
976.018; 1260.700;  209.125;    0.000
976.184; 1328.700;  197.125;    0.000
976.351; 1296.700;  196.125;    0.000
976.517; 1275.700;  243.125;    0.000
976.683; 1307.700;  210.125;    0.000
976.849; 1292.700;  226.125;    0.000
977.016; 1260.700;  218.125;    0.000
977.182; 1266.700;  213.125;    0.000
977.348; 1292.700;  205.125;    0.000
977.514; 1288.700;  210.125;    0.000
977.680; 1276.700;  226.125;    0.000
977.846; 1250.700;  206.125;    0.000
978.012; 1227.700;  222.125;    0.000
978.178; 1248.700;  216.125;    0.000
978.344; 1218.700;  172.125;    0.000
978.510; 1196.700;  210.125;    0.000
978.676; 1225.700;  184.125;    0.000
978.842; 1268.700;  190.125;    0.000
979.008; 1238.700;  203.125;    0.000
979.174; 1221.700;  211.125;    0.000
979.340; 1282.700;  190.125;    0.000
979.505; 1273.700;  235.125;    0.000
979.671; 1272.700;  182.125;    0.000
979.837; 1261.700;  235.125;    0.000
980.003; 1377.700;  183.125;    0.000
980.168; 1299.700;  220.125;    0.000
980.334; 1291.700;  161.125;    0.000
980.499; 1292.700;  212.125;    0.000
980.665; 1279.700;  219.125;    0.000
980.831; 1325.700;  201.125;    0.000
980.996; 1256.700;  189.125;    0.000
981.162; 1356.700;  222.125;    0.000
981.327; 1250.700;  173.125;    0.000
981.493; 1278.700;  197.125;    0.000
981.658; 1343.700;  178.125;    0.000
981.823; 1352.700;  196.125;    0.000
981.989; 1312.700;  248.125;    0.000
982.154; 1395.700;  222.125;    0.000
982.319; 1217.700;  226.125;    0.000
982.485; 1274.700;  188.125;    0.000
982.650; 1354.700;  203.125;    0.000
982.815; 1384.700;  237.125;    0.000
982.980; 1346.700;  210.125;    0.000
983.146; 1275.700;  202.125;    0.000
983.311; 1321.700;  195.125;    0.000
983.476; 1343.700;  207.125;    0.000
983.641; 1252.700;  198.125;    0.000
983.806; 1299.700;  136.125;    0.000
983.971; 1390.700;  248.125;    0.000
984.136; 1277.700;  213.125;    0.000
984.301; 1304.700;  181.125;    0.000
984.466; 1302.700;  210.125;    0.000
984.631; 1304.700;  219.125;    0.000
984.796; 1295.700;  207.125;    0.000
984.961; 1327.700;  214.125;    0.000
985.126; 1354.700;  218.125;    0.000
985.291; 1331.700;  214.125;    0.000
985.455; 1214.700;  187.125;    0.000
985.620; 1338.700;  191.125;    0.000
985.785; 1244.700;  190.125;    0.000
985.950; 1313.700;  184.125;    0.000
986.114; 1326.700;  242.125;    0.000
986.279; 1317.700;  251.125;    0.000
986.444; 1361.700;  177.125;    0.000
986.608; 1368.700;  216.125;    0.000
986.773; 1345.700;  211.125;    0.000
986.937; 1365.700;  244.125;    0.000
987.102; 1353.700;  187.125;    0.000
987.266; 1295.700;  178.125;    0.000
987.431; 1290.700;  205.125;    0.000
987.595; 1361.700;  221.125;    0.000
987.760; 1289.700;  205.125;    0.000
987.924; 1435.700;  195.125;    0.000
988.088; 1376.700;  184.125;    0.000
988.253; 1285.700;  188.125;    0.000
988.417; 1323.700;  196.125;    0.000
988.581; 1317.700;  218.125;    0.000
988.746; 1290.700;  203.125;    0.000
988.910; 1304.700;  195.125;    0.000
989.074; 1321.700;  187.125;    0.000
989.238; 1312.700;  243.125;    0.000
989.402; 1375.700;  242.125;    0.000
989.566; 1251.700;  205.125;    0.000
989.731; 1408.700;  195.125;    0.000
989.895; 1269.700;  211.125;    0.000
990.059; 1300.700;  175.125;    0.000
990.223; 1358.700;  176.125;    0.000
990.387; 1324.700;  234.125;    0.000
990.551; 1360.700;  231.125;    0.000
990.714; 1305.700;  209.125;    0.000
990.878; 1318.700;  187.125;    0.000
991.042; 1311.700;  183.125;    0.000
991.206; 1368.700;  216.125;    0.000
991.370; 1366.700;  257.125;    0.000
991.534; 1325.700;  188.125;    0.000
991.697; 1373.700;  203.125;    0.000
991.861; 1428.700;  219.125;    0.000
992.025; 1356.700;  221.125;    0.000
992.188; 1385.700;  188.125;    0.000
992.352; 1347.700;  205.125;    0.000
992.516; 1327.700;  189.125;    0.000
992.679; 1340.700;  207.125;    0.000
992.843; 1294.700;  210.125;    0.000
993.006; 1335.700;  191.125;    0.000
993.170; 1406.700;  228.125;    0.000
993.333; 1340.700;  142.125;    0.000
993.497; 1354.700;  175.125;    0.000
993.660; 1291.700;  220.125;    0.000
993.824; 1394.700;  193.125;    0.000
993.987; 1337.700;  219.125;    0.000
994.150; 1408.700;  166.125;    0.000
994.314; 1383.700;  207.125;    0.000
994.477; 1270.700;  227.125;    0.000
994.640; 1327.700;  210.125;    0.000
994.803; 1297.700;  219.125;    0.000
994.967; 1412.700;  192.125;    0.000
995.130; 1310.700;  197.125;    0.000
995.293; 1373.700;  189.125;    0.000
995.456; 1350.700;  180.125;    0.000
995.619; 1373.700;  239.125;    0.000
995.782; 1396.700;  209.125;    0.000
995.945; 1383.700;  216.125;    0.000
996.108; 1351.700;  198.125;    0.000
996.271; 1297.700;  205.125;    0.000
996.434; 1397.700;  205.125;    0.000
996.597; 1292.700;  208.125;    0.000
996.760; 1330.700;  205.125;    0.000
996.923; 1374.700;  174.125;    0.000
997.086; 1373.700;  198.125;    0.000
997.248; 1381.700;  214.125;    0.000
997.411; 1310.700;  237.125;    0.000
997.574; 1371.700;  182.125;    0.000
997.737; 1343.700;  188.125;    0.000
997.899; 1301.700;  216.125;    0.000
998.062; 1327.700;  210.125;    0.000
998.225; 1291.700;  202.125;    0.000
998.387; 1422.700;  202.125;    0.000
998.550; 1382.700;  193.125;    0.000
998.712; 1373.700;  225.125;    0.000
998.875; 1428.700;  228.125;    0.000
999.037; 1342.700;  186.125;    0.000
999.200; 1307.700;  212.125;    0.000
999.362; 1341.700;  234.125;    0.000
999.525; 1381.700;  170.125;    0.000
999.687; 1306.700;  191.125;    0.000
999.849; 1341.700;  218.125;    0.000
1000.012; 1330.700;  187.125;    0.000
1000.174; 1327.700;  216.125;    0.000
1000.336; 1383.700;  194.125;    0.000
1000.499; 1419.700;  209.125;    0.000
1000.661; 1405.700;  208.125;    0.000
1000.823; 1351.700;  197.125;    0.000
1000.985; 1412.700;  201.125;    0.000
1001.147; 1526.700;  234.125;    0.000
1001.309; 1418.700;  180.125;    0.000
1001.471; 1495.700;  223.125;    0.000
1001.633; 1456.700;  198.125;    0.000
1001.796; 1388.700;  200.125;    0.000
1001.958; 1411.700;  204.125;    0.000
1002.119; 1489.700;  193.125;    0.000
1002.281; 1506.700;  205.125;    0.000
1002.443; 1614.700;  236.125;    0.000
1002.605; 1724.700;  197.125;    0.000
1002.767; 1730.700;  223.125;    0.000
1002.929; 1861.700;  220.125;    0.000
1003.091; 1915.700;  214.125;    0.000
1003.252; 1997.700;  233.125;    0.000
1003.414; 2100.700;  230.125;    0.000
1003.576; 2231.700;  203.125;    0.000
1003.738; 2349.700;  201.125;    0.000
1003.899; 2586.700;  222.125;    0.000
1004.061; 2669.700;  208.125;    0.000
1004.222; 2718.700;  194.125;    0.000
1004.384; 2880.700;  205.125;    0.000
1004.546; 2935.700;  162.125;    0.000
1004.707; 3071.700;  232.125;    0.000
1004.869; 3057.700;  223.125;    0.000
1005.030; 3027.700;  204.125;    0.000
1005.191; 2942.700;  214.125;    0.000
1005.353; 2814.700;  226.125;    0.000
1005.514; 2736.700;  201.125;    0.000
1005.675; 2589.700;  205.125;    0.000
1005.837; 2466.700;  235.125;    0.000
1005.998; 2329.700;  210.125;    0.000
1006.159; 2305.700;  214.125;    0.000
1006.321; 2368.700;  236.125;    0.000
1006.482; 2435.700;  214.125;    0.000
1006.643; 2583.700;  213.125;    0.000
1006.804; 2675.700;  204.125;    0.000
1006.965; 2773.700;  212.125;    0.000
1007.126; 2868.700;  251.125;    0.000
1007.287; 2884.700;  238.125;    0.000
1007.448; 2738.700;  198.125;    0.000
1007.609; 2738.700;  241.125;    0.000
1007.770; 2599.700;  213.125;    0.000
1007.931; 2562.700;  225.125;    0.000
1008.092; 2718.700;  204.125;    0.000
1008.253; 2737.700;  220.125;    0.000
1008.414; 2833.700;  180.125;    0.000
1008.575; 2908.700;  224.125;    0.000
1008.736; 2897.700;  164.125;    0.000
1008.896; 2883.700;  247.125;    0.000
1009.057; 2759.700;  263.125;    0.000
1009.218; 2639.700;  233.125;    0.000
1009.379; 2784.700;  207.125;    0.000
1009.539; 2793.700;  221.125;    0.000
1009.700; 2844.700;  209.125;    0.000
1009.860; 2930.700;  217.125;    0.000
1010.021; 2914.700;  182.125;    0.000
1010.182; 2818.700;  233.125;    0.000
1010.342; 2791.700;  210.125;    0.000
1010.503; 2822.700;  232.125;    0.000
1010.663; 2951.700;  228.125;    0.000
1010.823; 3027.700;  212.125;    0.000
1010.984; 2967.700;  244.125;    0.000
1011.144; 2946.700;  200.125;    0.000
1011.305; 2835.700;  237.125;    0.000
1011.465; 3056.700;  225.125;    0.000
1011.625; 3176.700;  215.125;    0.000
1011.785; 3182.700;  235.125;    0.000
1011.946; 3099.700;  231.125;    0.000
1012.106; 3090.700;  206.125;    0.000
1012.266; 3200.700;  218.125;    0.000
1012.426; 3122.700;  249.125;    0.000
1012.586; 3179.700;  217.125;    0.000
1012.746; 3050.700;  231.125;    0.000
1012.906; 3131.700;  230.125;    0.000
1013.066; 3098.700;  260.125;    0.000
1013.226; 3235.700;  206.125;    0.000
1013.386; 3186.700;  220.125;    0.000
1013.546; 3199.700;  233.125;    0.000
1013.706; 3126.700;  194.125;    0.000
1013.866; 3153.700;  209.125;    0.000
1014.026; 3264.700;  204.125;    0.000
1014.186; 3233.700;  203.125;    0.000
1014.346; 3168.700;  244.125;    0.000
1014.505; 3373.700;  206.125;    0.000
1014.665; 3413.700;  210.125;    0.000
1014.825; 3296.700;  235.125;    0.000
1014.985; 3251.700;  227.125;    0.000
1015.144; 3526.700;  237.125;    0.000
1015.304; 3793.700;  196.125;    0.000
1015.464; 3663.700;  228.125;    0.000
1015.623; 3494.700;  235.125;    0.000
1015.783; 4010.700;  187.125;    0.000
1015.942; 4325.700;  184.125;    0.000
1016.102; 4321.700;  245.125;    0.000
1016.261; 4214.700;  203.125;    0.000
1016.420; 4557.700;  209.125;    0.000
1016.580; 5045.700;  235.125;    0.000
1016.739; 5041.700;  175.125;    0.000
1016.899; 4881.700;  220.125;    0.000
1017.058; 4985.700;  219.125;    0.000
1017.217; 5353.700;  238.125;    0.000
1017.376; 5131.700;  235.125;    0.000
1017.536; 4819.700;  195.125;    0.000
1017.695; 4759.700;  215.125;    0.000
1017.854; 4765.700;  231.125;    0.000
1018.013; 4717.700;  184.125;    0.000
1018.172; 4460.700;  179.125;    0.000
1018.331; 4248.700;  205.125;    0.000
1018.490; 4538.700;  203.125;    0.000
1018.649; 4967.700;  261.125;    0.000
1018.808; 5225.700;  253.125;    0.000
1018.967; 5116.700;  201.125;    0.000
1019.126; 5012.700;  216.125;    0.000
1019.285; 5171.700;  169.125;    0.000
1019.444; 5290.700;  226.125;    0.000
1019.603; 5135.700;  252.125;    0.000
1019.762; 4672.700;  206.125;    0.000
1019.921; 4640.700;  235.125;    0.000
1020.079; 5028.700;  192.125;    0.000
1020.238; 5583.700;  226.125;    0.000
1020.397; 5488.700;  231.125;    0.000
1020.555; 4888.700;  218.125;    0.000
1020.714; 4980.700;  235.125;    0.000
1020.873; 5522.700;  229.125;    0.000
1021.031; 5586.700;  234.125;    0.000
1021.190; 5246.700;  223.125;    0.000
1021.348; 5026.700;  186.125;    0.000
1021.507; 5374.700;  201.125;    0.000
1021.665; 6147.700;  222.125;    0.000
1021.824; 5817.700;  208.125;    0.000
1021.982; 5287.700;  209.125;    0.000
1022.141; 5083.700;  224.125;    0.000
1022.299; 5833.700;  214.125;    0.000
1022.457; 6406.700;  176.125;    0.000
1022.616; 6003.700;  211.125;    0.000
1022.774; 5030.700;  218.125;    0.000
1022.932; 5330.700;  205.125;    0.000
1023.090; 6047.700;  246.125;    0.000
1023.249; 6483.700;  249.125;    0.000
1023.407; 5746.700;  235.125;    0.000
1023.565; 5243.700;  202.125;    0.000
1023.723; 5547.700;  210.125;    0.000
1023.881; 6204.700;  206.125;    0.000
1024.039; 6436.700;  240.125;    0.000
1024.197; 5863.700;  275.125;    0.000
1024.355; 5294.700;  228.125;    0.000
1024.513; 5574.700;  234.125;    0.000
1024.671; 6278.700;  222.125;    0.000
1024.829; 6516.700;  241.125;    0.000
1024.987; 6080.700;  209.125;    0.000
1025.145; 5425.700;  227.125;    0.000
1025.302; 5735.700;  208.125;    0.000
1025.460; 6333.700;  210.125;    0.000
1025.618; 6644.700;  192.125;    0.000
1025.776; 6160.700;  220.125;    0.000
1025.933; 5681.700;  223.125;    0.000
1026.091; 5796.700;  189.125;    0.000
1026.249; 6491.700;  210.125;    0.000
1026.406; 6936.700;  231.125;    0.000
1026.564; 6452.700;  247.125;    0.000
1026.721; 5957.700;  213.125;    0.000
1026.879; 5804.700;  208.125;    0.000
1027.036; 6504.700;  222.125;    0.000
1027.194; 6940.700;  253.125;    0.000
1027.351; 6802.700;  239.125;    0.000
1027.509; 6327.700;  232.125;    0.000
1027.666; 5780.700;  251.125;    0.000
1027.823; 6418.700;  212.125;    0.000
1027.981; 6806.700;  260.125;    0.000
1028.138; 7173.700;  263.125;    0.000
1028.295; 6578.700;  251.125;    0.000
1028.452; 6090.700;  249.125;    0.000
1028.609; 6007.700;  259.125;    0.000
1028.767; 6799.700;  255.125;    0.000
1028.924; 7373.700;  201.125;    0.000
1029.081; 7089.700;  217.125;    0.000
1029.238; 6763.700;  230.125;    0.000
1029.395; 6064.700;  263.125;    0.000
1029.552; 6408.700;  207.125;    0.000
1029.709; 7211.700;  220.125;    0.000
1029.866; 7445.700;  214.125;    0.000
1030.023; 7264.700;  224.125;    0.000
1030.180; 6378.700;  209.125;    0.000
1030.337; 6364.700;  269.125;    0.000
1030.494; 6692.700;  207.125;    0.000
1030.650; 7385.700;  230.125;    0.000
1030.807; 8062.700;  217.125;    0.000
1030.964; 7211.700;  212.125;    0.000
1031.121; 6616.700;  220.125;    0.000
1031.277; 6352.700;  233.125;    0.000
1031.434; 6805.700;  266.125;    0.000
1031.591; 7381.700;  270.125;    0.000
1031.747; 8064.700;  229.125;    0.000
1031.904; 7772.700;  227.125;    0.000
1032.060; 7234.700;  210.125;    0.000
1032.217; 6681.700;  218.125;    0.000
1032.373; 7339.700;  190.125;    0.000
1032.530; 7666.700;  236.125;    0.000
1032.686; 8640.700;  199.125;    0.000
1032.843; 8901.700;  216.125;    0.000
1032.999; 8257.700;  204.125;    0.000
1033.155; 8312.700;  208.125;    0.000
1033.312; 8121.700;  231.125;    0.000
1033.468; 9216.700;  213.125;    0.000
1033.624;10277.700;  235.125;    0.000
1033.780;11069.700;  233.125;    0.000
1033.937;11216.700;  201.125;    0.000
1034.093;10015.700;  233.125;    0.000
1034.249;10542.700;  214.125;    0.000
1034.405; 9939.700;  245.125;    0.000
1034.561;11185.700;  228.125;    0.000
1034.717;11550.700;  234.125;    0.000
1034.873;11822.700;  248.125;    0.000
1035.029;12033.700;  220.125;    0.000
1035.185;11256.700;  294.125;    0.000
1035.341;10761.700;  231.125;    0.000
1035.497;11447.700;  254.125;    0.000
1035.653;11293.700;  225.125;    0.000
1035.809;12787.700;  243.125;    0.000
1035.964;13816.700;  216.125;    0.000
1036.120;13257.700;  199.125;    0.000
1036.276;13606.700;  220.125;    0.000
1036.432;13655.700;  210.125;    0.000
1036.587;12368.700;  225.125;    0.000
1036.743;12856.700;  245.125;    0.000
1036.899;13553.700;  219.125;    0.000
1037.054;13829.700;  157.125;    0.000
1037.210;15356.700;  208.125;    0.000
1037.365;15684.700;  230.125;    0.000
1037.521;14978.700;  236.125;    0.000
1037.676;14991.700;  193.125;    0.000
1037.832;13639.700;  246.125;    0.000
1037.987;13858.700;  231.125;    0.000
1038.143;14292.700;  234.125;    0.000
1038.298;15577.700;  219.125;    0.000
1038.453;15836.700;  230.125;    0.000
1038.609;16482.699;  254.125;    0.000
1038.764;17451.699;  249.125;    0.000
1038.919;16398.699;  224.125;    0.000
1039.074;16333.700;  209.125;    0.000
1039.229;15570.700;  214.125;    0.000
1039.385;14947.700;  268.125;    0.000
1039.540;15572.700;  268.125;    0.000
1039.695;16381.700;  229.125;    0.000
1039.850;17939.699;  252.125;    0.000
1040.005;18793.699;  248.125;    0.000
1040.160;20250.699;  215.125;    0.000
1040.315;20094.699;  239.125;    0.000
1040.470;18645.699;  210.125;    0.000
1040.625;17680.699;  239.125;    0.000
1040.780;17625.699;  251.125;    0.000
1040.935;17571.699;  247.125;    0.000
1041.089;17731.699;  215.125;    0.000
1041.244;20627.699;  210.125;    0.000
1041.399;21620.699;  237.125;    0.000
1041.554;22927.699;  253.125;    0.000
1041.708;24690.699;  227.125;    0.000
1041.863;25238.699;  219.125;    0.000
1042.018;24094.699;  246.125;    0.000
1042.172;23794.699;  236.125;    0.000
1042.327;22202.699;  272.125;    0.000
1042.481;22039.699;  197.125;    0.000
1042.636;23141.699;  213.125;    0.000
1042.791;22265.699;  250.125;    0.000
1042.945;25265.699;  267.125;    0.000
1043.099;28135.699;  257.125;    0.000
1043.254;27656.699;  206.125;    0.000
1043.408;29457.699;  266.125;    0.000
1043.563;31135.699;  232.125;    0.000
1043.717;30549.699;  241.125;    0.000
1043.871;28288.699;  248.125;    0.000
1044.025;28174.699;  234.125;    0.000
1044.180;27219.699;  222.125;    0.000
1044.334;26270.699;  235.125;    0.000
1044.488;27375.699;  270.125;    0.000
1044.642;28714.699;  215.125;    0.000
1044.796;32139.699;  212.125;    0.000
1044.950;36064.699;  228.125;    0.000
1045.104;37749.699;  223.125;    0.000
1045.258;39450.699;  236.125;    0.000
1045.412;38529.699;  225.125;    0.000
1045.566;36812.699;  245.125;    0.000
1045.720;37112.699;  201.125;    0.000
1045.874;34189.699;  229.125;    0.000
1046.028;31223.699;  243.125;    0.000
1046.182;31411.699;  212.125;    0.000
1046.336;32202.699;  256.125;    0.000
1046.489;31670.699;  234.125;    0.000
1046.643;34353.699;  246.125;    0.000
1046.797;38452.699;  219.125;    0.000
1046.951;41048.699;  231.125;    0.000
1047.104;40093.699;  285.125;    0.000
1047.258;42537.699;  256.125;    0.000
1047.411;44029.699;  232.125;    0.000
1047.565;43762.699;  269.125;    0.000
1047.719;40574.699;  213.125;    0.000
1047.872;40885.699;  210.125;    0.000
1048.026;38629.699;  251.125;    0.000
1048.179;37689.699;  213.125;    0.000
1048.332;38143.699;  212.125;    0.000
1048.486;37879.699;  218.125;    0.000
1048.639;39965.699;  218.125;    0.000
1048.792;38713.699;  247.125;    0.000
1048.946;41373.699;  208.125;    0.000
1049.099;46290.699;  247.125;    0.000
1049.252;48888.699;  274.125;    0.000
1049.406;44675.699;  232.125;    0.000
1049.559;44699.699;  251.125;    0.000
1049.712;50519.699;  243.125;    0.000
1049.865;54361.699;  219.125;    0.000
1050.018;54166.699;  216.125;    0.000
1050.171;46514.699;  237.125;    0.000
1050.324;44230.699;  291.125;    0.000
1050.477;48452.699;  241.125;    0.000
1050.630;53053.699;  245.125;    0.000
1050.783;52637.699;  213.125;    0.000
1050.936;49619.699;  246.125;    0.000
1051.089;47875.699;  255.125;    0.000
1051.242;49096.699;  228.125;    0.000
1051.394;55727.699;  276.125;    0.000
1051.547;59791.699;  246.125;    0.000
1051.700;54674.699;  252.125;    0.000
1051.853;50358.699;  267.125;    0.000
1052.005;54564.699;  261.125;    0.000
1052.158;58566.699;  313.125;    0.000
1052.311;64526.699;  264.125;    0.000
1052.463;63407.699;  271.125;    0.000
1052.616;59165.699;  291.125;    0.000
1052.768;52814.699;  298.125;    0.000
1052.921;50417.699;  262.125;    0.000
1053.073;54191.699;  307.125;    0.000
1053.226;58818.699;  301.125;    0.000
1053.378;65080.699;  309.125;    0.000
1053.531;65080.699;  280.125;    0.000
1053.683;65080.699;  258.125;    0.000
1053.835;60670.699;  267.125;    0.000
1053.988;48271.699;  294.125;    0.000
1054.140; 8483.700;  292.125;    0.000
1054.292; 1999.700;  249.125;    0.000
1054.444; 1466.700;  288.125;    0.000
1054.596; 1357.700;  275.125;    0.000
1054.749; 1240.700;  284.125;    0.000
1054.901; 1160.700;  291.125;    0.000
1055.053; 1134.700;  274.125;    0.000
1055.205; 1041.700;  313.125;    0.000
1055.357; 1019.700;  309.125;    0.000
1055.509;  992.700;  283.125;    0.000
1055.661;  920.700;  341.125;    0.000
1055.813;  939.700;  288.125;    0.000
1055.965;  919.700;  300.125;    0.000
1056.116;  848.700;  296.125;    0.000
1056.268;  914.700;  319.125;    0.000
1056.420;  926.700;  298.125;    0.000

