
Integration time [ms]:   0.300
Averaging Nr. [scans]: 1
Smoothing Nr. [pixels]: 0
Data measured with spectrometer [name]: NIR
Wave   ;Sample   ;Dark     ;Reference
[nm]   ;[counts] ;[counts] ;[counts] 

691.496;   21.400;  155.525;    0.000
691.696;   49.400;  186.525;    0.000
691.896;  -42.600;  113.525;    0.000
692.096;   19.400;  169.525;    0.000
692.296;  -10.600;  119.525;    0.000
692.496;   19.400;  182.525;    0.000
692.695;  -34.600;  119.525;    0.000
692.895;   19.400;  183.525;    0.000
693.095;   -1.600;  119.525;    0.000
693.295;   -4.600;  156.525;    0.000
693.495;   18.400;  145.525;    0.000
693.695;    1.400;  144.525;    0.000
693.894;   -1.600;  174.525;    0.000
694.094;   -5.600;  148.525;    0.000
694.294;   -1.600;  114.525;    0.000
694.494;  302.400;  137.525;    0.000
694.693; 2787.400;  112.525;    0.000
694.893; 3130.400;   85.525;    0.000
695.093; 3054.400;  152.525;    0.000
695.293; 3146.400;  159.525;    0.000
695.492; 3224.400;  131.525;    0.000
695.692; 3264.400;  134.525;    0.000
695.891; 3180.400;  161.525;    0.000
696.091; 3180.400;  180.525;    0.000
696.291; 3200.400;  120.525;    0.000
696.490; 3163.400;  146.525;    0.000
696.690; 3189.400;  145.525;    0.000
696.889; 3251.400;  171.525;    0.000
697.089; 3271.400;   98.525;    0.000
697.288; 3207.400;  172.525;    0.000
697.488; 3248.400;  137.525;    0.000
697.687; 3231.400;  171.525;    0.000
697.887; 3296.400;  142.525;    0.000
698.086; 3262.400;  159.525;    0.000
698.286; 3244.400;  122.525;    0.000
698.485; 3193.400;  121.525;    0.000
698.684; 3318.400;   94.525;    0.000
698.884; 3349.400;  131.525;    0.000
699.083; 3296.400;  112.525;    0.000
699.282; 3277.400;  119.525;    0.000
699.482; 3269.400;  117.525;    0.000
699.681; 3284.400;  115.525;    0.000
699.880; 3331.400;  166.525;    0.000
700.080; 3343.400;  194.525;    0.000
700.279; 3239.400;   98.525;    0.000
700.478; 3273.400;  159.525;    0.000
700.677; 3325.400;  134.525;    0.000
700.877; 3406.400;  171.525;    0.000
701.076; 3416.400;  141.525;    0.000
701.275; 3254.400;  119.525;    0.000
701.474; 3353.400;  132.525;    0.000
701.673; 3299.400;  141.525;    0.000
701.872; 3370.400;  158.525;    0.000
702.071; 3369.400;  129.525;    0.000
702.271; 3394.400;  122.525;    0.000
702.470; 3499.400;  158.525;    0.000
702.669; 3454.400;  145.525;    0.000
702.868; 3420.400;  135.525;    0.000
703.067; 3453.400;  169.525;    0.000
703.266; 3388.400;  125.525;    0.000
703.465; 3504.400;  153.525;    0.000
703.664; 3426.400;  113.525;    0.000
703.863; 3369.400;  170.525;    0.000
704.062; 3433.400;  115.525;    0.000
704.260; 3371.400;  133.525;    0.000
704.459; 3447.400;  123.525;    0.000
704.658; 3358.400;  105.525;    0.000
704.857; 3535.400;  125.525;    0.000
705.056; 3407.400;  108.525;    0.000
705.255; 3472.400;  117.525;    0.000
705.454; 3380.400;  126.525;    0.000
705.652; 3394.400;  137.525;    0.000
705.851; 3342.400;   95.525;    0.000
706.050; 3538.400;  120.525;    0.000
706.249; 3453.400;   81.525;    0.000
706.447; 3461.400;  105.525;    0.000
706.646; 3548.400;  107.525;    0.000
706.845; 3564.400;  104.525;    0.000
707.043; 3530.400;  136.525;    0.000
707.242; 3487.400;   89.525;    0.000
707.441; 3523.400;  147.525;    0.000
707.639; 3443.400;  156.525;    0.000
707.838; 3485.400;  114.525;    0.000
708.037; 3422.400;  100.525;    0.000
708.235; 3544.400;  103.525;    0.000
708.434; 3604.400;  102.525;    0.000
708.632; 3540.400;  100.525;    0.000
708.831; 3587.400;  121.525;    0.000
709.029; 3510.400;  102.525;    0.000
709.228; 3545.400;   88.525;    0.000
709.426; 3625.400;  135.525;    0.000
709.625; 3623.400;  128.525;    0.000
709.823; 3418.400;  123.525;    0.000
710.022; 3660.400;  137.525;    0.000
710.220; 3719.400;  134.525;    0.000
710.418; 3655.400;  122.525;    0.000
710.617; 3506.400;   64.525;    0.000
710.815; 3618.400;   94.525;    0.000
711.013; 3607.400;  127.525;    0.000
711.212; 3704.400;  105.525;    0.000
711.410; 3706.400;  117.525;    0.000
711.608; 3710.400;  114.525;    0.000
711.807; 3714.400;  119.525;    0.000
712.005; 3752.400;   92.525;    0.000
712.203; 3707.400;   95.525;    0.000
712.401; 3740.400;  107.525;    0.000
712.599; 3702.400;  127.525;    0.000
712.798; 3804.400;  120.525;    0.000
712.996; 3723.400;   76.525;    0.000
713.194; 3770.400;  118.525;    0.000
713.392; 3699.400;   60.525;    0.000
713.590; 3780.400;   92.525;    0.000
713.788; 3827.400;  110.525;    0.000
713.986; 3832.400;  130.525;    0.000
714.184; 3858.400;   71.525;    0.000
714.382; 3916.400;   86.525;    0.000
714.580; 3837.400;   74.525;    0.000
714.778; 4024.400;  133.525;    0.000
714.976; 3903.400;   81.525;    0.000
715.174; 4048.400;  100.525;    0.000
715.372; 4269.400;  141.525;    0.000
715.570; 4403.400;   73.525;    0.000
715.768; 4769.400;  119.525;    0.000
715.966; 4768.400;   81.525;    0.000
716.164; 4595.400;  130.525;    0.000
716.362; 4531.400;  125.525;    0.000
716.560; 4508.400;  109.525;    0.000
716.758; 4399.400;   96.525;    0.000
716.955; 4283.400;   83.525;    0.000
717.153; 4278.400;   87.525;    0.000
717.351; 4278.400;  123.525;    0.000
717.549; 4205.400;  121.525;    0.000
717.746; 4002.400;  128.525;    0.000
717.944; 4146.400;  132.525;    0.000
718.142; 4184.400;  120.525;    0.000
718.340; 4134.400;   94.525;    0.000
718.537; 4127.400;   95.525;    0.000
718.735; 4130.400;  152.525;    0.000
718.933; 4228.400;  124.525;    0.000
719.130; 4175.400;  114.525;    0.000
719.328; 4106.400;   63.525;    0.000
719.525; 4048.400;  146.525;    0.000
719.723; 4104.400;   96.525;    0.000
719.920; 4157.400;  120.525;    0.000
720.118; 4120.400;   59.525;    0.000
720.316; 4116.400;  116.525;    0.000
720.513; 4177.400;  127.525;    0.000
720.711; 4199.400;  110.525;    0.000
720.908; 4069.400;   92.525;    0.000
721.105; 4137.400;  138.525;    0.000
721.303; 4093.400;   90.525;    0.000
721.500; 4167.400;  126.525;    0.000
721.698; 4124.400;  103.525;    0.000
721.895; 4151.400;  206.525;    0.000
722.092; 4181.400;   63.525;    0.000
722.290; 4237.400;  123.525;    0.000
722.487; 4240.400;  137.525;    0.000
722.684; 4001.400;  126.525;    0.000
722.882; 4092.400;  119.525;    0.000
723.079; 4155.400;  132.525;    0.000
723.276; 4175.400;   98.525;    0.000
723.473; 4065.400;   97.525;    0.000
723.671; 4105.400;   43.525;    0.000
723.868; 4289.400;  142.525;    0.000
724.065; 4234.400;  102.525;    0.000
724.262; 4114.400;  119.525;    0.000
724.459; 4201.400;   73.525;    0.000
724.656; 4189.400;  128.525;    0.000
724.854; 4249.400;  135.525;    0.000
725.051; 4110.400;   81.525;    0.000
725.248; 4184.400;   88.525;    0.000
725.445; 4221.400;  129.525;    0.000
725.642; 4163.400;   76.525;    0.000
725.839; 4227.400;  134.525;    0.000
726.036; 4320.400;  101.525;    0.000
726.233; 4235.400;   68.525;    0.000
726.430; 4235.400;  121.525;    0.000
726.627; 4192.400;  136.525;    0.000
726.824; 4186.400;   87.525;    0.000
727.021; 4325.400;  141.525;    0.000
727.218; 4440.400;   92.525;    0.000
727.414; 4402.400;  121.525;    0.000
727.611; 4315.400;  100.525;    0.000
727.808; 4296.400;  130.525;    0.000
728.005; 4247.400;   83.525;    0.000
728.202; 4291.400;  120.525;    0.000
728.399; 4238.400;   75.525;    0.000
728.595; 4282.400;  148.525;    0.000
728.792; 4181.400;   79.525;    0.000
728.989; 4414.400;   86.525;    0.000
729.186; 4306.400;   80.525;    0.000
729.382; 4422.400;   72.525;    0.000
729.579; 4312.400;  112.525;    0.000
729.776; 4329.400;  106.525;    0.000
729.972; 4272.400;   77.525;    0.000
730.169; 4334.400;  118.525;    0.000
730.366; 4264.400;   92.525;    0.000
730.562; 4405.400;  104.525;    0.000
730.759; 4233.400;   95.525;    0.000
730.955; 4437.400;   85.525;    0.000
731.152; 4336.400;   79.525;    0.000
731.348; 4391.400;   72.525;    0.000
731.545; 4389.400;   56.525;    0.000
731.741; 4357.400;  106.525;    0.000
731.938; 4511.400;  113.525;    0.000
732.134; 4309.400;  106.525;    0.000
732.331; 4400.400;   82.525;    0.000
732.527; 4461.400;   80.525;    0.000
732.724; 4459.400;   97.525;    0.000
732.920; 4428.400;  127.525;    0.000
733.116; 4355.400;  115.525;    0.000
733.313; 4373.400;  153.525;    0.000
733.509; 4393.400;   76.525;    0.000
733.705; 4366.400;  159.525;    0.000
733.902; 4507.400;   82.525;    0.000
734.098; 4398.400;   70.525;    0.000
734.294; 4439.400;  105.525;    0.000
734.490; 4515.400;  110.525;    0.000
734.687; 4444.400;  102.525;    0.000
734.883; 4468.400;   77.525;    0.000
735.079; 4402.400;   93.525;    0.000
735.275; 4436.400;  109.525;    0.000
735.471; 4464.400;   99.525;    0.000
735.667; 4379.400;  107.525;    0.000
735.863; 4409.400;   89.525;    0.000
736.060; 4532.400;  105.525;    0.000
736.256; 4489.400;  113.525;    0.000
736.452; 4453.400;   90.525;    0.000
736.648; 4520.400;   88.525;    0.000
736.844; 4603.400;  129.525;    0.000
737.040; 4695.400;  139.525;    0.000
737.236; 4537.400;  129.525;    0.000
737.432; 4659.400;   67.525;    0.000
737.628; 4683.400;  104.525;    0.000
737.824; 4636.400;  111.525;    0.000
738.019; 4608.400;  116.525;    0.000
738.215; 4651.400;  135.525;    0.000
738.411; 4742.400;  118.525;    0.000
738.607; 4624.400;   58.525;    0.000
738.803; 4649.400;   32.525;    0.000
738.999; 4675.400;  120.525;    0.000
739.195; 4694.400;   76.525;    0.000
739.390; 4740.400;  119.525;    0.000
739.586; 4737.400;   83.525;    0.000
739.782; 4761.400;  134.525;    0.000
739.978; 4756.400;  122.525;    0.000
740.173; 4784.400;   96.525;    0.000
740.369; 4805.400;   86.525;    0.000
740.565; 4839.400;  122.525;    0.000
740.760; 4845.400;   99.525;    0.000
740.956; 4909.400;  137.525;    0.000
741.152; 4927.400;  108.525;    0.000
741.347; 4879.400;   65.525;    0.000
741.543; 5004.400;   73.525;    0.000
741.738; 5137.400;  142.525;    0.000
741.934; 5329.400;  131.525;    0.000
742.129; 5508.400;   66.525;    0.000
742.325; 6402.400;  143.525;    0.000
742.520; 6969.400;  119.525;    0.000
742.716; 6495.400;  109.525;    0.000
742.911; 6253.400;   62.525;    0.000
743.107; 6103.400;  119.525;    0.000
743.302; 5952.400;   78.525;    0.000
743.498; 5971.400;  130.525;    0.000
743.693; 6136.400;   75.525;    0.000
743.888; 6291.400;  135.525;    0.000
744.084; 7354.400;  106.525;    0.000
744.279; 8997.400;  101.525;    0.000
744.474; 9072.400;   91.525;    0.000
744.670; 8121.400;  144.525;    0.000
744.865; 7286.400;  128.525;    0.000
745.060; 6900.400;   63.525;    0.000
745.255; 6777.400;  155.525;    0.000
745.451; 6457.400;  110.525;    0.000
745.646; 6363.400;  150.525;    0.000
745.841; 6300.400;  128.525;    0.000
746.036; 6407.400;  110.525;    0.000
746.231; 6715.400;  126.525;    0.000
746.426; 6917.400;   83.525;    0.000
746.622; 8286.400;  157.525;    0.000
746.817;10917.400;  112.525;    0.000
747.012;12046.400;  115.525;    0.000
747.207;10638.400;  161.525;    0.000
747.402; 9279.400;   88.525;    0.000
747.597; 8490.400;  103.525;    0.000
747.792; 8103.400;  152.525;    0.000
747.987; 7798.400;   80.525;    0.000
748.182; 7554.400;   89.525;    0.000
748.377; 7164.400;  104.525;    0.000
748.572; 6984.400;  138.525;    0.000
748.767; 6690.400;  100.525;    0.000
748.961; 6402.400;  106.525;    0.000
749.156; 6254.400;  113.525;    0.000
749.351; 6057.400;  116.525;    0.000
749.546; 5845.400;  107.525;    0.000
749.741; 5802.400;  102.525;    0.000
749.936; 5930.400;  105.525;    0.000
750.130; 5764.400;  111.525;    0.000
750.325; 5779.400;   72.525;    0.000
750.520; 5657.400;   96.525;    0.000
750.715; 5584.400;  135.525;    0.000
750.909; 5580.400;  107.525;    0.000
751.104; 5563.400;  106.525;    0.000
751.299; 5450.400;  144.525;    0.000
751.493; 5429.400;  116.525;    0.000
751.688; 5431.400;   96.525;    0.000
751.882; 5369.400;   92.525;    0.000
752.077; 5400.400;  109.525;    0.000
752.272; 5436.400;   96.525;    0.000
752.466; 5233.400;  110.525;    0.000
752.661; 5386.400;  120.525;    0.000
752.855; 5115.400;   70.525;    0.000
753.050; 5249.400;  129.525;    0.000
753.244; 5247.400;  126.525;    0.000
753.439; 5099.400;  115.525;    0.000
753.633; 5182.400;  120.525;    0.000
753.828; 5014.400;  129.525;    0.000
754.022; 5161.400;  139.525;    0.000
754.216; 5022.400;  121.525;    0.000
754.411; 5040.400;  108.525;    0.000
754.605; 5068.400;   94.525;    0.000
754.799; 5050.400;  125.525;    0.000
754.994; 5041.400;  160.525;    0.000
755.188; 5138.400;  151.525;    0.000
755.382; 4963.400;  102.525;    0.000
755.576; 5011.400;  103.525;    0.000
755.771; 5144.400;   99.525;    0.000
755.965; 5005.400;  158.525;    0.000
756.159; 5066.400;   96.525;    0.000
756.353; 4952.400;  157.525;    0.000
756.547; 5030.400;  132.525;    0.000
756.742; 4993.400;  106.525;    0.000
756.936; 4995.400;  113.525;    0.000
757.130; 4978.400;  114.525;    0.000
757.324; 4965.400;  111.525;    0.000
757.518; 5032.400;  142.525;    0.000
757.712; 4917.400;  137.525;    0.000
757.906; 5042.400;   93.525;    0.000
758.100; 5096.400;  119.525;    0.000
758.294; 5103.400;  132.525;    0.000
758.488; 5021.400;  153.525;    0.000
758.682; 4951.400;  101.525;    0.000
758.876; 5044.400;  129.525;    0.000
759.070; 5053.400;  168.525;    0.000
759.264; 4928.400;   96.525;    0.000
759.458; 4859.400;  117.525;    0.000
759.651; 4992.400;  135.525;    0.000
759.845; 4899.400;  127.525;    0.000
760.039; 5019.400;  120.525;    0.000
760.233; 4811.400;  124.525;    0.000
760.427; 4848.400;  115.525;    0.000
760.620; 4989.400;  130.525;    0.000
760.814; 5014.400;  102.525;    0.000
761.008; 5046.400;  174.525;    0.000
761.202; 4978.400;  132.525;    0.000
761.395; 5181.400;  126.525;    0.000
761.589; 4913.400;  133.525;    0.000
761.783; 4962.400;  147.525;    0.000
761.976; 5026.400;  147.525;    0.000
762.170; 4938.400;  174.525;    0.000
762.363; 4909.400;   97.525;    0.000
762.557; 5043.400;  141.525;    0.000
762.750; 5026.400;  112.525;    0.000
762.944; 5126.400;  110.525;    0.000
763.138; 5110.400;  125.525;    0.000
763.331; 5085.400;  101.525;    0.000
763.524; 5250.400;  101.525;    0.000
763.718; 5142.400;  156.525;    0.000
763.911; 5132.400;  143.525;    0.000
764.105; 5118.400;  139.525;    0.000
764.298; 5109.400;   89.525;    0.000
764.492; 5026.400;  111.525;    0.000
764.685; 5114.400;  136.525;    0.000
764.878; 5243.400;  146.525;    0.000
765.072; 5144.400;  110.525;    0.000
765.265; 5187.400;  141.525;    0.000
765.458; 5026.400;   82.525;    0.000
765.651; 5214.400;  144.525;    0.000
765.845; 5050.400;   79.525;    0.000
766.038; 5125.400;  123.525;    0.000
766.231; 5694.400;  125.525;    0.000
766.424; 8182.400;  131.525;    0.000
766.617; 8382.400;   62.525;    0.000
766.811; 5592.400;  142.525;    0.000
767.004; 5285.400;  134.525;    0.000
767.197; 5322.400;  147.525;    0.000
767.390; 5144.400;  100.525;    0.000
767.583; 5214.400;  121.525;    0.000
767.776; 5193.400;   91.525;    0.000
767.969; 5189.400;  113.525;    0.000
768.162; 5204.400;  170.525;    0.000
768.355; 5325.400;  134.525;    0.000
768.548; 5218.400;  177.525;    0.000
768.741; 5171.400;   96.525;    0.000
768.934; 5277.400;  143.525;    0.000
769.127; 5331.400;  147.525;    0.000
769.320; 5411.400;   93.525;    0.000
769.513; 5344.400;  137.525;    0.000
769.706; 6024.400;   96.525;    0.000
769.898; 7935.400;  118.525;    0.000
770.091; 6560.400;  138.525;    0.000
770.284; 5478.400;  133.525;    0.000
770.477; 5477.400;  137.525;    0.000
770.670; 5609.400;  124.525;    0.000
770.862; 5506.400;  125.525;    0.000
771.055; 5591.400;  135.525;    0.000
771.248; 5526.400;  109.525;    0.000
771.441; 5789.400;  141.525;    0.000
771.633; 5589.400;  142.525;    0.000
771.826; 5770.400;  123.525;    0.000
772.018; 5758.400;  136.525;    0.000
772.211; 5732.400;  145.525;    0.000
772.404; 5851.400;  127.525;    0.000
772.596; 5849.400;  193.525;    0.000
772.789; 6006.400;   64.525;    0.000
772.981; 5942.400;  142.525;    0.000
773.174; 6093.400;  105.525;    0.000
773.366; 5940.400;  166.525;    0.000
773.559; 6105.400;  125.525;    0.000
773.751; 6260.400;  126.525;    0.000
773.944; 6286.400;  147.525;    0.000
774.136; 6537.400;  155.525;    0.000
774.329; 6597.400;  127.525;    0.000
774.521; 6739.400;  133.525;    0.000
774.713; 7039.400;  139.525;    0.000
774.906; 7304.400;  170.525;    0.000
775.098; 7445.400;  144.525;    0.000
775.290; 7811.400;  162.525;    0.000
775.483; 8134.400;  137.525;    0.000
775.675; 8626.400;  148.525;    0.000
775.867; 9267.400;   81.525;    0.000
776.059;10077.400;  134.525;    0.000
776.251;11062.400;  137.525;    0.000
776.444;12792.400;  155.525;    0.000
776.636;14860.400;  148.525;    0.000
776.828;19198.400;  129.525;    0.000
777.020;27275.400;  133.525;    0.000
777.212;41956.398;  137.525;    0.000
777.404;46753.398;  124.525;    0.000
777.596;42955.398;  142.525;    0.000
777.788;31354.400;  155.525;    0.000
777.980;23372.400;  119.525;    0.000
778.172;18763.400;  129.525;    0.000
778.364;15597.400;  122.525;    0.000
778.556;13892.400;  129.525;    0.000
778.748;12304.400;  178.525;    0.000
778.940;11343.400;  128.525;    0.000
779.132;10288.400;  145.525;    0.000
779.324; 9403.400;   89.525;    0.000
779.516; 8877.400;  161.525;    0.000
779.708; 8507.400;  183.525;    0.000
779.900; 8006.400;  124.525;    0.000
780.091; 7669.400;  143.525;    0.000
780.283; 7482.400;  135.525;    0.000
780.475; 7097.400;  129.525;    0.000
780.667; 6998.400;  178.525;    0.000
780.859; 6676.400;  146.525;    0.000
781.050; 6541.400;  156.525;    0.000
781.242; 6458.400;  138.525;    0.000
781.434; 6405.400;  117.525;    0.000
781.625; 6130.400;  161.525;    0.000
781.817; 5997.400;  127.525;    0.000
782.008; 6051.400;  138.525;    0.000
782.200; 5836.400;  139.525;    0.000
782.392; 5777.400;  179.525;    0.000
782.583; 5858.400;  137.525;    0.000
782.775; 5777.400;  162.525;    0.000
782.966; 5554.400;  159.525;    0.000
783.158; 5507.400;  118.525;    0.000
783.349; 5681.400;  160.525;    0.000
783.541; 5522.400;  139.525;    0.000
783.732; 5355.400;  145.525;    0.000
783.924; 5450.400;  146.525;    0.000
784.115; 5356.400;  125.525;    0.000
784.306; 5313.400;  118.525;    0.000
784.498; 5240.400;  144.525;    0.000
784.689; 5250.400;  145.525;    0.000
784.880; 5206.400;  137.525;    0.000
785.072; 5175.400;  157.525;    0.000
785.263; 5245.400;  149.525;    0.000
785.454; 5109.400;  128.525;    0.000
785.645; 5140.400;  131.525;    0.000
785.837; 5158.400;  137.525;    0.000
786.028; 5098.400;  161.525;    0.000
786.219; 5127.400;  155.525;    0.000
786.410; 5059.400;  146.525;    0.000
786.601; 4977.400;  120.525;    0.000
786.792; 5116.400;  179.525;    0.000
786.984; 4960.400;  113.525;    0.000
787.175; 5006.400;  156.525;    0.000
787.366; 4984.400;  131.525;    0.000
787.557; 5085.400;  138.525;    0.000
787.748; 4901.400;  112.525;    0.000
787.939; 5137.400;  115.525;    0.000
788.130; 5046.400;  150.525;    0.000
788.321; 4995.400;  122.525;    0.000
788.512; 5095.400;  147.525;    0.000
788.703; 5083.400;  126.525;    0.000
788.894; 5103.400;   80.525;    0.000
789.084; 5050.400;  127.525;    0.000
789.275; 5090.400;  141.525;    0.000
789.466; 5106.400;  108.525;    0.000
789.657; 4978.400;  137.525;    0.000
789.848; 5158.400;  126.525;    0.000
790.039; 5082.400;  144.525;    0.000
790.229; 5090.400;  105.525;    0.000
790.420; 5046.400;   96.525;    0.000
790.611; 5096.400;  171.525;    0.000
790.801; 5102.400;   89.525;    0.000
790.992; 5102.400;  140.525;    0.000
791.183; 5226.400;  143.525;    0.000
791.373; 5082.400;  128.525;    0.000
791.564; 5005.400;   96.525;    0.000
791.755; 5136.400;  111.525;    0.000
791.945; 5122.400;  112.525;    0.000
792.136; 5048.400;  124.525;    0.000
792.326; 5118.400;   88.525;    0.000
792.517; 5087.400;  130.525;    0.000
792.707; 5119.400;  144.525;    0.000
792.898; 5268.400;  120.525;    0.000
793.088; 5213.400;  106.525;    0.000
793.279; 5288.400;  104.525;    0.000
793.469; 5288.400;  103.525;    0.000
793.660; 5436.400;  120.525;    0.000
793.850; 5501.400;  106.525;    0.000
794.040; 5701.400;  135.525;    0.000
794.231; 6165.400;   80.525;    0.000
794.421; 6525.400;  120.525;    0.000
794.611; 7277.400;  154.525;    0.000
794.802; 8603.400;  103.525;    0.000
794.992; 9109.400;  120.525;    0.000
795.182; 9157.400;  156.525;    0.000
795.372; 8671.400;  104.525;    0.000
795.563; 7713.400;  153.525;    0.000
795.753; 7102.400;  112.525;    0.000
795.943; 6531.400;  128.525;    0.000
796.133; 6197.400;  128.525;    0.000
796.323; 5928.400;  152.525;    0.000
796.513; 5819.400;  123.525;    0.000
796.703; 5712.400;  134.525;    0.000
796.893; 5374.400;  120.525;    0.000
797.083; 5335.400;  136.525;    0.000
797.273; 5239.400;  128.525;    0.000
797.463; 5166.400;  140.525;    0.000
797.653; 5037.400;   75.525;    0.000
797.843; 5132.400;  114.525;    0.000
798.033; 5012.400;   90.525;    0.000
798.223; 4836.400;  136.525;    0.000
798.413; 4988.400;  164.525;    0.000
798.603; 4897.400;  150.525;    0.000
798.793; 4801.400;  137.525;    0.000
798.983; 4691.400;  119.525;    0.000
799.172; 4661.400;  136.525;    0.000
799.362; 4581.400;  138.525;    0.000
799.552; 4597.400;  123.525;    0.000
799.742; 4645.400;  117.525;    0.000
799.932; 4558.400;  108.525;    0.000
800.121; 4533.400;  152.525;    0.000
800.311; 4573.400;  117.525;    0.000
800.501; 4515.400;  100.525;    0.000
800.690; 4521.400;  139.525;    0.000
800.880; 4388.400;  138.525;    0.000
801.070; 4459.400;  120.525;    0.000
801.259; 4437.400;  143.525;    0.000
801.449; 4438.400;  110.525;    0.000
801.638; 4537.400;  140.525;    0.000
801.828; 4395.400;  103.525;    0.000
802.017; 4474.400;   78.525;    0.000
802.207; 4595.400;  126.525;    0.000
802.396; 4332.400;  151.525;    0.000
802.586; 4369.400;  106.525;    0.000
802.775; 4512.400;  152.525;    0.000
802.965; 4352.400;  117.525;    0.000
803.154; 4326.400;  171.525;    0.000
803.343; 4393.400;  126.525;    0.000
803.533; 4413.400;  135.525;    0.000
803.722; 4391.400;  144.525;    0.000
803.911; 4389.400;  109.525;    0.000
804.101; 4262.400;  146.525;    0.000
804.290; 4257.400;  115.525;    0.000
804.479; 4389.400;  128.525;    0.000
804.668; 4348.400;  156.525;    0.000
804.857; 4285.400;  151.525;    0.000
805.047; 4348.400;  131.525;    0.000
805.236; 4317.400;  144.525;    0.000
805.425; 4389.400;  160.525;    0.000
805.614; 4267.400;  112.525;    0.000
805.803; 4375.400;  120.525;    0.000
805.992; 4267.400;  148.525;    0.000
806.181; 4289.400;  108.525;    0.000
806.370; 4219.400;  142.525;    0.000
806.559; 4430.400;  116.525;    0.000
806.748; 4430.400;  108.525;    0.000
806.937; 4298.400;  110.525;    0.000
807.126; 4297.400;  126.525;    0.000
807.315; 4322.400;  121.525;    0.000
807.504; 4304.400;  102.525;    0.000
807.693; 4312.400;  134.525;    0.000
807.882; 4372.400;  135.525;    0.000
808.071; 4293.400;  135.525;    0.000
808.260; 4354.400;   93.525;    0.000
808.448; 4379.400;  151.525;    0.000
808.637; 4485.400;  105.525;    0.000
808.826; 4435.400;  178.525;    0.000
809.015; 4405.400;  152.525;    0.000
809.203; 4424.400;  147.525;    0.000
809.392; 4456.400;  144.525;    0.000
809.581; 4505.400;  167.525;    0.000
809.770; 4518.400;  151.525;    0.000
809.958; 4427.400;  128.525;    0.000
810.147; 4647.400;  152.525;    0.000
810.335; 4663.400;  160.525;    0.000
810.524; 4565.400;  130.525;    0.000
810.713; 4600.400;  128.525;    0.000
810.901; 4738.400;  140.525;    0.000
811.090; 4668.400;  152.525;    0.000
811.278; 4838.400;  126.525;    0.000
811.467; 4853.400;  161.525;    0.000
811.655; 5083.400;  184.525;    0.000
811.844; 5016.400;  148.525;    0.000
812.032; 4923.400;  138.525;    0.000
812.220; 4956.400;  157.525;    0.000
812.409; 4907.400;  143.525;    0.000
812.597; 4958.400;  124.525;    0.000
812.785; 5153.400;  170.525;    0.000
812.974; 5084.400;  135.525;    0.000
813.162; 5051.400;  135.525;    0.000
813.350; 5092.400;  182.525;    0.000
813.539; 5106.400;  126.525;    0.000
813.727; 5233.400;  127.525;    0.000
813.915; 5223.400;  140.525;    0.000
814.103; 5350.400;  176.525;    0.000
814.291; 5355.400;  115.525;    0.000
814.479; 5332.400;  119.525;    0.000
814.668; 5439.400;  134.525;    0.000
814.856; 5582.400;  120.525;    0.000
815.044; 5520.400;  164.525;    0.000
815.232; 5684.400;  146.525;    0.000
815.420; 5895.400;  154.525;    0.000
815.608; 5970.400;  137.525;    0.000
815.796; 6082.400;  108.525;    0.000
815.984; 6155.400;  134.525;    0.000
816.172; 6315.400;  123.525;    0.000
816.360; 6542.400;  181.525;    0.000
816.548; 7002.400;  139.525;    0.000
816.736; 7132.400;  138.525;    0.000
816.924; 7576.400;  151.525;    0.000
817.111; 7790.400;  156.525;    0.000
817.299; 8368.400;  147.525;    0.000
817.487; 9120.400;  188.525;    0.000
817.675;10367.400;  129.525;    0.000
817.863;11819.400;  128.525;    0.000
818.050;16182.400;  110.525;    0.000
818.238;29085.400;  166.525;    0.000
818.426;40991.398;  136.525;    0.000
818.613;30082.400;  143.525;    0.000
818.801;25012.400;  150.525;    0.000
818.989;23748.400;  179.525;    0.000
819.176;25285.400;  123.525;    0.000
819.364;36306.398;  148.525;    0.000
819.552;51816.398;   86.525;    0.000
819.739;38015.398;  169.525;    0.000
819.927;27743.400;  130.525;    0.000
820.114;23037.400;  144.525;    0.000
820.302;20252.400;  166.525;    0.000
820.489;18085.400;  145.525;    0.000
820.677;16640.400;  101.525;    0.000
820.864;15774.400;  149.525;    0.000
821.052;15751.400;  130.525;    0.000
821.239;15913.400;  147.525;    0.000
821.426;16189.400;  121.525;    0.000
821.614;18769.400;  187.525;    0.000
821.801;19832.400;  105.525;    0.000
821.988;17342.400;  167.525;    0.000
822.176;16335.400;  130.525;    0.000
822.363;16783.400;  143.525;    0.000
822.550;15273.400;  108.525;    0.000
822.737;13385.400;  109.525;    0.000
822.924;12540.400;  156.525;    0.000
823.112;11818.400;  123.525;    0.000
823.299;11046.400;  128.525;    0.000
823.486;10615.400;  138.525;    0.000
823.673; 9817.400;  125.525;    0.000
823.860; 9739.400;  138.525;    0.000
824.047; 9772.400;  122.525;    0.000
824.234;10748.400;  134.525;    0.000
824.421;10790.400;   95.525;    0.000
824.608; 9603.400;  151.525;    0.000
824.795; 8704.400;  117.525;    0.000
824.982; 7999.400;  143.525;    0.000
825.169; 7531.400;   83.525;    0.000
825.356; 7368.400;  126.525;    0.000
825.543; 6858.400;   92.525;    0.000
825.730; 6667.400;  113.525;    0.000
825.917; 6476.400;  142.525;    0.000
826.104; 6210.400;  182.525;    0.000
826.290; 6079.400;  137.525;    0.000
826.477; 5918.400;  126.525;    0.000
826.664; 5758.400;  135.525;    0.000
826.851; 5511.400;  139.525;    0.000
827.038; 5614.400;  135.525;    0.000
827.224; 5466.400;  143.525;    0.000
827.411; 5370.400;  153.525;    0.000
827.598; 5258.400;  122.525;    0.000
827.784; 5122.400;  138.525;    0.000
827.971; 4992.400;  134.525;    0.000
828.157; 4866.400;  152.525;    0.000
828.344; 4752.400;  135.525;    0.000
828.531; 4708.400;  137.525;    0.000
828.717; 4706.400;  117.525;    0.000
828.904; 4605.400;  127.525;    0.000
829.090; 4584.400;  172.525;    0.000
829.277; 4577.400;  144.525;    0.000
829.463; 4417.400;  159.525;    0.000
829.650; 4460.400;  187.525;    0.000
829.836; 4441.400;  138.525;    0.000
830.022; 4317.400;  196.525;    0.000
830.209; 4369.400;  118.525;    0.000
830.395; 4249.400;  148.525;    0.000
830.581; 4203.400;  108.525;    0.000
830.768; 4097.400;  137.525;    0.000
830.954; 4057.400;  162.525;    0.000
831.140; 4097.400;  117.525;    0.000
831.327; 4005.400;  176.525;    0.000
831.513; 3932.400;  162.525;    0.000
831.699; 3913.400;  157.525;    0.000
831.885; 3973.400;  153.525;    0.000
832.071; 3943.400;  123.525;    0.000
832.257; 3853.400;  142.525;    0.000
832.444; 3807.400;  165.525;    0.000
832.630; 3829.400;  159.525;    0.000
832.816; 3789.400;  145.525;    0.000
833.002; 3740.400;  120.525;    0.000
833.188; 3677.400;  145.525;    0.000
833.374; 3626.400;  137.525;    0.000
833.560; 3697.400;  152.525;    0.000
833.746; 3649.400;  139.525;    0.000
833.932; 3617.400;  170.525;    0.000
834.118; 3541.400;  111.525;    0.000
834.303; 3612.400;  141.525;    0.000
834.489; 3577.400;  146.525;    0.000
834.675; 3639.400;  156.525;    0.000
834.861; 3409.400;   87.525;    0.000
835.047; 3513.400;  134.525;    0.000
835.233; 3411.400;   89.525;    0.000
835.418; 3625.400;  145.525;    0.000
835.604; 3468.400;  136.525;    0.000
835.790; 3437.400;  132.525;    0.000
835.976; 3401.400;  161.525;    0.000
836.161; 3430.400;  157.525;    0.000
836.347; 3457.400;  147.525;    0.000
836.533; 3463.400;  116.525;    0.000
836.718; 3439.400;  168.525;    0.000
836.904; 3393.400;  199.525;    0.000
837.089; 3374.400;  165.525;    0.000
837.275; 3377.400;  166.525;    0.000
837.460; 3306.400;  144.525;    0.000
837.646; 3400.400;  164.525;    0.000
837.831; 3381.400;  122.525;    0.000
838.017; 3462.400;  163.525;    0.000
838.202; 3313.400;  139.525;    0.000
838.388; 3368.400;  174.525;    0.000
838.573; 3425.400;  140.525;    0.000
838.759; 3359.400;  167.525;    0.000
838.944; 3396.400;  142.525;    0.000
839.129; 3297.400;  164.525;    0.000
839.315; 3309.400;  129.525;    0.000
839.500; 3293.400;  150.525;    0.000
839.685; 3284.400;  118.525;    0.000
839.870; 3307.400;  177.525;    0.000
840.056; 3409.400;  144.525;    0.000
840.241; 3391.400;  121.525;    0.000
840.426; 3421.400;  131.525;    0.000
840.611; 3571.400;  177.525;    0.000
840.796; 3452.400;  173.525;    0.000
840.981; 3497.400;  156.525;    0.000
841.166; 3576.400;  145.525;    0.000
841.352; 3539.400;  150.525;    0.000
841.537; 3478.400;  143.525;    0.000
841.722; 3619.400;  165.525;    0.000
841.907; 3557.400;  184.525;    0.000
842.092; 3585.400;  171.525;    0.000
842.277; 3612.400;  155.525;    0.000
842.461; 3712.400;  152.525;    0.000
842.646; 3770.400;  107.525;    0.000
842.831; 3911.400;  160.525;    0.000
843.016; 4021.400;  160.525;    0.000
843.201; 4065.400;  164.525;    0.000
843.386; 4239.400;  134.525;    0.000
843.571; 4476.400;  132.525;    0.000
843.755; 4708.400;  158.525;    0.000
843.940; 5123.400;  152.525;    0.000
844.125; 5801.400;  154.525;    0.000
844.310; 6934.400;  147.525;    0.000
844.494; 9419.400;  158.525;    0.000
844.679;13147.400;  173.525;    0.000
844.864;12874.400;  152.525;    0.000
845.048;10097.400;  139.525;    0.000
845.233; 8298.400;  200.525;    0.000
845.418; 7290.400;  139.525;    0.000
845.602; 6314.400;  147.525;    0.000
845.787; 5610.400;  148.525;    0.000
845.971; 5255.400;  170.525;    0.000
846.156; 4826.400;  136.525;    0.000
846.340; 4818.400;  146.525;    0.000
846.525; 4360.400;  188.525;    0.000
846.709; 4158.400;  128.525;    0.000
846.893; 4126.400;  151.525;    0.000
847.078; 3824.400;  164.525;    0.000
847.262; 3766.400;  155.525;    0.000
847.447; 3641.400;  114.525;    0.000
847.631; 3616.400;  148.525;    0.000
847.815; 3428.400;  114.525;    0.000
848.000; 3401.400;  134.525;    0.000
848.184; 3452.400;  154.525;    0.000
848.368; 3303.400;  145.525;    0.000
848.552; 3301.400;  122.525;    0.000
848.736; 3275.400;  139.525;    0.000
848.921; 3273.400;  143.525;    0.000
849.105; 3143.400;  145.525;    0.000
849.289; 3168.400;  173.525;    0.000
849.473; 3173.400;  147.525;    0.000
849.657; 3082.400;  144.525;    0.000
849.841; 3097.400;  168.525;    0.000
850.025; 3000.400;  205.525;    0.000
850.209; 2985.400;  171.525;    0.000
850.393; 2925.400;  130.525;    0.000
850.577; 2866.400;  146.525;    0.000
850.761; 3053.400;  188.525;    0.000
850.945; 2941.400;  137.525;    0.000
851.129; 2985.400;  192.525;    0.000
851.313; 2893.400;  199.525;    0.000
851.497; 2842.400;  165.525;    0.000
851.680; 2901.400;  196.525;    0.000
851.864; 2919.400;  169.525;    0.000
852.048; 2877.400;  156.525;    0.000
852.232; 2921.400;  150.525;    0.000
852.416; 2938.400;  219.525;    0.000
852.599; 2953.400;  168.525;    0.000
852.783; 2854.400;  165.525;    0.000
852.967; 2887.400;  166.525;    0.000
853.150; 2927.400;  191.525;    0.000
853.334; 2874.400;  158.525;    0.000
853.518; 2857.400;  168.525;    0.000
853.701; 2812.400;  125.525;    0.000
853.885; 2836.400;  165.525;    0.000
854.068; 2800.400;  142.525;    0.000
854.252; 2834.400;  167.525;    0.000
854.435; 2837.400;  146.525;    0.000
854.619; 2839.400;  163.525;    0.000
854.802; 2817.400;  167.525;    0.000
854.986; 2885.400;  163.525;    0.000
855.169; 2902.400;  146.525;    0.000
855.353; 2921.400;  183.525;    0.000
855.536; 2786.400;  140.525;    0.000
855.719; 2917.400;  168.525;    0.000
855.903; 2847.400;  170.525;    0.000
856.086; 3026.400;  145.525;    0.000
856.269; 2853.400;  126.525;    0.000
856.452; 2992.400;  142.525;    0.000
856.636; 3053.400;  140.525;    0.000
856.819; 3242.400;  127.525;    0.000
857.002; 3476.400;  165.525;    0.000
857.185; 3295.400;  111.525;    0.000
857.368; 3201.400;  143.525;    0.000
857.552; 3107.400;  174.525;    0.000
857.735; 3050.400;  194.525;    0.000
857.918; 3127.400;  171.525;    0.000
858.101; 2996.400;  142.525;    0.000
858.284; 3051.400;  118.525;    0.000
858.467; 3068.400;  163.525;    0.000
858.650; 3114.400;  149.525;    0.000
858.833; 3194.400;  120.525;    0.000
859.016; 3241.400;  169.525;    0.000
859.199; 3312.400;  121.525;    0.000
859.382; 3777.400;  184.525;    0.000
859.564; 4018.400;  139.525;    0.000
859.747; 4090.400;  126.525;    0.000
859.930; 3631.400;  109.525;    0.000
860.113; 3609.400;  137.525;    0.000
860.296; 3501.400;  182.525;    0.000
860.478; 3394.400;  136.525;    0.000
860.661; 3434.400;  157.525;    0.000
860.844; 3414.400;  129.525;    0.000
861.027; 3325.400;  163.525;    0.000
861.209; 3251.400;  151.525;    0.000
861.392; 3258.400;  124.525;    0.000
861.575; 3262.400;  163.525;    0.000
861.757; 3296.400;  205.525;    0.000
861.940; 3315.400;  180.525;    0.000
862.122; 3382.400;  148.525;    0.000
862.305; 3524.400;  128.525;    0.000
862.487; 3690.400;  172.525;    0.000
862.670; 3935.400;  123.525;    0.000
862.852; 4820.400;  126.525;    0.000
863.035; 5880.400;  174.525;    0.000
863.217; 5747.400;  160.525;    0.000
863.400; 5154.400;  164.525;    0.000
863.582; 4834.400;  118.525;    0.000
863.764; 4403.400;  143.525;    0.000
863.947; 4231.400;  137.525;    0.000
864.129; 4130.400;  166.525;    0.000
864.311; 4074.400;  128.525;    0.000
864.493; 3980.400;  153.525;    0.000
864.676; 3866.400;  156.525;    0.000
864.858; 3742.400;  159.525;    0.000
865.040; 3822.400;  163.525;    0.000
865.222; 3784.400;  138.525;    0.000
865.404; 4017.400;  157.525;    0.000
865.587; 4062.400;  184.525;    0.000
865.769; 4286.400;  178.525;    0.000
865.951; 4224.400;  104.525;    0.000
866.133; 4269.400;  147.525;    0.000
866.315; 4141.400;  141.525;    0.000
866.497; 4244.400;  132.525;    0.000
866.679; 4320.400;  139.525;    0.000
866.861; 4537.400;  118.525;    0.000
867.043; 4735.400;  154.525;    0.000
867.225; 5113.400;  147.525;    0.000
867.407; 5519.400;  158.525;    0.000
867.589; 6251.400;  172.525;    0.000
867.770; 7889.400;  159.525;    0.000
867.952;10996.400;  149.525;    0.000
868.134;14477.400;  156.525;    0.000
868.316;14080.400;  171.525;    0.000
868.498;13646.400;  200.525;    0.000
868.679;11945.400;  174.525;    0.000
868.861; 9657.400;  175.525;    0.000
869.043; 8151.400;  174.525;    0.000
869.224; 7023.400;  122.525;    0.000
869.406; 6514.400;  166.525;    0.000
869.588; 5909.400;  143.525;    0.000
869.769; 5483.400;  152.525;    0.000
869.951; 5476.400;  165.525;    0.000
870.132; 5694.400;  115.525;    0.000
870.314; 6250.400;  139.525;    0.000
870.495; 6461.400;  168.525;    0.000
870.677; 5888.400;  188.525;    0.000
870.858; 5513.400;  123.525;    0.000
871.040; 5934.400;  170.525;    0.000
871.221; 6704.400;  148.525;    0.000
871.403; 6395.400;  140.525;    0.000
871.584; 5813.400;  174.525;    0.000
871.765; 5897.400;  168.525;    0.000
871.947; 6230.400;  191.525;    0.000
872.128; 5651.400;  132.525;    0.000
872.309; 4900.400;  140.525;    0.000
872.491; 4439.400;  157.525;    0.000
872.672; 4293.400;  130.525;    0.000
872.853; 4060.400;  148.525;    0.000
873.034; 4008.400;  138.525;    0.000
873.215; 3899.400;  152.525;    0.000
873.396; 3558.400;  149.525;    0.000
873.578; 3363.400;  173.525;    0.000
873.759; 3273.400;  158.525;    0.000
873.940; 3271.400;  147.525;    0.000
874.121; 3202.400;  136.525;    0.000
874.302; 3088.400;  151.525;    0.000
874.483; 3024.400;  137.525;    0.000
874.664; 2991.400;  163.525;    0.000
874.845; 2970.400;  124.525;    0.000
875.026; 3026.400;  134.525;    0.000
875.207; 2945.400;  164.525;    0.000
875.388; 2799.400;  163.525;    0.000
875.568; 2854.400;  176.525;    0.000
875.749; 2748.400;  108.525;    0.000
875.930; 2724.400;  191.525;    0.000
876.111; 2791.400;  170.525;    0.000
876.292; 2636.400;  180.525;    0.000
876.472; 2584.400;  150.525;    0.000
876.653; 2599.400;  162.525;    0.000
876.834; 2509.400;  176.525;    0.000
877.015; 2586.400;  203.525;    0.000
877.195; 2623.400;  178.525;    0.000
877.376; 2555.400;  141.525;    0.000
877.556; 2486.400;  135.525;    0.000
877.737; 2531.400;  174.525;    0.000
877.918; 2560.400;  150.525;    0.000
878.098; 2392.400;  133.525;    0.000
878.279; 2456.400;  129.525;    0.000
878.459; 2386.400;  162.525;    0.000
878.640; 2456.400;  187.525;    0.000
878.820; 2483.400;  151.525;    0.000
879.000; 2411.400;  159.525;    0.000
879.181; 2423.400;  171.525;    0.000
879.361; 2400.400;  167.525;    0.000
879.542; 2313.400;  126.525;    0.000
879.722; 2372.400;  152.525;    0.000
879.902; 2310.400;  144.525;    0.000
880.083; 2348.400;  154.525;    0.000
880.263; 2421.400;  148.525;    0.000
880.443; 2537.400;  185.525;    0.000
880.623; 2601.400;  172.525;    0.000
880.803; 2848.400;  152.525;    0.000
880.984; 2603.400;  165.525;    0.000
881.164; 2533.400;  164.525;    0.000
881.344; 2491.400;  141.525;    0.000
881.524; 2517.400;  160.525;    0.000
881.704; 2561.400;  164.525;    0.000
881.884; 2598.400;  159.525;    0.000
882.064; 2915.400;  158.525;    0.000
882.244; 2938.400;  147.525;    0.000
882.424; 2695.400;  160.525;    0.000
882.604; 2597.400;  150.525;    0.000
882.784; 2570.400;  138.525;    0.000
882.964; 2436.400;  157.525;    0.000
883.144; 2338.400;  128.525;    0.000
883.324; 2462.400;  220.525;    0.000
883.504; 2415.400;  177.525;    0.000
883.683; 2370.400;  159.525;    0.000
883.863; 2443.400;  143.525;    0.000
884.043; 2296.400;  156.525;    0.000
884.223; 2328.400;  152.525;    0.000
884.402; 2270.400;  169.525;    0.000
884.582; 2264.400;  162.525;    0.000
884.762; 2304.400;  172.525;    0.000
884.941; 2231.400;  220.525;    0.000
885.121; 2209.400;  128.525;    0.000
885.301; 2278.400;  141.525;    0.000
885.480; 2215.400;  141.525;    0.000
885.660; 2181.400;  132.525;    0.000
885.839; 2220.400;  146.525;    0.000
886.019; 2187.400;  170.525;    0.000
886.198; 2166.400;  143.525;    0.000
886.378; 2084.400;  159.525;    0.000
886.557; 2135.400;  148.525;    0.000
886.737; 2109.400;  125.525;    0.000
886.916; 2186.400;  177.525;    0.000
887.095; 2162.400;  186.525;    0.000
887.275; 2129.400;  134.525;    0.000
887.454; 2190.400;  148.525;    0.000
887.633; 2161.400;  171.525;    0.000
887.813; 2148.400;  187.525;    0.000
887.992; 2122.400;  157.525;    0.000
888.171; 2171.400;  143.525;    0.000
888.350; 2124.400;  182.525;    0.000
888.530; 2177.400;  142.525;    0.000
888.709; 2041.400;  160.525;    0.000
888.888; 2128.400;  197.525;    0.000
889.067; 2160.400;  126.525;    0.000
889.246; 2179.400;  197.525;    0.000
889.425; 2133.400;  161.525;    0.000
889.604; 2169.400;  180.525;    0.000
889.783; 2123.400;  135.525;    0.000
889.962; 2053.400;  107.525;    0.000
890.141; 2178.400;  167.525;    0.000
890.320; 2101.400;  149.525;    0.000
890.499; 2033.400;  194.525;    0.000
890.678; 2078.400;  138.525;    0.000
890.857; 2111.400;  146.525;    0.000
891.036; 2100.400;  178.525;    0.000
891.214; 2069.400;  151.525;    0.000
891.393; 2057.400;  137.525;    0.000
891.572; 2058.400;  177.525;    0.000
891.751; 2148.400;  149.525;    0.000
891.930; 2089.400;  189.525;    0.000
892.108; 2063.400;  136.525;    0.000
892.287; 2093.400;  129.525;    0.000
892.466; 2090.400;  163.525;    0.000
892.644; 2091.400;  147.525;    0.000
892.823; 2069.400;  127.525;    0.000
893.001; 2116.400;  192.525;    0.000
893.180; 2063.400;  157.525;    0.000
893.359; 2112.400;  176.525;    0.000
893.537; 2120.400;  146.525;    0.000
893.716; 2109.400;  154.525;    0.000
893.894; 2033.400;  166.525;    0.000
894.073; 2022.400;  163.525;    0.000
894.251; 2075.400;  166.525;    0.000
894.429; 2025.400;  149.525;    0.000
894.608; 2049.400;  141.525;    0.000
894.786; 2075.400;  139.525;    0.000
894.964; 2096.400;  180.525;    0.000
895.143; 2110.400;  193.525;    0.000
895.321; 2107.400;  163.525;    0.000
895.499; 2051.400;  163.525;    0.000
895.677; 2080.400;  194.525;    0.000
895.856; 2021.400;  176.525;    0.000
896.034; 2136.400;  173.525;    0.000
896.212; 2060.400;  180.525;    0.000
896.390; 2106.400;  146.525;    0.000
896.568; 2201.400;  167.525;    0.000
896.746; 2061.400;  158.525;    0.000
896.924; 2151.400;  163.525;    0.000
897.102; 2145.400;  170.525;    0.000
897.280; 1976.400;  159.525;    0.000
897.458; 2169.400;  182.525;    0.000
897.636; 2187.400;  151.525;    0.000
897.814; 2068.400;  130.525;    0.000
897.992; 2171.400;  213.525;    0.000
898.170; 2119.400;  164.525;    0.000
898.348; 2141.400;  159.525;    0.000
898.526; 2114.400;  182.525;    0.000
898.704; 2181.400;  209.525;    0.000
898.882; 2172.400;  145.525;    0.000
899.059; 2202.400;  172.525;    0.000
899.237; 2105.400;  172.525;    0.000
899.415; 2202.400;  211.525;    0.000
899.593; 2167.400;  151.525;    0.000
899.770; 2139.400;  147.525;    0.000
899.948; 2202.400;  218.525;    0.000
900.125; 2117.400;  166.525;    0.000
900.303; 2198.400;  146.525;    0.000
900.481; 2176.400;  174.525;    0.000
900.658; 2220.400;  198.525;    0.000
900.836; 2256.400;  125.525;    0.000
901.013; 2197.400;  197.525;    0.000
901.191; 2340.400;  181.525;    0.000
901.368; 2323.400;  185.525;    0.000
901.546; 2411.400;  197.525;    0.000
901.723; 2365.400;  205.525;    0.000
901.901; 2455.400;  187.525;    0.000
902.078; 2445.400;  163.525;    0.000
902.255; 2540.400;  141.525;    0.000
902.433; 2516.400;  183.525;    0.000
902.610; 2499.400;  181.525;    0.000
902.787; 2476.400;  174.525;    0.000
902.964; 2633.400;  174.525;    0.000
903.142; 2581.400;  141.525;    0.000
903.319; 2747.400;  214.525;    0.000
903.496; 2672.400;  187.525;    0.000
903.673; 2763.400;  183.525;    0.000
903.850; 2709.400;  125.525;    0.000
904.027; 2823.400;  197.525;    0.000
904.204; 3104.400;  197.525;    0.000
904.381; 3355.400;  196.525;    0.000
904.558; 3804.400;  176.525;    0.000
904.735; 4251.400;  179.525;    0.000
904.912; 4248.400;  203.525;    0.000
905.089; 4277.400;  159.525;    0.000
905.266; 3966.400;  176.525;    0.000
905.443; 3623.400;  184.525;    0.000
905.620; 3448.400;  168.525;    0.000
905.797; 3285.400;  214.525;    0.000
905.974; 3135.400;  154.525;    0.000
906.151; 3080.400;  132.525;    0.000
906.327; 3102.400;  192.525;    0.000
906.504; 3099.400;  186.525;    0.000
906.681; 2993.400;  171.525;    0.000
906.858; 2868.400;  181.525;    0.000
907.034; 2751.400;  164.525;    0.000
907.211; 2786.400;  184.525;    0.000
907.388; 2660.400;  177.525;    0.000
907.564; 2659.400;  150.525;    0.000
907.741; 2675.400;  195.525;    0.000
907.917; 2558.400;  190.525;    0.000
908.094; 2606.400;  214.525;    0.000
908.271; 2567.400;  173.525;    0.000
908.447; 2534.400;  229.525;    0.000
908.623; 2462.400;  162.525;    0.000
908.800; 2402.400;  195.525;    0.000
908.976; 2372.400;  171.525;    0.000
909.153; 2496.400;  167.525;    0.000
909.329; 2334.400;  227.525;    0.000
909.505; 2324.400;  167.525;    0.000
909.682; 2350.400;  174.525;    0.000
909.858; 2245.400;  158.525;    0.000
910.034; 2305.400;  188.525;    0.000
910.211; 2166.400;  158.525;    0.000
910.387; 2217.400;  208.525;    0.000
910.563; 2268.400;  203.525;    0.000
910.739; 2211.400;  201.525;    0.000
910.915; 2273.400;  170.525;    0.000
911.091; 2278.400;  171.525;    0.000
911.268; 2201.400;  220.525;    0.000
911.444; 2249.400;  202.525;    0.000
911.620; 2236.400;  175.525;    0.000
911.796; 2159.400;  175.525;    0.000
911.972; 2156.400;  164.525;    0.000
912.148; 2257.400;  174.525;    0.000
912.324; 2237.400;  155.525;    0.000
912.500; 2269.400;  156.525;    0.000
912.676; 2264.400;  138.525;    0.000
912.851; 2239.400;  158.525;    0.000
913.027; 2267.400;  161.525;    0.000
913.203; 2209.400;  168.525;    0.000
913.379; 2237.400;  172.525;    0.000
913.555; 2179.400;  193.525;    0.000
913.730; 2214.400;  149.525;    0.000
913.906; 2224.400;  159.525;    0.000
914.082; 2305.400;  184.525;    0.000
914.258; 2253.400;  194.525;    0.000
914.433; 2168.400;  175.525;    0.000
914.609; 2192.400;  175.525;    0.000
914.784; 2129.400;  170.525;    0.000
914.960; 2171.400;  212.525;    0.000
915.136; 2207.400;  157.525;    0.000
915.311; 2265.400;  204.525;    0.000
915.487; 2139.400;  180.525;    0.000
915.662; 2263.400;  203.525;    0.000
915.838; 2184.400;  194.525;    0.000
916.013; 2236.400;  217.525;    0.000
916.189; 2247.400;  196.525;    0.000
916.364; 2204.400;  236.525;    0.000
916.539; 2212.400;  192.525;    0.000
916.715; 2223.400;  181.525;    0.000
916.890; 2219.400;  185.525;    0.000
917.065; 2188.400;  166.525;    0.000
917.240; 2187.400;  182.525;    0.000
917.416; 2265.400;  188.525;    0.000
917.591; 2222.400;  185.525;    0.000
917.766; 2192.400;  187.525;    0.000
917.941; 2251.400;  181.525;    0.000
918.116; 2158.400;  207.525;    0.000
918.292; 2197.400;  140.525;    0.000
918.467; 2256.400;  187.525;    0.000
918.642; 2193.400;  208.525;    0.000
918.817; 2254.400;  203.525;    0.000
918.992; 2238.400;  162.525;    0.000
919.167; 2201.400;  206.525;    0.000
919.342; 2225.400;  188.525;    0.000
919.517; 2249.400;  190.525;    0.000
919.692; 2220.400;  174.525;    0.000
919.867; 2230.400;  181.525;    0.000
920.041; 2281.400;  179.525;    0.000
920.216; 2273.400;  186.525;    0.000
920.391; 2345.400;  209.525;    0.000
920.566; 2385.400;  205.525;    0.000
920.741; 2394.400;  205.525;    0.000
920.915; 2509.400;  206.525;    0.000
921.090; 2605.400;  219.525;    0.000
921.265; 3215.400;  185.525;    0.000
921.439; 3475.400;  171.525;    0.000
921.614; 3214.400;  197.525;    0.000
921.789; 2783.400;  189.525;    0.000
921.963; 2737.400;  210.525;    0.000
922.138; 2572.400;  171.525;    0.000
922.312; 2634.400;  194.525;    0.000
922.487; 2714.400;  231.525;    0.000
922.661; 2758.400;  179.525;    0.000
922.836; 3075.400;  213.525;    0.000
923.010; 3193.400;  182.525;    0.000
923.185; 2914.400;  239.525;    0.000
923.359; 2722.400;  200.525;    0.000
923.534; 2776.400;  232.525;    0.000
923.708; 2886.400;  221.525;    0.000
923.882; 3085.400;  193.525;    0.000
924.057; 2880.400;  204.525;    0.000
924.231; 2754.400;  172.525;    0.000
924.405; 2617.400;  202.525;    0.000
924.579; 2702.400;  207.525;    0.000
924.753; 2625.400;  167.525;    0.000
924.928; 2525.400;  202.525;    0.000
925.102; 2628.400;  200.525;    0.000
925.276; 2671.400;  185.525;    0.000
925.450; 2642.400;  170.525;    0.000
925.624; 2709.400;  176.525;    0.000
925.798; 2883.400;  221.525;    0.000
925.972; 2947.400;  162.525;    0.000
926.146; 3196.400;  207.525;    0.000
926.320; 3398.400;  185.525;    0.000
926.494; 3703.400;  192.525;    0.000
926.668; 3952.400;  179.525;    0.000
926.842; 4138.400;  181.525;    0.000
927.016; 4057.400;  224.525;    0.000
927.190; 4092.400;  193.525;    0.000
927.363; 3812.400;  194.525;    0.000
927.537; 3713.400;  210.525;    0.000
927.711; 3550.400;  153.525;    0.000
927.885; 3469.400;  184.525;    0.000
928.058; 3513.400;  197.525;    0.000
928.232; 3401.400;  219.525;    0.000
928.406; 3227.400;  175.525;    0.000
928.579; 3150.400;  179.525;    0.000
928.753; 3177.400;  208.525;    0.000
928.927; 3003.400;  163.525;    0.000
929.100; 2999.400;  138.525;    0.000
929.274; 2938.400;  160.525;    0.000
929.447; 2820.400;  152.525;    0.000
929.621; 2837.400;  168.525;    0.000
929.794; 2680.400;  152.525;    0.000
929.968; 2700.400;  163.525;    0.000
930.141; 2740.400;  164.525;    0.000
930.315; 2665.400;  170.525;    0.000
930.488; 2633.400;  216.525;    0.000
930.661; 2565.400;  184.525;    0.000
930.835; 2579.400;  156.525;    0.000
931.008; 2581.400;  206.525;    0.000
931.181; 2455.400;  163.525;    0.000
931.354; 2549.400;  198.525;    0.000
931.528; 2559.400;  156.525;    0.000
931.701; 2420.400;  170.525;    0.000
931.874; 2429.400;  167.525;    0.000
932.047; 2358.400;  146.525;    0.000
932.220; 2403.400;  159.525;    0.000
932.393; 2338.400;  186.525;    0.000
932.566; 2417.400;  147.525;    0.000
932.739; 2325.400;  192.525;    0.000
932.912; 2316.400;  197.525;    0.000
933.085; 2318.400;  176.525;    0.000
933.258; 2250.400;  171.525;    0.000
933.431; 2323.400;  150.525;    0.000
933.604; 2363.400;  176.525;    0.000
933.777; 2265.400;  215.525;    0.000
933.950; 2236.400;  164.525;    0.000
934.123; 2292.400;  174.525;    0.000
934.296; 2204.400;  203.525;    0.000
934.468; 2216.400;  208.525;    0.000
934.641; 2235.400;  182.525;    0.000
934.814; 2221.400;  170.525;    0.000
934.987; 2203.400;  183.525;    0.000
935.159; 2211.400;  154.525;    0.000
935.332; 2099.400;  178.525;    0.000
935.505; 2210.400;  213.525;    0.000
935.677; 2173.400;  173.525;    0.000
935.850; 2208.400;  190.525;    0.000
936.022; 2238.400;  205.525;    0.000
936.195; 2154.400;  201.525;    0.000
936.367; 2114.400;  189.525;    0.000
936.540; 2275.400;  179.525;    0.000
936.712; 2215.400;  195.525;    0.000
936.885; 2150.400;  207.525;    0.000
937.057; 2202.400;  163.525;    0.000
937.229; 2218.400;  175.525;    0.000
937.402; 2276.400;  168.525;    0.000
937.574; 2330.400;  136.525;    0.000
937.746; 2354.400;  166.525;    0.000
937.919; 2538.400;  178.525;    0.000
938.091; 2568.400;  192.525;    0.000
938.263; 2665.400;  164.525;    0.000
938.435; 2962.400;  204.525;    0.000
938.608; 3528.400;  153.525;    0.000
938.780; 3930.400;  159.525;    0.000
938.952; 4117.400;  160.525;    0.000
939.124; 4219.400;  156.525;    0.000
939.296; 4752.400;  110.525;    0.000
939.468; 5035.400;  135.525;    0.000
939.640; 4470.400;  144.525;    0.000
939.812; 3933.400;  232.525;    0.000
939.984; 3486.400;  128.525;    0.000
940.156; 3239.400;  195.525;    0.000
940.328; 2988.400;  226.525;    0.000
940.500; 2904.400;  146.525;    0.000
940.672; 2821.400;  190.525;    0.000
940.843; 2672.400;  156.525;    0.000
941.015; 2664.400;  200.525;    0.000
941.187; 2479.400;  159.525;    0.000
941.359; 2533.400;  183.525;    0.000
941.531; 2369.400;  137.525;    0.000
941.702; 2423.400;  186.525;    0.000
941.874; 2435.400;  164.525;    0.000
942.046; 2402.400;  202.525;    0.000
942.217; 2269.400;  146.525;    0.000
942.389; 2369.400;  165.525;    0.000
942.560; 2222.400;  191.525;    0.000
942.732; 2298.400;  240.525;    0.000
942.904; 2142.400;  173.525;    0.000
943.075; 2043.400;  157.525;    0.000
943.247; 2175.400;  155.525;    0.000
943.418; 2132.400;  164.525;    0.000
943.589; 2100.400;  150.525;    0.000
943.761; 2136.400;  143.525;    0.000
943.932; 2036.400;  151.525;    0.000
944.104; 2120.400;  194.525;    0.000
944.275; 1999.400;  154.525;    0.000
944.446; 2043.400;  169.525;    0.000
944.617; 2081.400;  138.525;    0.000
944.789; 2065.400;  158.525;    0.000
944.960; 1995.400;  197.525;    0.000
945.131; 1940.400;  139.525;    0.000
945.302; 2024.400;  169.525;    0.000
945.473; 1941.400;  149.525;    0.000
945.645; 2015.400;  171.525;    0.000
945.816; 2006.400;  167.525;    0.000
945.987; 2087.400;  156.525;    0.000
946.158; 2091.400;  185.525;    0.000
946.329; 2189.400;  201.525;    0.000
946.500; 2022.400;  182.525;    0.000
946.671; 1954.400;  156.525;    0.000
946.842; 1952.400;  190.525;    0.000
947.013; 1916.400;  159.525;    0.000
947.183; 1947.400;  209.525;    0.000
947.354; 1922.400;  171.525;    0.000
947.525; 1902.400;  180.525;    0.000
947.696; 1857.400;  163.525;    0.000
947.867; 1885.400;  168.525;    0.000
948.037; 1822.400;  153.525;    0.000
948.208; 1974.400;  178.525;    0.000
948.379; 1884.400;  192.525;    0.000
948.550; 1943.400;  180.525;    0.000
948.720; 1893.400;  196.525;    0.000
948.891; 1904.400;  173.525;    0.000
949.061; 1900.400;  207.525;    0.000
949.232; 1827.400;  176.525;    0.000
949.403; 1870.400;  152.525;    0.000
949.573; 1895.400;  186.525;    0.000
949.744; 1863.400;  181.525;    0.000
949.914; 1825.400;  174.525;    0.000
950.085; 1838.400;  146.525;    0.000
950.255; 1856.400;  162.525;    0.000
950.425; 1792.400;  189.525;    0.000
950.596; 1876.400;  175.525;    0.000
950.766; 1947.400;  209.525;    0.000
950.936; 1852.400;  201.525;    0.000
951.107; 1835.400;  141.525;    0.000
951.277; 1911.400;  211.525;    0.000
951.447; 1807.400;  218.525;    0.000
951.617; 1906.400;  191.525;    0.000
951.788; 1749.400;  193.525;    0.000
951.958; 1834.400;  217.525;    0.000
952.128; 1776.400;  192.525;    0.000
952.298; 1820.400;  237.525;    0.000
952.468; 1802.400;  194.525;    0.000
952.638; 1761.400;  201.525;    0.000
952.808; 1806.400;  203.525;    0.000
952.978; 1767.400;  216.525;    0.000
953.148; 1759.400;  209.525;    0.000
953.318; 1806.400;  213.525;    0.000
953.488; 1713.400;  161.525;    0.000
953.658; 1798.400;  222.525;    0.000
953.828; 1732.400;  196.525;    0.000
953.998; 1686.400;  227.525;    0.000
954.167; 1744.400;  163.525;    0.000
954.337; 1663.400;  201.525;    0.000
954.507; 1690.400;  227.525;    0.000
954.677; 1709.400;  204.525;    0.000
954.846; 1838.400;  210.525;    0.000
955.016; 1697.400;  198.525;    0.000
955.186; 1710.400;  203.525;    0.000
955.355; 1788.400;  198.525;    0.000
955.525; 1631.400;  198.525;    0.000
955.695; 1712.400;  187.525;    0.000
955.864; 1667.400;  243.525;    0.000
956.034; 1664.400;  192.525;    0.000
956.203; 1753.400;  259.525;    0.000
956.373; 1624.400;  185.525;    0.000
956.542; 1707.400;  230.525;    0.000
956.711; 1668.400;  218.525;    0.000
956.881; 1679.400;  232.525;    0.000
957.050; 1761.400;  246.525;    0.000
957.220; 1707.400;  229.525;    0.000
957.389; 1772.400;  211.525;    0.000
957.558; 1611.400;  173.525;    0.000
957.727; 1718.400;  226.525;    0.000
957.897; 1663.400;  209.525;    0.000
958.066; 1606.400;  217.525;    0.000
958.235; 1585.400;  160.525;    0.000
958.404; 1652.400;  199.525;    0.000
958.573; 1644.400;  223.525;    0.000
958.743; 1590.400;  189.525;    0.000
958.912; 1658.400;  199.525;    0.000
959.081; 1583.400;  216.525;    0.000
959.250; 1527.400;  192.525;    0.000
959.419; 1647.400;  216.525;    0.000
959.588; 1650.400;  209.525;    0.000
959.757; 1618.400;  194.525;    0.000
959.926; 1628.400;  200.525;    0.000
960.094; 1610.400;  174.525;    0.000
960.263; 1594.400;  218.525;    0.000
960.432; 1640.400;  173.525;    0.000
960.601; 1614.400;  177.525;    0.000
960.770; 1547.400;  188.525;    0.000
960.939; 1554.400;  167.525;    0.000
961.107; 1634.400;  195.525;    0.000
961.276; 1515.400;  183.525;    0.000
961.445; 1520.400;  195.525;    0.000
961.613; 1566.400;  198.525;    0.000
961.782; 1612.400;  224.525;    0.000
961.951; 1526.400;  178.525;    0.000
962.119; 1602.400;  214.525;    0.000
962.288; 1619.400;  174.525;    0.000
962.456; 1514.400;  197.525;    0.000
962.625; 1503.400;  212.525;    0.000
962.793; 1558.400;  183.525;    0.000
962.962; 1524.400;  189.525;    0.000
963.130; 1556.400;  151.525;    0.000
963.298; 1504.400;  197.525;    0.000
963.467; 1560.400;  202.525;    0.000
963.635; 1666.400;  172.525;    0.000
963.803; 1629.400;  203.525;    0.000
963.972; 1617.400;  204.525;    0.000
964.140; 1553.400;  193.525;    0.000
964.308; 1541.400;  159.525;    0.000
964.477; 1512.400;  142.525;    0.000
964.645; 1639.400;  202.525;    0.000
964.813; 1641.400;  158.525;    0.000
964.981; 1573.400;  179.525;    0.000
965.149; 1639.400;  176.525;    0.000
965.317; 1565.400;  229.525;    0.000
965.485; 1530.400;  179.525;    0.000
965.653; 1587.400;  205.525;    0.000
965.821; 1541.400;  196.525;    0.000
965.989; 1546.400;  202.525;    0.000
966.157; 1557.400;  199.525;    0.000
966.325; 1608.400;  178.525;    0.000
966.493; 1536.400;  177.525;    0.000
966.661; 1483.400;  172.525;    0.000
966.829; 1482.400;  167.525;    0.000
966.996; 1499.400;  202.525;    0.000
967.164; 1609.400;  175.525;    0.000
967.332; 1611.400;  207.525;    0.000
967.500; 1588.400;  170.525;    0.000
967.667; 1488.400;  222.525;    0.000
967.835; 1566.400;  245.525;    0.000
968.003; 1581.400;  180.525;    0.000
968.170; 1532.400;  222.525;    0.000
968.338; 1555.400;  183.525;    0.000
968.505; 1561.400;  197.525;    0.000
968.673; 1512.400;  209.525;    0.000
968.841; 1525.400;  162.525;    0.000
969.008; 1621.400;  187.525;    0.000
969.175; 1542.400;  204.525;    0.000
969.343; 1541.400;  157.525;    0.000
969.510; 1537.400;  189.525;    0.000
969.678; 1517.400;  153.525;    0.000
969.845; 1527.400;  190.525;    0.000
970.012; 1512.400;  162.525;    0.000
970.180; 1563.400;  223.525;    0.000
970.347; 1519.400;  195.525;    0.000
970.514; 1587.400;  185.525;    0.000
970.681; 1514.400;  187.525;    0.000
970.849; 1543.400;  183.525;    0.000
971.016; 1508.400;  168.525;    0.000
971.183; 1578.400;  160.525;    0.000
971.350; 1560.400;  193.525;    0.000
971.517; 1580.400;  202.525;    0.000
971.684; 1560.400;  242.525;    0.000
971.851; 1561.400;  192.525;    0.000
972.018; 1528.400;  194.525;    0.000
972.185; 1529.400;  193.525;    0.000
972.352; 1553.400;  187.525;    0.000
972.519; 1583.400;  233.525;    0.000
972.686; 1473.400;  186.525;    0.000
972.853; 1519.400;  165.525;    0.000
973.020; 1465.400;  183.525;    0.000
973.186; 1505.400;  186.525;    0.000
973.353; 1498.400;  177.525;    0.000
973.520; 1539.400;  203.525;    0.000
973.687; 1516.400;  211.525;    0.000
973.853; 1555.400;  194.525;    0.000
974.020; 1521.400;  201.525;    0.000
974.187; 1522.400;  187.525;    0.000
974.353; 1560.400;  188.525;    0.000
974.520; 1501.400;  136.525;    0.000
974.687; 1534.400;  169.525;    0.000
974.853; 1529.400;  207.525;    0.000
975.020; 1514.400;  190.525;    0.000
975.186; 1521.400;  182.525;    0.000
975.353; 1463.400;  202.525;    0.000
975.519; 1476.400;  189.525;    0.000
975.685; 1573.400;  176.525;    0.000
975.852; 1476.400;  175.525;    0.000
976.018; 1497.400;  155.525;    0.000
976.184; 1514.400;  179.525;    0.000
976.351; 1529.400;  191.525;    0.000
976.517; 1451.400;  246.525;    0.000
976.683; 1507.400;  222.525;    0.000
976.849; 1501.400;  216.525;    0.000
977.016; 1420.400;  212.525;    0.000
977.182; 1439.400;  192.525;    0.000
977.348; 1452.400;  145.525;    0.000
977.514; 1492.400;  195.525;    0.000
977.680; 1459.400;  210.525;    0.000
977.846; 1479.400;  172.525;    0.000
978.012; 1438.400;  190.525;    0.000
978.178; 1505.400;  201.525;    0.000
978.344; 1449.400;  190.525;    0.000
978.510; 1456.400;  199.525;    0.000
978.676; 1438.400;  174.525;    0.000
978.842; 1514.400;  195.525;    0.000
979.008; 1503.400;  205.525;    0.000
979.174; 1451.400;  187.525;    0.000
979.340; 1453.400;  194.525;    0.000
979.505; 1470.400;  221.525;    0.000
979.671; 1468.400;  178.525;    0.000
979.837; 1542.400;  215.525;    0.000
980.003; 1496.400;  176.525;    0.000
980.168; 1547.400;  185.525;    0.000
980.334; 1480.400;  165.525;    0.000
980.499; 1525.400;  231.525;    0.000
980.665; 1570.400;  238.525;    0.000
980.831; 1565.400;  194.525;    0.000
980.996; 1468.400;  169.525;    0.000
981.162; 1517.400;  199.525;    0.000
981.327; 1501.400;  158.525;    0.000
981.493; 1570.400;  193.525;    0.000
981.658; 1483.400;  181.525;    0.000
981.823; 1499.400;  199.525;    0.000
981.989; 1551.400;  186.525;    0.000
982.154; 1499.400;  225.525;    0.000
982.319; 1522.400;  191.525;    0.000
982.485; 1530.400;  205.525;    0.000
982.650; 1498.400;  234.525;    0.000
982.815; 1588.400;  193.525;    0.000
982.980; 1542.400;  177.525;    0.000
983.146; 1564.400;  212.525;    0.000
983.311; 1498.400;  177.525;    0.000
983.476; 1454.400;  185.525;    0.000
983.641; 1483.400;  149.525;    0.000
983.806; 1474.400;  175.525;    0.000
983.971; 1451.400;  234.525;    0.000
984.136; 1464.400;  191.525;    0.000
984.301; 1468.400;  215.525;    0.000
984.466; 1516.400;  207.525;    0.000
984.631; 1460.400;  206.525;    0.000
984.796; 1482.400;  229.525;    0.000
984.961; 1453.400;  220.525;    0.000
985.126; 1499.400;  204.525;    0.000
985.291; 1463.400;  210.525;    0.000
985.455; 1531.400;  193.525;    0.000
985.620; 1468.400;  207.525;    0.000
985.785; 1501.400;  188.525;    0.000
985.950; 1392.400;  168.525;    0.000
986.114; 1484.400;  239.525;    0.000
986.279; 1488.400;  223.525;    0.000
986.444; 1531.400;  154.525;    0.000
986.608; 1561.400;  232.525;    0.000
986.773; 1523.400;  214.525;    0.000
986.937; 1607.400;  220.525;    0.000
987.102; 1569.400;  224.525;    0.000
987.266; 1506.400;  157.525;    0.000
987.431; 1605.400;  246.525;    0.000
987.595; 1552.400;  203.525;    0.000
987.760; 1586.400;  202.525;    0.000
987.924; 1611.400;  208.525;    0.000
988.088; 1534.400;  169.525;    0.000
988.253; 1421.400;  237.525;    0.000
988.417; 1483.400;  202.525;    0.000
988.581; 1560.400;  215.525;    0.000
988.746; 1522.400;  210.525;    0.000
988.910; 1472.400;  191.525;    0.000
989.074; 1427.400;  197.525;    0.000
989.238; 1498.400;  191.525;    0.000
989.402; 1435.400;  222.525;    0.000
989.566; 1470.400;  221.525;    0.000
989.731; 1485.400;  216.525;    0.000
989.895; 1444.400;  183.525;    0.000
990.059; 1442.400;  150.525;    0.000
990.223; 1444.400;  183.525;    0.000
990.387; 1466.400;  241.525;    0.000
990.551; 1457.400;  198.525;    0.000
990.714; 1461.400;  176.525;    0.000
990.878; 1376.400;  203.525;    0.000
991.042; 1439.400;  146.525;    0.000
991.206; 1492.400;  199.525;    0.000
991.370; 1457.400;  223.525;    0.000
991.534; 1447.400;  158.525;    0.000
991.697; 1431.400;  182.525;    0.000
991.861; 1502.400;  195.525;    0.000
992.025; 1417.400;  206.525;    0.000
992.188; 1427.400;  174.525;    0.000
992.352; 1418.400;  183.525;    0.000
992.516; 1450.400;  181.525;    0.000
992.679; 1402.400;  162.525;    0.000
992.843; 1425.400;  173.525;    0.000
993.006; 1466.400;  189.525;    0.000
993.170; 1404.400;  200.525;    0.000
993.333; 1450.400;  167.525;    0.000
993.497; 1486.400;  217.525;    0.000
993.660; 1409.400;  179.525;    0.000
993.824; 1464.400;  195.525;    0.000
993.987; 1419.400;  186.525;    0.000
994.150; 1398.400;  164.525;    0.000
994.314; 1440.400;  215.525;    0.000
994.477; 1371.400;  186.525;    0.000
994.640; 1451.400;  192.525;    0.000
994.803; 1436.400;  215.525;    0.000
994.967; 1432.400;  208.525;    0.000
995.130; 1413.400;  196.525;    0.000
995.293; 1398.400;  221.525;    0.000
995.456; 1418.400;  164.525;    0.000
995.619; 1463.400;  224.525;    0.000
995.782; 1437.400;  184.525;    0.000
995.945; 1349.400;  220.525;    0.000
996.108; 1474.400;  187.525;    0.000
996.271; 1444.400;  192.525;    0.000
996.434; 1430.400;  162.525;    0.000
996.597; 1417.400;  148.525;    0.000
996.760; 1383.400;  186.525;    0.000
996.923; 1362.400;  154.525;    0.000
997.086; 1473.400;  156.525;    0.000
997.248; 1404.400;  215.525;    0.000
997.411; 1387.400;  160.525;    0.000
997.574; 1444.400;  159.525;    0.000
997.737; 1442.400;  179.525;    0.000
997.899; 1349.400;  184.525;    0.000
998.062; 1381.400;  180.525;    0.000
998.225; 1440.400;  168.525;    0.000
998.387; 1409.400;  192.525;    0.000
998.550; 1378.400;  178.525;    0.000
998.712; 1375.400;  192.525;    0.000
998.875; 1507.400;  230.525;    0.000
999.037; 1415.400;  200.525;    0.000
999.200; 1419.400;  196.525;    0.000
999.362; 1474.400;  173.525;    0.000
999.525; 1502.400;  196.525;    0.000
999.687; 1372.400;  159.525;    0.000
999.849; 1440.400;  180.525;    0.000
1000.012; 1474.400;  210.525;    0.000
1000.174; 1470.400;  175.525;    0.000
1000.336; 1482.400;  174.525;    0.000
1000.499; 1401.400;  180.525;    0.000
1000.661; 1517.400;  204.525;    0.000
1000.823; 1438.400;  181.525;    0.000
1000.985; 1428.400;  178.525;    0.000
1001.147; 1540.400;  215.525;    0.000
1001.309; 1507.400;  212.525;    0.000
1001.471; 1447.400;  192.525;    0.000
1001.633; 1488.400;  207.525;    0.000
1001.796; 1523.400;  211.525;    0.000
1001.958; 1525.400;  200.525;    0.000
1002.119; 1466.400;  210.525;    0.000
1002.281; 1570.400;  204.525;    0.000
1002.443; 1603.400;  230.525;    0.000
1002.605; 1732.400;  178.525;    0.000
1002.767; 1741.400;  228.525;    0.000
1002.929; 1792.400;  199.525;    0.000
1003.091; 1852.400;  220.525;    0.000
1003.252; 1878.400;  219.525;    0.000
1003.414; 1979.400;  213.525;    0.000
1003.576; 2125.400;  202.525;    0.000
1003.738; 2151.400;  184.525;    0.000
1003.899; 2267.400;  218.525;    0.000
1004.061; 2302.400;  210.525;    0.000
1004.222; 2438.400;  179.525;    0.000
1004.384; 2553.400;  183.525;    0.000
1004.546; 2544.400;  206.525;    0.000
1004.707; 2572.400;  191.525;    0.000
1004.869; 2632.400;  197.525;    0.000
1005.030; 2570.400;  186.525;    0.000
1005.191; 2505.400;  188.525;    0.000
1005.353; 2413.400;  215.525;    0.000
1005.514; 2295.400;  184.525;    0.000
1005.675; 2287.400;  209.525;    0.000
1005.837; 2188.400;  239.525;    0.000
1005.998; 2127.400;  218.525;    0.000
1006.159; 2115.400;  212.525;    0.000
1006.321; 2150.400;  220.525;    0.000
1006.482; 2186.400;  201.525;    0.000
1006.643; 2321.400;  222.525;    0.000
1006.804; 2330.400;  191.525;    0.000
1006.965; 2350.400;  214.525;    0.000
1007.126; 2400.400;  214.525;    0.000
1007.287; 2460.400;  243.525;    0.000
1007.448; 2397.400;  251.525;    0.000
1007.609; 2326.400;  244.525;    0.000
1007.770; 2216.400;  211.525;    0.000
1007.931; 2327.400;  225.525;    0.000
1008.092; 2379.400;  188.525;    0.000
1008.253; 2367.400;  224.525;    0.000
1008.414; 2356.400;  198.525;    0.000
1008.575; 2435.400;  244.525;    0.000
1008.736; 2484.400;  219.525;    0.000
1008.896; 2440.400;  206.525;    0.000
1009.057; 2360.400;  258.525;    0.000
1009.218; 2439.400;  209.525;    0.000
1009.379; 2380.400;  204.525;    0.000
1009.539; 2533.400;  242.525;    0.000
1009.700; 2545.400;  205.525;    0.000
1009.860; 2583.400;  211.525;    0.000
1010.021; 2452.400;  219.525;    0.000
1010.182; 2479.400;  206.525;    0.000
1010.342; 2517.400;  219.525;    0.000
1010.503; 2569.400;  231.525;    0.000
1010.663; 2740.400;  260.525;    0.000
1010.823; 2919.400;  200.525;    0.000
1010.984; 2818.400;  189.525;    0.000
1011.144; 2911.400;  234.525;    0.000
1011.305; 2925.400;  212.525;    0.000
1011.465; 3067.400;  202.525;    0.000
1011.625; 3176.400;  236.525;    0.000
1011.785; 3278.400;  203.525;    0.000
1011.946; 3146.400;  195.525;    0.000
1012.106; 3117.400;  176.525;    0.000
1012.266; 3094.400;  211.525;    0.000
1012.426; 3161.400;  244.525;    0.000
1012.586; 3106.400;  202.525;    0.000
1012.746; 3090.400;  234.525;    0.000
1012.906; 2949.400;  246.525;    0.000
1013.066; 3108.400;  232.525;    0.000
1013.226; 3143.400;  248.525;    0.000
1013.386; 3038.400;  231.525;    0.000
1013.546; 2924.400;  233.525;    0.000
1013.706; 2867.400;  211.525;    0.000
1013.866; 2895.400;  240.525;    0.000
1014.026; 3000.400;  188.525;    0.000
1014.186; 2898.400;  186.525;    0.000
1014.346; 2875.400;  203.525;    0.000
1014.505; 3074.400;  238.525;    0.000
1014.665; 3086.400;  206.525;    0.000
1014.825; 2935.400;  200.525;    0.000
1014.985; 2892.400;  215.525;    0.000
1015.144; 3134.400;  250.525;    0.000
1015.304; 3330.400;  195.525;    0.000
1015.464; 3204.400;  237.525;    0.000
1015.623; 3044.400;  232.525;    0.000
1015.783; 3481.400;  220.525;    0.000
1015.942; 3742.400;  219.525;    0.000
1016.102; 3570.400;  202.525;    0.000
1016.261; 3445.400;  225.525;    0.000
1016.420; 3765.400;  246.525;    0.000
1016.580; 4271.400;  226.525;    0.000
1016.739; 4016.400;  214.525;    0.000
1016.899; 3866.400;  205.525;    0.000
1017.058; 4033.400;  217.525;    0.000
1017.217; 4213.400;  199.525;    0.000
1017.376; 4120.400;  219.525;    0.000
1017.536; 3717.400;  209.525;    0.000
1017.695; 3736.400;  213.525;    0.000
1017.854; 3849.400;  187.525;    0.000
1018.013; 3759.400;  222.525;    0.000
1018.172; 3509.400;  204.525;    0.000
1018.331; 3529.400;  195.525;    0.000
1018.490; 3795.400;  213.525;    0.000
1018.649; 4137.400;  216.525;    0.000
1018.808; 4088.400;  227.525;    0.000
1018.967; 4117.400;  206.525;    0.000
1019.126; 3923.400;  206.525;    0.000
1019.285; 4214.400;  219.525;    0.000
1019.444; 4291.400;  218.525;    0.000
1019.603; 3915.400;  206.525;    0.000
1019.762; 3649.400;  189.525;    0.000
1019.921; 3946.400;  217.525;    0.000
1020.079; 4012.400;  200.525;    0.000
1020.238; 4404.400;  219.525;    0.000
1020.397; 4150.400;  227.525;    0.000
1020.555; 3811.400;  207.525;    0.000
1020.714; 3960.400;  253.525;    0.000
1020.873; 4383.400;  230.525;    0.000
1021.031; 4369.400;  232.525;    0.000
1021.190; 4076.400;  226.525;    0.000
1021.348; 4036.400;  224.525;    0.000
1021.507; 4247.400;  215.525;    0.000
1021.665; 4656.400;  233.525;    0.000
1021.824; 4385.400;  196.525;    0.000
1021.982; 3997.400;  215.525;    0.000
1022.141; 4053.400;  200.525;    0.000
1022.299; 4588.400;  200.525;    0.000
1022.457; 4735.400;  179.525;    0.000
1022.616; 4271.400;  226.525;    0.000
1022.774; 3883.400;  216.525;    0.000
1022.932; 4163.400;  212.525;    0.000
1023.090; 4665.400;  220.525;    0.000
1023.249; 4742.400;  194.525;    0.000
1023.407; 4412.400;  227.525;    0.000
1023.565; 3970.400;  190.525;    0.000
1023.723; 4308.400;  190.525;    0.000
1023.881; 4953.400;  214.525;    0.000
1024.039; 4850.400;  179.525;    0.000
1024.197; 4429.400;  274.525;    0.000
1024.355; 4184.400;  269.525;    0.000
1024.513; 4407.400;  259.525;    0.000
1024.671; 4961.400;  211.525;    0.000
1024.829; 4954.400;  230.525;    0.000
1024.987; 4551.400;  239.525;    0.000
1025.145; 4137.400;  231.525;    0.000
1025.302; 4372.400;  212.525;    0.000
1025.460; 4831.400;  224.525;    0.000
1025.618; 5028.400;  217.525;    0.000
1025.776; 4708.400;  232.525;    0.000
1025.933; 4195.400;  212.525;    0.000
1026.091; 4423.400;  214.525;    0.000
1026.249; 4994.400;  224.525;    0.000
1026.406; 5265.400;  219.525;    0.000
1026.564; 4987.400;  262.525;    0.000
1026.721; 4608.400;  206.525;    0.000
1026.879; 4298.400;  227.525;    0.000
1027.036; 4822.400;  234.525;    0.000
1027.194; 5207.400;  256.525;    0.000
1027.351; 5204.400;  229.525;    0.000
1027.509; 4645.400;  253.525;    0.000
1027.666; 4440.400;  248.525;    0.000
1027.823; 4680.400;  215.525;    0.000
1027.981; 5140.400;  248.525;    0.000
1028.138; 5465.400;  257.525;    0.000
1028.295; 5011.400;  215.525;    0.000
1028.452; 4501.400;  236.525;    0.000
1028.609; 4649.400;  240.525;    0.000
1028.767; 5067.400;  258.525;    0.000
1028.924; 5405.400;  211.525;    0.000
1029.081; 5260.400;  226.525;    0.000
1029.238; 5081.400;  228.525;    0.000
1029.395; 4689.400;  264.525;    0.000
1029.552; 4954.400;  227.525;    0.000
1029.709; 5331.400;  232.525;    0.000
1029.866; 5623.400;  223.525;    0.000
1030.023; 5437.400;  220.525;    0.000
1030.180; 4967.400;  222.525;    0.000
1030.337; 4766.400;  224.525;    0.000
1030.494; 5124.400;  228.525;    0.000
1030.650; 5278.400;  242.525;    0.000
1030.807; 5711.400;  214.525;    0.000
1030.964; 5238.400;  207.525;    0.000
1031.121; 4990.400;  236.525;    0.000
1031.277; 4913.400;  206.525;    0.000
1031.434; 5000.400;  249.525;    0.000
1031.591; 5508.400;  253.525;    0.000
1031.747; 5710.400;  240.525;    0.000
1031.904; 5648.400;  212.525;    0.000
1032.060; 5377.400;  185.525;    0.000
1032.217; 5273.400;  201.525;    0.000
1032.373; 5781.400;  207.525;    0.000
1032.530; 5672.400;  226.525;    0.000
1032.686; 6471.400;  226.525;    0.000
1032.843; 6409.400;  203.525;    0.000
1032.999; 6075.400;  233.525;    0.000
1033.155; 6315.400;  232.525;    0.000
1033.312; 6171.400;  239.525;    0.000
1033.468; 7226.400;  207.525;    0.000
1033.624; 7605.400;  238.525;    0.000
1033.780; 7992.400;  255.525;    0.000
1033.937; 7936.400;  188.525;    0.000
1034.093; 7204.400;  244.525;    0.000
1034.249; 7604.400;  182.525;    0.000
1034.405; 7367.400;  251.525;    0.000
1034.561; 7945.400;  250.525;    0.000
1034.717; 8291.400;  208.525;    0.000
1034.873; 8171.400;  210.525;    0.000
1035.029; 8623.400;  245.525;    0.000
1035.185; 7914.400;  230.525;    0.000
1035.341; 7649.400;  209.525;    0.000
1035.497; 8596.400;  244.525;    0.000
1035.653; 8498.400;  229.525;    0.000
1035.809; 9384.400;  275.525;    0.000
1035.964;10244.400;  203.525;    0.000
1036.120; 9287.400;  215.525;    0.000
1036.276; 9505.400;  228.525;    0.000
1036.432; 9366.400;  183.525;    0.000
1036.587; 8893.400;  214.525;    0.000
1036.743; 9523.400;  240.525;    0.000
1036.899;10124.400;  202.525;    0.000
1037.054;10279.400;  182.525;    0.000
1037.210;11670.400;  228.525;    0.000
1037.365;11543.400;  239.525;    0.000
1037.521;10736.400;  230.525;    0.000
1037.676;10369.400;  217.525;    0.000
1037.832; 9670.400;  235.525;    0.000
1037.987; 9992.400;  210.525;    0.000
1038.143;10250.400;  206.525;    0.000
1038.298;11481.400;  177.525;    0.000
1038.453;11011.400;  215.525;    0.000
1038.609;12232.400;  210.525;    0.000
1038.764;12743.400;  227.525;    0.000
1038.919;11338.400;  197.525;    0.000
1039.074;11361.400;  183.525;    0.000
1039.229;10668.400;  218.525;    0.000
1039.385;10393.400;  251.525;    0.000
1039.540;10832.400;  222.525;    0.000
1039.695;11972.400;  215.525;    0.000
1039.850;13167.400;  204.525;    0.000
1040.005;14107.400;  241.525;    0.000
1040.160;14639.400;  180.525;    0.000
1040.315;14487.400;  197.525;    0.000
1040.470;13199.400;  180.525;    0.000
1040.625;12440.400;  196.525;    0.000
1040.780;12346.400;  245.525;    0.000
1040.935;11894.400;  204.525;    0.000
1041.089;12882.400;  213.525;    0.000
1041.244;15304.400;  200.525;    0.000
1041.399;16225.400;  212.525;    0.000
1041.554;16498.400;  239.525;    0.000
1041.708;18770.400;  238.525;    0.000
1041.863;18106.400;  213.525;    0.000
1042.018;17007.400;  236.525;    0.000
1042.172;16883.400;  238.525;    0.000
1042.327;15912.400;  254.525;    0.000
1042.481;16236.400;  197.525;    0.000
1042.636;16330.400;  205.525;    0.000
1042.791;16682.400;  218.525;    0.000
1042.945;19316.400;  261.525;    0.000
1043.099;21501.400;  201.525;    0.000
1043.254;20867.400;  191.525;    0.000
1043.408;21162.400;  279.525;    0.000
1043.563;22734.400;  203.525;    0.000
1043.717;21733.400;  229.525;    0.000
1043.871;19701.400;  213.525;    0.000
1044.025;19170.400;  240.525;    0.000
1044.180;19256.400;  220.525;    0.000
1044.334;19160.400;  268.525;    0.000
1044.488;19667.400;  261.525;    0.000
1044.642;21471.400;  205.525;    0.000
1044.796;22842.400;  240.525;    0.000
1044.950;25585.400;  258.525;    0.000
1045.104;27915.400;  218.525;    0.000
1045.258;29146.400;  213.525;    0.000
1045.412;28008.400;  223.525;    0.000
1045.566;27328.400;  240.525;    0.000
1045.720;26535.400;  235.525;    0.000
1045.874;24498.400;  221.525;    0.000
1046.028;23332.400;  247.525;    0.000
1046.182;22683.400;  200.525;    0.000
1046.336;23245.400;  220.525;    0.000
1046.489;23846.400;  228.525;    0.000
1046.643;24988.400;  249.525;    0.000
1046.797;27583.400;  230.525;    0.000
1046.951;28154.400;  234.525;    0.000
1047.104;28955.400;  262.525;    0.000
1047.258;30682.400;  210.525;    0.000
1047.411;31725.400;  235.525;    0.000
1047.565;30952.400;  237.525;    0.000
1047.719;31208.400;  237.525;    0.000
1047.872;30676.400;  225.525;    0.000
1048.026;28114.400;  237.525;    0.000
1048.179;28055.400;  220.525;    0.000
1048.332;28727.400;  219.525;    0.000
1048.486;27077.400;  195.525;    0.000
1048.639;27225.400;  213.525;    0.000
1048.792;27256.400;  245.525;    0.000
1048.946;28766.400;  234.525;    0.000
1049.099;32616.400;  226.525;    0.000
1049.252;33227.398;  282.525;    0.000
1049.406;32389.400;  255.525;    0.000
1049.559;33841.398;  223.525;    0.000
1049.712;38506.398;  253.525;    0.000
1049.865;40283.398;  271.525;    0.000
1050.018;38354.398;  241.525;    0.000
1050.171;33171.398;  202.525;    0.000
1050.324;31525.400;  250.525;    0.000
1050.477;35886.398;  251.525;    0.000
1050.630;38140.398;  216.525;    0.000
1050.783;38490.398;  205.525;    0.000
1050.936;35886.398;  219.525;    0.000
1051.089;34331.398;  247.525;    0.000
1051.242;35716.398;  238.525;    0.000
1051.394;39271.398;  252.525;    0.000
1051.547;41858.398;  245.525;    0.000
1051.700;38514.398;  206.525;    0.000
1051.853;36970.398;  270.525;    0.000
1052.005;38383.398;  245.525;    0.000
1052.158;42866.398;  290.525;    0.000
1052.311;46346.398;  237.525;    0.000
1052.463;45580.398;  271.525;    0.000
1052.616;39974.398;  255.525;    0.000
1052.768;35946.398;  257.525;    0.000
1052.921;36480.398;  289.525;    0.000
1053.073;38592.398;  287.525;    0.000
1053.226;43711.398;  268.525;    0.000
1053.378;49706.398;  294.525;    0.000
1053.531;53944.398;  255.525;    0.000
1053.683;50227.398;  293.525;    0.000
1053.835;42017.398;  274.525;    0.000
1053.988;31802.400;  282.525;    0.000
1054.140; 5626.400;  291.525;    0.000
1054.292; 1429.400;  292.525;    0.000
1054.444; 1046.400;  299.525;    0.000
1054.596; 1043.400;  319.525;    0.000
1054.749;  940.400;  295.525;    0.000
1054.901;  920.400;  266.525;    0.000
1055.053;  819.400;  300.525;    0.000
1055.205;  792.400;  290.525;    0.000
1055.357;  756.400;  304.525;    0.000
1055.509;  725.400;  292.525;    0.000
1055.661;  729.400;  339.525;    0.000
1055.813;  678.400;  306.525;    0.000
1055.965;  721.400;  293.525;    0.000
1056.116;  625.400;  300.525;    0.000
1056.268;  669.400;  306.525;    0.000
1056.420;  679.400;  288.525;    0.000

