
Integration time [ms]:   0.300
Averaging Nr. [scans]: 1
Smoothing Nr. [pixels]: 0
Data measured with spectrometer [name]: NIR
Wave   ;Sample   ;Dark     ;Reference
[nm]   ;[counts] ;[counts] ;[counts] 

691.496;  -67.550;  155.525;    0.000
691.696;   -5.550;  186.525;    0.000
691.896;  -64.550;  113.525;    0.000
692.096;  -36.550;  169.525;    0.000
692.296;  -61.550;  119.525;    0.000
692.496;   -1.550;  182.525;    0.000
692.695;  -46.550;  119.525;    0.000
692.895;  -13.550;  183.525;    0.000
693.095;  -57.550;  119.525;    0.000
693.295;   27.450;  156.525;    0.000
693.495;   19.450;  145.525;    0.000
693.695;    9.450;  144.525;    0.000
693.894;   -4.550;  174.525;    0.000
694.094;  -48.550;  148.525;    0.000
694.294;  -23.550;  114.525;    0.000
694.494;  268.450;  137.525;    0.000
694.693; 2681.450;  112.525;    0.000
694.893; 2948.450;   85.525;    0.000
695.093; 3054.450;  152.525;    0.000
695.293; 3038.450;  159.525;    0.000
695.492; 3042.450;  131.525;    0.000
695.692; 3063.450;  134.525;    0.000
695.891; 3110.450;  161.525;    0.000
696.091; 3047.450;  180.525;    0.000
696.291; 3143.450;  120.525;    0.000
696.490; 3215.450;  146.525;    0.000
696.690; 3104.450;  145.525;    0.000
696.889; 3197.450;  171.525;    0.000
697.089; 3094.450;   98.525;    0.000
697.288; 3188.450;  172.525;    0.000
697.488; 3192.450;  137.525;    0.000
697.687; 3162.450;  171.525;    0.000
697.887; 3137.450;  142.525;    0.000
698.086; 3211.450;  159.525;    0.000
698.286; 3080.450;  122.525;    0.000
698.485; 3136.450;  121.525;    0.000
698.684; 3141.450;   94.525;    0.000
698.884; 3159.450;  131.525;    0.000
699.083; 3186.450;  112.525;    0.000
699.282; 3124.450;  119.525;    0.000
699.482; 3270.450;  117.525;    0.000
699.681; 3259.450;  115.525;    0.000
699.880; 3302.450;  166.525;    0.000
700.080; 3173.450;  194.525;    0.000
700.279; 3216.450;   98.525;    0.000
700.478; 3273.450;  159.525;    0.000
700.677; 3284.450;  134.525;    0.000
700.877; 3389.450;  171.525;    0.000
701.076; 3263.450;  141.525;    0.000
701.275; 3290.450;  119.525;    0.000
701.474; 3261.450;  132.525;    0.000
701.673; 3268.450;  141.525;    0.000
701.872; 3273.450;  158.525;    0.000
702.071; 3180.450;  129.525;    0.000
702.271; 3309.450;  122.525;    0.000
702.470; 3331.450;  158.525;    0.000
702.669; 3238.450;  145.525;    0.000
702.868; 3313.450;  135.525;    0.000
703.067; 3290.450;  169.525;    0.000
703.266; 3239.450;  125.525;    0.000
703.465; 3238.450;  153.525;    0.000
703.664; 3389.450;  113.525;    0.000
703.863; 3317.450;  170.525;    0.000
704.062; 3353.450;  115.525;    0.000
704.260; 3378.450;  133.525;    0.000
704.459; 3371.450;  123.525;    0.000
704.658; 3291.450;  105.525;    0.000
704.857; 3279.450;  125.525;    0.000
705.056; 3233.450;  108.525;    0.000
705.255; 3409.450;  117.525;    0.000
705.454; 3374.450;  126.525;    0.000
705.652; 3394.450;  137.525;    0.000
705.851; 3328.450;   95.525;    0.000
706.050; 3299.450;  120.525;    0.000
706.249; 3335.450;   81.525;    0.000
706.447; 3425.450;  105.525;    0.000
706.646; 3357.450;  107.525;    0.000
706.845; 3310.450;  104.525;    0.000
707.043; 3318.450;  136.525;    0.000
707.242; 3444.450;   89.525;    0.000
707.441; 3517.450;  147.525;    0.000
707.639; 3365.450;  156.525;    0.000
707.838; 3411.450;  114.525;    0.000
708.037; 3479.450;  100.525;    0.000
708.235; 3406.450;  103.525;    0.000
708.434; 3503.450;  102.525;    0.000
708.632; 3507.450;  100.525;    0.000
708.831; 3478.450;  121.525;    0.000
709.029; 3478.450;  102.525;    0.000
709.228; 3489.450;   88.525;    0.000
709.426; 3462.450;  135.525;    0.000
709.625; 3530.450;  128.525;    0.000
709.823; 3525.450;  123.525;    0.000
710.022; 3539.450;  137.525;    0.000
710.220; 3493.450;  134.525;    0.000
710.418; 3625.450;  122.525;    0.000
710.617; 3553.450;   64.525;    0.000
710.815; 3561.450;   94.525;    0.000
711.013; 3574.450;  127.525;    0.000
711.212; 3445.450;  105.525;    0.000
711.410; 3579.450;  117.525;    0.000
711.608; 3569.450;  114.525;    0.000
711.807; 3551.450;  119.525;    0.000
712.005; 3563.450;   92.525;    0.000
712.203; 3519.450;   95.525;    0.000
712.401; 3602.450;  107.525;    0.000
712.599; 3611.450;  127.525;    0.000
712.798; 3644.450;  120.525;    0.000
712.996; 3640.450;   76.525;    0.000
713.194; 3600.450;  118.525;    0.000
713.392; 3573.450;   60.525;    0.000
713.590; 3802.450;   92.525;    0.000
713.788; 3720.450;  110.525;    0.000
713.986; 3716.450;  130.525;    0.000
714.184; 3688.450;   71.525;    0.000
714.382; 3849.450;   86.525;    0.000
714.580; 3791.450;   74.525;    0.000
714.778; 3844.450;  133.525;    0.000
714.976; 3830.450;   81.525;    0.000
715.174; 3964.450;  100.525;    0.000
715.372; 4123.450;  141.525;    0.000
715.570; 4180.450;   73.525;    0.000
715.768; 4558.450;  119.525;    0.000
715.966; 4439.450;   81.525;    0.000
716.164; 4438.450;  130.525;    0.000
716.362; 4364.450;  125.525;    0.000
716.560; 4294.450;  109.525;    0.000
716.758; 4269.450;   96.525;    0.000
716.955; 4200.450;   83.525;    0.000
717.153; 4019.450;   87.525;    0.000
717.351; 4186.450;  123.525;    0.000
717.549; 4015.450;  121.525;    0.000
717.746; 4085.450;  128.525;    0.000
717.944; 4022.450;  132.525;    0.000
718.142; 4032.450;  120.525;    0.000
718.340; 4101.450;   94.525;    0.000
718.537; 4078.450;   95.525;    0.000
718.735; 4041.450;  152.525;    0.000
718.933; 4031.450;  124.525;    0.000
719.130; 4072.450;  114.525;    0.000
719.328; 4143.450;   63.525;    0.000
719.525; 3963.450;  146.525;    0.000
719.723; 4035.450;   96.525;    0.000
719.920; 4050.450;  120.525;    0.000
720.118; 3982.450;   59.525;    0.000
720.316; 4096.450;  116.525;    0.000
720.513; 4062.450;  127.525;    0.000
720.711; 4030.450;  110.525;    0.000
720.908; 4033.450;   92.525;    0.000
721.105; 4131.450;  138.525;    0.000
721.303; 4068.450;   90.525;    0.000
721.500; 3969.450;  126.525;    0.000
721.698; 4051.450;  103.525;    0.000
721.895; 4103.450;  206.525;    0.000
722.092; 3954.450;   63.525;    0.000
722.290; 4076.450;  123.525;    0.000
722.487; 4123.450;  137.525;    0.000
722.684; 4000.450;  126.525;    0.000
722.882; 4040.450;  119.525;    0.000
723.079; 4085.450;  132.525;    0.000
723.276; 3982.450;   98.525;    0.000
723.473; 4058.450;   97.525;    0.000
723.671; 3982.450;   43.525;    0.000
723.868; 4112.450;  142.525;    0.000
724.065; 4059.450;  102.525;    0.000
724.262; 4113.450;  119.525;    0.000
724.459; 4105.450;   73.525;    0.000
724.656; 4147.450;  128.525;    0.000
724.854; 4140.450;  135.525;    0.000
725.051; 4236.450;   81.525;    0.000
725.248; 4245.450;   88.525;    0.000
725.445; 4093.450;  129.525;    0.000
725.642; 4118.450;   76.525;    0.000
725.839; 4140.450;  134.525;    0.000
726.036; 4188.450;  101.525;    0.000
726.233; 4107.450;   68.525;    0.000
726.430; 4315.450;  121.525;    0.000
726.627; 4207.450;  136.525;    0.000
726.824; 4136.450;   87.525;    0.000
727.021; 4246.450;  141.525;    0.000
727.218; 4224.450;   92.525;    0.000
727.414; 4158.450;  121.525;    0.000
727.611; 4218.450;  100.525;    0.000
727.808; 4234.450;  130.525;    0.000
728.005; 4175.450;   83.525;    0.000
728.202; 4218.450;  120.525;    0.000
728.399; 4245.450;   75.525;    0.000
728.595; 4147.450;  148.525;    0.000
728.792; 4241.450;   79.525;    0.000
728.989; 4172.450;   86.525;    0.000
729.186; 4269.450;   80.525;    0.000
729.382; 4205.450;   72.525;    0.000
729.579; 4222.450;  112.525;    0.000
729.776; 4253.450;  106.525;    0.000
729.972; 4306.450;   77.525;    0.000
730.169; 4321.450;  118.525;    0.000
730.366; 4229.450;   92.525;    0.000
730.562; 4265.450;  104.525;    0.000
730.759; 4331.450;   95.525;    0.000
730.955; 4343.450;   85.525;    0.000
731.152; 4267.450;   79.525;    0.000
731.348; 4353.450;   72.525;    0.000
731.545; 4235.450;   56.525;    0.000
731.741; 4326.450;  106.525;    0.000
731.938; 4248.450;  113.525;    0.000
732.134; 4242.450;  106.525;    0.000
732.331; 4289.450;   82.525;    0.000
732.527; 4300.450;   80.525;    0.000
732.724; 4195.450;   97.525;    0.000
732.920; 4364.450;  127.525;    0.000
733.116; 4395.450;  115.525;    0.000
733.313; 4413.450;  153.525;    0.000
733.509; 4350.450;   76.525;    0.000
733.705; 4344.450;  159.525;    0.000
733.902; 4470.450;   82.525;    0.000
734.098; 4280.450;   70.525;    0.000
734.294; 4347.450;  105.525;    0.000
734.490; 4383.450;  110.525;    0.000
734.687; 4256.450;  102.525;    0.000
734.883; 4351.450;   77.525;    0.000
735.079; 4346.450;   93.525;    0.000
735.275; 4330.450;  109.525;    0.000
735.471; 4386.450;   99.525;    0.000
735.667; 4414.450;  107.525;    0.000
735.863; 4448.450;   89.525;    0.000
736.060; 4477.450;  105.525;    0.000
736.256; 4365.450;  113.525;    0.000
736.452; 4501.450;   90.525;    0.000
736.648; 4399.450;   88.525;    0.000
736.844; 4584.450;  129.525;    0.000
737.040; 4457.450;  139.525;    0.000
737.236; 4513.450;  129.525;    0.000
737.432; 4479.450;   67.525;    0.000
737.628; 4462.450;  104.525;    0.000
737.824; 4594.450;  111.525;    0.000
738.019; 4471.450;  116.525;    0.000
738.215; 4555.450;  135.525;    0.000
738.411; 4618.450;  118.525;    0.000
738.607; 4407.450;   58.525;    0.000
738.803; 4493.450;   32.525;    0.000
738.999; 4560.450;  120.525;    0.000
739.195; 4584.450;   76.525;    0.000
739.390; 4649.450;  119.525;    0.000
739.586; 4778.450;   83.525;    0.000
739.782; 4653.450;  134.525;    0.000
739.978; 4684.450;  122.525;    0.000
740.173; 4718.450;   96.525;    0.000
740.369; 4735.450;   86.525;    0.000
740.565; 4699.450;  122.525;    0.000
740.760; 4725.450;   99.525;    0.000
740.956; 4782.450;  137.525;    0.000
741.152; 4893.450;  108.525;    0.000
741.347; 4856.450;   65.525;    0.000
741.543; 4866.450;   73.525;    0.000
741.738; 5011.450;  142.525;    0.000
741.934; 5191.450;  131.525;    0.000
742.129; 5259.450;   66.525;    0.000
742.325; 5868.450;  143.525;    0.000
742.520; 6333.450;  119.525;    0.000
742.716; 6084.450;  109.525;    0.000
742.911; 5788.450;   62.525;    0.000
743.107; 5906.450;  119.525;    0.000
743.302; 5682.450;   78.525;    0.000
743.498; 5647.450;  130.525;    0.000
743.693; 5732.450;   75.525;    0.000
743.888; 5966.450;  135.525;    0.000
744.084; 6685.450;  106.525;    0.000
744.279; 7945.450;  101.525;    0.000
744.474; 8144.450;   91.525;    0.000
744.670; 7322.450;  144.525;    0.000
744.865; 6767.450;  128.525;    0.000
745.060; 6527.450;   63.525;    0.000
745.255; 6433.450;  155.525;    0.000
745.451; 6122.450;  110.525;    0.000
745.646; 6085.450;  150.525;    0.000
745.841; 6084.450;  128.525;    0.000
746.036; 6246.450;  110.525;    0.000
746.231; 6355.450;  126.525;    0.000
746.426; 6373.450;   83.525;    0.000
746.622; 7411.450;  157.525;    0.000
746.817; 9238.450;  112.525;    0.000
747.012;10427.450;  115.525;    0.000
747.207; 9276.450;  161.525;    0.000
747.402; 8415.450;   88.525;    0.000
747.597; 7774.450;  103.525;    0.000
747.792; 7495.450;  152.525;    0.000
747.987; 7326.450;   80.525;    0.000
748.182; 7020.450;   89.525;    0.000
748.377; 6678.450;  104.525;    0.000
748.572; 6569.450;  138.525;    0.000
748.767; 6346.450;  100.525;    0.000
748.961; 6131.450;  106.525;    0.000
749.156; 6098.450;  113.525;    0.000
749.351; 6007.450;  116.525;    0.000
749.546; 5771.450;  107.525;    0.000
749.741; 5797.450;  102.525;    0.000
749.936; 5738.450;  105.525;    0.000
750.130; 5697.450;  111.525;    0.000
750.325; 5656.450;   72.525;    0.000
750.520; 5502.450;   96.525;    0.000
750.715; 5497.450;  135.525;    0.000
750.909; 5529.450;  107.525;    0.000
751.104; 5485.450;  106.525;    0.000
751.299; 5458.450;  144.525;    0.000
751.493; 5479.450;  116.525;    0.000
751.688; 5401.450;   96.525;    0.000
751.882; 5305.450;   92.525;    0.000
752.077; 5359.450;  109.525;    0.000
752.272; 5225.450;   96.525;    0.000
752.466; 5258.450;  110.525;    0.000
752.661; 5305.450;  120.525;    0.000
752.855; 5223.450;   70.525;    0.000
753.050; 5106.450;  129.525;    0.000
753.244; 5377.450;  126.525;    0.000
753.439; 5171.450;  115.525;    0.000
753.633; 5213.450;  120.525;    0.000
753.828; 5096.450;  129.525;    0.000
754.022; 5031.450;  139.525;    0.000
754.216; 5117.450;  121.525;    0.000
754.411; 5106.450;  108.525;    0.000
754.605; 5117.450;   94.525;    0.000
754.799; 5016.450;  125.525;    0.000
754.994; 4976.450;  160.525;    0.000
755.188; 5249.450;  151.525;    0.000
755.382; 4979.450;  102.525;    0.000
755.576; 5091.450;  103.525;    0.000
755.771; 4926.450;   99.525;    0.000
755.965; 5104.450;  158.525;    0.000
756.159; 4987.450;   96.525;    0.000
756.353; 5052.450;  157.525;    0.000
756.547; 4924.450;  132.525;    0.000
756.742; 4907.450;  106.525;    0.000
756.936; 4930.450;  113.525;    0.000
757.130; 4910.450;  114.525;    0.000
757.324; 4880.450;  111.525;    0.000
757.518; 5004.450;  142.525;    0.000
757.712; 5080.450;  137.525;    0.000
757.906; 4967.450;   93.525;    0.000
758.100; 4953.450;  119.525;    0.000
758.294; 4980.450;  132.525;    0.000
758.488; 5104.450;  153.525;    0.000
758.682; 5002.450;  101.525;    0.000
758.876; 4978.450;  129.525;    0.000
759.070; 4953.450;  168.525;    0.000
759.264; 4918.450;   96.525;    0.000
759.458; 4908.450;  117.525;    0.000
759.651; 4875.450;  135.525;    0.000
759.845; 4867.450;  127.525;    0.000
760.039; 4883.450;  120.525;    0.000
760.233; 5031.450;  124.525;    0.000
760.427; 4868.450;  115.525;    0.000
760.620; 4882.450;  130.525;    0.000
760.814; 4940.450;  102.525;    0.000
761.008; 4976.450;  174.525;    0.000
761.202; 4906.450;  132.525;    0.000
761.395; 4866.450;  126.525;    0.000
761.589; 4903.450;  133.525;    0.000
761.783; 4878.450;  147.525;    0.000
761.976; 4978.450;  147.525;    0.000
762.170; 4879.450;  174.525;    0.000
762.363; 4941.450;   97.525;    0.000
762.557; 5020.450;  141.525;    0.000
762.750; 4895.450;  112.525;    0.000
762.944; 5051.450;  110.525;    0.000
763.138; 4906.450;  125.525;    0.000
763.331; 4925.450;  101.525;    0.000
763.524; 4976.450;  101.525;    0.000
763.718; 5198.450;  156.525;    0.000
763.911; 4966.450;  143.525;    0.000
764.105; 5025.450;  139.525;    0.000
764.298; 5087.450;   89.525;    0.000
764.492; 4920.450;  111.525;    0.000
764.685; 5031.450;  136.525;    0.000
764.878; 5053.450;  146.525;    0.000
765.072; 5051.450;  110.525;    0.000
765.265; 5128.450;  141.525;    0.000
765.458; 5144.450;   82.525;    0.000
765.651; 5114.450;  144.525;    0.000
765.845; 5007.450;   79.525;    0.000
766.038; 5136.450;  123.525;    0.000
766.231; 5656.450;  125.525;    0.000
766.424; 8584.450;  131.525;    0.000
766.617; 8803.450;   62.525;    0.000
766.811; 5626.450;  142.525;    0.000
767.004; 5316.450;  134.525;    0.000
767.197; 5246.450;  147.525;    0.000
767.390; 5186.450;  100.525;    0.000
767.583; 5142.450;  121.525;    0.000
767.776; 5207.450;   91.525;    0.000
767.969; 5240.450;  113.525;    0.000
768.162; 5091.450;  170.525;    0.000
768.355; 5101.450;  134.525;    0.000
768.548; 5205.450;  177.525;    0.000
768.741; 5334.450;   96.525;    0.000
768.934; 5310.450;  143.525;    0.000
769.127; 5294.450;  147.525;    0.000
769.320; 5239.450;   93.525;    0.000
769.513; 5503.450;  137.525;    0.000
769.706; 6037.450;   96.525;    0.000
769.898; 8317.450;  118.525;    0.000
770.091; 6679.450;  138.525;    0.000
770.284; 5472.450;  133.525;    0.000
770.477; 5470.450;  137.525;    0.000
770.670; 5571.450;  124.525;    0.000
770.862; 5467.450;  125.525;    0.000
771.055; 5462.450;  135.525;    0.000
771.248; 5596.450;  109.525;    0.000
771.441; 5565.450;  141.525;    0.000
771.633; 5492.450;  142.525;    0.000
771.826; 5706.450;  123.525;    0.000
772.018; 5701.450;  136.525;    0.000
772.211; 5722.450;  145.525;    0.000
772.404; 5853.450;  127.525;    0.000
772.596; 5846.450;  193.525;    0.000
772.789; 6065.450;   64.525;    0.000
772.981; 5993.450;  142.525;    0.000
773.174; 5967.450;  105.525;    0.000
773.366; 6143.450;  166.525;    0.000
773.559; 5957.450;  125.525;    0.000
773.751; 6221.450;  126.525;    0.000
773.944; 6319.450;  147.525;    0.000
774.136; 6466.450;  155.525;    0.000
774.329; 6532.450;  127.525;    0.000
774.521; 6709.450;  133.525;    0.000
774.713; 6819.450;  139.525;    0.000
774.906; 7008.450;  170.525;    0.000
775.098; 7339.450;  144.525;    0.000
775.290; 7728.450;  162.525;    0.000
775.483; 8027.450;  137.525;    0.000
775.675; 8298.450;  148.525;    0.000
775.867; 8994.450;   81.525;    0.000
776.059; 9782.450;  134.525;    0.000
776.251;10588.450;  137.525;    0.000
776.444;12078.450;  155.525;    0.000
776.636;13791.450;  148.525;    0.000
776.828;17059.449;  129.525;    0.000
777.020;23471.449;  133.525;    0.000
777.212;34428.449;  137.525;    0.000
777.404;38453.449;  124.525;    0.000
777.596;35326.449;  142.525;    0.000
777.788;26880.449;  155.525;    0.000
777.980;20686.449;  119.525;    0.000
778.172;17236.449;  129.525;    0.000
778.364;14571.450;  122.525;    0.000
778.556;13017.450;  129.525;    0.000
778.748;11722.450;  178.525;    0.000
778.940;10585.450;  128.525;    0.000
779.132;10024.450;  145.525;    0.000
779.324; 9262.450;   89.525;    0.000
779.516; 8735.450;  161.525;    0.000
779.708; 8363.450;  183.525;    0.000
779.900; 8041.450;  124.525;    0.000
780.091; 7486.450;  143.525;    0.000
780.283; 7265.450;  135.525;    0.000
780.475; 7010.450;  129.525;    0.000
780.667; 6772.450;  178.525;    0.000
780.859; 6737.450;  146.525;    0.000
781.050; 6535.450;  156.525;    0.000
781.242; 6317.450;  138.525;    0.000
781.434; 6375.450;  117.525;    0.000
781.625; 6270.450;  161.525;    0.000
781.817; 6165.450;  127.525;    0.000
782.008; 5956.450;  138.525;    0.000
782.200; 5783.450;  139.525;    0.000
782.392; 5906.450;  179.525;    0.000
782.583; 5691.450;  137.525;    0.000
782.775; 5699.450;  162.525;    0.000
782.966; 5658.450;  159.525;    0.000
783.158; 5502.450;  118.525;    0.000
783.349; 5577.450;  160.525;    0.000
783.541; 5420.450;  139.525;    0.000
783.732; 5438.450;  145.525;    0.000
783.924; 5415.450;  146.525;    0.000
784.115; 5339.450;  125.525;    0.000
784.306; 5369.450;  118.525;    0.000
784.498; 5246.450;  144.525;    0.000
784.689; 5303.450;  145.525;    0.000
784.880; 5222.450;  137.525;    0.000
785.072; 5200.450;  157.525;    0.000
785.263; 5141.450;  149.525;    0.000
785.454; 5161.450;  128.525;    0.000
785.645; 5070.450;  131.525;    0.000
785.837; 5117.450;  137.525;    0.000
786.028; 5072.450;  161.525;    0.000
786.219; 5159.450;  155.525;    0.000
786.410; 5001.450;  146.525;    0.000
786.601; 5051.450;  120.525;    0.000
786.792; 5019.450;  179.525;    0.000
786.984; 5104.450;  113.525;    0.000
787.175; 4932.450;  156.525;    0.000
787.366; 5009.450;  131.525;    0.000
787.557; 4950.450;  138.525;    0.000
787.748; 5026.450;  112.525;    0.000
787.939; 5036.450;  115.525;    0.000
788.130; 5030.450;  150.525;    0.000
788.321; 5055.450;  122.525;    0.000
788.512; 5115.450;  147.525;    0.000
788.703; 5073.450;  126.525;    0.000
788.894; 5060.450;   80.525;    0.000
789.084; 4987.450;  127.525;    0.000
789.275; 5202.450;  141.525;    0.000
789.466; 5030.450;  108.525;    0.000
789.657; 5019.450;  137.525;    0.000
789.848; 5110.450;  126.525;    0.000
790.039; 5028.450;  144.525;    0.000
790.229; 5081.450;  105.525;    0.000
790.420; 5141.450;   96.525;    0.000
790.611; 5140.450;  171.525;    0.000
790.801; 5043.450;   89.525;    0.000
790.992; 5128.450;  140.525;    0.000
791.183; 5281.450;  143.525;    0.000
791.373; 4983.450;  128.525;    0.000
791.564; 4934.450;   96.525;    0.000
791.755; 5038.450;  111.525;    0.000
791.945; 5046.450;  112.525;    0.000
792.136; 4933.450;  124.525;    0.000
792.326; 5096.450;   88.525;    0.000
792.517; 5049.450;  130.525;    0.000
792.707; 5115.450;  144.525;    0.000
792.898; 5267.450;  120.525;    0.000
793.088; 5111.450;  106.525;    0.000
793.279; 5324.450;  104.525;    0.000
793.469; 5195.450;  103.525;    0.000
793.660; 5446.450;  120.525;    0.000
793.850; 5540.450;  106.525;    0.000
794.040; 5692.450;  135.525;    0.000
794.231; 5862.450;   80.525;    0.000
794.421; 6190.450;  120.525;    0.000
794.611; 7047.450;  154.525;    0.000
794.802; 7860.450;  103.525;    0.000
794.992; 8318.450;  120.525;    0.000
795.182; 8433.450;  156.525;    0.000
795.372; 8013.450;  104.525;    0.000
795.563; 7284.450;  153.525;    0.000
795.753; 6742.450;  112.525;    0.000
795.943; 6451.450;  128.525;    0.000
796.133; 6105.450;  128.525;    0.000
796.323; 5935.450;  152.525;    0.000
796.513; 5810.450;  123.525;    0.000
796.703; 5519.450;  134.525;    0.000
796.893; 5446.450;  120.525;    0.000
797.083; 5455.450;  136.525;    0.000
797.273; 5274.450;  128.525;    0.000
797.463; 5279.450;  140.525;    0.000
797.653; 5112.450;   75.525;    0.000
797.843; 5085.450;  114.525;    0.000
798.033; 5128.450;   90.525;    0.000
798.223; 4999.450;  136.525;    0.000
798.413; 4900.450;  164.525;    0.000
798.603; 4958.450;  150.525;    0.000
798.793; 4791.450;  137.525;    0.000
798.983; 4726.450;  119.525;    0.000
799.172; 4748.450;  136.525;    0.000
799.362; 4742.450;  138.525;    0.000
799.552; 4693.450;  123.525;    0.000
799.742; 4762.450;  117.525;    0.000
799.932; 4623.450;  108.525;    0.000
800.121; 4594.450;  152.525;    0.000
800.311; 4693.450;  117.525;    0.000
800.501; 4601.450;  100.525;    0.000
800.690; 4581.450;  139.525;    0.000
800.880; 4626.450;  138.525;    0.000
801.070; 4709.450;  120.525;    0.000
801.259; 4533.450;  143.525;    0.000
801.449; 4513.450;  110.525;    0.000
801.638; 4593.450;  140.525;    0.000
801.828; 4587.450;  103.525;    0.000
802.017; 4459.450;   78.525;    0.000
802.207; 4555.450;  126.525;    0.000
802.396; 4495.450;  151.525;    0.000
802.586; 4485.450;  106.525;    0.000
802.775; 4474.450;  152.525;    0.000
802.965; 4480.450;  117.525;    0.000
803.154; 4486.450;  171.525;    0.000
803.343; 4450.450;  126.525;    0.000
803.533; 4517.450;  135.525;    0.000
803.722; 4407.450;  144.525;    0.000
803.911; 4518.450;  109.525;    0.000
804.101; 4605.450;  146.525;    0.000
804.290; 4467.450;  115.525;    0.000
804.479; 4463.450;  128.525;    0.000
804.668; 4430.450;  156.525;    0.000
804.857; 4559.450;  151.525;    0.000
805.047; 4515.450;  131.525;    0.000
805.236; 4544.450;  144.525;    0.000
805.425; 4580.450;  160.525;    0.000
805.614; 4375.450;  112.525;    0.000
805.803; 4556.450;  120.525;    0.000
805.992; 4506.450;  148.525;    0.000
806.181; 4482.450;  108.525;    0.000
806.370; 4438.450;  142.525;    0.000
806.559; 4476.450;  116.525;    0.000
806.748; 4522.450;  108.525;    0.000
806.937; 4489.450;  110.525;    0.000
807.126; 4427.450;  126.525;    0.000
807.315; 4591.450;  121.525;    0.000
807.504; 4576.450;  102.525;    0.000
807.693; 4593.450;  134.525;    0.000
807.882; 4489.450;  135.525;    0.000
808.071; 4592.450;  135.525;    0.000
808.260; 4664.450;   93.525;    0.000
808.448; 4548.450;  151.525;    0.000
808.637; 4701.450;  105.525;    0.000
808.826; 4639.450;  178.525;    0.000
809.015; 4716.450;  152.525;    0.000
809.203; 4680.450;  147.525;    0.000
809.392; 4742.450;  144.525;    0.000
809.581; 4755.450;  167.525;    0.000
809.770; 4816.450;  151.525;    0.000
809.958; 4792.450;  128.525;    0.000
810.147; 4818.450;  152.525;    0.000
810.335; 4957.450;  160.525;    0.000
810.524; 5022.450;  130.525;    0.000
810.713; 4974.450;  128.525;    0.000
810.901; 5016.450;  140.525;    0.000
811.090; 5083.450;  152.525;    0.000
811.278; 5027.450;  126.525;    0.000
811.467; 5269.450;  161.525;    0.000
811.655; 5337.450;  184.525;    0.000
811.844; 5366.450;  148.525;    0.000
812.032; 5306.450;  138.525;    0.000
812.220; 5344.450;  157.525;    0.000
812.409; 5409.450;  143.525;    0.000
812.597; 5517.450;  124.525;    0.000
812.785; 5505.450;  170.525;    0.000
812.974; 5491.450;  135.525;    0.000
813.162; 5564.450;  135.525;    0.000
813.350; 5717.450;  182.525;    0.000
813.539; 5729.450;  126.525;    0.000
813.727; 5631.450;  127.525;    0.000
813.915; 5772.450;  140.525;    0.000
814.103; 5882.450;  176.525;    0.000
814.291; 5909.450;  115.525;    0.000
814.479; 6041.450;  119.525;    0.000
814.668; 6122.450;  134.525;    0.000
814.856; 6420.450;  120.525;    0.000
815.044; 6333.450;  164.525;    0.000
815.232; 6637.450;  146.525;    0.000
815.420; 6713.450;  154.525;    0.000
815.608; 6893.450;  137.525;    0.000
815.796; 7178.450;  108.525;    0.000
815.984; 7053.450;  134.525;    0.000
816.172; 7407.450;  123.525;    0.000
816.360; 7889.450;  181.525;    0.000
816.548; 7975.450;  139.525;    0.000
816.736; 8355.450;  138.525;    0.000
816.924; 8921.450;  151.525;    0.000
817.111; 9578.450;  156.525;    0.000
817.299;10293.450;  147.525;    0.000
817.487;11120.450;  188.525;    0.000
817.675;12502.450;  129.525;    0.000
817.863;14991.450;  128.525;    0.000
818.050;20081.449;  110.525;    0.000
818.238;33135.449;  166.525;    0.000
818.426;43998.449;  136.525;    0.000
818.613;34041.449;  143.525;    0.000
818.801;28356.449;  150.525;    0.000
818.989;27053.449;  179.525;    0.000
819.176;29124.449;  123.525;    0.000
819.364;40079.449;  148.525;    0.000
819.552;51733.449;   86.525;    0.000
819.739;41696.449;  169.525;    0.000
819.927;31707.449;  130.525;    0.000
820.114;26640.449;  144.525;    0.000
820.302;23258.449;  166.525;    0.000
820.489;20835.449;  145.525;    0.000
820.677;19106.449;  101.525;    0.000
820.864;17888.449;  149.525;    0.000
821.052;17472.449;  130.525;    0.000
821.239;16937.449;  147.525;    0.000
821.426;17046.449;  121.525;    0.000
821.614;18349.449;  187.525;    0.000
821.801;18856.449;  105.525;    0.000
821.988;17162.449;  167.525;    0.000
822.176;16289.450;  130.525;    0.000
822.363;16337.450;  143.525;    0.000
822.550;15089.450;  108.525;    0.000
822.737;13864.450;  109.525;    0.000
822.924;12915.450;  156.525;    0.000
823.112;12455.450;  123.525;    0.000
823.299;11589.450;  128.525;    0.000
823.486;10991.450;  138.525;    0.000
823.673;10608.450;  125.525;    0.000
823.860;10204.450;  138.525;    0.000
824.047;10100.450;  122.525;    0.000
824.234;10833.450;  134.525;    0.000
824.421;10706.450;   95.525;    0.000
824.608; 9808.450;  151.525;    0.000
824.795; 9070.450;  117.525;    0.000
824.982; 8450.450;  143.525;    0.000
825.169; 8167.450;   83.525;    0.000
825.356; 7823.450;  126.525;    0.000
825.543; 7590.450;   92.525;    0.000
825.730; 7337.450;  113.525;    0.000
825.917; 7053.450;  142.525;    0.000
826.104; 6804.450;  182.525;    0.000
826.290; 6732.450;  137.525;    0.000
826.477; 6581.450;  126.525;    0.000
826.664; 6367.450;  135.525;    0.000
826.851; 6253.450;  139.525;    0.000
827.038; 6038.450;  135.525;    0.000
827.224; 6110.450;  143.525;    0.000
827.411; 5905.450;  153.525;    0.000
827.598; 5724.450;  122.525;    0.000
827.784; 5615.450;  138.525;    0.000
827.971; 5501.450;  134.525;    0.000
828.157; 5467.450;  152.525;    0.000
828.344; 5361.450;  135.525;    0.000
828.531; 5358.450;  137.525;    0.000
828.717; 5108.450;  117.525;    0.000
828.904; 5075.450;  127.525;    0.000
829.090; 5004.450;  172.525;    0.000
829.277; 5083.450;  144.525;    0.000
829.463; 4889.450;  159.525;    0.000
829.650; 4888.450;  187.525;    0.000
829.836; 4850.450;  138.525;    0.000
830.022; 4846.450;  196.525;    0.000
830.209; 4610.450;  118.525;    0.000
830.395; 4605.450;  148.525;    0.000
830.581; 4492.450;  108.525;    0.000
830.768; 4479.450;  137.525;    0.000
830.954; 4449.450;  162.525;    0.000
831.140; 4395.450;  117.525;    0.000
831.327; 4385.450;  176.525;    0.000
831.513; 4404.450;  162.525;    0.000
831.699; 4250.450;  157.525;    0.000
831.885; 4213.450;  153.525;    0.000
832.071; 4120.450;  123.525;    0.000
832.257; 4267.450;  142.525;    0.000
832.444; 4082.450;  165.525;    0.000
832.630; 4163.450;  159.525;    0.000
832.816; 4191.450;  145.525;    0.000
833.002; 4006.450;  120.525;    0.000
833.188; 3826.450;  145.525;    0.000
833.374; 4019.450;  137.525;    0.000
833.560; 4010.450;  152.525;    0.000
833.746; 3796.450;  139.525;    0.000
833.932; 3797.450;  170.525;    0.000
834.118; 3839.450;  111.525;    0.000
834.303; 3782.450;  141.525;    0.000
834.489; 3815.450;  146.525;    0.000
834.675; 3758.450;  156.525;    0.000
834.861; 3665.450;   87.525;    0.000
835.047; 3760.450;  134.525;    0.000
835.233; 3763.450;   89.525;    0.000
835.418; 3606.450;  145.525;    0.000
835.604; 3633.450;  136.525;    0.000
835.790; 3521.450;  132.525;    0.000
835.976; 3668.450;  161.525;    0.000
836.161; 3724.450;  157.525;    0.000
836.347; 3533.450;  147.525;    0.000
836.533; 3599.450;  116.525;    0.000
836.718; 3643.450;  168.525;    0.000
836.904; 3656.450;  199.525;    0.000
837.089; 3668.450;  165.525;    0.000
837.275; 3509.450;  166.525;    0.000
837.460; 3500.450;  144.525;    0.000
837.646; 3596.450;  164.525;    0.000
837.831; 3494.450;  122.525;    0.000
838.017; 3514.450;  163.525;    0.000
838.202; 3441.450;  139.525;    0.000
838.388; 3590.450;  174.525;    0.000
838.573; 3502.450;  140.525;    0.000
838.759; 3465.450;  167.525;    0.000
838.944; 3547.450;  142.525;    0.000
839.129; 3463.450;  164.525;    0.000
839.315; 3517.450;  129.525;    0.000
839.500; 3503.450;  150.525;    0.000
839.685; 3405.450;  118.525;    0.000
839.870; 3454.450;  177.525;    0.000
840.056; 3478.450;  144.525;    0.000
840.241; 3453.450;  121.525;    0.000
840.426; 3472.450;  131.525;    0.000
840.611; 3503.450;  177.525;    0.000
840.796; 3479.450;  173.525;    0.000
840.981; 3569.450;  156.525;    0.000
841.166; 3551.450;  145.525;    0.000
841.352; 3478.450;  150.525;    0.000
841.537; 3568.450;  143.525;    0.000
841.722; 3548.450;  165.525;    0.000
841.907; 3695.450;  184.525;    0.000
842.092; 3738.450;  171.525;    0.000
842.277; 3637.450;  155.525;    0.000
842.461; 3832.450;  152.525;    0.000
842.646; 3836.450;  107.525;    0.000
842.831; 3876.450;  160.525;    0.000
843.016; 3885.450;  160.525;    0.000
843.201; 4001.450;  164.525;    0.000
843.386; 4228.450;  134.525;    0.000
843.571; 4360.450;  132.525;    0.000
843.755; 4638.450;  158.525;    0.000
843.940; 4915.450;  152.525;    0.000
844.125; 5453.450;  154.525;    0.000
844.310; 6348.450;  147.525;    0.000
844.494; 8154.450;  158.525;    0.000
844.679;10849.450;  173.525;    0.000
844.864;10538.450;  152.525;    0.000
845.048; 8925.450;  139.525;    0.000
845.233; 7572.450;  200.525;    0.000
845.418; 6629.450;  139.525;    0.000
845.602; 5885.450;  147.525;    0.000
845.787; 5459.450;  148.525;    0.000
845.971; 5057.450;  170.525;    0.000
846.156; 4838.450;  136.525;    0.000
846.340; 4553.450;  146.525;    0.000
846.525; 4239.450;  188.525;    0.000
846.709; 4070.450;  128.525;    0.000
846.893; 3957.450;  151.525;    0.000
847.078; 3893.450;  164.525;    0.000
847.262; 3901.450;  155.525;    0.000
847.447; 3708.450;  114.525;    0.000
847.631; 3541.450;  148.525;    0.000
847.815; 3511.450;  114.525;    0.000
848.000; 3431.450;  134.525;    0.000
848.184; 3417.450;  154.525;    0.000
848.368; 3302.450;  145.525;    0.000
848.552; 3281.450;  122.525;    0.000
848.736; 3308.450;  139.525;    0.000
848.921; 3326.450;  143.525;    0.000
849.105; 3191.450;  145.525;    0.000
849.289; 3233.450;  173.525;    0.000
849.473; 3211.450;  147.525;    0.000
849.657; 3124.450;  144.525;    0.000
849.841; 3075.450;  168.525;    0.000
850.025; 3092.450;  205.525;    0.000
850.209; 3007.450;  171.525;    0.000
850.393; 3002.450;  130.525;    0.000
850.577; 2978.450;  146.525;    0.000
850.761; 2908.450;  188.525;    0.000
850.945; 2884.450;  137.525;    0.000
851.129; 2906.450;  192.525;    0.000
851.313; 2919.450;  199.525;    0.000
851.497; 2937.450;  165.525;    0.000
851.680; 2916.450;  196.525;    0.000
851.864; 2926.450;  169.525;    0.000
852.048; 2879.450;  156.525;    0.000
852.232; 2916.450;  150.525;    0.000
852.416; 2925.450;  219.525;    0.000
852.599; 2822.450;  168.525;    0.000
852.783; 2845.450;  165.525;    0.000
852.967; 2868.450;  166.525;    0.000
853.150; 2862.450;  191.525;    0.000
853.334; 2877.450;  158.525;    0.000
853.518; 2889.450;  168.525;    0.000
853.701; 2803.450;  125.525;    0.000
853.885; 2894.450;  165.525;    0.000
854.068; 2903.450;  142.525;    0.000
854.252; 2891.450;  167.525;    0.000
854.435; 2853.450;  146.525;    0.000
854.619; 2750.450;  163.525;    0.000
854.802; 2875.450;  167.525;    0.000
854.986; 2810.450;  163.525;    0.000
855.169; 2772.450;  146.525;    0.000
855.353; 2751.450;  183.525;    0.000
855.536; 2777.450;  140.525;    0.000
855.719; 2834.450;  168.525;    0.000
855.903; 2913.450;  170.525;    0.000
856.086; 2938.450;  145.525;    0.000
856.269; 2872.450;  126.525;    0.000
856.452; 2915.450;  142.525;    0.000
856.636; 3009.450;  140.525;    0.000
856.819; 3205.450;  127.525;    0.000
857.002; 3257.450;  165.525;    0.000
857.185; 3188.450;  111.525;    0.000
857.368; 3072.450;  143.525;    0.000
857.552; 3041.450;  174.525;    0.000
857.735; 3005.450;  194.525;    0.000
857.918; 2915.450;  171.525;    0.000
858.101; 2962.450;  142.525;    0.000
858.284; 2940.450;  118.525;    0.000
858.467; 3079.450;  163.525;    0.000
858.650; 3141.450;  149.525;    0.000
858.833; 3108.450;  120.525;    0.000
859.016; 3095.450;  169.525;    0.000
859.199; 3214.450;  121.525;    0.000
859.382; 3508.450;  184.525;    0.000
859.564; 3747.450;  139.525;    0.000
859.747; 3626.450;  126.525;    0.000
859.930; 3430.450;  109.525;    0.000
860.113; 3431.450;  137.525;    0.000
860.296; 3338.450;  182.525;    0.000
860.478; 3374.450;  136.525;    0.000
860.661; 3287.450;  157.525;    0.000
860.844; 3169.450;  129.525;    0.000
861.027; 3190.450;  163.525;    0.000
861.209; 3181.450;  151.525;    0.000
861.392; 3185.450;  124.525;    0.000
861.575; 3176.450;  163.525;    0.000
861.757; 3189.450;  205.525;    0.000
861.940; 3283.450;  180.525;    0.000
862.122; 3291.450;  148.525;    0.000
862.305; 3289.450;  128.525;    0.000
862.487; 3492.450;  172.525;    0.000
862.670; 3683.450;  123.525;    0.000
862.852; 4336.450;  126.525;    0.000
863.035; 5036.450;  174.525;    0.000
863.217; 5075.450;  160.525;    0.000
863.400; 4548.450;  164.525;    0.000
863.582; 4324.450;  118.525;    0.000
863.764; 4088.450;  143.525;    0.000
863.947; 3918.450;  137.525;    0.000
864.129; 3796.450;  166.525;    0.000
864.311; 3756.450;  128.525;    0.000
864.493; 3652.450;  153.525;    0.000
864.676; 3736.450;  156.525;    0.000
864.858; 3611.450;  159.525;    0.000
865.040; 3624.450;  163.525;    0.000
865.222; 3594.450;  138.525;    0.000
865.404; 3592.450;  157.525;    0.000
865.587; 3774.450;  184.525;    0.000
865.769; 4056.450;  178.525;    0.000
865.951; 3922.450;  104.525;    0.000
866.133; 3883.450;  147.525;    0.000
866.315; 3832.450;  141.525;    0.000
866.497; 3859.450;  132.525;    0.000
866.679; 4048.450;  139.525;    0.000
866.861; 4193.450;  118.525;    0.000
867.043; 4368.450;  154.525;    0.000
867.225; 4564.450;  147.525;    0.000
867.407; 4944.450;  158.525;    0.000
867.589; 5540.450;  172.525;    0.000
867.770; 6707.450;  159.525;    0.000
867.952; 9146.450;  149.525;    0.000
868.134;11532.450;  156.525;    0.000
868.316;11788.450;  171.525;    0.000
868.498;11246.450;  200.525;    0.000
868.679; 9924.450;  174.525;    0.000
868.861; 8251.450;  175.525;    0.000
869.043; 7060.450;  174.525;    0.000
869.224; 6130.450;  122.525;    0.000
869.406; 5619.450;  166.525;    0.000
869.588; 5358.450;  143.525;    0.000
869.769; 5106.450;  152.525;    0.000
869.951; 4946.450;  165.525;    0.000
870.132; 5021.450;  115.525;    0.000
870.314; 5556.450;  139.525;    0.000
870.495; 5645.450;  168.525;    0.000
870.677; 5143.450;  188.525;    0.000
870.858; 5057.450;  123.525;    0.000
871.040; 5239.450;  170.525;    0.000
871.221; 5724.450;  148.525;    0.000
871.403; 5505.450;  140.525;    0.000
871.584; 5176.450;  174.525;    0.000
871.765; 5239.450;  168.525;    0.000
871.947; 5494.450;  191.525;    0.000
872.128; 5020.450;  132.525;    0.000
872.309; 4475.450;  140.525;    0.000
872.491; 4048.450;  157.525;    0.000
872.672; 3932.450;  130.525;    0.000
872.853; 3803.450;  148.525;    0.000
873.034; 3682.450;  138.525;    0.000
873.215; 3454.450;  152.525;    0.000
873.396; 3364.450;  149.525;    0.000
873.578; 3254.450;  173.525;    0.000
873.759; 3172.450;  158.525;    0.000
873.940; 3037.450;  147.525;    0.000
874.121; 3015.450;  136.525;    0.000
874.302; 2930.450;  151.525;    0.000
874.483; 2883.450;  137.525;    0.000
874.664; 2826.450;  163.525;    0.000
874.845; 2965.450;  124.525;    0.000
875.026; 2874.450;  134.525;    0.000
875.207; 2775.450;  164.525;    0.000
875.388; 2776.450;  163.525;    0.000
875.568; 2755.450;  176.525;    0.000
875.749; 2615.450;  108.525;    0.000
875.930; 2691.450;  191.525;    0.000
876.111; 2664.450;  170.525;    0.000
876.292; 2640.450;  180.525;    0.000
876.472; 2602.450;  150.525;    0.000
876.653; 2508.450;  162.525;    0.000
876.834; 2592.450;  176.525;    0.000
877.015; 2530.450;  203.525;    0.000
877.195; 2530.450;  178.525;    0.000
877.376; 2495.450;  141.525;    0.000
877.556; 2460.450;  135.525;    0.000
877.737; 2478.450;  174.525;    0.000
877.918; 2445.450;  150.525;    0.000
878.098; 2441.450;  133.525;    0.000
878.279; 2358.450;  129.525;    0.000
878.459; 2374.450;  162.525;    0.000
878.640; 2405.450;  187.525;    0.000
878.820; 2435.450;  151.525;    0.000
879.000; 2333.450;  159.525;    0.000
879.181; 2393.450;  171.525;    0.000
879.361; 2301.450;  167.525;    0.000
879.542; 2377.450;  126.525;    0.000
879.722; 2400.450;  152.525;    0.000
879.902; 2399.450;  144.525;    0.000
880.083; 2455.450;  154.525;    0.000
880.263; 2391.450;  148.525;    0.000
880.443; 2493.450;  185.525;    0.000
880.623; 2708.450;  172.525;    0.000
880.803; 2996.450;  152.525;    0.000
880.984; 2712.450;  165.525;    0.000
881.164; 2538.450;  164.525;    0.000
881.344; 2455.450;  141.525;    0.000
881.524; 2526.450;  160.525;    0.000
881.704; 2556.450;  164.525;    0.000
881.884; 2554.450;  159.525;    0.000
882.064; 2741.450;  158.525;    0.000
882.244; 2816.450;  147.525;    0.000
882.424; 2667.450;  160.525;    0.000
882.604; 2600.450;  150.525;    0.000
882.784; 2485.450;  138.525;    0.000
882.964; 2427.450;  157.525;    0.000
883.144; 2368.450;  128.525;    0.000
883.324; 2422.450;  220.525;    0.000
883.504; 2432.450;  177.525;    0.000
883.683; 2389.450;  159.525;    0.000
883.863; 2286.450;  143.525;    0.000
884.043; 2338.450;  156.525;    0.000
884.223; 2247.450;  152.525;    0.000
884.402; 2238.450;  169.525;    0.000
884.582; 2339.450;  162.525;    0.000
884.762; 2315.450;  172.525;    0.000
884.941; 2301.450;  220.525;    0.000
885.121; 2226.450;  128.525;    0.000
885.301; 2251.450;  141.525;    0.000
885.480; 2182.450;  141.525;    0.000
885.660; 2222.450;  132.525;    0.000
885.839; 2201.450;  146.525;    0.000
886.019; 2175.450;  170.525;    0.000
886.198; 2184.450;  143.525;    0.000
886.378; 2125.450;  159.525;    0.000
886.557; 2177.450;  148.525;    0.000
886.737; 2121.450;  125.525;    0.000
886.916; 2108.450;  177.525;    0.000
887.095; 2056.450;  186.525;    0.000
887.275; 2127.450;  134.525;    0.000
887.454; 2087.450;  148.525;    0.000
887.633; 2061.450;  171.525;    0.000
887.813; 2084.450;  187.525;    0.000
887.992; 2050.450;  157.525;    0.000
888.171; 2074.450;  143.525;    0.000
888.350; 2184.450;  182.525;    0.000
888.530; 2265.450;  142.525;    0.000
888.709; 2056.450;  160.525;    0.000
888.888; 2035.450;  197.525;    0.000
889.067; 2065.450;  126.525;    0.000
889.246; 2124.450;  197.525;    0.000
889.425; 2151.450;  161.525;    0.000
889.604; 2116.450;  180.525;    0.000
889.783; 2110.450;  135.525;    0.000
889.962; 2029.450;  107.525;    0.000
890.141; 2138.450;  167.525;    0.000
890.320; 2168.450;  149.525;    0.000
890.499; 2138.450;  194.525;    0.000
890.678; 2129.450;  138.525;    0.000
890.857; 2045.450;  146.525;    0.000
891.036; 2077.450;  178.525;    0.000
891.214; 2034.450;  151.525;    0.000
891.393; 2055.450;  137.525;    0.000
891.572; 2129.450;  177.525;    0.000
891.751; 2087.450;  149.525;    0.000
891.930; 2101.450;  189.525;    0.000
892.108; 2071.450;  136.525;    0.000
892.287; 2060.450;  129.525;    0.000
892.466; 2051.450;  163.525;    0.000
892.644; 2066.450;  147.525;    0.000
892.823; 2075.450;  127.525;    0.000
893.001; 2100.450;  192.525;    0.000
893.180; 1988.450;  157.525;    0.000
893.359; 2108.450;  176.525;    0.000
893.537; 2153.450;  146.525;    0.000
893.716; 2126.450;  154.525;    0.000
893.894; 2118.450;  166.525;    0.000
894.073; 2094.450;  163.525;    0.000
894.251; 2034.450;  166.525;    0.000
894.429; 1975.450;  149.525;    0.000
894.608; 2099.450;  141.525;    0.000
894.786; 2125.450;  139.525;    0.000
894.964; 2091.450;  180.525;    0.000
895.143; 2119.450;  193.525;    0.000
895.321; 2122.450;  163.525;    0.000
895.499; 2068.450;  163.525;    0.000
895.677; 2037.450;  194.525;    0.000
895.856; 2046.450;  176.525;    0.000
896.034; 2130.450;  173.525;    0.000
896.212; 2111.450;  180.525;    0.000
896.390; 2126.450;  146.525;    0.000
896.568; 2033.450;  167.525;    0.000
896.746; 2091.450;  158.525;    0.000
896.924; 2091.450;  163.525;    0.000
897.102; 2130.450;  170.525;    0.000
897.280; 2011.450;  159.525;    0.000
897.458; 2101.450;  182.525;    0.000
897.636; 2054.450;  151.525;    0.000
897.814; 2114.450;  130.525;    0.000
897.992; 2147.450;  213.525;    0.000
898.170; 2136.450;  164.525;    0.000
898.348; 2161.450;  159.525;    0.000
898.526; 2153.450;  182.525;    0.000
898.704; 2143.450;  209.525;    0.000
898.882; 2128.450;  145.525;    0.000
899.059; 2072.450;  172.525;    0.000
899.237; 2091.450;  172.525;    0.000
899.415; 2167.450;  211.525;    0.000
899.593; 2090.450;  151.525;    0.000
899.770; 2100.450;  147.525;    0.000
899.948; 2162.450;  218.525;    0.000
900.125; 2174.450;  166.525;    0.000
900.303; 2132.450;  146.525;    0.000
900.481; 2131.450;  174.525;    0.000
900.658; 2192.450;  198.525;    0.000
900.836; 2253.450;  125.525;    0.000
901.013; 2223.450;  197.525;    0.000
901.191; 2164.450;  181.525;    0.000
901.368; 2166.450;  185.525;    0.000
901.546; 2344.450;  197.525;    0.000
901.723; 2289.450;  205.525;    0.000
901.901; 2302.450;  187.525;    0.000
902.078; 2414.450;  163.525;    0.000
902.255; 2451.450;  141.525;    0.000
902.433; 2422.450;  183.525;    0.000
902.610; 2539.450;  181.525;    0.000
902.787; 2405.450;  174.525;    0.000
902.964; 2497.450;  174.525;    0.000
903.142; 2576.450;  141.525;    0.000
903.319; 2571.450;  214.525;    0.000
903.496; 2546.450;  187.525;    0.000
903.673; 2635.450;  183.525;    0.000
903.850; 2673.450;  125.525;    0.000
904.027; 2740.450;  197.525;    0.000
904.204; 2860.450;  197.525;    0.000
904.381; 3017.450;  196.525;    0.000
904.558; 3446.450;  176.525;    0.000
904.735; 3813.450;  179.525;    0.000
904.912; 3780.450;  203.525;    0.000
905.089; 3888.450;  159.525;    0.000
905.266; 3643.450;  176.525;    0.000
905.443; 3423.450;  184.525;    0.000
905.620; 3097.450;  168.525;    0.000
905.797; 3004.450;  214.525;    0.000
905.974; 2962.450;  154.525;    0.000
906.151; 2830.450;  132.525;    0.000
906.327; 2964.450;  192.525;    0.000
906.504; 2785.450;  186.525;    0.000
906.681; 2722.450;  171.525;    0.000
906.858; 2719.450;  181.525;    0.000
907.034; 2591.450;  164.525;    0.000
907.211; 2618.450;  184.525;    0.000
907.388; 2559.450;  177.525;    0.000
907.564; 2515.450;  150.525;    0.000
907.741; 2558.450;  195.525;    0.000
907.917; 2378.450;  190.525;    0.000
908.094; 2455.450;  214.525;    0.000
908.271; 2360.450;  173.525;    0.000
908.447; 2458.450;  229.525;    0.000
908.623; 2305.450;  162.525;    0.000
908.800; 2281.450;  195.525;    0.000
908.976; 2306.450;  171.525;    0.000
909.153; 2346.450;  167.525;    0.000
909.329; 2299.450;  227.525;    0.000
909.505; 2325.450;  167.525;    0.000
909.682; 2227.450;  174.525;    0.000
909.858; 2257.450;  158.525;    0.000
910.034; 2287.450;  188.525;    0.000
910.211; 2220.450;  158.525;    0.000
910.387; 2247.450;  208.525;    0.000
910.563; 2272.450;  203.525;    0.000
910.739; 2231.450;  201.525;    0.000
910.915; 2282.450;  170.525;    0.000
911.091; 2172.450;  171.525;    0.000
911.268; 2216.450;  220.525;    0.000
911.444; 2148.450;  202.525;    0.000
911.620; 2152.450;  175.525;    0.000
911.796; 2109.450;  175.525;    0.000
911.972; 2148.450;  164.525;    0.000
912.148; 2150.450;  174.525;    0.000
912.324; 2144.450;  155.525;    0.000
912.500; 2206.450;  156.525;    0.000
912.676; 2137.450;  138.525;    0.000
912.851; 2212.450;  158.525;    0.000
913.027; 2123.450;  161.525;    0.000
913.203; 2218.450;  168.525;    0.000
913.379; 2147.450;  172.525;    0.000
913.555; 2193.450;  193.525;    0.000
913.730; 2222.450;  149.525;    0.000
913.906; 2210.450;  159.525;    0.000
914.082; 2203.450;  184.525;    0.000
914.258; 2054.450;  194.525;    0.000
914.433; 2159.450;  175.525;    0.000
914.609; 2191.450;  175.525;    0.000
914.784; 2181.450;  170.525;    0.000
914.960; 2252.450;  212.525;    0.000
915.136; 2211.450;  157.525;    0.000
915.311; 2142.450;  204.525;    0.000
915.487; 2152.450;  180.525;    0.000
915.662; 2125.450;  203.525;    0.000
915.838; 2156.450;  194.525;    0.000
916.013; 2214.450;  217.525;    0.000
916.189; 2185.450;  196.525;    0.000
916.364; 2166.450;  236.525;    0.000
916.539; 2175.450;  192.525;    0.000
916.715; 2168.450;  181.525;    0.000
916.890; 2145.450;  185.525;    0.000
917.065; 2115.450;  166.525;    0.000
917.240; 2251.450;  182.525;    0.000
917.416; 2222.450;  188.525;    0.000
917.591; 2144.450;  185.525;    0.000
917.766; 2201.450;  187.525;    0.000
917.941; 2158.450;  181.525;    0.000
918.116; 2188.450;  207.525;    0.000
918.292; 2225.450;  140.525;    0.000
918.467; 2148.450;  187.525;    0.000
918.642; 2199.450;  208.525;    0.000
918.817; 2231.450;  203.525;    0.000
918.992; 2152.450;  162.525;    0.000
919.167; 2195.450;  206.525;    0.000
919.342; 2268.450;  188.525;    0.000
919.517; 2258.450;  190.525;    0.000
919.692; 2254.450;  174.525;    0.000
919.867; 2298.450;  181.525;    0.000
920.041; 2392.450;  179.525;    0.000
920.216; 2314.450;  186.525;    0.000
920.391; 2385.450;  209.525;    0.000
920.566; 2333.450;  205.525;    0.000
920.741; 2383.450;  205.525;    0.000
920.915; 2528.450;  206.525;    0.000
921.090; 2703.450;  219.525;    0.000
921.265; 3227.450;  185.525;    0.000
921.439; 3615.450;  171.525;    0.000
921.614; 3166.450;  197.525;    0.000
921.789; 2936.450;  189.525;    0.000
921.963; 2880.450;  210.525;    0.000
922.138; 2704.450;  171.525;    0.000
922.312; 2650.450;  194.525;    0.000
922.487; 2731.450;  231.525;    0.000
922.661; 2810.450;  179.525;    0.000
922.836; 3076.450;  213.525;    0.000
923.010; 3220.450;  182.525;    0.000
923.185; 3007.450;  239.525;    0.000
923.359; 2810.450;  200.525;    0.000
923.534; 2797.450;  232.525;    0.000
923.708; 2818.450;  221.525;    0.000
923.882; 3098.450;  193.525;    0.000
924.057; 2960.450;  204.525;    0.000
924.231; 2855.450;  172.525;    0.000
924.405; 2705.450;  202.525;    0.000
924.579; 2605.450;  207.525;    0.000
924.753; 2597.450;  167.525;    0.000
924.928; 2642.450;  202.525;    0.000
925.102; 2564.450;  200.525;    0.000
925.276; 2607.450;  185.525;    0.000
925.450; 2649.450;  170.525;    0.000
925.624; 2699.450;  176.525;    0.000
925.798; 2711.450;  221.525;    0.000
925.972; 2786.450;  162.525;    0.000
926.146; 2930.450;  207.525;    0.000
926.320; 3203.450;  185.525;    0.000
926.494; 3326.450;  192.525;    0.000
926.668; 3558.450;  179.525;    0.000
926.842; 3631.450;  181.525;    0.000
927.016; 3637.450;  224.525;    0.000
927.190; 3474.450;  193.525;    0.000
927.363; 3569.450;  194.525;    0.000
927.537; 3453.450;  210.525;    0.000
927.711; 3244.450;  153.525;    0.000
927.885; 3229.450;  184.525;    0.000
928.058; 3161.450;  197.525;    0.000
928.232; 3243.450;  219.525;    0.000
928.406; 2981.450;  175.525;    0.000
928.579; 2990.450;  179.525;    0.000
928.753; 2995.450;  208.525;    0.000
928.927; 2817.450;  163.525;    0.000
929.100; 2854.450;  138.525;    0.000
929.274; 2751.450;  160.525;    0.000
929.447; 2763.450;  152.525;    0.000
929.621; 2712.450;  168.525;    0.000
929.794; 2739.450;  152.525;    0.000
929.968; 2689.450;  163.525;    0.000
930.141; 2636.450;  164.525;    0.000
930.315; 2508.450;  170.525;    0.000
930.488; 2548.450;  216.525;    0.000
930.661; 2588.450;  184.525;    0.000
930.835; 2475.450;  156.525;    0.000
931.008; 2460.450;  206.525;    0.000
931.181; 2470.450;  163.525;    0.000
931.354; 2480.450;  198.525;    0.000
931.528; 2438.450;  156.525;    0.000
931.701; 2440.450;  170.525;    0.000
931.874; 2352.450;  167.525;    0.000
932.047; 2367.450;  146.525;    0.000
932.220; 2348.450;  159.525;    0.000
932.393; 2375.450;  186.525;    0.000
932.566; 2348.450;  147.525;    0.000
932.739; 2236.450;  192.525;    0.000
932.912; 2304.450;  197.525;    0.000
933.085; 2264.450;  176.525;    0.000
933.258; 2298.450;  171.525;    0.000
933.431; 2262.450;  150.525;    0.000
933.604; 2364.450;  176.525;    0.000
933.777; 2250.450;  215.525;    0.000
933.950; 2200.450;  164.525;    0.000
934.123; 2223.450;  174.525;    0.000
934.296; 2213.450;  203.525;    0.000
934.468; 2100.450;  208.525;    0.000
934.641; 2179.450;  182.525;    0.000
934.814; 2220.450;  170.525;    0.000
934.987; 2122.450;  183.525;    0.000
935.159; 2143.450;  154.525;    0.000
935.332; 2122.450;  178.525;    0.000
935.505; 2134.450;  213.525;    0.000
935.677; 2088.450;  173.525;    0.000
935.850; 2193.450;  190.525;    0.000
936.022; 2092.450;  205.525;    0.000
936.195; 2191.450;  201.525;    0.000
936.367; 2167.450;  189.525;    0.000
936.540; 2172.450;  179.525;    0.000
936.712; 2183.450;  195.525;    0.000
936.885; 2216.450;  207.525;    0.000
937.057; 2230.450;  163.525;    0.000
937.229; 2234.450;  175.525;    0.000
937.402; 2292.450;  168.525;    0.000
937.574; 2176.450;  136.525;    0.000
937.746; 2310.450;  166.525;    0.000
937.919; 2419.450;  178.525;    0.000
938.091; 2463.450;  192.525;    0.000
938.263; 2628.450;  164.525;    0.000
938.435; 2868.450;  204.525;    0.000
938.608; 3113.450;  153.525;    0.000
938.780; 3538.450;  159.525;    0.000
938.952; 3600.450;  160.525;    0.000
939.124; 3750.450;  156.525;    0.000
939.296; 4128.450;  110.525;    0.000
939.468; 4355.450;  135.525;    0.000
939.640; 3907.450;  144.525;    0.000
939.812; 3546.450;  232.525;    0.000
939.984; 3211.450;  128.525;    0.000
940.156; 3034.450;  195.525;    0.000
940.328; 2848.450;  226.525;    0.000
940.500; 2716.450;  146.525;    0.000
940.672; 2663.450;  190.525;    0.000
940.843; 2598.450;  156.525;    0.000
941.015; 2621.450;  200.525;    0.000
941.187; 2448.450;  159.525;    0.000
941.359; 2422.450;  183.525;    0.000
941.531; 2564.450;  137.525;    0.000
941.702; 2495.450;  186.525;    0.000
941.874; 2391.450;  164.525;    0.000
942.046; 2346.450;  202.525;    0.000
942.217; 2283.450;  146.525;    0.000
942.389; 2346.450;  165.525;    0.000
942.560; 2226.450;  191.525;    0.000
942.732; 2260.450;  240.525;    0.000
942.904; 2135.450;  173.525;    0.000
943.075; 2106.450;  157.525;    0.000
943.247; 2083.450;  155.525;    0.000
943.418; 2033.450;  164.525;    0.000
943.589; 2078.450;  150.525;    0.000
943.761; 2108.450;  143.525;    0.000
943.932; 2101.450;  151.525;    0.000
944.104; 2086.450;  194.525;    0.000
944.275; 2039.450;  154.525;    0.000
944.446; 2157.450;  169.525;    0.000
944.617; 2018.450;  138.525;    0.000
944.789; 2045.450;  158.525;    0.000
944.960; 2035.450;  197.525;    0.000
945.131; 1920.450;  139.525;    0.000
945.302; 2025.450;  169.525;    0.000
945.473; 1959.450;  149.525;    0.000
945.645; 1993.450;  171.525;    0.000
945.816; 2074.450;  167.525;    0.000
945.987; 2084.450;  156.525;    0.000
946.158; 2105.450;  185.525;    0.000
946.329; 2096.450;  201.525;    0.000
946.500; 1975.450;  182.525;    0.000
946.671; 2005.450;  156.525;    0.000
946.842; 1984.450;  190.525;    0.000
947.013; 1903.450;  159.525;    0.000
947.183; 1966.450;  209.525;    0.000
947.354; 1928.450;  171.525;    0.000
947.525; 1943.450;  180.525;    0.000
947.696; 1924.450;  163.525;    0.000
947.867; 1944.450;  168.525;    0.000
948.037; 1859.450;  153.525;    0.000
948.208; 1856.450;  178.525;    0.000
948.379; 1984.450;  192.525;    0.000
948.550; 1942.450;  180.525;    0.000
948.720; 1894.450;  196.525;    0.000
948.891; 1938.450;  173.525;    0.000
949.061; 1920.450;  207.525;    0.000
949.232; 1852.450;  176.525;    0.000
949.403; 1833.450;  152.525;    0.000
949.573; 1847.450;  186.525;    0.000
949.744; 1907.450;  181.525;    0.000
949.914; 1848.450;  174.525;    0.000
950.085; 1922.450;  146.525;    0.000
950.255; 1807.450;  162.525;    0.000
950.425; 1860.450;  189.525;    0.000
950.596; 1908.450;  175.525;    0.000
950.766; 1916.450;  209.525;    0.000
950.936; 1875.450;  201.525;    0.000
951.107; 1820.450;  141.525;    0.000
951.277; 1868.450;  211.525;    0.000
951.447; 1818.450;  218.525;    0.000
951.617; 1828.450;  191.525;    0.000
951.788; 1808.450;  193.525;    0.000
951.958; 1796.450;  217.525;    0.000
952.128; 1780.450;  192.525;    0.000
952.298; 1773.450;  237.525;    0.000
952.468; 1914.450;  194.525;    0.000
952.638; 1794.450;  201.525;    0.000
952.808; 1774.450;  203.525;    0.000
952.978; 1794.450;  216.525;    0.000
953.148; 1731.450;  209.525;    0.000
953.318; 1855.450;  213.525;    0.000
953.488; 1715.450;  161.525;    0.000
953.658; 1793.450;  222.525;    0.000
953.828; 1749.450;  196.525;    0.000
953.998; 1792.450;  227.525;    0.000
954.167; 1808.450;  163.525;    0.000
954.337; 1810.450;  201.525;    0.000
954.507; 1823.450;  227.525;    0.000
954.677; 1703.450;  204.525;    0.000
954.846; 1744.450;  210.525;    0.000
955.016; 1700.450;  198.525;    0.000
955.186; 1737.450;  203.525;    0.000
955.355; 1788.450;  198.525;    0.000
955.525; 1752.450;  198.525;    0.000
955.695; 1758.450;  187.525;    0.000
955.864; 1724.450;  243.525;    0.000
956.034; 1689.450;  192.525;    0.000
956.203; 1770.450;  259.525;    0.000
956.373; 1662.450;  185.525;    0.000
956.542; 1711.450;  230.525;    0.000
956.711; 1756.450;  218.525;    0.000
956.881; 1705.450;  232.525;    0.000
957.050; 1789.450;  246.525;    0.000
957.220; 1753.450;  229.525;    0.000
957.389; 1734.450;  211.525;    0.000
957.558; 1702.450;  173.525;    0.000
957.727; 1723.450;  226.525;    0.000
957.897; 1669.450;  209.525;    0.000
958.066; 1647.450;  217.525;    0.000
958.235; 1659.450;  160.525;    0.000
958.404; 1639.450;  199.525;    0.000
958.573; 1674.450;  223.525;    0.000
958.743; 1643.450;  189.525;    0.000
958.912; 1602.450;  199.525;    0.000
959.081; 1632.450;  216.525;    0.000
959.250; 1636.450;  192.525;    0.000
959.419; 1663.450;  216.525;    0.000
959.588; 1648.450;  209.525;    0.000
959.757; 1585.450;  194.525;    0.000
959.926; 1680.450;  200.525;    0.000
960.094; 1582.450;  174.525;    0.000
960.263; 1606.450;  218.525;    0.000
960.432; 1722.450;  173.525;    0.000
960.601; 1627.450;  177.525;    0.000
960.770; 1606.450;  188.525;    0.000
960.939; 1625.450;  167.525;    0.000
961.107; 1623.450;  195.525;    0.000
961.276; 1643.450;  183.525;    0.000
961.445; 1570.450;  195.525;    0.000
961.613; 1567.450;  198.525;    0.000
961.782; 1613.450;  224.525;    0.000
961.951; 1540.450;  178.525;    0.000
962.119; 1698.450;  214.525;    0.000
962.288; 1637.450;  174.525;    0.000
962.456; 1572.450;  197.525;    0.000
962.625; 1693.450;  212.525;    0.000
962.793; 1586.450;  183.525;    0.000
962.962; 1635.450;  189.525;    0.000
963.130; 1621.450;  151.525;    0.000
963.298; 1668.450;  197.525;    0.000
963.467; 1581.450;  202.525;    0.000
963.635; 1607.450;  172.525;    0.000
963.803; 1562.450;  203.525;    0.000
963.972; 1679.450;  204.525;    0.000
964.140; 1574.450;  193.525;    0.000
964.308; 1585.450;  159.525;    0.000
964.477; 1644.450;  142.525;    0.000
964.645; 1635.450;  202.525;    0.000
964.813; 1552.450;  158.525;    0.000
964.981; 1605.450;  179.525;    0.000
965.149; 1651.450;  176.525;    0.000
965.317; 1664.450;  229.525;    0.000
965.485; 1622.450;  179.525;    0.000
965.653; 1626.450;  205.525;    0.000
965.821; 1649.450;  196.525;    0.000
965.989; 1648.450;  202.525;    0.000
966.157; 1660.450;  199.525;    0.000
966.325; 1619.450;  178.525;    0.000
966.493; 1619.450;  177.525;    0.000
966.661; 1543.450;  172.525;    0.000
966.829; 1596.450;  167.525;    0.000
966.996; 1662.450;  202.525;    0.000
967.164; 1642.450;  175.525;    0.000
967.332; 1642.450;  207.525;    0.000
967.500; 1602.450;  170.525;    0.000
967.667; 1610.450;  222.525;    0.000
967.835; 1625.450;  245.525;    0.000
968.003; 1599.450;  180.525;    0.000
968.170; 1639.450;  222.525;    0.000
968.338; 1665.450;  183.525;    0.000
968.505; 1641.450;  197.525;    0.000
968.673; 1665.450;  209.525;    0.000
968.841; 1568.450;  162.525;    0.000
969.008; 1560.450;  187.525;    0.000
969.175; 1527.450;  204.525;    0.000
969.343; 1657.450;  157.525;    0.000
969.510; 1657.450;  189.525;    0.000
969.678; 1550.450;  153.525;    0.000
969.845; 1554.450;  190.525;    0.000
970.012; 1630.450;  162.525;    0.000
970.180; 1715.450;  223.525;    0.000
970.347; 1615.450;  195.525;    0.000
970.514; 1591.450;  185.525;    0.000
970.681; 1561.450;  187.525;    0.000
970.849; 1549.450;  183.525;    0.000
971.016; 1642.450;  168.525;    0.000
971.183; 1640.450;  160.525;    0.000
971.350; 1592.450;  193.525;    0.000
971.517; 1623.450;  202.525;    0.000
971.684; 1609.450;  242.525;    0.000
971.851; 1625.450;  192.525;    0.000
972.018; 1556.450;  194.525;    0.000
972.185; 1586.450;  193.525;    0.000
972.352; 1610.450;  187.525;    0.000
972.519; 1637.450;  233.525;    0.000
972.686; 1621.450;  186.525;    0.000
972.853; 1562.450;  165.525;    0.000
973.020; 1601.450;  183.525;    0.000
973.186; 1569.450;  186.525;    0.000
973.353; 1545.450;  177.525;    0.000
973.520; 1579.450;  203.525;    0.000
973.687; 1611.450;  211.525;    0.000
973.853; 1637.450;  194.525;    0.000
974.020; 1553.450;  201.525;    0.000
974.187; 1545.450;  187.525;    0.000
974.353; 1578.450;  188.525;    0.000
974.520; 1542.450;  136.525;    0.000
974.687; 1545.450;  169.525;    0.000
974.853; 1589.450;  207.525;    0.000
975.020; 1585.450;  190.525;    0.000
975.186; 1565.450;  182.525;    0.000
975.353; 1501.450;  202.525;    0.000
975.519; 1601.450;  189.525;    0.000
975.685; 1547.450;  176.525;    0.000
975.852; 1563.450;  175.525;    0.000
976.018; 1611.450;  155.525;    0.000
976.184; 1525.450;  179.525;    0.000
976.351; 1547.450;  191.525;    0.000
976.517; 1628.450;  246.525;    0.000
976.683; 1508.450;  222.525;    0.000
976.849; 1548.450;  216.525;    0.000
977.016; 1499.450;  212.525;    0.000
977.182; 1526.450;  192.525;    0.000
977.348; 1522.450;  145.525;    0.000
977.514; 1532.450;  195.525;    0.000
977.680; 1510.450;  210.525;    0.000
977.846; 1498.450;  172.525;    0.000
978.012; 1507.450;  190.525;    0.000
978.178; 1547.450;  201.525;    0.000
978.344; 1512.450;  190.525;    0.000
978.510; 1511.450;  199.525;    0.000
978.676; 1447.450;  174.525;    0.000
978.842; 1588.450;  195.525;    0.000
979.008; 1496.450;  205.525;    0.000
979.174; 1524.450;  187.525;    0.000
979.340; 1606.450;  194.525;    0.000
979.505; 1534.450;  221.525;    0.000
979.671; 1550.450;  178.525;    0.000
979.837; 1610.450;  215.525;    0.000
980.003; 1508.450;  176.525;    0.000
980.168; 1551.450;  185.525;    0.000
980.334; 1553.450;  165.525;    0.000
980.499; 1535.450;  231.525;    0.000
980.665; 1519.450;  238.525;    0.000
980.831; 1546.450;  194.525;    0.000
980.996; 1534.450;  169.525;    0.000
981.162; 1547.450;  199.525;    0.000
981.327; 1536.450;  158.525;    0.000
981.493; 1556.450;  193.525;    0.000
981.658; 1483.450;  181.525;    0.000
981.823; 1553.450;  199.525;    0.000
981.989; 1630.450;  186.525;    0.000
982.154; 1612.450;  225.525;    0.000
982.319; 1556.450;  191.525;    0.000
982.485; 1560.450;  205.525;    0.000
982.650; 1599.450;  234.525;    0.000
982.815; 1523.450;  193.525;    0.000
982.980; 1602.450;  177.525;    0.000
983.146; 1574.450;  212.525;    0.000
983.311; 1574.450;  177.525;    0.000
983.476; 1548.450;  185.525;    0.000
983.641; 1558.450;  149.525;    0.000
983.806; 1553.450;  175.525;    0.000
983.971; 1591.450;  234.525;    0.000
984.136; 1571.450;  191.525;    0.000
984.301; 1560.450;  215.525;    0.000
984.466; 1495.450;  207.525;    0.000
984.631; 1589.450;  206.525;    0.000
984.796; 1548.450;  229.525;    0.000
984.961; 1546.450;  220.525;    0.000
985.126; 1606.450;  204.525;    0.000
985.291; 1556.450;  210.525;    0.000
985.455; 1505.450;  193.525;    0.000
985.620; 1530.450;  207.525;    0.000
985.785; 1583.450;  188.525;    0.000
985.950; 1513.450;  168.525;    0.000
986.114; 1566.450;  239.525;    0.000
986.279; 1515.450;  223.525;    0.000
986.444; 1515.450;  154.525;    0.000
986.608; 1574.450;  232.525;    0.000
986.773; 1561.450;  214.525;    0.000
986.937; 1605.450;  220.525;    0.000
987.102; 1562.450;  224.525;    0.000
987.266; 1552.450;  157.525;    0.000
987.431; 1591.450;  246.525;    0.000
987.595; 1567.450;  203.525;    0.000
987.760; 1545.450;  202.525;    0.000
987.924; 1557.450;  208.525;    0.000
988.088; 1588.450;  169.525;    0.000
988.253; 1554.450;  237.525;    0.000
988.417; 1496.450;  202.525;    0.000
988.581; 1533.450;  215.525;    0.000
988.746; 1503.450;  210.525;    0.000
988.910; 1536.450;  191.525;    0.000
989.074; 1555.450;  197.525;    0.000
989.238; 1588.450;  191.525;    0.000
989.402; 1483.450;  222.525;    0.000
989.566; 1520.450;  221.525;    0.000
989.731; 1480.450;  216.525;    0.000
989.895; 1524.450;  183.525;    0.000
990.059; 1482.450;  150.525;    0.000
990.223; 1536.450;  183.525;    0.000
990.387; 1514.450;  241.525;    0.000
990.551; 1510.450;  198.525;    0.000
990.714; 1580.450;  176.525;    0.000
990.878; 1481.450;  203.525;    0.000
991.042; 1578.450;  146.525;    0.000
991.206; 1553.450;  199.525;    0.000
991.370; 1557.450;  223.525;    0.000
991.534; 1478.450;  158.525;    0.000
991.697; 1467.450;  182.525;    0.000
991.861; 1467.450;  195.525;    0.000
992.025; 1545.450;  206.525;    0.000
992.188; 1529.450;  174.525;    0.000
992.352; 1557.450;  183.525;    0.000
992.516; 1536.450;  181.525;    0.000
992.679; 1538.450;  162.525;    0.000
992.843; 1555.450;  173.525;    0.000
993.006; 1571.450;  189.525;    0.000
993.170; 1515.450;  200.525;    0.000
993.333; 1512.450;  167.525;    0.000
993.497; 1571.450;  217.525;    0.000
993.660; 1622.450;  179.525;    0.000
993.824; 1504.450;  195.525;    0.000
993.987; 1562.450;  186.525;    0.000
994.150; 1516.450;  164.525;    0.000
994.314; 1572.450;  215.525;    0.000
994.477; 1435.450;  186.525;    0.000
994.640; 1492.450;  192.525;    0.000
994.803; 1493.450;  215.525;    0.000
994.967; 1544.450;  208.525;    0.000
995.130; 1516.450;  196.525;    0.000
995.293; 1498.450;  221.525;    0.000
995.456; 1542.450;  164.525;    0.000
995.619; 1555.450;  224.525;    0.000
995.782; 1474.450;  184.525;    0.000
995.945; 1538.450;  220.525;    0.000
996.108; 1521.450;  187.525;    0.000
996.271; 1535.450;  192.525;    0.000
996.434; 1510.450;  162.525;    0.000
996.597; 1467.450;  148.525;    0.000
996.760; 1521.450;  186.525;    0.000
996.923; 1483.450;  154.525;    0.000
997.086; 1536.450;  156.525;    0.000
997.248; 1509.450;  215.525;    0.000
997.411; 1456.450;  160.525;    0.000
997.574; 1449.450;  159.525;    0.000
997.737; 1490.450;  179.525;    0.000
997.899; 1516.450;  184.525;    0.000
998.062; 1469.450;  180.525;    0.000
998.225; 1476.450;  168.525;    0.000
998.387; 1397.450;  192.525;    0.000
998.550; 1471.450;  178.525;    0.000
998.712; 1484.450;  192.525;    0.000
998.875; 1531.450;  230.525;    0.000
999.037; 1438.450;  200.525;    0.000
999.200; 1535.450;  196.525;    0.000
999.362; 1480.450;  173.525;    0.000
999.525; 1484.450;  196.525;    0.000
999.687; 1494.450;  159.525;    0.000
999.849; 1497.450;  180.525;    0.000
1000.012; 1452.450;  210.525;    0.000
1000.174; 1426.450;  175.525;    0.000
1000.336; 1502.450;  174.525;    0.000
1000.499; 1517.450;  180.525;    0.000
1000.661; 1451.450;  204.525;    0.000
1000.823; 1456.450;  181.525;    0.000
1000.985; 1515.450;  178.525;    0.000
1001.147; 1581.450;  215.525;    0.000
1001.309; 1499.450;  212.525;    0.000
1001.471; 1532.450;  192.525;    0.000
1001.633; 1536.450;  207.525;    0.000
1001.796; 1514.450;  211.525;    0.000
1001.958; 1589.450;  200.525;    0.000
1002.119; 1662.450;  210.525;    0.000
1002.281; 1756.450;  204.525;    0.000
1002.443; 1786.450;  230.525;    0.000
1002.605; 1801.450;  178.525;    0.000
1002.767; 1883.450;  228.525;    0.000
1002.929; 1919.450;  199.525;    0.000
1003.091; 2034.450;  220.525;    0.000
1003.252; 2225.450;  219.525;    0.000
1003.414; 2193.450;  213.525;    0.000
1003.576; 2396.450;  202.525;    0.000
1003.738; 2364.450;  184.525;    0.000
1003.899; 2571.450;  218.525;    0.000
1004.061; 2697.450;  210.525;    0.000
1004.222; 2713.450;  179.525;    0.000
1004.384; 2874.450;  183.525;    0.000
1004.546; 2910.450;  206.525;    0.000
1004.707; 3006.450;  191.525;    0.000
1004.869; 2995.450;  197.525;    0.000
1005.030; 2955.450;  186.525;    0.000
1005.191; 2869.450;  188.525;    0.000
1005.353; 2761.450;  215.525;    0.000
1005.514; 2649.450;  184.525;    0.000
1005.675; 2486.450;  209.525;    0.000
1005.837; 2402.450;  239.525;    0.000
1005.998; 2363.450;  218.525;    0.000
1006.159; 2359.450;  212.525;    0.000
1006.321; 2375.450;  220.525;    0.000
1006.482; 2593.450;  201.525;    0.000
1006.643; 2619.450;  222.525;    0.000
1006.804; 2778.450;  191.525;    0.000
1006.965; 2786.450;  214.525;    0.000
1007.126; 2858.450;  214.525;    0.000
1007.287; 2837.450;  243.525;    0.000
1007.448; 2666.450;  251.525;    0.000
1007.609; 2617.450;  244.525;    0.000
1007.770; 2653.450;  211.525;    0.000
1007.931; 2677.450;  225.525;    0.000
1008.092; 2651.450;  188.525;    0.000
1008.253; 2759.450;  224.525;    0.000
1008.414; 2781.450;  198.525;    0.000
1008.575; 2905.450;  244.525;    0.000
1008.736; 2871.450;  219.525;    0.000
1008.896; 2922.450;  206.525;    0.000
1009.057; 2722.450;  258.525;    0.000
1009.218; 2707.450;  209.525;    0.000
1009.379; 2827.450;  204.525;    0.000
1009.539; 2842.450;  242.525;    0.000
1009.700; 2997.450;  205.525;    0.000
1009.860; 2933.450;  211.525;    0.000
1010.021; 2842.450;  219.525;    0.000
1010.182; 2760.450;  206.525;    0.000
1010.342; 2809.450;  219.525;    0.000
1010.503; 2955.450;  231.525;    0.000
1010.663; 2949.450;  260.525;    0.000
1010.823; 3031.450;  200.525;    0.000
1010.984; 3060.450;  189.525;    0.000
1011.144; 3143.450;  234.525;    0.000
1011.305; 3136.450;  212.525;    0.000
1011.465; 3347.450;  202.525;    0.000
1011.625; 3342.450;  236.525;    0.000
1011.785; 3406.450;  203.525;    0.000
1011.946; 3380.450;  195.525;    0.000
1012.106; 3306.450;  176.525;    0.000
1012.266; 3388.450;  211.525;    0.000
1012.426; 3423.450;  244.525;    0.000
1012.586; 3359.450;  202.525;    0.000
1012.746; 3424.450;  234.525;    0.000
1012.906; 3289.450;  246.525;    0.000
1013.066; 3404.450;  232.525;    0.000
1013.226; 3346.450;  248.525;    0.000
1013.386; 3278.450;  231.525;    0.000
1013.546; 3212.450;  233.525;    0.000
1013.706; 3233.450;  211.525;    0.000
1013.866; 3360.450;  240.525;    0.000
1014.026; 3361.450;  188.525;    0.000
1014.186; 3245.450;  186.525;    0.000
1014.346; 3362.450;  203.525;    0.000
1014.505; 3399.450;  238.525;    0.000
1014.665; 3354.450;  206.525;    0.000
1014.825; 3295.450;  200.525;    0.000
1014.985; 3335.450;  215.525;    0.000
1015.144; 3485.450;  250.525;    0.000
1015.304; 3674.450;  195.525;    0.000
1015.464; 3587.450;  237.525;    0.000
1015.623; 3540.450;  232.525;    0.000
1015.783; 3854.450;  220.525;    0.000
1015.942; 4171.450;  219.525;    0.000
1016.102; 4005.450;  202.525;    0.000
1016.261; 3956.450;  225.525;    0.000
1016.420; 4358.450;  246.525;    0.000
1016.580; 4867.450;  226.525;    0.000
1016.739; 4518.450;  214.525;    0.000
1016.899; 4415.450;  205.525;    0.000
1017.058; 4784.450;  217.525;    0.000
1017.217; 4923.450;  199.525;    0.000
1017.376; 4846.450;  219.525;    0.000
1017.536; 4229.450;  209.525;    0.000
1017.695; 4312.450;  213.525;    0.000
1017.854; 4422.450;  187.525;    0.000
1018.013; 4274.450;  222.525;    0.000
1018.172; 4123.450;  204.525;    0.000
1018.331; 4153.450;  195.525;    0.000
1018.490; 4376.450;  213.525;    0.000
1018.649; 4647.450;  216.525;    0.000
1018.808; 4785.450;  227.525;    0.000
1018.967; 4792.450;  206.525;    0.000
1019.126; 4777.450;  206.525;    0.000
1019.285; 4852.450;  219.525;    0.000
1019.444; 4852.450;  218.525;    0.000
1019.603; 4737.450;  206.525;    0.000
1019.762; 4274.450;  189.525;    0.000
1019.921; 4393.450;  217.525;    0.000
1020.079; 4818.450;  200.525;    0.000
1020.238; 5150.450;  219.525;    0.000
1020.397; 4997.450;  227.525;    0.000
1020.555; 4471.450;  207.525;    0.000
1020.714; 4613.450;  253.525;    0.000
1020.873; 4977.450;  230.525;    0.000
1021.031; 5121.450;  232.525;    0.000
1021.190; 4795.450;  226.525;    0.000
1021.348; 4696.450;  224.525;    0.000
1021.507; 5055.450;  215.525;    0.000
1021.665; 5395.450;  233.525;    0.000
1021.824; 5019.450;  196.525;    0.000
1021.982; 4606.450;  215.525;    0.000
1022.141; 4608.450;  200.525;    0.000
1022.299; 5424.450;  200.525;    0.000
1022.457; 5472.450;  179.525;    0.000
1022.616; 4990.450;  226.525;    0.000
1022.774; 4509.450;  216.525;    0.000
1022.932; 4824.450;  212.525;    0.000
1023.090; 5644.450;  220.525;    0.000
1023.249; 5642.450;  194.525;    0.000
1023.407; 5165.450;  227.525;    0.000
1023.565; 4631.450;  190.525;    0.000
1023.723; 4996.450;  190.525;    0.000
1023.881; 5688.450;  214.525;    0.000
1024.039; 5701.450;  179.525;    0.000
1024.197; 5195.450;  274.525;    0.000
1024.355; 4980.450;  269.525;    0.000
1024.513; 5002.450;  259.525;    0.000
1024.671; 5862.450;  211.525;    0.000
1024.829; 5777.450;  230.525;    0.000
1024.987; 5450.450;  239.525;    0.000
1025.145; 4928.450;  231.525;    0.000
1025.302; 5139.450;  212.525;    0.000
1025.460; 5745.450;  224.525;    0.000
1025.618; 5975.450;  217.525;    0.000
1025.776; 5435.450;  232.525;    0.000
1025.933; 4922.450;  212.525;    0.000
1026.091; 5242.450;  214.525;    0.000
1026.249; 5721.450;  224.525;    0.000
1026.406; 6088.450;  219.525;    0.000
1026.564; 5690.450;  262.525;    0.000
1026.721; 5319.450;  206.525;    0.000
1026.879; 5205.450;  227.525;    0.000
1027.036; 5695.450;  234.525;    0.000
1027.194; 6058.450;  256.525;    0.000
1027.351; 6173.450;  229.525;    0.000
1027.509; 5654.450;  253.525;    0.000
1027.666; 5343.450;  248.525;    0.000
1027.823; 5740.450;  215.525;    0.000
1027.981; 6203.450;  248.525;    0.000
1028.138; 6357.450;  257.525;    0.000
1028.295; 5793.450;  215.525;    0.000
1028.452; 5472.450;  236.525;    0.000
1028.609; 5454.450;  240.525;    0.000
1028.767; 6174.450;  258.525;    0.000
1028.924; 6415.450;  211.525;    0.000
1029.081; 6207.450;  226.525;    0.000
1029.238; 5840.450;  228.525;    0.000
1029.395; 5579.450;  264.525;    0.000
1029.552; 5801.450;  227.525;    0.000
1029.709; 6450.450;  232.525;    0.000
1029.866; 6450.450;  223.525;    0.000
1030.023; 6304.450;  220.525;    0.000
1030.180; 5542.450;  222.525;    0.000
1030.337; 5573.450;  224.525;    0.000
1030.494; 6113.450;  228.525;    0.000
1030.650; 6549.450;  242.525;    0.000
1030.807; 6724.450;  214.525;    0.000
1030.964; 6177.450;  207.525;    0.000
1031.121; 5845.450;  236.525;    0.000
1031.277; 5721.450;  206.525;    0.000
1031.434; 6181.450;  249.525;    0.000
1031.591; 6694.450;  253.525;    0.000
1031.747; 6853.450;  240.525;    0.000
1031.904; 6739.450;  212.525;    0.000
1032.060; 6279.450;  185.525;    0.000
1032.217; 5971.450;  201.525;    0.000
1032.373; 6735.450;  207.525;    0.000
1032.530; 6853.450;  226.525;    0.000
1032.686; 7798.450;  226.525;    0.000
1032.843; 7472.450;  203.525;    0.000
1032.999; 7166.450;  233.525;    0.000
1033.155; 7294.450;  232.525;    0.000
1033.312; 7169.450;  239.525;    0.000
1033.468; 8317.450;  207.525;    0.000
1033.624; 9072.450;  238.525;    0.000
1033.780; 9271.450;  255.525;    0.000
1033.937; 9193.450;  188.525;    0.000
1034.093; 8567.450;  244.525;    0.000
1034.249; 8897.450;  182.525;    0.000
1034.405; 8768.450;  251.525;    0.000
1034.561; 9212.450;  250.525;    0.000
1034.717; 9957.450;  208.525;    0.000
1034.873; 9700.450;  210.525;    0.000
1035.029;10475.450;  245.525;    0.000
1035.185; 9380.450;  230.525;    0.000
1035.341; 9078.450;  209.525;    0.000
1035.497;10361.450;  244.525;    0.000
1035.653;10210.450;  229.525;    0.000
1035.809;10992.450;  275.525;    0.000
1035.964;12166.450;  203.525;    0.000
1036.120;11001.450;  215.525;    0.000
1036.276;11475.450;  228.525;    0.000
1036.432;10867.450;  183.525;    0.000
1036.587;10072.450;  214.525;    0.000
1036.743;11529.450;  240.525;    0.000
1036.899;11711.450;  202.525;    0.000
1037.054;11966.450;  182.525;    0.000
1037.210;13302.450;  228.525;    0.000
1037.365;13476.450;  239.525;    0.000
1037.521;12283.450;  230.525;    0.000
1037.676;12466.450;  217.525;    0.000
1037.832;11477.450;  235.525;    0.000
1037.987;11907.450;  210.525;    0.000
1038.143;12132.450;  206.525;    0.000
1038.298;13492.450;  177.525;    0.000
1038.453;13319.450;  215.525;    0.000
1038.609;14533.450;  210.525;    0.000
1038.764;14994.450;  227.525;    0.000
1038.919;13638.450;  197.525;    0.000
1039.074;14018.450;  183.525;    0.000
1039.229;12614.450;  218.525;    0.000
1039.385;12603.450;  251.525;    0.000
1039.540;13031.450;  222.525;    0.000
1039.695;13871.450;  215.525;    0.000
1039.850;15173.450;  204.525;    0.000
1040.005;15781.450;  241.525;    0.000
1040.160;17454.449;  180.525;    0.000
1040.315;16964.449;  197.525;    0.000
1040.470;15942.450;  180.525;    0.000
1040.625;15395.450;  196.525;    0.000
1040.780;14975.450;  245.525;    0.000
1040.935;14893.450;  204.525;    0.000
1041.089;15384.450;  213.525;    0.000
1041.244;17809.449;  200.525;    0.000
1041.399;17924.449;  212.525;    0.000
1041.554;19274.449;  239.525;    0.000
1041.708;21721.449;  238.525;    0.000
1041.863;21168.449;  213.525;    0.000
1042.018;20249.449;  236.525;    0.000
1042.172;20250.449;  238.525;    0.000
1042.327;18877.449;  254.525;    0.000
1042.481;18807.449;  197.525;    0.000
1042.636;19688.449;  205.525;    0.000
1042.791;19133.449;  218.525;    0.000
1042.945;22457.449;  261.525;    0.000
1043.099;24405.449;  201.525;    0.000
1043.254;23698.449;  191.525;    0.000
1043.408;25650.449;  279.525;    0.000
1043.563;26585.449;  203.525;    0.000
1043.717;25181.449;  229.525;    0.000
1043.871;24239.449;  213.525;    0.000
1044.025;23737.449;  240.525;    0.000
1044.180;22095.449;  220.525;    0.000
1044.334;22899.449;  268.525;    0.000
1044.488;24391.449;  261.525;    0.000
1044.642;25070.449;  205.525;    0.000
1044.796;27705.449;  240.525;    0.000
1044.950;31358.449;  258.525;    0.000
1045.104;33388.449;  218.525;    0.000
1045.258;34880.449;  213.525;    0.000
1045.412;33171.449;  223.525;    0.000
1045.566;32891.449;  240.525;    0.000
1045.720;31693.449;  235.525;    0.000
1045.874;29202.449;  221.525;    0.000
1046.028;25914.449;  247.525;    0.000
1046.182;25920.449;  200.525;    0.000
1046.336;27614.449;  220.525;    0.000
1046.489;28285.449;  228.525;    0.000
1046.643;29563.449;  249.525;    0.000
1046.797;32767.449;  230.525;    0.000
1046.951;33500.449;  234.525;    0.000
1047.104;34383.449;  262.525;    0.000
1047.258;37061.449;  210.525;    0.000
1047.411;38360.449;  235.525;    0.000
1047.565;35962.449;  237.525;    0.000
1047.719;34268.449;  237.525;    0.000
1047.872;33234.449;  225.525;    0.000
1048.026;32877.449;  237.525;    0.000
1048.179;33554.449;  220.525;    0.000
1048.332;32205.449;  219.525;    0.000
1048.486;30954.449;  195.525;    0.000
1048.639;33061.449;  213.525;    0.000
1048.792;33901.449;  245.525;    0.000
1048.946;37915.449;  234.525;    0.000
1049.099;40413.449;  226.525;    0.000
1049.252;40749.449;  282.525;    0.000
1049.406;38477.449;  255.525;    0.000
1049.559;40193.449;  223.525;    0.000
1049.712;44304.449;  253.525;    0.000
1049.865;47875.449;  271.525;    0.000
1050.018;45439.449;  241.525;    0.000
1050.171;39977.449;  202.525;    0.000
1050.324;40361.449;  250.525;    0.000
1050.477;40164.449;  251.525;    0.000
1050.630;44914.449;  216.525;    0.000
1050.783;45256.449;  205.525;    0.000
1050.936;43373.449;  219.525;    0.000
1051.089;41249.449;  247.525;    0.000
1051.242;41130.449;  238.525;    0.000
1051.394;46235.449;  252.525;    0.000
1051.547;50330.449;  245.525;    0.000
1051.700;46739.449;  206.525;    0.000
1051.853;45083.449;  270.525;    0.000
1052.005;47575.449;  245.525;    0.000
1052.158;51776.449;  290.525;    0.000
1052.311;56085.449;  237.525;    0.000
1052.463;54484.449;  271.525;    0.000
1052.616;48716.449;  255.525;    0.000
1052.768;43258.449;  257.525;    0.000
1052.921;43152.449;  289.525;    0.000
1053.073;45073.449;  287.525;    0.000
1053.226;50150.449;  268.525;    0.000
1053.378;59470.449;  294.525;    0.000
1053.531;64181.449;  255.525;    0.000
1053.683;58798.449;  293.525;    0.000
1053.835;49427.449;  274.525;    0.000
1053.988;37851.449;  282.525;    0.000
1054.140; 6725.450;  291.525;    0.000
1054.292; 1653.450;  292.525;    0.000
1054.444; 1299.450;  299.525;    0.000
1054.596; 1214.450;  319.525;    0.000
1054.749; 1122.450;  295.525;    0.000
1054.901; 1039.450;  266.525;    0.000
1055.053;  993.450;  300.525;    0.000
1055.205;  996.450;  290.525;    0.000
1055.357;  905.450;  304.525;    0.000
1055.509;  807.450;  292.525;    0.000
1055.661;  794.450;  339.525;    0.000
1055.813;  807.450;  306.525;    0.000
1055.965;  756.450;  293.525;    0.000
1056.116;  699.450;  300.525;    0.000
1056.268;  712.450;  306.525;    0.000
1056.420;  745.450;  288.525;    0.000

