
Integration time [ms]:   0.300
Averaging Nr. [scans]: 1
Smoothing Nr. [pixels]: 0
Data measured with spectrometer [name]: VIS
Wave   ;Sample   ;Dark     ;Reference
[nm]   ;[counts] ;[counts] ;[counts] 

450.961;  228.475;  204.125;    0.000
451.100;  220.475;  219.125;    0.000
451.239;  196.475;  196.125;    0.000
451.377;  214.475;  252.125;    0.000
451.516;  192.475;  215.125;    0.000
451.655;  230.475;  214.125;    0.000
451.794;  240.475;  241.125;    0.000
451.932;  238.475;  242.125;    0.000
452.071;  201.475;  204.125;    0.000
452.210;  226.475;  243.125;    0.000
452.348;  229.475;  241.125;    0.000
452.487;  236.475;  246.125;    0.000
452.626;  193.475;  235.125;    0.000
452.764;  209.475;  230.125;    0.000
452.903;  203.475;  199.125;    0.000
453.042;  289.475;  178.125;    0.000
453.180; 3440.475;  291.125;    0.000
453.319; 3471.475;  335.125;    0.000
453.458; 3479.475;  245.125;    0.000
453.596; 3592.475;  325.125;    0.000
453.735; 3515.475;  291.125;    0.000
453.873; 3652.475;  295.125;    0.000
454.012; 3624.475;  291.125;    0.000
454.150; 3824.475;  292.125;    0.000
454.289; 3752.475;  328.125;    0.000
454.427; 3758.475;  295.125;    0.000
454.566; 3748.475;  295.125;    0.000
454.704; 3882.475;  301.125;    0.000
454.843; 3858.475;  278.125;    0.000
454.981; 3854.475;  306.125;    0.000
455.120; 3875.475;  237.125;    0.000
455.258; 3978.475;  325.125;    0.000
455.397; 4019.475;  276.125;    0.000
455.535; 4057.475;  269.125;    0.000
455.674; 4099.475;  259.125;    0.000
455.812; 4164.475;  264.125;    0.000
455.951; 4111.475;  286.125;    0.000
456.089; 4152.475;  302.125;    0.000
456.227; 4165.475;  230.125;    0.000
456.366; 4288.475;  303.125;    0.000
456.504; 4390.475;  316.125;    0.000
456.642; 4316.475;  309.125;    0.000
456.781; 4384.475;  299.125;    0.000
456.919; 4339.475;  281.125;    0.000
457.057; 4440.475;  253.125;    0.000
457.196; 4591.475;  268.125;    0.000
457.334; 4596.475;  292.125;    0.000
457.472; 4502.475;  287.125;    0.000
457.610; 4720.475;  300.125;    0.000
457.749; 4746.475;  342.125;    0.000
457.887; 4848.475;  310.125;    0.000
458.025; 4830.475;  310.125;    0.000
458.163; 4989.475;  323.125;    0.000
458.301; 5164.475;  336.125;    0.000
458.440; 5025.475;  297.125;    0.000
458.578; 5150.475;  295.125;    0.000
458.716; 5217.475;  309.125;    0.000
458.854; 5371.475;  335.125;    0.000
458.992; 5310.475;  244.125;    0.000
459.130; 5423.475;  370.125;    0.000
459.269; 5497.475;  313.125;    0.000
459.407; 5499.475;  370.125;    0.000
459.545; 5602.475;  341.125;    0.000
459.683; 5697.475;  336.125;    0.000
459.821; 5620.475;  311.125;    0.000
459.959; 5833.475;  330.125;    0.000
460.097; 5912.475;  355.125;    0.000
460.235; 5815.475;  348.125;    0.000
460.373; 5811.475;  338.125;    0.000
460.511; 6026.475;  361.125;    0.000
460.649; 5891.475;  295.125;    0.000
460.787; 5986.475;  325.125;    0.000
460.925; 6050.475;  266.125;    0.000
461.063; 6106.475;  365.125;    0.000
461.201; 6039.475;  334.125;    0.000
461.339; 6008.475;  341.125;    0.000
461.477; 6251.475;  304.125;    0.000
461.615; 6347.475;  311.125;    0.000
461.753; 6329.475;  342.125;    0.000
461.891; 6466.475;  333.125;    0.000
462.029; 6504.475;  336.125;    0.000
462.166; 6538.475;  272.125;    0.000
462.304; 6546.475;  313.125;    0.000
462.442; 6761.475;  313.125;    0.000
462.580; 6933.475;  328.125;    0.000
462.718; 6896.475;  358.125;    0.000
462.856; 6939.475;  302.125;    0.000
462.993; 6899.475;  360.125;    0.000
463.131; 6809.475;  280.125;    0.000
463.269; 6835.475;  312.125;    0.000
463.407; 6798.475;  263.125;    0.000
463.545; 6542.475;  253.125;    0.000
463.682; 6656.475;  296.125;    0.000
463.820; 6913.475;  308.125;    0.000
463.958; 7016.475;  300.125;    0.000
464.095; 7357.475;  289.125;    0.000
464.233; 7337.475;  340.125;    0.000
464.371; 7286.475;  300.125;    0.000
464.509; 7257.475;  266.125;    0.000
464.646; 7232.475;  294.125;    0.000
464.784; 7285.475;  284.125;    0.000
464.921; 7205.475;  350.125;    0.000
465.059; 6951.475;  256.125;    0.000
465.197; 6947.475;  289.125;    0.000
465.334; 6796.475;  287.125;    0.000
465.472; 6697.475;  322.125;    0.000
465.609; 6679.475;  311.125;    0.000
465.747; 6654.475;  336.125;    0.000
465.885; 6574.475;  308.125;    0.000
466.022; 6526.475;  299.125;    0.000
466.160; 6525.475;  293.125;    0.000
466.297; 6416.475;  317.125;    0.000
466.435; 6489.475;  336.125;    0.000
466.572; 6439.475;  282.125;    0.000
466.710; 6603.475;  299.125;    0.000
466.847; 6499.475;  288.125;    0.000
466.985; 6442.475;  274.125;    0.000
467.122; 6445.475;  302.125;    0.000
467.260; 6580.475;  271.125;    0.000
467.397; 6418.475;  263.125;    0.000
467.534; 6368.475;  320.125;    0.000
467.672; 6325.475;  309.125;    0.000
467.809; 6303.475;  275.125;    0.000
467.947; 6432.475;  319.125;    0.000
468.084; 6283.475;  309.125;    0.000
468.221; 6430.475;  302.125;    0.000
468.359; 6445.475;  286.125;    0.000
468.496; 6530.475;  293.125;    0.000
468.633; 6344.475;  273.125;    0.000
468.771; 6466.475;  296.125;    0.000
468.908; 6347.475;  277.125;    0.000
469.045; 6489.475;  303.125;    0.000
469.183; 6475.475;  314.125;    0.000
469.320; 6574.475;  278.125;    0.000
469.457; 6635.475;  308.125;    0.000
469.594; 6610.475;  272.125;    0.000
469.732; 6595.475;  321.125;    0.000
469.869; 6610.475;  299.125;    0.000
470.006; 6701.475;  267.125;    0.000
470.143; 6806.475;  298.125;    0.000
470.280; 6815.475;  272.125;    0.000
470.417; 6848.475;  314.125;    0.000
470.555; 6777.475;  305.125;    0.000
470.692; 6861.475;  309.125;    0.000
470.829; 6801.475;  311.125;    0.000
470.966; 6892.475;  260.125;    0.000
471.103; 6754.475;  267.125;    0.000
471.240; 6681.475;  290.125;    0.000
471.377; 6753.475;  290.125;    0.000
471.514; 6801.475;  295.125;    0.000
471.651; 6726.475;  300.125;    0.000
471.789; 6679.475;  281.125;    0.000
471.926; 6705.475;  291.125;    0.000
472.063; 6589.475;  305.125;    0.000
472.200; 6641.475;  285.125;    0.000
472.337; 6553.475;  288.125;    0.000
472.474; 6470.475;  276.125;    0.000
472.611; 6605.475;  309.125;    0.000
472.748; 6585.475;  280.125;    0.000
472.884; 6545.475;  300.125;    0.000
473.021; 6471.475;  280.125;    0.000
473.158; 6313.475;  304.125;    0.000
473.295; 6513.475;  308.125;    0.000
473.432; 6317.475;  294.125;    0.000
473.569; 6399.475;  288.125;    0.000
473.706; 6442.475;  254.125;    0.000
473.843; 6389.475;  282.125;    0.000
473.980; 6401.475;  286.125;    0.000
474.117; 6583.475;  257.125;    0.000
474.253; 6596.475;  298.125;    0.000
474.390; 6473.475;  253.125;    0.000
474.527; 6511.475;  271.125;    0.000
474.664; 6523.475;  257.125;    0.000
474.801; 6662.475;  296.125;    0.000
474.937; 6484.475;  263.125;    0.000
475.074; 6583.475;  262.125;    0.000
475.211; 6630.475;  299.125;    0.000
475.348; 6564.475;  308.125;    0.000
475.484; 6731.475;  278.125;    0.000
475.621; 6592.475;  287.125;    0.000
475.758; 6692.475;  231.125;    0.000
475.894; 6647.475;  295.125;    0.000
476.031; 6514.475;  290.125;    0.000
476.168; 6640.475;  287.125;    0.000
476.304; 6672.475;  331.125;    0.000
476.441; 6674.475;  301.125;    0.000
476.578; 6706.475;  263.125;    0.000
476.714; 6727.475;  261.125;    0.000
476.851; 6748.475;  247.125;    0.000
476.987; 6766.475;  297.125;    0.000
477.124; 6825.475;  296.125;    0.000
477.261; 6865.475;  299.125;    0.000
477.397; 6768.475;  292.125;    0.000
477.534; 6896.475;  289.125;    0.000
477.670; 6955.475;  268.125;    0.000
477.807; 7043.475;  234.125;    0.000
477.943; 6995.475;  279.125;    0.000
478.080; 7124.475;  276.125;    0.000
478.216; 7076.475;  248.125;    0.000
478.353; 7104.475;  296.125;    0.000
478.489; 7204.475;  267.125;    0.000
478.626; 7234.475;  243.125;    0.000
478.762; 7396.475;  252.125;    0.000
478.898; 7300.475;  266.125;    0.000
479.035; 7178.475;  290.125;    0.000
479.171; 7380.475;  247.125;    0.000
479.308; 7107.475;  283.125;    0.000
479.444; 7224.475;  244.125;    0.000
479.580; 7242.475;  259.125;    0.000
479.717; 7315.475;  301.125;    0.000
479.853; 7282.475;  257.125;    0.000
479.989; 7356.475;  249.125;    0.000
480.126; 7330.475;  218.125;    0.000
480.262; 7649.475;  275.125;    0.000
480.398; 7490.475;  246.125;    0.000
480.535; 7461.475;  246.125;    0.000
480.671; 7442.475;  272.125;    0.000
480.807; 7395.475;  281.125;    0.000
480.943; 7399.475;  233.125;    0.000
481.080; 7455.475;  303.125;    0.000
481.216; 7503.475;  229.125;    0.000
481.352; 7279.475;  240.125;    0.000
481.488; 7372.475;  284.125;    0.000
481.624; 7362.475;  236.125;    0.000
481.760; 7352.475;  255.125;    0.000
481.897; 7300.475;  206.125;    0.000
482.033; 7212.475;  254.125;    0.000
482.169; 7264.475;  268.125;    0.000
482.305; 7203.475;  214.125;    0.000
482.441; 7186.475;  225.125;    0.000
482.577; 7362.475;  251.125;    0.000
482.713; 7296.475;  221.125;    0.000
482.849; 7290.475;  218.125;    0.000
482.985; 7258.475;  245.125;    0.000
483.121; 7257.475;  224.125;    0.000
483.258; 7251.475;  249.125;    0.000
483.394; 7294.475;  224.125;    0.000
483.530; 7247.475;  247.125;    0.000
483.665; 7319.475;  256.125;    0.000
483.801; 7337.475;  220.125;    0.000
483.937; 7270.475;  200.125;    0.000
484.073; 7505.475;  272.125;    0.000
484.209; 7452.475;  243.125;    0.000
484.345; 7392.475;  274.125;    0.000
484.481; 7479.475;  264.125;    0.000
484.617; 7369.475;  270.125;    0.000
484.753; 7363.475;  244.125;    0.000
484.889; 7380.475;  293.125;    0.000
485.025; 7378.475;  257.125;    0.000
485.161; 7344.475;  264.125;    0.000
485.296; 7323.475;  247.125;    0.000
485.432; 7458.475;  240.125;    0.000
485.568; 7606.475;  240.125;    0.000
485.704; 7399.475;  232.125;    0.000
485.840; 7368.475;  280.125;    0.000
485.975; 7508.475;  253.125;    0.000
486.111; 7437.475;  250.125;    0.000
486.247; 7513.475;  272.125;    0.000
486.383; 7492.475;  258.125;    0.000
486.518; 7366.475;  256.125;    0.000
486.654; 7424.475;  250.125;    0.000
486.790; 7487.475;  259.125;    0.000
486.926; 7437.475;  256.125;    0.000
487.061; 7382.475;  267.125;    0.000
487.197; 7545.475;  224.125;    0.000
487.333; 7378.475;  265.125;    0.000
487.468; 7318.475;  223.125;    0.000
487.604; 7501.475;  298.125;    0.000
487.740; 7439.475;  261.125;    0.000
487.875; 7331.475;  278.125;    0.000
488.011; 7503.475;  292.125;    0.000
488.146; 7407.475;  239.125;    0.000
488.282; 7499.475;  265.125;    0.000
488.417; 7472.475;  286.125;    0.000
488.553; 7482.475;  271.125;    0.000
488.688; 7444.475;  252.125;    0.000
488.824; 7450.475;  239.125;    0.000
488.960; 7410.475;  266.125;    0.000
489.095; 7498.475;  229.125;    0.000
489.230; 7381.475;  247.125;    0.000
489.366; 7684.475;  260.125;    0.000
489.501; 7619.475;  257.125;    0.000
489.637; 7497.475;  233.125;    0.000
489.772; 7599.475;  254.125;    0.000
489.908; 7519.475;  235.125;    0.000
490.043; 7638.475;  266.125;    0.000
490.178; 7458.475;  228.125;    0.000
490.314; 7667.475;  310.125;    0.000
490.449; 7648.475;  251.125;    0.000
490.585; 7556.475;  221.125;    0.000
490.720; 7641.475;  203.125;    0.000
490.855; 7673.475;  266.125;    0.000
490.991; 7630.475;  249.125;    0.000
491.126; 7584.475;  313.125;    0.000
491.261; 7544.475;  284.125;    0.000
491.396; 7607.475;  225.125;    0.000
491.532; 7709.475;  227.125;    0.000
491.667; 7667.475;  210.125;    0.000
491.802; 7670.475;  214.125;    0.000
491.937; 7736.475;  246.125;    0.000
492.073; 7770.475;  250.125;    0.000
492.208; 7707.475;  267.125;    0.000
492.343; 7842.475;  245.125;    0.000
492.478; 7965.475;  271.125;    0.000
492.613; 7916.475;  253.125;    0.000
492.749; 7791.475;  249.125;    0.000
492.884; 7720.475;  217.125;    0.000
493.019; 7863.475;  244.125;    0.000
493.154; 7737.475;  265.125;    0.000
493.289; 7752.475;  266.125;    0.000
493.424; 7854.475;  226.125;    0.000
493.559; 7778.475;  222.125;    0.000
493.694; 7738.475;  218.125;    0.000
493.829; 7721.475;  246.125;    0.000
493.964; 7746.475;  243.125;    0.000
494.099; 7933.475;  269.125;    0.000
494.234; 7885.475;  249.125;    0.000
494.369; 7925.475;  279.125;    0.000
494.504; 7869.475;  261.125;    0.000
494.639; 7627.475;  289.125;    0.000
494.774; 7805.475;  252.125;    0.000
494.909; 7789.475;  250.125;    0.000
495.044; 7869.475;  207.125;    0.000
495.179; 7717.475;  266.125;    0.000
495.314; 7806.475;  228.125;    0.000
495.449; 7855.475;  262.125;    0.000
495.584; 7739.475;  281.125;    0.000
495.719; 7785.475;  251.125;    0.000
495.854; 7813.475;  237.125;    0.000
495.988; 7991.475;  238.125;    0.000
496.123; 7810.475;  255.125;    0.000
496.258; 8048.475;  264.125;    0.000
496.393; 7961.475;  253.125;    0.000
496.528; 8175.475;  244.125;    0.000
496.663; 8114.475;  267.125;    0.000
496.797; 8203.475;  271.125;    0.000
496.932; 8288.475;  262.125;    0.000
497.067; 8555.475;  260.125;    0.000
497.202; 8420.475;  264.125;    0.000
497.336; 8583.475;  243.125;    0.000
497.471; 8768.475;  251.125;    0.000
497.606; 8750.475;  219.125;    0.000
497.740; 8952.475;  264.125;    0.000
497.875; 9384.475;  252.125;    0.000
498.010; 9434.475;  241.125;    0.000
498.144; 9644.475;  261.125;    0.000
498.279; 9787.475;  221.125;    0.000
498.414;10074.475;  246.125;    0.000
498.548;10134.475;  212.125;    0.000
498.683;10127.475;  260.125;    0.000
498.817;10254.475;  244.125;    0.000
498.952;10400.475;  252.125;    0.000
499.087;10619.475;  251.125;    0.000
499.221;10897.475;  282.125;    0.000
499.356;11078.475;  264.125;    0.000
499.490;11253.475;  280.125;    0.000
499.625;11558.475;  256.125;    0.000
499.759;11858.475;  253.125;    0.000
499.894;12263.475;  261.125;    0.000
500.028;12697.475;  304.125;    0.000
500.162;13011.475;  272.125;    0.000
500.297;13051.475;  274.125;    0.000
500.431;13155.475;  320.125;    0.000
500.566;13298.475;  268.125;    0.000
500.700;13119.475;  280.125;    0.000
500.835;12716.475;  288.125;    0.000
500.969;12272.475;  253.125;    0.000
501.103;12152.475;  234.125;    0.000
501.238;11823.475;  302.125;    0.000
501.372;11256.475;  292.125;    0.000
501.506;10786.475;  222.125;    0.000
501.641;10664.475;  274.125;    0.000
501.775;10180.475;  245.125;    0.000
501.909; 9974.475;  283.125;    0.000
502.043; 9832.475;  252.125;    0.000
502.178; 9711.475;  293.125;    0.000
502.312; 9410.475;  223.125;    0.000
502.446; 9358.475;  292.125;    0.000
502.580; 9051.475;  253.125;    0.000
502.715; 9096.475;  282.125;    0.000
502.849; 8822.475;  258.125;    0.000
502.983; 8675.475;  267.125;    0.000
503.117; 8645.475;  226.125;    0.000
503.251; 8588.475;  260.125;    0.000
503.385; 8590.475;  291.125;    0.000
503.520; 8317.475;  279.125;    0.000
503.654; 8096.475;  229.125;    0.000
503.788; 8295.475;  259.125;    0.000
503.922; 7946.475;  246.125;    0.000
504.056; 7895.475;  269.125;    0.000
504.190; 7743.475;  265.125;    0.000
504.324; 7836.475;  298.125;    0.000
504.458; 7858.475;  235.125;    0.000
504.592; 7707.475;  275.125;    0.000
504.726; 7516.475;  226.125;    0.000
504.860; 7480.475;  298.125;    0.000
504.994; 7384.475;  253.125;    0.000
505.128; 7395.475;  283.125;    0.000
505.262; 7268.475;  255.125;    0.000
505.396; 7110.475;  219.125;    0.000
505.530; 7036.475;  279.125;    0.000
505.664; 6926.475;  306.125;    0.000
505.798; 6908.475;  297.125;    0.000
505.932; 6812.475;  273.125;    0.000
506.066; 6709.475;  271.125;    0.000
506.199; 6770.475;  273.125;    0.000
506.333; 6653.475;  227.125;    0.000
506.467; 6604.475;  302.125;    0.000
506.601; 6464.475;  254.125;    0.000
506.735; 6509.475;  299.125;    0.000
506.869; 6467.475;  278.125;    0.000
507.002; 6371.475;  259.125;    0.000
507.136; 6440.475;  285.125;    0.000
507.270; 6310.475;  255.125;    0.000
507.404; 6221.475;  273.125;    0.000
507.537; 6212.475;  245.125;    0.000
507.671; 6192.475;  251.125;    0.000
507.805; 6146.475;  286.125;    0.000
507.939; 6119.475;  261.125;    0.000
508.072; 6131.475;  298.125;    0.000
508.206; 6060.475;  238.125;    0.000
508.340; 6066.475;  289.125;    0.000
508.473; 6199.475;  255.125;    0.000
508.607; 6062.475;  266.125;    0.000
508.740; 6118.475;  253.125;    0.000
508.874; 6060.475;  233.125;    0.000
509.008; 6031.475;  274.125;    0.000
509.141; 6118.475;  235.125;    0.000
509.275; 6005.475;  225.125;    0.000
509.408; 6037.475;  254.125;    0.000
509.542; 5946.475;  244.125;    0.000
509.675; 5964.475;  263.125;    0.000
509.809; 5911.475;  271.125;    0.000
509.942; 5911.475;  246.125;    0.000
510.076; 5977.475;  221.125;    0.000
510.209; 5953.475;  270.125;    0.000
510.343; 5854.475;  265.125;    0.000
510.476; 5928.475;  291.125;    0.000
510.610; 5786.475;  251.125;    0.000
510.743; 5847.475;  304.125;    0.000
510.877; 5643.475;  259.125;    0.000
511.010; 5759.475;  274.125;    0.000
511.143; 5698.475;  255.125;    0.000
511.277; 5729.475;  267.125;    0.000
511.410; 5792.475;  270.125;    0.000
511.543; 5702.475;  231.125;    0.000
511.677; 5700.475;  275.125;    0.000
511.810; 5715.475;  265.125;    0.000
511.943; 5741.475;  231.125;    0.000
512.077; 5660.475;  225.125;    0.000
512.210; 5489.475;  235.125;    0.000
512.343; 5690.475;  251.125;    0.000
512.476; 5620.475;  260.125;    0.000
512.610; 5609.475;  289.125;    0.000
512.743; 5622.475;  270.125;    0.000
512.876; 5585.475;  289.125;    0.000
513.009; 5637.475;  293.125;    0.000
513.142; 5606.475;  282.125;    0.000
513.276; 5581.475;  244.125;    0.000
513.409; 5677.475;  277.125;    0.000
513.542; 5567.475;  254.125;    0.000
513.675; 5705.475;  258.125;    0.000
513.808; 5591.475;  243.125;    0.000
513.941; 5561.475;  274.125;    0.000
514.074; 5645.475;  296.125;    0.000
514.207; 5622.475;  267.125;    0.000
514.340; 5659.475;  283.125;    0.000
514.474; 5688.475;  255.125;    0.000
514.607; 5825.475;  291.125;    0.000
514.740; 5675.475;  296.125;    0.000
514.873; 5795.475;  275.125;    0.000
515.006; 5924.475;  313.125;    0.000
515.139; 5910.475;  253.125;    0.000
515.272; 6003.475;  263.125;    0.000
515.404; 6152.475;  258.125;    0.000
515.537; 6056.475;  285.125;    0.000
515.670; 6096.475;  286.125;    0.000
515.803; 6061.475;  266.125;    0.000
515.936; 6044.475;  251.125;    0.000
516.069; 5980.475;  231.125;    0.000
516.202; 6124.475;  278.125;    0.000
516.335; 6220.475;  295.125;    0.000
516.468; 6445.475;  239.125;    0.000
516.600; 7284.475;  229.125;    0.000
516.733; 8878.475;  301.125;    0.000
516.866; 9050.475;  287.125;    0.000
516.999; 8232.475;  265.125;    0.000
517.132; 9869.475;  291.125;    0.000
517.264;13418.475;  262.125;    0.000
517.397;13541.475;  292.125;    0.000
517.530;10355.475;  299.125;    0.000
517.663; 8680.475;  268.125;    0.000
517.795; 8083.475;  323.125;    0.000
517.928; 7749.475;  281.125;    0.000
518.061; 7885.475;  242.125;    0.000
518.193; 9952.475;  279.125;    0.000
518.326;15624.475;  288.125;    0.000
518.459;17166.475;  251.125;    0.000
518.591;12899.475;  314.125;    0.000
518.724; 9617.475;  279.125;    0.000
518.857; 8352.475;  245.125;    0.000
518.989; 7584.475;  290.125;    0.000
519.122; 7233.475;  319.125;    0.000
519.254; 7024.475;  295.125;    0.000
519.387; 6685.475;  271.125;    0.000
519.519; 6448.475;  312.125;    0.000
519.652; 6154.475;  289.125;    0.000
519.784; 6203.475;  311.125;    0.000
519.917; 6112.475;  283.125;    0.000
520.049; 6083.475;  281.125;    0.000
520.182; 5912.475;  242.125;    0.000
520.314; 5805.475;  310.125;    0.000
520.447; 5862.475;  215.125;    0.000
520.579; 5850.475;  277.125;    0.000
520.712; 5642.475;  224.125;    0.000
520.844; 5738.475;  293.125;    0.000
520.976; 5581.475;  281.125;    0.000
521.109; 5495.475;  279.125;    0.000
521.241; 5577.475;  318.125;    0.000
521.373; 5475.475;  242.125;    0.000
521.506; 5315.475;  246.125;    0.000
521.638; 5325.475;  312.125;    0.000
521.770; 5246.475;  257.125;    0.000
521.903; 5223.475;  295.125;    0.000
522.035; 5204.475;  283.125;    0.000
522.167; 5216.475;  281.125;    0.000
522.300; 5161.475;  262.125;    0.000
522.432; 5077.475;  272.125;    0.000
522.564; 5102.475;  277.125;    0.000
522.696; 4962.475;  295.125;    0.000
522.828; 5008.475;  284.125;    0.000
522.961; 5185.475;  295.125;    0.000
523.093; 5023.475;  282.125;    0.000
523.225; 5077.475;  270.125;    0.000
523.357; 4997.475;  285.125;    0.000
523.489; 5022.475;  292.125;    0.000
523.621; 4971.475;  285.125;    0.000
523.753; 4904.475;  273.125;    0.000
523.885; 4915.475;  271.125;    0.000
524.018; 4829.475;  276.125;    0.000
524.150; 4859.475;  320.125;    0.000
524.282; 4802.475;  304.125;    0.000
524.414; 4760.475;  302.125;    0.000
524.546; 4824.475;  305.125;    0.000
524.678; 4757.475;  264.125;    0.000
524.810; 4820.475;  258.125;    0.000
524.942; 4693.475;  252.125;    0.000
525.074; 4730.475;  275.125;    0.000
525.206; 4578.475;  286.125;    0.000
525.338; 4813.475;  280.125;    0.000
525.469; 4750.475;  267.125;    0.000
525.601; 4651.475;  266.125;    0.000
525.733; 4609.475;  283.125;    0.000
525.865; 4651.475;  273.125;    0.000
525.997; 4617.475;  286.125;    0.000
526.129; 4593.475;  249.125;    0.000
526.261; 4540.475;  233.125;    0.000
526.393; 4645.475;  257.125;    0.000
526.524; 4538.475;  184.125;    0.000
526.656; 4505.475;  259.125;    0.000
526.788; 4657.475;  268.125;    0.000
526.920; 4534.475;  262.125;    0.000
527.052; 4503.475;  250.125;    0.000
527.183; 4561.475;  264.125;    0.000
527.315; 4505.475;  301.125;    0.000
527.447; 4631.475;  262.125;    0.000
527.578; 4543.475;  267.125;    0.000
527.710; 4500.475;  299.125;    0.000
527.842; 4557.475;  266.125;    0.000
527.973; 4435.475;  240.125;    0.000
528.105; 4626.475;  275.125;    0.000
528.237; 4520.475;  239.125;    0.000
528.368; 4504.475;  275.125;    0.000
528.500; 4541.475;  271.125;    0.000
528.632; 4548.475;  252.125;    0.000
528.763; 4593.475;  253.125;    0.000
528.895; 4426.475;  259.125;    0.000
529.026; 4608.475;  209.125;    0.000
529.158; 4531.475;  291.125;    0.000
529.289; 4476.475;  280.125;    0.000
529.421; 4579.475;  274.125;    0.000
529.552; 4481.475;  253.125;    0.000
529.684; 4556.475;  310.125;    0.000
529.815; 4568.475;  305.125;    0.000
529.947; 4406.475;  234.125;    0.000
530.078; 4436.475;  259.125;    0.000
530.210; 4415.475;  264.125;    0.000
530.341; 4500.475;  267.125;    0.000
530.472; 4410.475;  232.125;    0.000
530.604; 4529.475;  293.125;    0.000
530.735; 4546.475;  275.125;    0.000
530.867; 4564.475;  280.125;    0.000
530.998; 4486.475;  295.125;    0.000
531.129; 4633.475;  274.125;    0.000
531.260; 4531.475;  272.125;    0.000
531.392; 4647.475;  275.125;    0.000
531.523; 4564.475;  244.125;    0.000
531.654; 4649.475;  289.125;    0.000
531.786; 4747.475;  259.125;    0.000
531.917; 4612.475;  286.125;    0.000
532.048; 4630.475;  293.125;    0.000
532.179; 4698.475;  288.125;    0.000
532.311; 4707.475;  296.125;    0.000
532.442; 4550.475;  277.125;    0.000
532.573; 4592.475;  273.125;    0.000
532.704; 4563.475;  308.125;    0.000
532.835; 4571.475;  308.125;    0.000
532.966; 4604.475;  274.125;    0.000
533.097; 4459.475;  310.125;    0.000
533.229; 4494.475;  294.125;    0.000
533.360; 4638.475;  324.125;    0.000
533.491; 4522.475;  278.125;    0.000
533.622; 4506.475;  319.125;    0.000
533.753; 4446.475;  303.125;    0.000
533.884; 4623.475;  269.125;    0.000
534.015; 4623.475;  266.125;    0.000
534.146; 4603.475;  283.125;    0.000
534.277; 4565.475;  299.125;    0.000
534.408; 4593.475;  265.125;    0.000
534.539; 4562.475;  310.125;    0.000
534.670; 4604.475;  319.125;    0.000
534.801; 4568.475;  281.125;    0.000
534.932; 4503.475;  239.125;    0.000
535.063; 4397.475;  276.125;    0.000
535.194; 4427.475;  361.125;    0.000
535.324; 4416.475;  283.125;    0.000
535.455; 4502.475;  282.125;    0.000
535.586; 4560.475;  331.125;    0.000
535.717; 4293.475;  262.125;    0.000
535.848; 4400.475;  308.125;    0.000
535.979; 4396.475;  273.125;    0.000
536.109; 4373.475;  277.125;    0.000
536.240; 4410.475;  293.125;    0.000
536.371; 4413.475;  295.125;    0.000
536.502; 4360.475;  330.125;    0.000
536.632; 4288.475;  280.125;    0.000
536.763; 4409.475;  332.125;    0.000
536.894; 4373.475;  334.125;    0.000
537.025; 4233.475;  295.125;    0.000
537.155; 4378.475;  321.125;    0.000
537.286; 4346.475;  292.125;    0.000
537.417; 4357.475;  314.125;    0.000
537.547; 4353.475;  287.125;    0.000
537.678; 4257.475;  287.125;    0.000
537.808; 4209.475;  278.125;    0.000
537.939; 4397.475;  304.125;    0.000
538.070; 4355.475;  303.125;    0.000
538.200; 4259.475;  279.125;    0.000
538.331; 4319.475;  321.125;    0.000
538.461; 4327.475;  313.125;    0.000
538.592; 4269.475;  290.125;    0.000
538.722; 4306.475;  285.125;    0.000
538.853; 4272.475;  261.125;    0.000
538.983; 4236.475;  280.125;    0.000
539.114; 4226.475;  310.125;    0.000
539.244; 4245.475;  281.125;    0.000
539.375; 4265.475;  292.125;    0.000
539.505; 4398.475;  286.125;    0.000
539.636; 4224.475;  276.125;    0.000
539.766; 4333.475;  287.125;    0.000
539.896; 4249.475;  292.125;    0.000
540.027; 4307.475;  262.125;    0.000
540.157; 4371.475;  269.125;    0.000
540.287; 4268.475;  282.125;    0.000
540.418; 4375.475;  269.125;    0.000
540.548; 4315.475;  328.125;    0.000
540.678; 4324.475;  271.125;    0.000
540.809; 4384.475;  272.125;    0.000
540.939; 4358.475;  299.125;    0.000
541.069; 4402.475;  266.125;    0.000
541.200; 4382.475;  242.125;    0.000
541.330; 4404.475;  257.125;    0.000
541.460; 4314.475;  270.125;    0.000
541.590; 4349.475;  287.125;    0.000
541.720; 4251.475;  255.125;    0.000
541.851; 4353.475;  273.125;    0.000
541.981; 4400.475;  244.125;    0.000
542.111; 4461.475;  263.125;    0.000
542.241; 4569.475;  271.125;    0.000
542.371; 4540.475;  263.125;    0.000
542.501; 4625.475;  274.125;    0.000
542.631; 4716.475;  288.125;    0.000
542.761; 4675.475;  261.125;    0.000
542.891; 4663.475;  253.125;    0.000
543.021; 4654.475;  249.125;    0.000
543.151; 4793.475;  261.125;    0.000
543.281; 4692.475;  256.125;    0.000
543.411; 4700.475;  290.125;    0.000
543.542; 4568.475;  278.125;    0.000
543.671; 4607.475;  238.125;    0.000
543.801; 4613.475;  256.125;    0.000
543.931; 4602.475;  254.125;    0.000
544.061; 4570.475;  237.125;    0.000
544.191; 4682.475;  245.125;    0.000
544.321; 4604.475;  267.125;    0.000
544.451; 4611.475;  262.125;    0.000
544.581; 4603.475;  221.125;    0.000
544.711; 4763.475;  252.125;    0.000
544.841; 4685.475;  264.125;    0.000
544.970; 4718.475;  315.125;    0.000
545.100; 4840.475;  245.125;    0.000
545.230; 4980.475;  276.125;    0.000
545.360; 4940.475;  278.125;    0.000
545.490; 4801.475;  268.125;    0.000
545.619; 4863.475;  237.125;    0.000
545.749; 4730.475;  228.125;    0.000
545.879; 4562.475;  234.125;    0.000
546.009; 4606.475;  287.125;    0.000
546.138; 4551.475;  222.125;    0.000
546.268; 4530.475;  228.125;    0.000
546.398; 4537.475;  244.125;    0.000
546.527; 4523.475;  233.125;    0.000
546.657; 4633.475;  189.125;    0.000
546.786; 4590.475;  247.125;    0.000
546.916; 4613.475;  244.125;    0.000
547.046; 4675.475;  214.125;    0.000
547.175; 4486.475;  242.125;    0.000
547.305; 4629.475;  252.125;    0.000
547.434; 4585.475;  191.125;    0.000
547.564; 4523.475;  208.125;    0.000
547.693; 4494.475;  213.125;    0.000
547.823; 4513.475;  209.125;    0.000
547.953; 4587.475;  250.125;    0.000
548.082; 4589.475;  231.125;    0.000
548.211; 4538.475;  226.125;    0.000
548.341; 4573.475;  254.125;    0.000
548.470; 4579.475;  266.125;    0.000
548.600; 4486.475;  229.125;    0.000
548.729; 4547.475;  225.125;    0.000
548.859; 4541.475;  185.125;    0.000
548.988; 4505.475;  225.125;    0.000
549.117; 4588.475;  241.125;    0.000
549.247; 4619.475;  236.125;    0.000
549.376; 4556.475;  220.125;    0.000
549.505; 4679.475;  254.125;    0.000
549.635; 4683.475;  268.125;    0.000
549.764; 4594.475;  194.125;    0.000
549.893; 4714.475;  232.125;    0.000
550.023; 4672.475;  222.125;    0.000
550.152; 4656.475;  223.125;    0.000
550.281; 4602.475;  210.125;    0.000
550.410; 4625.475;  197.125;    0.000
550.539; 4743.475;  222.125;    0.000
550.669; 4596.475;  245.125;    0.000
550.798; 4768.475;  265.125;    0.000
550.927; 4659.475;  249.125;    0.000
551.056; 4719.475;  184.125;    0.000
551.185; 4818.475;  247.125;    0.000
551.314; 4646.475;  258.125;    0.000
551.443; 4648.475;  224.125;    0.000
551.573; 4766.475;  204.125;    0.000
551.702; 4694.475;  220.125;    0.000
551.831; 4755.475;  287.125;    0.000
551.960; 4735.475;  259.125;    0.000
552.089; 4842.475;  222.125;    0.000
552.218; 4729.475;  254.125;    0.000
552.347; 4807.475;  260.125;    0.000
552.476; 4868.475;  251.125;    0.000
552.605; 4938.475;  229.125;    0.000
552.734; 5033.475;  261.125;    0.000
552.863; 5019.475;  225.125;    0.000
552.992; 5102.475;  202.125;    0.000
553.121; 5052.475;  193.125;    0.000
553.249; 5025.475;  224.125;    0.000
553.378; 5115.475;  274.125;    0.000
553.507; 4982.475;  248.125;    0.000
553.636; 4901.475;  203.125;    0.000
553.765; 4860.475;  224.125;    0.000
553.894; 4839.475;  246.125;    0.000
554.023; 4958.475;  229.125;    0.000
554.151; 4881.475;  216.125;    0.000
554.280; 4827.475;  223.125;    0.000
554.409; 4832.475;  240.125;    0.000
554.538; 4784.475;  277.125;    0.000
554.666; 4807.475;  244.125;    0.000
554.795; 4789.475;  240.125;    0.000
554.924; 4624.475;  257.125;    0.000
555.052; 4638.475;  266.125;    0.000
555.181; 4732.475;  244.125;    0.000
555.310; 4758.475;  262.125;    0.000
555.439; 4703.475;  260.125;    0.000
555.567; 4722.475;  234.125;    0.000
555.696; 4663.475;  237.125;    0.000
555.824; 4604.475;  232.125;    0.000
555.953; 4701.475;  279.125;    0.000
556.082; 4670.475;  234.125;    0.000
556.210; 4717.475;  235.125;    0.000
556.339; 4746.475;  198.125;    0.000
556.467; 4660.475;  216.125;    0.000
556.596; 4751.475;  273.125;    0.000
556.724; 4549.475;  245.125;    0.000
556.853; 4627.475;  241.125;    0.000
556.981; 4605.475;  219.125;    0.000
557.110; 4560.475;  242.125;    0.000
557.238; 4582.475;  202.125;    0.000
557.367; 4593.475;  254.125;    0.000
557.495; 4560.475;  260.125;    0.000
557.623; 4529.475;  207.125;    0.000
557.752; 4620.475;  219.125;    0.000
557.880; 4641.475;  209.125;    0.000
558.008; 4581.475;  243.125;    0.000
558.137; 4658.475;  244.125;    0.000
558.265; 4753.475;  221.125;    0.000
558.393; 4630.475;  297.125;    0.000
558.522; 4513.475;  232.125;    0.000
558.650; 4635.475;  299.125;    0.000
558.778; 4643.475;  210.125;    0.000
558.906; 4641.475;  240.125;    0.000
559.035; 4537.475;  252.125;    0.000
559.163; 4719.475;  246.125;    0.000
559.291; 4530.475;  213.125;    0.000
559.419; 4682.475;  221.125;    0.000
559.548; 4623.475;  208.125;    0.000
559.676; 4767.475;  254.125;    0.000
559.804; 4702.475;  213.125;    0.000
559.932; 4697.475;  208.125;    0.000
560.060; 4757.475;  276.125;    0.000
560.188; 4828.475;  278.125;    0.000
560.316; 4700.475;  217.125;    0.000
560.444; 4667.475;  254.125;    0.000
560.572; 4857.475;  226.125;    0.000
560.700; 4969.475;  282.125;    0.000
560.828; 4964.475;  211.125;    0.000
560.956; 4974.475;  264.125;    0.000
561.085; 4920.475;  295.125;    0.000
561.212; 4887.475;  229.125;    0.000
561.340; 4791.475;  259.125;    0.000
561.468; 4946.475;  253.125;    0.000
561.596; 4793.475;  240.125;    0.000
561.724; 4944.475;  259.125;    0.000
561.852; 4966.475;  224.125;    0.000
561.980; 4900.475;  251.125;    0.000
562.108; 4967.475;  214.125;    0.000
562.236; 5007.475;  258.125;    0.000
562.364; 5004.475;  237.125;    0.000
562.492; 5097.475;  228.125;    0.000
562.619; 5088.475;  223.125;    0.000
562.747; 5134.475;  263.125;    0.000
562.875; 5190.475;  257.125;    0.000
563.003; 5138.475;  216.125;    0.000
563.130; 5189.475;  190.125;    0.000
563.258; 5138.475;  225.125;    0.000
563.386; 5385.475;  259.125;    0.000
563.514; 5389.475;  264.125;    0.000
563.641; 5371.475;  230.125;    0.000
563.769; 5487.475;  257.125;    0.000
563.897; 5621.475;  210.125;    0.000
564.024; 5663.475;  221.125;    0.000
564.152; 5745.475;  256.125;    0.000
564.280; 5802.475;  225.125;    0.000
564.407; 5866.475;  262.125;    0.000
564.535; 5975.475;  235.125;    0.000
564.662; 5776.475;  238.125;    0.000
564.790; 5953.475;  248.125;    0.000
564.917; 5963.475;  214.125;    0.000
565.045; 6109.475;  253.125;    0.000
565.173; 5968.475;  225.125;    0.000
565.300; 6102.475;  261.125;    0.000
565.428; 6091.475;  218.125;    0.000
565.555; 6290.475;  245.125;    0.000
565.682; 6203.475;  242.125;    0.000
565.810; 6386.475;  228.125;    0.000
565.937; 6479.475;  230.125;    0.000
566.065; 6808.475;  251.125;    0.000
566.192; 6943.475;  196.125;    0.000
566.320; 7112.475;  217.125;    0.000
566.447; 7225.475;  224.125;    0.000
566.574; 7310.475;  221.125;    0.000
566.702; 7464.475;  221.125;    0.000
566.829; 7544.475;  252.125;    0.000
566.956; 7646.475;  214.125;    0.000
567.083; 7659.475;  204.125;    0.000
567.211; 7705.475;  216.125;    0.000
567.338; 7794.475;  228.125;    0.000
567.465; 7870.475;  208.125;    0.000
567.593; 7851.475;  205.125;    0.000
567.720; 7828.475;  194.125;    0.000
567.847; 8009.475;  268.125;    0.000
567.974; 7977.475;  198.125;    0.000
568.101; 8429.475;  224.125;    0.000
568.228; 9714.475;  236.125;    0.000
568.356;10226.475;  207.125;    0.000
568.483; 9961.475;  220.125;    0.000
568.610; 9745.475;  181.125;    0.000
568.737;11205.475;  216.125;    0.000
568.864;12723.475;  258.125;    0.000
568.991;12361.475;  203.125;    0.000
569.118;10871.475;  232.125;    0.000
569.245; 9765.475;  192.125;    0.000
569.372; 9189.475;  226.125;    0.000
569.499; 8520.475;  211.125;    0.000
569.626; 8189.475;  247.125;    0.000
569.753; 7896.475;  248.125;    0.000
569.880; 7419.475;  226.125;    0.000
570.007; 7337.475;  215.125;    0.000
570.134; 7048.475;  205.125;    0.000
570.261; 6957.475;  187.125;    0.000
570.388; 6786.475;  258.125;    0.000
570.515; 6698.475;  241.125;    0.000
570.642; 6695.475;  211.125;    0.000
570.768; 6466.475;  228.125;    0.000
570.895; 6509.475;  229.125;    0.000
571.022; 6315.475;  203.125;    0.000
571.149; 6327.475;  206.125;    0.000
571.276; 6096.475;  191.125;    0.000
571.402; 6111.475;  218.125;    0.000
571.529; 5975.475;  192.125;    0.000
571.656; 5978.475;  209.125;    0.000
571.783; 5792.475;  181.125;    0.000
571.909; 5806.475;  251.125;    0.000
572.036; 5862.475;  225.125;    0.000
572.163; 5716.475;  214.125;    0.000
572.289; 5603.475;  252.125;    0.000
572.416; 5596.475;  220.125;    0.000
572.543; 5557.475;  225.125;    0.000
572.669; 5471.475;  226.125;    0.000
572.796; 5516.475;  231.125;    0.000
572.922; 5504.475;  258.125;    0.000
573.049; 5538.475;  202.125;    0.000
573.176; 5491.475;  254.125;    0.000
573.302; 5326.475;  215.125;    0.000
573.429; 5250.475;  251.125;    0.000
573.555; 5364.475;  221.125;    0.000
573.682; 5311.475;  227.125;    0.000
573.808; 5332.475;  259.125;    0.000
573.935; 5253.475;  233.125;    0.000
574.061; 5233.475;  241.125;    0.000
574.188; 5288.475;  238.125;    0.000
574.314; 5284.475;  221.125;    0.000
574.440; 5170.475;  221.125;    0.000
574.567; 5227.475;  216.125;    0.000
574.693; 5201.475;  224.125;    0.000
574.820; 5256.475;  199.125;    0.000
574.946; 5232.475;  248.125;    0.000
575.072; 5169.475;  220.125;    0.000
575.198; 5258.475;  262.125;    0.000
575.325; 5201.475;  232.125;    0.000
575.451; 5204.475;  225.125;    0.000
575.577; 5136.475;  216.125;    0.000
575.704; 5165.475;  248.125;    0.000
575.830; 5193.475;  227.125;    0.000
575.956; 5227.475;  206.125;    0.000
576.082; 5058.475;  222.125;    0.000
576.208; 5148.475;  206.125;    0.000
576.335; 5091.475;  256.125;    0.000
576.461; 5129.475;  247.125;    0.000
576.587; 5178.475;  219.125;    0.000
576.713; 5285.475;  215.125;    0.000
576.839; 5114.475;  225.125;    0.000
576.965; 5112.475;  230.125;    0.000
577.091; 5141.475;  235.125;    0.000
577.217; 5259.475;  235.125;    0.000
577.343; 5127.475;  233.125;    0.000
577.469; 5201.475;  242.125;    0.000
577.596; 5162.475;  241.125;    0.000
577.722; 5175.475;  255.125;    0.000
577.848; 5032.475;  235.125;    0.000
577.974; 5146.475;  210.125;    0.000
578.099; 5193.475;  239.125;    0.000
578.225; 5253.475;  258.125;    0.000
578.351; 5234.475;  209.125;    0.000
578.477; 5188.475;  255.125;    0.000
578.603; 5237.475;  213.125;    0.000
578.729; 5123.475;  221.125;    0.000
578.855; 5247.475;  209.125;    0.000
578.981; 5297.475;  206.125;    0.000
579.107; 5192.475;  221.125;    0.000
579.232; 5327.475;  206.125;    0.000
579.358; 5350.475;  226.125;    0.000
579.484; 5326.475;  244.125;    0.000
579.610; 5291.475;  261.125;    0.000
579.735; 5314.475;  270.125;    0.000
579.861; 5288.475;  255.125;    0.000
579.987; 5501.475;  249.125;    0.000
580.113; 5435.475;  260.125;    0.000
580.238; 5476.475;  206.125;    0.000
580.364; 5505.475;  249.125;    0.000
580.490; 5600.475;  225.125;    0.000
580.615; 5557.475;  266.125;    0.000
580.741; 5444.475;  224.125;    0.000
580.867; 5506.475;  251.125;    0.000
580.992; 5669.475;  270.125;    0.000
581.118; 5576.475;  248.125;    0.000
581.243; 5769.475;  251.125;    0.000
581.369; 5700.475;  192.125;    0.000
581.494; 5701.475;  259.125;    0.000
581.620; 5823.475;  245.125;    0.000
581.745; 5788.475;  232.125;    0.000
581.871; 5703.475;  243.125;    0.000
581.996; 5828.475;  216.125;    0.000
582.122; 5823.475;  263.125;    0.000
582.247; 5958.475;  254.125;    0.000
582.373; 5884.475;  232.125;    0.000
582.498; 6000.475;  275.125;    0.000
582.624; 6074.475;  260.125;    0.000
582.749; 5994.475;  251.125;    0.000
582.874; 6145.475;  245.125;    0.000
583.000; 6280.475;  278.125;    0.000
583.125; 6320.475;  211.125;    0.000
583.250; 6347.475;  246.125;    0.000
583.376; 6421.475;  259.125;    0.000
583.501; 6369.475;  254.125;    0.000
583.626; 6658.475;  209.125;    0.000
583.751; 6720.475;  239.125;    0.000
583.877; 6744.475;  255.125;    0.000
584.002; 6799.475;  263.125;    0.000
584.127; 6769.475;  205.125;    0.000
584.252; 7021.475;  196.125;    0.000
584.377; 7178.475;  249.125;    0.000
584.503; 7112.475;  219.125;    0.000
584.628; 7338.475;  243.125;    0.000
584.753; 7451.475;  250.125;    0.000
584.878; 7647.475;  208.125;    0.000
585.003; 7833.475;  234.125;    0.000
585.128; 8116.475;  207.125;    0.000
585.253; 8119.475;  219.125;    0.000
585.378; 8212.475;  205.125;    0.000
585.503; 8554.475;  256.125;    0.000
585.628; 8797.475;  217.125;    0.000
585.753; 8878.475;  213.125;    0.000
585.878; 8858.475;  147.125;    0.000
586.003; 9438.475;  256.125;    0.000
586.128; 9805.475;  214.125;    0.000
586.253; 9945.475;  254.125;    0.000
586.378;10513.475;  252.125;    0.000
586.503;10829.475;  219.125;    0.000
586.628;11185.475;  226.125;    0.000
586.753;11777.475;  237.125;    0.000
586.878;12269.475;  185.125;    0.000
587.003;13041.475;  248.125;    0.000
587.127;13685.475;  237.125;    0.000
587.252;14289.475;  221.125;    0.000
587.377;15283.475;  244.125;    0.000
587.502;16185.475;  260.125;    0.000
587.627;17443.475;  232.125;    0.000
587.751;18915.475;  250.125;    0.000
587.876;20339.475;  234.125;    0.000
588.001;22072.475;  248.125;    0.000
588.125;24453.475;  236.125;    0.000
588.250;27290.475;  192.125;    0.000
588.375;30578.475;  265.125;    0.000
588.499;34602.477;  235.125;    0.000
588.624;39672.477;  212.125;    0.000
588.749;45447.477;  214.125;    0.000
588.873;48959.477;  236.125;    0.000
588.998;52171.477;  230.125;    0.000
589.122;56459.477;  231.125;    0.000
589.247;56384.477;  250.125;    0.000
589.372;53736.477;  247.125;    0.000
589.496;51648.477;  230.125;    0.000
589.621;52344.477;  237.125;    0.000
589.745;53128.477;  277.125;    0.000
589.870;48648.477;  283.125;    0.000
589.994;42040.477;  263.125;    0.000
590.118;36738.477;  239.125;    0.000
590.243;32148.475;  218.125;    0.000
590.367;28606.475;  226.125;    0.000
590.492;26024.475;  269.125;    0.000
590.616;23562.475;  205.125;    0.000
590.740;21607.475;  243.125;    0.000
590.865;20102.475;  281.125;    0.000
590.989;18581.475;  233.125;    0.000
591.114;17182.475;  222.125;    0.000
591.238;16367.475;  204.125;    0.000
591.362;15282.475;  283.125;    0.000
591.486;14725.475;  236.125;    0.000
591.611;14129.475;  228.125;    0.000
591.735;13527.475;  249.125;    0.000
591.859;12828.475;  202.125;    0.000
591.983;12523.475;  257.125;    0.000
592.107;11903.475;  230.125;    0.000
592.232;11547.475;  266.125;    0.000
592.356;11252.475;  232.125;    0.000
592.480;11056.475;  245.125;    0.000
592.604;10524.475;  254.125;    0.000
592.728;10364.475;  233.125;    0.000
592.852;10106.475;  213.125;    0.000
592.976; 9852.475;  234.125;    0.000
593.100; 9410.475;  246.125;    0.000
593.224; 9418.475;  305.125;    0.000
593.349; 9254.475;  240.125;    0.000
593.473; 8957.475;  206.125;    0.000
593.597; 8750.475;  243.125;    0.000
593.721; 8759.475;  247.125;    0.000
593.844; 8561.475;  230.125;    0.000
593.968; 8409.475;  226.125;    0.000
594.092; 8219.475;  193.125;    0.000
594.216; 8135.475;  237.125;    0.000
594.340; 7858.475;  235.125;    0.000
594.464; 7769.475;  225.125;    0.000
594.588; 7717.475;  269.125;    0.000
594.712; 7494.475;  242.125;    0.000
594.836; 7388.475;  240.125;    0.000
594.959; 7271.475;  255.125;    0.000
595.083; 7111.475;  258.125;    0.000
595.207; 7011.475;  264.125;    0.000
595.331; 6847.475;  215.125;    0.000
595.455; 6816.475;  234.125;    0.000
595.578; 6778.475;  215.125;    0.000
595.702; 6636.475;  259.125;    0.000
595.826; 6670.475;  232.125;    0.000
595.949; 6460.475;  251.125;    0.000
596.073; 6326.475;  197.125;    0.000
596.197; 6267.475;  239.125;    0.000
596.320; 6180.475;  229.125;    0.000
596.444; 6225.475;  264.125;    0.000
596.568; 6020.475;  207.125;    0.000
596.691; 6055.475;  234.125;    0.000
596.815; 5864.475;  241.125;    0.000
596.938; 5850.475;  244.125;    0.000
597.062; 5895.475;  210.125;    0.000
597.186; 5754.475;  247.125;    0.000
597.309; 5706.475;  215.125;    0.000
597.433; 5864.475;  266.125;    0.000
597.556; 5645.475;  234.125;    0.000
597.680; 5694.475;  261.125;    0.000
597.803; 5473.475;  239.125;    0.000
597.926; 5539.475;  251.125;    0.000
598.050; 5440.475;  227.125;    0.000
598.173; 5531.475;  247.125;    0.000
598.297; 5269.475;  244.125;    0.000
598.420; 5323.475;  243.125;    0.000
598.543; 5322.475;  237.125;    0.000
598.667; 5186.475;  239.125;    0.000
598.790; 5266.475;  217.125;    0.000
598.913; 5221.475;  244.125;    0.000
599.037; 5112.475;  249.125;    0.000
599.160; 5095.475;  222.125;    0.000
599.283; 5151.475;  235.125;    0.000
599.406; 5047.475;  228.125;    0.000
599.530; 5065.475;  234.125;    0.000
599.653; 5074.475;  228.125;    0.000
599.776; 5048.475;  263.125;    0.000
599.899; 5030.475;  197.125;    0.000
600.022; 4948.475;  224.125;    0.000
600.145; 4863.475;  211.125;    0.000
600.269; 4971.475;  246.125;    0.000
600.392; 4840.475;  233.125;    0.000
600.515; 4849.475;  266.125;    0.000
600.638; 4794.475;  246.125;    0.000
600.761; 4778.475;  213.125;    0.000
600.884; 4802.475;  279.125;    0.000
601.007; 4838.475;  268.125;    0.000
601.130; 4743.475;  203.125;    0.000
601.253; 4753.475;  241.125;    0.000
601.376; 4675.475;  248.125;    0.000
601.499; 4717.475;  241.125;    0.000
601.622; 4751.475;  266.125;    0.000
601.745; 4682.475;  237.125;    0.000
601.868; 4729.475;  256.125;    0.000
601.991; 4598.475;  260.125;    0.000
602.113; 4611.475;  246.125;    0.000
602.236; 4634.475;  243.125;    0.000
602.359; 4589.475;  220.125;    0.000
602.482; 4495.475;  236.125;    0.000
602.605; 4611.475;  216.125;    0.000
602.728; 4602.475;  247.125;    0.000
602.850; 4579.475;  255.125;    0.000
602.973; 4537.475;  224.125;    0.000
603.096; 4552.475;  258.125;    0.000
603.219; 4614.475;  222.125;    0.000
603.341; 4433.475;  235.125;    0.000
603.464; 4490.475;  223.125;    0.000
603.587; 4535.475;  250.125;    0.000
603.709; 4464.475;  229.125;    0.000
603.832; 4377.475;  285.125;    0.000
603.955; 4395.475;  225.125;    0.000
604.077; 4445.475;  235.125;    0.000
604.200; 4366.475;  209.125;    0.000
604.323; 4414.475;  240.125;    0.000
604.445; 4357.475;  198.125;    0.000
604.568; 4308.475;  230.125;    0.000
604.690; 4333.475;  225.125;    0.000
604.813; 4301.475;  248.125;    0.000
604.935; 4363.475;  204.125;    0.000
605.058; 4279.475;  191.125;    0.000
605.180; 4288.475;  237.125;    0.000
605.303; 4353.475;  224.125;    0.000
605.425; 4255.475;  244.125;    0.000
605.547; 4232.475;  268.125;    0.000
605.670; 4202.475;  211.125;    0.000
605.792; 4314.475;  266.125;    0.000
605.915; 4257.475;  202.125;    0.000
606.037; 4268.475;  236.125;    0.000
606.159; 4286.475;  234.125;    0.000
606.282; 4269.475;  223.125;    0.000
606.404; 4249.475;  217.125;    0.000
606.526; 4359.475;  221.125;    0.000
606.648; 4140.475;  204.125;    0.000
606.771; 4321.475;  265.125;    0.000
606.893; 4115.475;  211.125;    0.000
607.015; 4161.475;  206.125;    0.000
607.137; 4152.475;  222.125;    0.000
607.260; 4142.475;  228.125;    0.000
607.382; 4127.475;  202.125;    0.000
607.504; 4212.475;  257.125;    0.000
607.626; 4175.475;  249.125;    0.000
607.748; 4222.475;  233.125;    0.000
607.870; 4041.475;  222.125;    0.000
607.992; 4002.475;  227.125;    0.000
608.114; 4212.475;  228.125;    0.000
608.237; 4136.475;  254.125;    0.000
608.359; 4075.475;  216.125;    0.000
608.481; 4053.475;  197.125;    0.000
608.603; 4041.475;  209.125;    0.000
608.725; 4070.475;  220.125;    0.000
608.847; 4080.475;  259.125;    0.000
608.969; 4152.475;  242.125;    0.000
609.090; 4025.475;  218.125;    0.000
609.212; 3973.475;  200.125;    0.000
609.334; 4061.475;  212.125;    0.000
609.456; 3996.475;  231.125;    0.000
609.578; 4056.475;  249.125;    0.000
609.700; 4121.475;  185.125;    0.000
609.822; 4069.475;  200.125;    0.000
609.944; 4021.475;  236.125;    0.000
610.065; 3954.475;  255.125;    0.000
610.187; 3968.475;  208.125;    0.000
610.309; 4009.475;  202.125;    0.000
610.431; 4033.475;  232.125;    0.000
610.552; 4037.475;  232.125;    0.000
610.674; 3949.475;  217.125;    0.000
610.796; 4086.475;  186.125;    0.000
610.918; 3977.475;  211.125;    0.000
611.039; 4117.475;  244.125;    0.000
611.161; 4069.475;  202.125;    0.000
611.282; 3921.475;  212.125;    0.000
611.404; 4013.475;  235.125;    0.000
611.526; 4025.475;  213.125;    0.000
611.647; 4121.475;  248.125;    0.000
611.769; 3983.475;  205.125;    0.000
611.890; 3981.475;  224.125;    0.000
612.012; 3921.475;  189.125;    0.000
612.133; 4041.475;  186.125;    0.000
612.255; 3889.475;  246.125;    0.000
612.377; 3940.475;  230.125;    0.000
612.498; 3965.475;  196.125;    0.000
612.619; 3969.475;  234.125;    0.000
612.741; 3991.475;  221.125;    0.000
612.862; 3965.475;  227.125;    0.000
612.984; 3832.475;  189.125;    0.000
613.105; 4019.475;  232.125;    0.000
613.226; 3893.475;  199.125;    0.000
613.348; 4008.475;  260.125;    0.000
613.469; 3867.475;  217.125;    0.000
613.590; 3932.475;  236.125;    0.000
613.712; 3888.475;  226.125;    0.000
613.833; 3963.475;  231.125;    0.000
613.954; 3900.475;  236.125;    0.000
614.076; 3900.475;  236.125;    0.000
614.197; 3852.475;  228.125;    0.000
614.318; 3832.475;  207.125;    0.000
614.439; 3910.475;  237.125;    0.000
614.560; 3896.475;  202.125;    0.000
614.682; 3976.475;  230.125;    0.000
614.803; 3906.475;  236.125;    0.000
614.924; 3996.475;  257.125;    0.000
615.045; 3969.475;  228.125;    0.000
615.166; 4128.475;  221.125;    0.000
615.287; 4328.475;  199.125;    0.000
615.408; 5051.475;  228.125;    0.000
615.529; 5176.475;  200.125;    0.000
615.650; 4817.475;  224.125;    0.000
615.771; 4472.475;  202.125;    0.000
615.892; 4704.475;  215.125;    0.000
616.013; 5576.475;  246.125;    0.000
616.134; 6528.475;  210.125;    0.000
616.255; 5885.475;  232.125;    0.000
616.376; 5248.475;  241.125;    0.000
616.497; 4776.475;  213.125;    0.000
616.618; 4572.475;  171.125;    0.000
616.739; 4480.475;  221.125;    0.000
616.860; 4307.475;  244.125;    0.000
616.981; 4216.475;  240.125;    0.000
617.102; 4166.475;  234.125;    0.000
617.222; 4200.475;  265.125;    0.000
617.343; 4060.475;  206.125;    0.000
617.464; 4136.475;  246.125;    0.000
617.585; 4112.475;  256.125;    0.000
617.705; 3949.475;  249.125;    0.000
617.826; 3954.475;  218.125;    0.000
617.947; 3944.475;  225.125;    0.000
618.068; 3970.475;  199.125;    0.000
618.188; 4020.475;  202.125;    0.000
618.309; 4013.475;  220.125;    0.000
618.430; 3991.475;  229.125;    0.000
618.550; 3936.475;  252.125;    0.000
618.671; 3841.475;  233.125;    0.000
618.791; 3896.475;  227.125;    0.000
618.912; 3981.475;  236.125;    0.000
619.033; 3824.475;  220.125;    0.000
619.153; 3820.475;  228.125;    0.000
619.274; 3793.475;  208.125;    0.000
619.394; 3792.475;  255.125;    0.000
619.515; 3827.475;  206.125;    0.000
619.635; 3704.475;  204.125;    0.000
619.756; 3834.475;  252.125;    0.000
619.876; 3755.475;  238.125;    0.000
619.996; 3740.475;  249.125;    0.000
620.117; 3618.475;  223.125;    0.000
620.237; 3716.475;  210.125;    0.000
620.358; 3865.475;  264.125;    0.000
620.478; 3678.475;  263.125;    0.000
620.598; 3848.475;  238.125;    0.000
620.719; 3815.475;  225.125;    0.000
620.839; 3714.475;  259.125;    0.000
620.959; 3629.475;  218.125;    0.000
621.079; 3701.475;  253.125;    0.000
621.200; 3716.475;  245.125;    0.000
621.320; 3716.475;  254.125;    0.000
621.440; 3739.475;  233.125;    0.000
621.560; 3697.475;  235.125;    0.000
621.681; 3701.475;  234.125;    0.000
621.801; 3624.475;  240.125;    0.000
621.921; 3684.475;  239.125;    0.000
622.041; 3652.475;  288.125;    0.000
622.161; 3715.475;  229.125;    0.000
622.281; 3601.475;  223.125;    0.000
622.401; 3566.475;  240.125;    0.000
622.521; 3724.475;  267.125;    0.000
622.641; 3632.475;  226.125;    0.000
622.761; 3636.475;  252.125;    0.000
622.882; 3591.475;  207.125;    0.000
623.002; 3633.475;  226.125;    0.000
623.121; 3532.475;  207.125;    0.000
623.241; 3616.475;  215.125;    0.000
623.361; 3534.475;  222.125;    0.000
623.481; 3492.475;  187.125;    0.000
623.601; 3549.475;  283.125;    0.000
623.721; 3594.475;  283.125;    0.000
623.841; 3542.475;  233.125;    0.000
623.961; 3501.475;  215.125;    0.000
624.081; 3486.475;  219.125;    0.000
624.201; 3489.475;  221.125;    0.000
624.320; 3501.475;  215.125;    0.000
624.440; 3503.475;  222.125;    0.000
624.560; 3493.475;  231.125;    0.000
624.680; 3477.475;  225.125;    0.000
624.799; 3511.475;  230.125;    0.000
624.919; 3373.475;  243.125;    0.000
625.039; 3486.475;  203.125;    0.000
625.159; 3515.475;  257.125;    0.000
625.278; 3493.475;  230.125;    0.000
625.398; 3474.475;  195.125;    0.000
625.518; 3519.475;  211.125;    0.000
625.637; 3493.475;  267.125;    0.000
625.757; 3448.475;  228.125;    0.000
625.876; 3419.475;  231.125;    0.000
625.996; 3543.475;  219.125;    0.000
626.115; 3524.475;  235.125;    0.000
626.235; 3473.475;  199.125;    0.000
626.354; 3420.475;  226.125;    0.000
626.474; 3394.475;  225.125;    0.000
626.594; 3408.475;  223.125;    0.000
626.713; 3392.475;  231.125;    0.000
626.832; 3355.475;  287.125;    0.000
626.952; 3464.475;  251.125;    0.000
627.071; 3517.475;  254.125;    0.000
627.191; 3460.475;  193.125;    0.000
627.310; 3352.475;  213.125;    0.000
627.429; 3388.475;  259.125;    0.000
627.549; 3388.475;  243.125;    0.000
627.668; 3351.475;  181.125;    0.000
627.787; 3452.475;  232.125;    0.000
627.907; 3412.475;  222.125;    0.000
628.026; 3408.475;  219.125;    0.000
628.145; 3432.475;  201.125;    0.000
628.264; 3328.475;  198.125;    0.000
628.384; 3426.475;  208.125;    0.000
628.503; 3320.475;  251.125;    0.000
628.622; 3402.475;  195.125;    0.000
628.741; 3376.475;  180.125;    0.000
628.860; 3490.475;  235.125;    0.000
628.980; 3383.475;  222.125;    0.000
629.099; 3378.475;  237.125;    0.000
629.218; 3297.475;  175.125;    0.000
629.337; 3440.475;  194.125;    0.000
629.456; 3393.475;  225.125;    0.000
629.575; 3404.475;  239.125;    0.000
629.694; 3425.475;  230.125;    0.000
629.813; 3303.475;  197.125;    0.000
629.932; 3308.475;  225.125;    0.000
630.051; 3369.475;  238.125;    0.000
630.170; 3412.475;  233.125;    0.000
630.289; 3379.475;  231.125;    0.000
630.408; 3412.475;  204.125;    0.000
630.527; 3460.475;  262.125;    0.000
630.646; 3211.475;  181.125;    0.000
630.764; 3316.475;  218.125;    0.000
630.883; 3348.475;  215.125;    0.000
631.002; 3270.475;  224.125;    0.000
631.121; 3328.475;  209.125;    0.000
631.240; 3374.475;  230.125;    0.000
631.359; 3410.475;  235.125;    0.000
631.477; 3346.475;  223.125;    0.000
631.596; 3269.475;  218.125;    0.000
631.715; 3398.475;  234.125;    0.000
631.834; 3355.475;  215.125;    0.000
631.952; 3459.475;  243.125;    0.000
632.071; 3287.475;  219.125;    0.000
632.190; 3229.475;  235.125;    0.000
632.308; 3317.475;  239.125;    0.000
632.427; 3338.475;  211.125;    0.000
632.546; 3204.475;  233.125;    0.000
632.664; 3276.475;  219.125;    0.000
632.783; 3255.475;  203.125;    0.000
632.901; 3331.475;  221.125;    0.000
633.020; 3241.475;  197.125;    0.000
633.138; 3216.475;  244.125;    0.000
633.257; 3272.475;  205.125;    0.000
633.375; 3340.475;  245.125;    0.000
633.494; 3272.475;  218.125;    0.000
633.612; 3285.475;  222.125;    0.000
633.731; 3168.475;  212.125;    0.000
633.849; 3254.475;  218.125;    0.000
633.968; 3200.475;  236.125;    0.000
634.086; 3294.475;  233.125;    0.000
634.204; 3247.475;  215.125;    0.000
634.323; 3188.475;  230.125;    0.000
634.441; 3289.475;  235.125;    0.000
634.559; 3238.475;  202.125;    0.000
634.678; 3221.475;  218.125;    0.000
634.796; 3254.475;  203.125;    0.000
634.914; 3222.475;  227.125;    0.000
635.032; 3257.475;  279.125;    0.000
635.151; 3205.475;  221.125;    0.000
635.269; 3205.475;  207.125;    0.000
635.387; 3193.475;  195.125;    0.000
635.505; 3239.475;  243.125;    0.000
635.623; 3233.475;  269.125;    0.000
635.742; 3227.475;  232.125;    0.000
635.860; 3207.475;  243.125;    0.000
635.978; 3105.475;  215.125;    0.000
636.096; 3276.475;  225.125;    0.000
636.214; 3165.475;  244.125;    0.000
636.332; 3120.475;  226.125;    0.000
636.450; 3194.475;  227.125;    0.000
636.568; 3145.475;  225.125;    0.000
636.686; 3142.475;  194.125;    0.000
636.804; 3229.475;  234.125;    0.000
636.922; 3116.475;  177.125;    0.000
637.040; 3155.475;  225.125;    0.000
637.158; 3153.475;  194.125;    0.000
637.276; 3161.475;  219.125;    0.000
637.394; 3143.475;  219.125;    0.000
637.512; 3176.475;  210.125;    0.000
637.629; 3164.475;  242.125;    0.000
637.747; 3111.475;  193.125;    0.000
637.865; 3015.475;  219.125;    0.000
637.983; 3212.475;  251.125;    0.000
638.101; 3126.475;  221.125;    0.000
638.218; 3184.475;  193.125;    0.000
638.336; 3210.475;  224.125;    0.000
638.454; 3024.475;  227.125;    0.000
638.572; 3256.475;  245.125;    0.000
638.689; 3091.475;  222.125;    0.000
638.807; 3118.475;  244.125;    0.000
638.925; 3101.475;  238.125;    0.000
639.042; 3058.475;  213.125;    0.000
639.160; 3104.475;  186.125;    0.000
639.278; 3038.475;  203.125;    0.000
639.395; 3151.475;  270.125;    0.000
639.513; 3153.475;  227.125;    0.000
639.630; 3161.475;  200.125;    0.000
639.748; 3028.475;  199.125;    0.000
639.865; 3149.475;  233.125;    0.000
639.983; 3088.475;  181.125;    0.000
640.100; 3149.475;  219.125;    0.000
640.218; 3021.475;  234.125;    0.000
640.335; 2992.475;  233.125;    0.000
640.453; 3079.475;  202.125;    0.000
640.570; 3136.475;  214.125;    0.000
640.688; 3069.475;  215.125;    0.000
640.805; 3183.475;  229.125;    0.000
640.922; 3114.475;  244.125;    0.000
641.040; 3086.475;  233.125;    0.000
641.157; 3008.475;  199.125;    0.000
641.274; 3137.475;  205.125;    0.000
641.391; 3166.475;  244.125;    0.000
641.509; 3069.475;  184.125;    0.000
641.626; 3109.475;  244.125;    0.000
641.743; 2942.475;  221.125;    0.000
641.860; 3079.475;  206.125;    0.000
641.978; 3081.475;  272.125;    0.000
642.095; 3113.475;  218.125;    0.000
642.212; 3103.475;  208.125;    0.000
642.329; 3051.475;  218.125;    0.000
642.446; 3072.475;  197.125;    0.000
642.563; 3085.475;  214.125;    0.000
642.681; 3089.475;  203.125;    0.000
642.798; 2956.475;  236.125;    0.000
642.915; 3064.475;  191.125;    0.000
643.032; 3098.475;  226.125;    0.000
643.149; 3049.475;  231.125;    0.000
643.266; 3117.475;  213.125;    0.000
643.383; 3152.475;  240.125;    0.000
643.500; 3050.475;  185.125;    0.000
643.617; 2995.475;  229.125;    0.000
643.734; 3075.475;  205.125;    0.000
643.850; 3055.475;  222.125;    0.000
643.967; 3036.475;  202.125;    0.000
644.084; 3145.475;  264.125;    0.000
644.201; 2976.475;  214.125;    0.000
644.318; 3096.475;  206.125;    0.000
644.435; 3042.475;  225.125;    0.000
644.552; 3068.475;  203.125;    0.000
644.668; 3191.475;  252.125;    0.000
644.785; 3048.475;  213.125;    0.000
644.902; 3074.475;  233.125;    0.000
645.019; 3009.475;  220.125;    0.000
645.135; 3114.475;  225.125;    0.000
645.252; 3146.475;  218.125;    0.000
645.369; 3080.475;  214.125;    0.000
645.485; 3093.475;  210.125;    0.000
645.602; 3087.475;  198.125;    0.000
645.719; 3097.475;  228.125;    0.000
645.835; 3193.475;  209.125;    0.000
645.952; 3142.475;  213.125;    0.000
646.068; 3119.475;  241.125;    0.000
646.185; 3174.475;  219.125;    0.000
646.302; 3199.475;  246.125;    0.000
646.418; 3113.475;  228.125;    0.000
646.535; 3123.475;  256.125;    0.000
646.651; 3150.475;  222.125;    0.000
646.768; 3195.475;  203.125;    0.000
646.884; 3156.475;  199.125;    0.000
647.000; 3199.475;  194.125;    0.000
647.117; 3148.475;  214.125;    0.000
647.233; 3239.475;  209.125;    0.000
647.350; 3302.475;  235.125;    0.000
647.466; 3218.475;  237.125;    0.000
647.582; 3254.475;  231.125;    0.000
647.699; 3310.475;  219.125;    0.000
647.815; 3256.475;  200.125;    0.000
647.931; 3257.475;  173.125;    0.000
648.047; 3243.475;  184.125;    0.000
648.164; 3341.475;  199.125;    0.000
648.280; 3237.475;  209.125;    0.000
648.396; 3320.475;  220.125;    0.000
648.512; 3261.475;  212.125;    0.000
648.629; 3182.475;  214.125;    0.000
648.745; 3251.475;  197.125;    0.000
648.861; 3269.475;  228.125;    0.000
648.977; 3250.475;  238.125;    0.000
649.093; 3321.475;  208.125;    0.000
649.209; 3289.475;  179.125;    0.000
649.325; 3326.475;  256.125;    0.000
649.441; 3351.475;  224.125;    0.000
649.557; 3333.475;  247.125;    0.000
649.673; 3279.475;  214.125;    0.000
649.789; 3343.475;  213.125;    0.000
649.905; 3241.475;  170.125;    0.000
650.021; 3330.475;  236.125;    0.000
650.137; 3225.475;  229.125;    0.000
650.253; 3340.475;  207.125;    0.000
650.369; 3310.475;  198.125;    0.000
650.485; 3263.475;  225.125;    0.000
650.601; 3361.475;  260.125;    0.000
650.717; 3301.475;  196.125;    0.000
650.833; 3324.475;  219.125;    0.000
650.948; 3367.475;  203.125;    0.000
651.064; 3376.475;  232.125;    0.000
651.180; 3307.475;  252.125;    0.000
651.296; 3327.475;  190.125;    0.000
651.411; 3456.475;  235.125;    0.000
651.527; 3292.475;  227.125;    0.000
651.643; 3418.475;  238.125;    0.000
651.759; 3356.475;  260.125;    0.000
651.874; 3412.475;  217.125;    0.000
651.990; 3442.475;  239.125;    0.000
652.105; 3444.475;  215.125;    0.000
652.221; 3505.475;  237.125;    0.000
652.337; 3484.475;  238.125;    0.000
652.452; 3556.475;  230.125;    0.000
652.568; 3469.475;  201.125;    0.000
652.683; 3542.475;  243.125;    0.000
652.799; 3605.475;  218.125;    0.000
652.914; 3672.475;  189.125;    0.000
653.030; 3682.475;  191.125;    0.000
653.145; 3657.475;  240.125;    0.000
653.261; 3631.475;  225.125;    0.000
653.376; 3779.475;  241.125;    0.000
653.492; 3734.475;  188.125;    0.000
653.607; 3793.475;  219.125;    0.000
653.722; 3827.475;  268.125;    0.000
653.838; 3856.475;  262.125;    0.000
653.953; 3864.475;  188.125;    0.000
654.068; 3999.475;  244.125;    0.000
654.184; 4105.475;  247.125;    0.000
654.299; 4152.475;  228.125;    0.000
654.414; 4072.475;  181.125;    0.000
654.530; 4152.475;  210.125;    0.000
654.645; 4204.475;  240.125;    0.000
654.760; 4261.475;  219.125;    0.000
654.875; 4334.475;  178.125;    0.000
654.990; 4540.475;  222.125;    0.000
655.106; 4668.475;  227.125;    0.000
655.221; 4630.475;  270.125;    0.000
655.336; 4705.475;  199.125;    0.000
655.451; 4865.475;  235.125;    0.000
655.566; 5060.475;  251.125;    0.000
655.681; 5188.475;  253.125;    0.000
655.796; 5375.475;  207.125;    0.000
655.911; 5585.475;  213.125;    0.000
656.026; 5891.475;  247.125;    0.000
656.141; 6042.475;  209.125;    0.000
656.256; 6236.475;  226.125;    0.000
656.371; 6294.475;  201.125;    0.000
656.486; 6293.475;  196.125;    0.000
656.601; 6180.475;  239.125;    0.000
656.716; 6037.475;  234.125;    0.000
656.831; 5916.475;  223.125;    0.000
656.946; 5755.475;  246.125;    0.000
657.060; 5645.475;  230.125;    0.000
657.175; 5360.475;  207.125;    0.000
657.290; 5361.475;  213.125;    0.000
657.405; 5270.475;  319.125;    0.000
657.520; 5072.475;  241.125;    0.000
657.634; 4937.475;  235.125;    0.000
657.749; 4872.475;  275.125;    0.000
657.864; 4757.475;  210.125;    0.000
657.979; 4765.475;  227.125;    0.000
658.093; 4682.475;  206.125;    0.000
658.208; 4553.475;  217.125;    0.000
658.323; 4446.475;  227.125;    0.000
658.437; 4465.475;  217.125;    0.000
658.552; 4351.475;  237.125;    0.000
658.666; 4353.475;  233.125;    0.000
658.781; 4285.475;  248.125;    0.000
658.895; 4161.475;  233.125;    0.000
659.010; 4175.475;  238.125;    0.000
659.125; 4028.475;  206.125;    0.000
659.239; 3991.475;  220.125;    0.000
659.353; 4025.475;  236.125;    0.000
659.468; 3891.475;  238.125;    0.000
659.582; 3892.475;  275.125;    0.000
659.697; 3828.475;  239.125;    0.000
659.811; 3878.475;  232.125;    0.000
659.926; 3695.475;  230.125;    0.000
660.040; 3724.475;  257.125;    0.000
660.154; 3620.475;  221.125;    0.000
660.269; 3682.475;  219.125;    0.000
660.383; 3649.475;  228.125;    0.000
660.497; 3640.475;  243.125;    0.000
660.612; 3622.475;  238.125;    0.000
660.726; 3708.475;  260.125;    0.000
660.840; 3567.475;  239.125;    0.000
660.954; 3543.475;  236.125;    0.000
661.068; 3610.475;  239.125;    0.000
661.183; 3451.475;  245.125;    0.000
661.297; 3452.475;  198.125;    0.000
661.411; 3362.475;  203.125;    0.000
661.525; 3314.475;  244.125;    0.000
661.639; 3345.475;  229.125;    0.000
661.753; 3218.475;  238.125;    0.000
661.867; 3242.475;  237.125;    0.000
661.981; 3291.475;  219.125;    0.000
662.095; 3179.475;  232.125;    0.000
662.209; 3257.475;  236.125;    0.000
662.323; 3145.475;  209.125;    0.000
662.437; 3191.475;  206.125;    0.000
662.551; 3176.475;  217.125;    0.000
662.665; 3242.475;  262.125;    0.000
662.779; 3177.475;  234.125;    0.000
662.893; 3129.475;  222.125;    0.000
663.007; 3072.475;  189.125;    0.000
663.121; 3132.475;  258.125;    0.000
663.235; 3009.475;  191.125;    0.000
663.349; 3103.475;  259.125;    0.000
663.462; 3009.475;  209.125;    0.000
663.576; 3066.475;  244.125;    0.000
663.690; 2952.475;  237.125;    0.000
663.804; 2903.475;  205.125;    0.000
663.917; 2960.475;  207.125;    0.000
664.031; 2901.475;  234.125;    0.000
664.145; 2925.475;  216.125;    0.000
664.258; 2952.475;  202.125;    0.000
664.372; 2924.475;  198.125;    0.000
664.486; 2774.475;  181.125;    0.000
664.599; 2941.475;  229.125;    0.000
664.713; 2887.475;  266.125;    0.000
664.827; 2838.475;  185.125;    0.000
664.940; 2824.475;  225.125;    0.000
665.054; 2845.475;  198.125;    0.000
665.167; 2863.475;  208.125;    0.000
665.281; 2726.475;  231.125;    0.000
665.394; 2745.475;  228.125;    0.000
665.508; 2718.475;  204.125;    0.000
665.621; 2761.475;  263.125;    0.000
665.735; 2852.475;  222.125;    0.000
665.848; 2767.475;  237.125;    0.000
665.961; 2773.475;  180.125;    0.000
666.075; 2791.475;  212.125;    0.000
666.188; 2851.475;  229.125;    0.000
666.301; 2806.475;  247.125;    0.000
666.415; 2750.475;  212.125;    0.000
666.528; 2725.475;  268.125;    0.000
666.641; 2714.475;  210.125;    0.000
666.755; 2668.475;  178.125;    0.000
666.868; 2673.475;  227.125;    0.000
666.981; 2747.475;  250.125;    0.000
667.094; 2709.475;  228.125;    0.000
667.207; 2691.475;  235.125;    0.000
667.321; 2556.475;  171.125;    0.000
667.434; 2589.475;  191.125;    0.000
667.547; 2706.475;  279.125;    0.000
667.660; 2669.475;  210.125;    0.000
667.773; 2730.475;  217.125;    0.000
667.886; 2612.475;  209.125;    0.000
667.999; 2629.475;  239.125;    0.000
668.112; 2695.475;  227.125;    0.000
668.225; 2593.475;  185.125;    0.000
668.338; 2533.475;  222.125;    0.000
668.451; 2576.475;  200.125;    0.000
668.564; 2679.475;  237.125;    0.000
668.677; 2576.475;  207.125;    0.000
668.790; 2571.475;  208.125;    0.000
668.903; 2589.475;  243.125;    0.000
669.016; 2490.475;  190.125;    0.000
669.129; 2524.475;  234.125;    0.000
669.242; 2414.475;  185.125;    0.000
669.354; 2444.475;  224.125;    0.000
669.467; 2621.475;  219.125;    0.000
669.580; 2513.475;  249.125;    0.000
669.693; 2474.475;  187.125;    0.000
669.806; 2555.475;  206.125;    0.000
669.918; 2456.475;  192.125;    0.000
670.031; 2521.475;  235.125;    0.000
670.144; 2449.475;  238.125;    0.000
670.256; 2459.475;  237.125;    0.000
670.369; 2470.475;  237.125;    0.000
670.482; 2472.475;  250.125;    0.000
670.594; 2593.475;  273.125;    0.000
670.707; 2489.475;  223.125;    0.000
670.820; 2452.475;  238.125;    0.000
670.932; 2483.475;  224.125;    0.000
671.045; 2514.475;  219.125;    0.000
671.157; 2461.475;  242.125;    0.000
671.270; 2459.475;  235.125;    0.000
671.382; 2442.475;  213.125;    0.000
671.495; 2426.475;  254.125;    0.000
671.607; 2439.475;  253.125;    0.000
671.720; 2423.475;  169.125;    0.000
671.832; 2478.475;  201.125;    0.000
671.944; 2581.475;  250.125;    0.000
672.057; 2403.475;  187.125;    0.000
672.169; 2466.475;  224.125;    0.000
672.281; 2390.475;  238.125;    0.000
672.394; 2421.475;  250.125;    0.000
672.506; 2419.475;  227.125;    0.000
672.618; 2494.475;  223.125;    0.000
672.731; 2447.475;  210.125;    0.000
672.843; 2391.475;  245.125;    0.000
672.955; 2461.475;  263.125;    0.000
673.067; 2486.475;  239.125;    0.000
673.180; 2363.475;  253.125;    0.000
673.292; 2352.475;  243.125;    0.000
673.404; 2346.475;  226.125;    0.000
673.516; 2363.475;  223.125;    0.000
673.628; 2417.475;  223.125;    0.000
673.740; 2312.475;  216.125;    0.000
673.852; 2432.475;  277.125;    0.000
673.964; 2383.475;  211.125;    0.000
674.076; 2360.475;  241.125;    0.000
674.188; 2361.475;  251.125;    0.000
674.300; 2440.475;  268.125;    0.000
674.412; 2366.475;  260.125;    0.000
674.524; 2368.475;  257.125;    0.000
674.636; 2336.475;  222.125;    0.000
674.748; 2415.475;  227.125;    0.000
674.860; 2430.475;  250.125;    0.000
674.972; 2349.475;  240.125;    0.000
675.084; 2340.475;  262.125;    0.000
675.196; 2390.475;  287.125;    0.000
675.307; 2384.475;  257.125;    0.000
675.419; 2267.475;  231.125;    0.000
675.531; 2361.475;  274.125;    0.000
675.643; 2320.475;  235.125;    0.000
675.755; 2337.475;  275.125;    0.000
675.866; 2284.475;  238.125;    0.000
675.978; 2308.475;  209.125;    0.000
676.090; 2261.475;  239.125;    0.000
676.201; 2322.475;  249.125;    0.000
676.313; 2299.475;  237.125;    0.000
676.425; 2266.475;  263.125;    0.000
676.536; 2280.475;  178.125;    0.000
676.648; 2277.475;  245.125;    0.000
676.759; 2323.475;  244.125;    0.000
676.871; 2242.475;  242.125;    0.000
676.983; 2165.475;  245.125;    0.000
677.094; 2304.475;  209.125;    0.000
677.206; 2253.475;  248.125;    0.000
677.317; 2310.475;  260.125;    0.000
677.429; 2277.475;  237.125;    0.000
677.540; 2239.475;  226.125;    0.000
677.651; 2212.475;  226.125;    0.000
677.763; 2249.475;  194.125;    0.000
677.874; 2215.475;  230.125;    0.000
677.986; 2251.475;  202.125;    0.000
678.097; 2248.475;  229.125;    0.000
678.208; 2238.475;  263.125;    0.000
678.320; 2189.475;  243.125;    0.000
678.431; 2228.475;  229.125;    0.000
678.542; 2212.475;  231.125;    0.000
678.653; 2218.475;  224.125;    0.000
678.765; 2203.475;  255.125;    0.000
678.876; 2207.475;  175.125;    0.000
678.987; 2210.475;  204.125;    0.000
679.098; 2214.475;  227.125;    0.000
679.209; 2265.475;  228.125;    0.000
679.320; 2202.475;  223.125;    0.000
679.432; 2164.475;  219.125;    0.000
679.543; 2127.475;  210.125;    0.000
679.654; 2219.475;  249.125;    0.000
679.765; 2151.475;  222.125;    0.000
679.876; 2237.475;  219.125;    0.000
679.987; 2222.475;  213.125;    0.000
680.098; 2162.475;  237.125;    0.000
680.209; 2132.475;  188.125;    0.000
680.320; 2168.475;  243.125;    0.000
680.431; 2211.475;  227.125;    0.000
680.542; 2213.475;  212.125;    0.000
680.653; 2197.475;  266.125;    0.000
680.763; 2194.475;  198.125;    0.000
680.874; 2176.475;  211.125;    0.000
680.985; 2146.475;  207.125;    0.000
681.096; 2199.475;  244.125;    0.000
681.207; 2111.475;  209.125;    0.000
681.318; 2127.475;  215.125;    0.000
681.428; 2140.475;  199.125;    0.000
681.539; 2157.475;  175.125;    0.000
681.650; 2142.475;  224.125;    0.000
681.760; 2184.475;  216.125;    0.000
681.871; 2134.475;  187.125;    0.000
681.982; 2130.475;  237.125;    0.000
682.093; 2121.475;  213.125;    0.000
682.203; 2195.475;  190.125;    0.000
682.314; 2166.475;  230.125;    0.000
682.424; 2097.475;  223.125;    0.000
682.535; 2189.475;  172.125;    0.000
682.646; 2089.475;  268.125;    0.000
682.756; 2214.475;  249.125;    0.000
682.867; 2129.475;  225.125;    0.000
682.977; 2097.475;  211.125;    0.000
683.088; 2133.475;  238.125;    0.000
683.198; 2105.475;  202.125;    0.000
683.308; 2125.475;  196.125;    0.000
683.419; 2207.475;  230.125;    0.000
683.529; 2125.475;  213.125;    0.000
683.640; 2227.475;  225.125;    0.000
683.750; 2125.475;  203.125;    0.000
683.860; 2143.475;  200.125;    0.000
683.971; 2142.475;  269.125;    0.000
684.081; 2113.475;  204.125;    0.000
684.191; 2140.475;  228.125;    0.000
684.301; 2171.475;  219.125;    0.000
684.412; 2128.475;  222.125;    0.000
684.522; 2133.475;  242.125;    0.000
684.632; 2133.475;  234.125;    0.000
684.742; 2248.475;  240.125;    0.000
684.852; 2092.475;  229.125;    0.000
684.963; 2142.475;  237.125;    0.000
685.073; 2091.475;  205.125;    0.000
685.183; 2123.475;  241.125;    0.000
685.293; 2068.475;  202.125;    0.000
685.403; 2180.475;  232.125;    0.000
685.513; 2151.475;  244.125;    0.000
685.623; 2124.475;  224.125;    0.000
685.733; 2032.475;  236.125;    0.000
685.843; 2106.475;  235.125;    0.000
685.953; 2248.475;  216.125;    0.000
686.063; 2150.475;  214.125;    0.000
686.173; 2094.475;  198.125;    0.000
686.283; 2126.475;  250.125;    0.000
686.393; 2005.475;  227.125;    0.000
686.503; 2084.475;  244.125;    0.000
686.612; 2067.475;  247.125;    0.000
686.722; 2157.475;  265.125;    0.000
686.832; 2101.475;  213.125;    0.000
686.942; 2097.475;  241.125;    0.000
687.052; 2062.475;  238.125;    0.000
687.161; 2128.475;  233.125;    0.000
687.271; 2209.475;  232.125;    0.000
687.381; 2087.475;  220.125;    0.000
687.491; 2115.475;  206.125;    0.000
687.600; 2119.475;  283.125;    0.000
687.710; 2106.475;  212.125;    0.000
687.820; 2079.475;  226.125;    0.000
687.929; 2044.475;  202.125;    0.000
688.039; 2112.475;  225.125;    0.000
688.148; 2072.475;  235.125;    0.000
688.258; 2001.475;  224.125;    0.000
688.367; 2080.475;  239.125;    0.000
688.477; 2062.475;  193.125;    0.000
688.586; 2092.475;  226.125;    0.000
688.696; 2070.475;  185.125;    0.000
688.805; 2127.475;  190.125;    0.000
688.915; 2022.475;  209.125;    0.000
689.024; 2057.475;  214.125;    0.000
689.134; 2080.475;  205.125;    0.000
689.243; 2057.475;  190.125;    0.000
689.352; 2130.475;  233.125;    0.000
689.462; 2063.475;  196.125;    0.000
689.571; 2041.475;  227.125;    0.000
689.680; 2024.475;  206.125;    0.000
689.790; 2073.475;  193.125;    0.000
689.899; 2051.475;  204.125;    0.000
690.008; 1998.475;  228.125;    0.000
690.117; 2117.475;  207.125;    0.000
690.227; 2092.475;  231.125;    0.000
690.336; 2031.475;  222.125;    0.000
690.445; 2014.475;  198.125;    0.000
690.554; 2011.475;  202.125;    0.000
690.663; 2069.475;  217.125;    0.000
690.772; 2060.475;  213.125;    0.000
690.881; 2070.475;  225.125;    0.000
690.990; 2101.475;  217.125;    0.000
691.099; 2002.475;  205.125;    0.000
691.209; 2069.475;  220.125;    0.000
691.318; 1974.475;  216.125;    0.000
691.427; 1987.475;  188.125;    0.000
691.536; 2051.475;  224.125;    0.000
691.644; 2003.475;  212.125;    0.000
691.753; 2023.475;  216.125;    0.000
691.862; 2091.475;  250.125;    0.000
691.971; 2028.475;  210.125;    0.000
692.080; 2094.475;  232.125;    0.000
692.189; 2074.475;  218.125;    0.000
692.298; 2070.475;  220.125;    0.000
692.406; 2038.475;  261.125;    0.000
692.515; 2116.475;  253.125;    0.000
692.624; 2031.475;  224.125;    0.000
692.733; 1997.475;  209.125;    0.000
692.842; 1999.475;  214.125;    0.000
692.950; 2063.475;  206.125;    0.000
693.059; 1994.475;  180.125;    0.000
693.168; 2110.475;  220.125;    0.000
693.276; 2053.475;  196.125;    0.000
693.385; 2032.475;  203.125;    0.000
693.494; 2054.475;  263.125;    0.000
693.602; 1995.475;  222.125;    0.000
693.711; 2043.475;  178.125;    0.000
693.819; 2025.475;  230.125;    0.000
693.928; 1966.475;  187.125;    0.000
694.036; 2001.475;  219.125;    0.000
694.145; 2036.475;  223.125;    0.000
694.253; 2072.475;  241.125;    0.000
694.362; 2047.475;  229.125;    0.000
694.470; 2057.475;  223.125;    0.000
694.579; 2077.475;  195.125;    0.000
694.687; 2042.475;  257.125;    0.000
694.795; 2004.475;  230.125;    0.000
694.904; 2050.475;  196.125;    0.000
695.012; 2065.475;  247.125;    0.000
695.120; 2043.475;  215.125;    0.000
695.229; 2063.475;  244.125;    0.000
695.337; 1988.475;  197.125;    0.000
695.445; 2111.475;  270.125;    0.000
695.553; 2013.475;  241.125;    0.000
695.662; 2082.475;  249.125;    0.000
695.770; 2074.475;  244.125;    0.000
695.878; 2036.475;  236.125;    0.000
695.986; 2134.475;  253.125;    0.000
696.094; 2055.475;  242.125;    0.000
696.202; 1971.475;  174.125;    0.000
696.310; 2085.475;  230.125;    0.000
696.419; 1958.475;  218.125;    0.000
696.527; 2033.475;  226.125;    0.000
696.635; 2030.475;  217.125;    0.000
696.743; 2090.475;  221.125;    0.000
696.851; 2097.475;  259.125;    0.000
696.959; 2061.475;  245.125;    0.000
697.067; 2017.475;  235.125;    0.000
697.174; 2025.475;  238.125;    0.000
697.282; 2055.475;  208.125;    0.000
697.390; 2079.475;  265.125;    0.000
697.498; 1919.475;  202.125;    0.000
697.606; 1973.475;  219.125;    0.000
697.714; 2045.475;  245.125;    0.000
697.822; 2000.475;  222.125;    0.000
697.929; 2026.475;  194.125;    0.000
698.037; 1998.475;  223.125;    0.000
698.145; 1965.475;  213.125;    0.000
698.253; 2061.475;  234.125;    0.000
698.360; 2044.475;  211.125;    0.000
698.468; 1977.475;  241.125;    0.000
698.576; 2027.475;  249.125;    0.000
698.683; 2003.475;  268.125;    0.000
698.791; 2001.475;  223.125;    0.000
698.899; 1998.475;  251.125;    0.000
699.006; 1983.475;  216.125;    0.000
699.114; 1996.475;  256.125;    0.000
699.221; 1980.475;  226.125;    0.000
699.329; 1991.475;  255.125;    0.000
699.436; 2007.475;  213.125;    0.000
699.544; 1996.475;  258.125;    0.000
699.651; 1958.475;  214.125;    0.000
699.759; 2038.475;  229.125;    0.000
699.866; 1982.475;  239.125;    0.000
699.974; 2022.475;  224.125;    0.000
700.081; 2006.475;  227.125;    0.000
700.188; 1987.475;  267.125;    0.000
700.296; 2039.475;  222.125;    0.000
700.403; 2023.475;  225.125;    0.000
700.510; 1969.475;  248.125;    0.000
700.618; 2007.475;  223.125;    0.000
700.725; 1882.475;  243.125;    0.000
700.832; 1980.475;  239.125;    0.000
700.940; 1974.475;  284.125;    0.000
701.047; 2027.475;  216.125;    0.000
701.154; 1932.475;  249.125;    0.000
701.261; 1941.475;  229.125;    0.000
701.368; 2032.475;  247.125;    0.000
701.475; 2021.475;  208.125;    0.000
701.582; 1982.475;  262.125;    0.000
701.690; 2028.475;  224.125;    0.000
701.797; 2015.475;  294.125;    0.000
701.904; 2052.475;  303.125;    0.000
702.011; 1985.475;  278.125;    0.000
702.118; 2021.475;  279.125;    0.000
702.225; 2050.475;  342.125;    0.000
702.332; 1960.475;  281.125;    0.000
702.439; 2008.475;  313.125;    0.000
702.546; 2037.475;  295.125;    0.000
702.652; 2001.475;  293.125;    0.000
702.759; 2045.475;  333.125;    0.000
702.866; 1974.475;  272.125;    0.000
702.973; 2064.475;  310.125;    0.000
703.080; 2005.475;  313.125;    0.000
703.187; 1993.475;  316.125;    0.000
703.294; 2037.475;  328.125;    0.000
703.400; 1813.475;  312.125;    0.000
703.507;  492.475;  349.125;    0.000
703.614;  351.475;  298.125;    0.000
703.720;  315.475;  300.125;    0.000
703.827;  317.475;  346.125;    0.000
703.934;  331.475;  308.125;    0.000
704.040;  260.475;  300.125;    0.000
704.147;  282.475;  317.125;    0.000
704.254;  330.475;  350.125;    0.000
704.360;  329.475;  285.125;    0.000
704.467;  330.475;  334.125;    0.000
704.573;  342.475;  330.125;    0.000
704.680;  337.475;  312.125;    0.000
704.786;  321.475;  305.125;    0.000
704.893;  295.475;  330.125;    0.000
704.999;  297.475;  315.125;    0.000
705.106;  353.475;  327.125;    0.000

