
Integration time [ms]:   0.300
Averaging Nr. [scans]: 1
Smoothing Nr. [pixels]: 0
Data measured with spectrometer [name]: VIS
Wave   ;Sample   ;Dark     ;Reference
[nm]   ;[counts] ;[counts] ;[counts] 

450.961;  202.075;  204.125;    0.000
451.100;  230.075;  219.125;    0.000
451.239;  192.075;  196.125;    0.000
451.377;  222.075;  252.125;    0.000
451.516;  215.075;  215.125;    0.000
451.655;  209.075;  214.125;    0.000
451.794;  207.075;  241.125;    0.000
451.932;  228.075;  242.125;    0.000
452.071;  201.075;  204.125;    0.000
452.210;  210.075;  243.125;    0.000
452.348;  211.075;  241.125;    0.000
452.487;  210.075;  246.125;    0.000
452.626;  210.075;  235.125;    0.000
452.764;  213.075;  230.125;    0.000
452.903;  235.075;  199.125;    0.000
453.042;  294.075;  178.125;    0.000
453.180; 2747.075;  291.125;    0.000
453.319; 2871.075;  335.125;    0.000
453.458; 2967.075;  245.125;    0.000
453.596; 2958.075;  325.125;    0.000
453.735; 3007.075;  291.125;    0.000
453.873; 3018.075;  295.125;    0.000
454.012; 2990.075;  291.125;    0.000
454.150; 3126.075;  292.125;    0.000
454.289; 3037.075;  328.125;    0.000
454.427; 3092.075;  295.125;    0.000
454.566; 3033.075;  295.125;    0.000
454.704; 3169.075;  301.125;    0.000
454.843; 3169.075;  278.125;    0.000
454.981; 3199.075;  306.125;    0.000
455.120; 3236.075;  237.125;    0.000
455.258; 3273.075;  325.125;    0.000
455.397; 3379.075;  276.125;    0.000
455.535; 3447.075;  269.125;    0.000
455.674; 3364.075;  259.125;    0.000
455.812; 3406.075;  264.125;    0.000
455.951; 3525.075;  286.125;    0.000
456.089; 3380.075;  302.125;    0.000
456.227; 3522.075;  230.125;    0.000
456.366; 3632.075;  303.125;    0.000
456.504; 3697.075;  316.125;    0.000
456.642; 3525.075;  309.125;    0.000
456.781; 3692.075;  299.125;    0.000
456.919; 3665.075;  281.125;    0.000
457.057; 3740.075;  253.125;    0.000
457.196; 3745.075;  268.125;    0.000
457.334; 3799.075;  292.125;    0.000
457.472; 3914.075;  287.125;    0.000
457.610; 3915.075;  300.125;    0.000
457.749; 3980.075;  342.125;    0.000
457.887; 3993.075;  310.125;    0.000
458.025; 4138.075;  310.125;    0.000
458.163; 4097.075;  323.125;    0.000
458.301; 4248.075;  336.125;    0.000
458.440; 4272.075;  297.125;    0.000
458.578; 4431.075;  295.125;    0.000
458.716; 4361.075;  309.125;    0.000
458.854; 4437.075;  335.125;    0.000
458.992; 4350.075;  244.125;    0.000
459.130; 4464.075;  370.125;    0.000
459.269; 4572.075;  313.125;    0.000
459.407; 4609.075;  370.125;    0.000
459.545; 4597.075;  341.125;    0.000
459.683; 4607.075;  336.125;    0.000
459.821; 4648.075;  311.125;    0.000
459.959; 4716.075;  330.125;    0.000
460.097; 4849.075;  355.125;    0.000
460.235; 4801.075;  348.125;    0.000
460.373; 4902.075;  338.125;    0.000
460.511; 4862.075;  361.125;    0.000
460.649; 4798.075;  295.125;    0.000
460.787; 4939.075;  325.125;    0.000
460.925; 4879.075;  266.125;    0.000
461.063; 5069.075;  365.125;    0.000
461.201; 5017.075;  334.125;    0.000
461.339; 5045.075;  341.125;    0.000
461.477; 5114.075;  304.125;    0.000
461.615; 5178.075;  311.125;    0.000
461.753; 5193.075;  342.125;    0.000
461.891; 5253.075;  333.125;    0.000
462.029; 5373.075;  336.125;    0.000
462.166; 5249.075;  272.125;    0.000
462.304; 5421.075;  313.125;    0.000
462.442; 5495.075;  313.125;    0.000
462.580; 5505.075;  328.125;    0.000
462.718; 5651.075;  358.125;    0.000
462.856; 5493.075;  302.125;    0.000
462.993; 5549.075;  360.125;    0.000
463.131; 5514.075;  280.125;    0.000
463.269; 5401.075;  312.125;    0.000
463.407; 5462.075;  263.125;    0.000
463.545; 5443.075;  253.125;    0.000
463.682; 5435.075;  296.125;    0.000
463.820; 5677.075;  308.125;    0.000
463.958; 5969.075;  300.125;    0.000
464.095; 6015.075;  289.125;    0.000
464.233; 6006.075;  340.125;    0.000
464.371; 5990.075;  300.125;    0.000
464.509; 5795.075;  266.125;    0.000
464.646; 5887.075;  294.125;    0.000
464.784; 5852.075;  284.125;    0.000
464.921; 5899.075;  350.125;    0.000
465.059; 5731.075;  256.125;    0.000
465.197; 5732.075;  289.125;    0.000
465.334; 5604.075;  287.125;    0.000
465.472; 5514.075;  322.125;    0.000
465.609; 5536.075;  311.125;    0.000
465.747; 5526.075;  336.125;    0.000
465.885; 5478.075;  308.125;    0.000
466.022; 5456.075;  299.125;    0.000
466.160; 5449.075;  293.125;    0.000
466.297; 5436.075;  317.125;    0.000
466.435; 5283.075;  336.125;    0.000
466.572; 5337.075;  282.125;    0.000
466.710; 5278.075;  299.125;    0.000
466.847; 5403.075;  288.125;    0.000
466.985; 5318.075;  274.125;    0.000
467.122; 5276.075;  302.125;    0.000
467.260; 5163.075;  271.125;    0.000
467.397; 5351.075;  263.125;    0.000
467.534; 5316.075;  320.125;    0.000
467.672; 5253.075;  309.125;    0.000
467.809; 5258.075;  275.125;    0.000
467.947; 5304.075;  319.125;    0.000
468.084; 5300.075;  309.125;    0.000
468.221; 5348.075;  302.125;    0.000
468.359; 5243.075;  286.125;    0.000
468.496; 5273.075;  293.125;    0.000
468.633; 5244.075;  273.125;    0.000
468.771; 5250.075;  296.125;    0.000
468.908; 5176.075;  277.125;    0.000
469.045; 5372.075;  303.125;    0.000
469.183; 5427.075;  314.125;    0.000
469.320; 5390.075;  278.125;    0.000
469.457; 5439.075;  308.125;    0.000
469.594; 5464.075;  272.125;    0.000
469.732; 5498.075;  321.125;    0.000
469.869; 5628.075;  299.125;    0.000
470.006; 5555.075;  267.125;    0.000
470.143; 5474.075;  298.125;    0.000
470.280; 5656.075;  272.125;    0.000
470.417; 5645.075;  314.125;    0.000
470.555; 5764.075;  305.125;    0.000
470.692; 5694.075;  309.125;    0.000
470.829; 5717.075;  311.125;    0.000
470.966; 5680.075;  260.125;    0.000
471.103; 5541.075;  267.125;    0.000
471.240; 5594.075;  290.125;    0.000
471.377; 5627.075;  290.125;    0.000
471.514; 5529.075;  295.125;    0.000
471.651; 5524.075;  300.125;    0.000
471.789; 5413.075;  281.125;    0.000
471.926; 5485.075;  291.125;    0.000
472.063; 5404.075;  305.125;    0.000
472.200; 5409.075;  285.125;    0.000
472.337; 5446.075;  288.125;    0.000
472.474; 5459.075;  276.125;    0.000
472.611; 5395.075;  309.125;    0.000
472.748; 5352.075;  280.125;    0.000
472.884; 5431.075;  300.125;    0.000
473.021; 5403.075;  280.125;    0.000
473.158; 5436.075;  304.125;    0.000
473.295; 5468.075;  308.125;    0.000
473.432; 5258.075;  294.125;    0.000
473.569; 5238.075;  288.125;    0.000
473.706; 5302.075;  254.125;    0.000
473.843; 5296.075;  282.125;    0.000
473.980; 5292.075;  286.125;    0.000
474.117; 5295.075;  257.125;    0.000
474.253; 5355.075;  298.125;    0.000
474.390; 5255.075;  253.125;    0.000
474.527; 5320.075;  271.125;    0.000
474.664; 5422.075;  257.125;    0.000
474.801; 5474.075;  296.125;    0.000
474.937; 5472.075;  263.125;    0.000
475.074; 5468.075;  262.125;    0.000
475.211; 5624.075;  299.125;    0.000
475.348; 5575.075;  308.125;    0.000
475.484; 5343.075;  278.125;    0.000
475.621; 5466.075;  287.125;    0.000
475.758; 5546.075;  231.125;    0.000
475.894; 5532.075;  295.125;    0.000
476.031; 5384.075;  290.125;    0.000
476.168; 5556.075;  287.125;    0.000
476.304; 5531.075;  331.125;    0.000
476.441; 5409.075;  301.125;    0.000
476.578; 5518.075;  263.125;    0.000
476.714; 5502.075;  261.125;    0.000
476.851; 5582.075;  247.125;    0.000
476.987; 5606.075;  297.125;    0.000
477.124; 5613.075;  296.125;    0.000
477.261; 5579.075;  299.125;    0.000
477.397; 5607.075;  292.125;    0.000
477.534; 5659.075;  289.125;    0.000
477.670; 5789.075;  268.125;    0.000
477.807; 5789.075;  234.125;    0.000
477.943; 5844.075;  279.125;    0.000
478.080; 5866.075;  276.125;    0.000
478.216; 5710.075;  248.125;    0.000
478.353; 5823.075;  296.125;    0.000
478.489; 5919.075;  267.125;    0.000
478.626; 5934.075;  243.125;    0.000
478.762; 6093.075;  252.125;    0.000
478.898; 6071.075;  266.125;    0.000
479.035; 5966.075;  290.125;    0.000
479.171; 5938.075;  247.125;    0.000
479.308; 5927.075;  283.125;    0.000
479.444; 6009.075;  244.125;    0.000
479.580; 5918.075;  259.125;    0.000
479.717; 5909.075;  301.125;    0.000
479.853; 6095.075;  257.125;    0.000
479.989; 6196.075;  249.125;    0.000
480.126; 6095.075;  218.125;    0.000
480.262; 6157.075;  275.125;    0.000
480.398; 6117.075;  246.125;    0.000
480.535; 6078.075;  246.125;    0.000
480.671; 6106.075;  272.125;    0.000
480.807; 6178.075;  281.125;    0.000
480.943; 6183.075;  233.125;    0.000
481.080; 6083.075;  303.125;    0.000
481.216; 6031.075;  229.125;    0.000
481.352; 6083.075;  240.125;    0.000
481.488; 6117.075;  284.125;    0.000
481.624; 6096.075;  236.125;    0.000
481.760; 6042.075;  255.125;    0.000
481.897; 5876.075;  206.125;    0.000
482.033; 5968.075;  254.125;    0.000
482.169; 5891.075;  268.125;    0.000
482.305; 5864.075;  214.125;    0.000
482.441; 5991.075;  225.125;    0.000
482.577; 5960.075;  251.125;    0.000
482.713; 5846.075;  221.125;    0.000
482.849; 5902.075;  218.125;    0.000
482.985; 6010.075;  245.125;    0.000
483.121; 5818.075;  224.125;    0.000
483.258; 6042.075;  249.125;    0.000
483.394; 5881.075;  224.125;    0.000
483.530; 5941.075;  247.125;    0.000
483.665; 5975.075;  256.125;    0.000
483.801; 5911.075;  220.125;    0.000
483.937; 6001.075;  200.125;    0.000
484.073; 6001.075;  272.125;    0.000
484.209; 6093.075;  243.125;    0.000
484.345; 6120.075;  274.125;    0.000
484.481; 6078.075;  264.125;    0.000
484.617; 6151.075;  270.125;    0.000
484.753; 6129.075;  244.125;    0.000
484.889; 6141.075;  293.125;    0.000
485.025; 5920.075;  257.125;    0.000
485.161; 5937.075;  264.125;    0.000
485.296; 6144.075;  247.125;    0.000
485.432; 6067.075;  240.125;    0.000
485.568; 6151.075;  240.125;    0.000
485.704; 6186.075;  232.125;    0.000
485.840; 6033.075;  280.125;    0.000
485.975; 6138.075;  253.125;    0.000
486.111; 6060.075;  250.125;    0.000
486.247; 6060.075;  272.125;    0.000
486.383; 6083.075;  258.125;    0.000
486.518; 6139.075;  256.125;    0.000
486.654; 6233.075;  250.125;    0.000
486.790; 6030.075;  259.125;    0.000
486.926; 6152.075;  256.125;    0.000
487.061; 5994.075;  267.125;    0.000
487.197; 6130.075;  224.125;    0.000
487.333; 6149.075;  265.125;    0.000
487.468; 6167.075;  223.125;    0.000
487.604; 6010.075;  298.125;    0.000
487.740; 6133.075;  261.125;    0.000
487.875; 6207.075;  278.125;    0.000
488.011; 6227.075;  292.125;    0.000
488.146; 6060.075;  239.125;    0.000
488.282; 6153.075;  265.125;    0.000
488.417; 6203.075;  286.125;    0.000
488.553; 6118.075;  271.125;    0.000
488.688; 6130.075;  252.125;    0.000
488.824; 6262.075;  239.125;    0.000
488.960; 6245.075;  266.125;    0.000
489.095; 6278.075;  229.125;    0.000
489.230; 6337.075;  247.125;    0.000
489.366; 6309.075;  260.125;    0.000
489.501; 6411.075;  257.125;    0.000
489.637; 6265.075;  233.125;    0.000
489.772; 6277.075;  254.125;    0.000
489.908; 6187.075;  235.125;    0.000
490.043; 6411.075;  266.125;    0.000
490.178; 6232.075;  228.125;    0.000
490.314; 6433.075;  310.125;    0.000
490.449; 6313.075;  251.125;    0.000
490.585; 6280.075;  221.125;    0.000
490.720; 6348.075;  203.125;    0.000
490.855; 6276.075;  266.125;    0.000
490.991; 6237.075;  249.125;    0.000
491.126; 6417.075;  313.125;    0.000
491.261; 6302.075;  284.125;    0.000
491.396; 6248.075;  225.125;    0.000
491.532; 6270.075;  227.125;    0.000
491.667; 6363.075;  210.125;    0.000
491.802; 6341.075;  214.125;    0.000
491.937; 6411.075;  246.125;    0.000
492.073; 6504.075;  250.125;    0.000
492.208; 6295.075;  267.125;    0.000
492.343; 6376.075;  245.125;    0.000
492.478; 6557.075;  271.125;    0.000
492.613; 6700.075;  253.125;    0.000
492.749; 6444.075;  249.125;    0.000
492.884; 6376.075;  217.125;    0.000
493.019; 6430.075;  244.125;    0.000
493.154; 6661.075;  265.125;    0.000
493.289; 6338.075;  266.125;    0.000
493.424; 6558.075;  226.125;    0.000
493.559; 6444.075;  222.125;    0.000
493.694; 6413.075;  218.125;    0.000
493.829; 6425.075;  246.125;    0.000
493.964; 6485.075;  243.125;    0.000
494.099; 6365.075;  269.125;    0.000
494.234; 6370.075;  249.125;    0.000
494.369; 6429.075;  279.125;    0.000
494.504; 6455.075;  261.125;    0.000
494.639; 6533.075;  289.125;    0.000
494.774; 6409.075;  252.125;    0.000
494.909; 6417.075;  250.125;    0.000
495.044; 6419.075;  207.125;    0.000
495.179; 6362.075;  266.125;    0.000
495.314; 6359.075;  228.125;    0.000
495.449; 6525.075;  262.125;    0.000
495.584; 6459.075;  281.125;    0.000
495.719; 6512.075;  251.125;    0.000
495.854; 6593.075;  237.125;    0.000
495.988; 6546.075;  238.125;    0.000
496.123; 6501.075;  255.125;    0.000
496.258; 6506.075;  264.125;    0.000
496.393; 6596.075;  253.125;    0.000
496.528; 6805.075;  244.125;    0.000
496.663; 6879.075;  267.125;    0.000
496.797; 6795.075;  271.125;    0.000
496.932; 6829.075;  262.125;    0.000
497.067; 7040.075;  260.125;    0.000
497.202; 7091.075;  264.125;    0.000
497.336; 7200.075;  243.125;    0.000
497.471; 7134.075;  251.125;    0.000
497.606; 7371.075;  219.125;    0.000
497.740; 7488.075;  264.125;    0.000
497.875; 7770.075;  252.125;    0.000
498.010; 7770.075;  241.125;    0.000
498.144; 8015.075;  261.125;    0.000
498.279; 8106.075;  221.125;    0.000
498.414; 8182.075;  246.125;    0.000
498.548; 8309.075;  212.125;    0.000
498.683; 8291.075;  260.125;    0.000
498.817; 8412.075;  244.125;    0.000
498.952; 8425.075;  252.125;    0.000
499.087; 8761.075;  251.125;    0.000
499.221; 8751.075;  282.125;    0.000
499.356; 8938.075;  264.125;    0.000
499.490; 9212.075;  280.125;    0.000
499.625; 9213.075;  256.125;    0.000
499.759; 9655.075;  253.125;    0.000
499.894; 9860.075;  261.125;    0.000
500.028; 9963.075;  304.125;    0.000
500.162;10296.075;  272.125;    0.000
500.297;10261.075;  274.125;    0.000
500.431;10458.075;  320.125;    0.000
500.566;10348.075;  268.125;    0.000
500.700;10260.075;  280.125;    0.000
500.835;10160.075;  288.125;    0.000
500.969; 9765.075;  253.125;    0.000
501.103; 9511.075;  234.125;    0.000
501.238; 9408.075;  302.125;    0.000
501.372; 9016.075;  292.125;    0.000
501.506; 8730.075;  222.125;    0.000
501.641; 8633.075;  274.125;    0.000
501.775; 8322.075;  245.125;    0.000
501.909; 8264.075;  283.125;    0.000
502.043; 7994.075;  252.125;    0.000
502.178; 7923.075;  293.125;    0.000
502.312; 7743.075;  223.125;    0.000
502.446; 7537.075;  292.125;    0.000
502.580; 7410.075;  253.125;    0.000
502.715; 7501.075;  282.125;    0.000
502.849; 7256.075;  258.125;    0.000
502.983; 7134.075;  267.125;    0.000
503.117; 7179.075;  226.125;    0.000
503.251; 6961.075;  260.125;    0.000
503.385; 6973.075;  291.125;    0.000
503.520; 6780.075;  279.125;    0.000
503.654; 6701.075;  229.125;    0.000
503.788; 6638.075;  259.125;    0.000
503.922; 6633.075;  246.125;    0.000
504.056; 6563.075;  269.125;    0.000
504.190; 6496.075;  265.125;    0.000
504.324; 6417.075;  298.125;    0.000
504.458; 6521.075;  235.125;    0.000
504.592; 6497.075;  275.125;    0.000
504.726; 6454.075;  226.125;    0.000
504.860; 6266.075;  298.125;    0.000
504.994; 6099.075;  253.125;    0.000
505.128; 6033.075;  283.125;    0.000
505.262; 5967.075;  255.125;    0.000
505.396; 5903.075;  219.125;    0.000
505.530; 5805.075;  279.125;    0.000
505.664; 5626.075;  306.125;    0.000
505.798; 5757.075;  297.125;    0.000
505.932; 5568.075;  273.125;    0.000
506.066; 5642.075;  271.125;    0.000
506.199; 5641.075;  273.125;    0.000
506.333; 5555.075;  227.125;    0.000
506.467; 5451.075;  302.125;    0.000
506.601; 5296.075;  254.125;    0.000
506.735; 5459.075;  299.125;    0.000
506.869; 5337.075;  278.125;    0.000
507.002; 5242.075;  259.125;    0.000
507.136; 5450.075;  285.125;    0.000
507.270; 5400.075;  255.125;    0.000
507.404; 5166.075;  273.125;    0.000
507.537; 5137.075;  245.125;    0.000
507.671; 5183.075;  251.125;    0.000
507.805; 5215.075;  286.125;    0.000
507.939; 5130.075;  261.125;    0.000
508.072; 5071.075;  298.125;    0.000
508.206; 5093.075;  238.125;    0.000
508.340; 5116.075;  289.125;    0.000
508.473; 4984.075;  255.125;    0.000
508.607; 5237.075;  266.125;    0.000
508.740; 5098.075;  253.125;    0.000
508.874; 5061.075;  233.125;    0.000
509.008; 5028.075;  274.125;    0.000
509.141; 4960.075;  235.125;    0.000
509.275; 5075.075;  225.125;    0.000
509.408; 5021.075;  254.125;    0.000
509.542; 4881.075;  244.125;    0.000
509.675; 5076.075;  263.125;    0.000
509.809; 4962.075;  271.125;    0.000
509.942; 4990.075;  246.125;    0.000
510.076; 4885.075;  221.125;    0.000
510.209; 4873.075;  270.125;    0.000
510.343; 4832.075;  265.125;    0.000
510.476; 4915.075;  291.125;    0.000
510.610; 4711.075;  251.125;    0.000
510.743; 4765.075;  304.125;    0.000
510.877; 4743.075;  259.125;    0.000
511.010; 4748.075;  274.125;    0.000
511.143; 4794.075;  255.125;    0.000
511.277; 4802.075;  267.125;    0.000
511.410; 4731.075;  270.125;    0.000
511.543; 4740.075;  231.125;    0.000
511.677; 4730.075;  275.125;    0.000
511.810; 4773.075;  265.125;    0.000
511.943; 4789.075;  231.125;    0.000
512.077; 4770.075;  225.125;    0.000
512.210; 4814.075;  235.125;    0.000
512.343; 4645.075;  251.125;    0.000
512.476; 4717.075;  260.125;    0.000
512.610; 4755.075;  289.125;    0.000
512.743; 4767.075;  270.125;    0.000
512.876; 4735.075;  289.125;    0.000
513.009; 4765.075;  293.125;    0.000
513.142; 4771.075;  282.125;    0.000
513.276; 4750.075;  244.125;    0.000
513.409; 4646.075;  277.125;    0.000
513.542; 4618.075;  254.125;    0.000
513.675; 4689.075;  258.125;    0.000
513.808; 4720.075;  243.125;    0.000
513.941; 4731.075;  274.125;    0.000
514.074; 4779.075;  296.125;    0.000
514.207; 4601.075;  267.125;    0.000
514.340; 4671.075;  283.125;    0.000
514.474; 4770.075;  255.125;    0.000
514.607; 4712.075;  291.125;    0.000
514.740; 4846.075;  296.125;    0.000
514.873; 4901.075;  275.125;    0.000
515.006; 4892.075;  313.125;    0.000
515.139; 4815.075;  253.125;    0.000
515.272; 4988.075;  263.125;    0.000
515.404; 4967.075;  258.125;    0.000
515.537; 5097.075;  285.125;    0.000
515.670; 5002.075;  286.125;    0.000
515.803; 4934.075;  266.125;    0.000
515.936; 4950.075;  251.125;    0.000
516.069; 5024.075;  231.125;    0.000
516.202; 5041.075;  278.125;    0.000
516.335; 5239.075;  295.125;    0.000
516.468; 5229.075;  239.125;    0.000
516.600; 5787.075;  229.125;    0.000
516.733; 6790.075;  301.125;    0.000
516.866; 6877.075;  287.125;    0.000
516.999; 6574.075;  265.125;    0.000
517.132; 7561.075;  291.125;    0.000
517.264; 9956.075;  262.125;    0.000
517.397; 9909.075;  292.125;    0.000
517.530; 7773.075;  299.125;    0.000
517.663; 6817.075;  268.125;    0.000
517.795; 6443.075;  323.125;    0.000
517.928; 6220.075;  281.125;    0.000
518.061; 6221.075;  242.125;    0.000
518.193; 7493.075;  279.125;    0.000
518.326;11347.075;  288.125;    0.000
518.459;12422.075;  251.125;    0.000
518.591; 9578.075;  314.125;    0.000
518.724; 7365.075;  279.125;    0.000
518.857; 6559.075;  245.125;    0.000
518.989; 6250.075;  290.125;    0.000
519.122; 5715.075;  319.125;    0.000
519.254; 5577.075;  295.125;    0.000
519.387; 5361.075;  271.125;    0.000
519.519; 5338.075;  312.125;    0.000
519.652; 5145.075;  289.125;    0.000
519.784; 5032.075;  311.125;    0.000
519.917; 5125.075;  283.125;    0.000
520.049; 4923.075;  281.125;    0.000
520.182; 4817.075;  242.125;    0.000
520.314; 4935.075;  310.125;    0.000
520.447; 4800.075;  215.125;    0.000
520.579; 4785.075;  277.125;    0.000
520.712; 4726.075;  224.125;    0.000
520.844; 4809.075;  293.125;    0.000
520.976; 4664.075;  281.125;    0.000
521.109; 4602.075;  279.125;    0.000
521.241; 4663.075;  318.125;    0.000
521.373; 4635.075;  242.125;    0.000
521.506; 4527.075;  246.125;    0.000
521.638; 4486.075;  312.125;    0.000
521.770; 4569.075;  257.125;    0.000
521.903; 4552.075;  295.125;    0.000
522.035; 4442.075;  283.125;    0.000
522.167; 4390.075;  281.125;    0.000
522.300; 4287.075;  262.125;    0.000
522.432; 4205.075;  272.125;    0.000
522.564; 4288.075;  277.125;    0.000
522.696; 4297.075;  295.125;    0.000
522.828; 4239.075;  284.125;    0.000
522.961; 4214.075;  295.125;    0.000
523.093; 4213.075;  282.125;    0.000
523.225; 4178.075;  270.125;    0.000
523.357; 4071.075;  285.125;    0.000
523.489; 4136.075;  292.125;    0.000
523.621; 4045.075;  285.125;    0.000
523.753; 4061.075;  273.125;    0.000
523.885; 4137.075;  271.125;    0.000
524.018; 4072.075;  276.125;    0.000
524.150; 4038.075;  320.125;    0.000
524.282; 3995.075;  304.125;    0.000
524.414; 4089.075;  302.125;    0.000
524.546; 3909.075;  305.125;    0.000
524.678; 4034.075;  264.125;    0.000
524.810; 3911.075;  258.125;    0.000
524.942; 3996.075;  252.125;    0.000
525.074; 3887.075;  275.125;    0.000
525.206; 3959.075;  286.125;    0.000
525.338; 3963.075;  280.125;    0.000
525.469; 3866.075;  267.125;    0.000
525.601; 3918.075;  266.125;    0.000
525.733; 3834.075;  283.125;    0.000
525.865; 3878.075;  273.125;    0.000
525.997; 3904.075;  286.125;    0.000
526.129; 3721.075;  249.125;    0.000
526.261; 3777.075;  233.125;    0.000
526.393; 3857.075;  257.125;    0.000
526.524; 3763.075;  184.125;    0.000
526.656; 3862.075;  259.125;    0.000
526.788; 3873.075;  268.125;    0.000
526.920; 3845.075;  262.125;    0.000
527.052; 3783.075;  250.125;    0.000
527.183; 3782.075;  264.125;    0.000
527.315; 3801.075;  301.125;    0.000
527.447; 3795.075;  262.125;    0.000
527.578; 3789.075;  267.125;    0.000
527.710; 3722.075;  299.125;    0.000
527.842; 3745.075;  266.125;    0.000
527.973; 3881.075;  240.125;    0.000
528.105; 3764.075;  275.125;    0.000
528.237; 3871.075;  239.125;    0.000
528.368; 3673.075;  275.125;    0.000
528.500; 3841.075;  271.125;    0.000
528.632; 3689.075;  252.125;    0.000
528.763; 3700.075;  253.125;    0.000
528.895; 3694.075;  259.125;    0.000
529.026; 3739.075;  209.125;    0.000
529.158; 3719.075;  291.125;    0.000
529.289; 3737.075;  280.125;    0.000
529.421; 3750.075;  274.125;    0.000
529.552; 3791.075;  253.125;    0.000
529.684; 3892.075;  310.125;    0.000
529.815; 3726.075;  305.125;    0.000
529.947; 3793.075;  234.125;    0.000
530.078; 3779.075;  259.125;    0.000
530.210; 3816.075;  264.125;    0.000
530.341; 3688.075;  267.125;    0.000
530.472; 3787.075;  232.125;    0.000
530.604; 3787.075;  293.125;    0.000
530.735; 3778.075;  275.125;    0.000
530.867; 3840.075;  280.125;    0.000
530.998; 3870.075;  295.125;    0.000
531.129; 3814.075;  274.125;    0.000
531.260; 3820.075;  272.125;    0.000
531.392; 3789.075;  275.125;    0.000
531.523; 3910.075;  244.125;    0.000
531.654; 3841.075;  289.125;    0.000
531.786; 3931.075;  259.125;    0.000
531.917; 4010.075;  286.125;    0.000
532.048; 3867.075;  293.125;    0.000
532.179; 3911.075;  288.125;    0.000
532.311; 3933.075;  296.125;    0.000
532.442; 3764.075;  277.125;    0.000
532.573; 3885.075;  273.125;    0.000
532.704; 3808.075;  308.125;    0.000
532.835; 3898.075;  308.125;    0.000
532.966; 3811.075;  274.125;    0.000
533.097; 3762.075;  310.125;    0.000
533.229; 3781.075;  294.125;    0.000
533.360; 3848.075;  324.125;    0.000
533.491; 3791.075;  278.125;    0.000
533.622; 3818.075;  319.125;    0.000
533.753; 3763.075;  303.125;    0.000
533.884; 3789.075;  269.125;    0.000
534.015; 3820.075;  266.125;    0.000
534.146; 3896.075;  283.125;    0.000
534.277; 3875.075;  299.125;    0.000
534.408; 3764.075;  265.125;    0.000
534.539; 3941.075;  310.125;    0.000
534.670; 3770.075;  319.125;    0.000
534.801; 3808.075;  281.125;    0.000
534.932; 3750.075;  239.125;    0.000
535.063; 3640.075;  276.125;    0.000
535.194; 3759.075;  361.125;    0.000
535.324; 3807.075;  283.125;    0.000
535.455; 3638.075;  282.125;    0.000
535.586; 3737.075;  331.125;    0.000
535.717; 3646.075;  262.125;    0.000
535.848; 3626.075;  308.125;    0.000
535.979; 3722.075;  273.125;    0.000
536.109; 3799.075;  277.125;    0.000
536.240; 3667.075;  293.125;    0.000
536.371; 3773.075;  295.125;    0.000
536.502; 3635.075;  330.125;    0.000
536.632; 3691.075;  280.125;    0.000
536.763; 3698.075;  332.125;    0.000
536.894; 3746.075;  334.125;    0.000
537.025; 3651.075;  295.125;    0.000
537.155; 3542.075;  321.125;    0.000
537.286; 3676.075;  292.125;    0.000
537.417; 3681.075;  314.125;    0.000
537.547; 3613.075;  287.125;    0.000
537.678; 3692.075;  287.125;    0.000
537.808; 3575.075;  278.125;    0.000
537.939; 3614.075;  304.125;    0.000
538.070; 3719.075;  303.125;    0.000
538.200; 3593.075;  279.125;    0.000
538.331; 3630.075;  321.125;    0.000
538.461; 3574.075;  313.125;    0.000
538.592; 3569.075;  290.125;    0.000
538.722; 3704.075;  285.125;    0.000
538.853; 3659.075;  261.125;    0.000
538.983; 3597.075;  280.125;    0.000
539.114; 3569.075;  310.125;    0.000
539.244; 3527.075;  281.125;    0.000
539.375; 3704.075;  292.125;    0.000
539.505; 3720.075;  286.125;    0.000
539.636; 3571.075;  276.125;    0.000
539.766; 3553.075;  287.125;    0.000
539.896; 3636.075;  292.125;    0.000
540.027; 3696.075;  262.125;    0.000
540.157; 3630.075;  269.125;    0.000
540.287; 3666.075;  282.125;    0.000
540.418; 3639.075;  269.125;    0.000
540.548; 3680.075;  328.125;    0.000
540.678; 3678.075;  271.125;    0.000
540.809; 3627.075;  272.125;    0.000
540.939; 3727.075;  299.125;    0.000
541.069; 3694.075;  266.125;    0.000
541.200; 3740.075;  242.125;    0.000
541.330; 3721.075;  257.125;    0.000
541.460; 3712.075;  270.125;    0.000
541.590; 3722.075;  287.125;    0.000
541.720; 3557.075;  255.125;    0.000
541.851; 3732.075;  273.125;    0.000
541.981; 3729.075;  244.125;    0.000
542.111; 3808.075;  263.125;    0.000
542.241; 3801.075;  271.125;    0.000
542.371; 3809.075;  263.125;    0.000
542.501; 3932.075;  274.125;    0.000
542.631; 3977.075;  288.125;    0.000
542.761; 3948.075;  261.125;    0.000
542.891; 3971.075;  253.125;    0.000
543.021; 3959.075;  249.125;    0.000
543.151; 4006.075;  261.125;    0.000
543.281; 3903.075;  256.125;    0.000
543.411; 3930.075;  290.125;    0.000
543.542; 3956.075;  278.125;    0.000
543.671; 3916.075;  238.125;    0.000
543.801; 3783.075;  256.125;    0.000
543.931; 3848.075;  254.125;    0.000
544.061; 3851.075;  237.125;    0.000
544.191; 3842.075;  245.125;    0.000
544.321; 3842.075;  267.125;    0.000
544.451; 3866.075;  262.125;    0.000
544.581; 3832.075;  221.125;    0.000
544.711; 3920.075;  252.125;    0.000
544.841; 3975.075;  264.125;    0.000
544.970; 4077.075;  315.125;    0.000
545.100; 4157.075;  245.125;    0.000
545.230; 4196.075;  276.125;    0.000
545.360; 4140.075;  278.125;    0.000
545.490; 3992.075;  268.125;    0.000
545.619; 3913.075;  237.125;    0.000
545.749; 3891.075;  228.125;    0.000
545.879; 3842.075;  234.125;    0.000
546.009; 3814.075;  287.125;    0.000
546.138; 3984.075;  222.125;    0.000
546.268; 3729.075;  228.125;    0.000
546.398; 3858.075;  244.125;    0.000
546.527; 3835.075;  233.125;    0.000
546.657; 3809.075;  189.125;    0.000
546.786; 3948.075;  247.125;    0.000
546.916; 3867.075;  244.125;    0.000
547.046; 3825.075;  214.125;    0.000
547.175; 3738.075;  242.125;    0.000
547.305; 3893.075;  252.125;    0.000
547.434; 3838.075;  191.125;    0.000
547.564; 3858.075;  208.125;    0.000
547.693; 3717.075;  213.125;    0.000
547.823; 3849.075;  209.125;    0.000
547.953; 3841.075;  250.125;    0.000
548.082; 3903.075;  231.125;    0.000
548.211; 3749.075;  226.125;    0.000
548.341; 3817.075;  254.125;    0.000
548.470; 3789.075;  266.125;    0.000
548.600; 3843.075;  229.125;    0.000
548.729; 3858.075;  225.125;    0.000
548.859; 3895.075;  185.125;    0.000
548.988; 3851.075;  225.125;    0.000
549.117; 3819.075;  241.125;    0.000
549.247; 3824.075;  236.125;    0.000
549.376; 3767.075;  220.125;    0.000
549.505; 3716.075;  254.125;    0.000
549.635; 3930.075;  268.125;    0.000
549.764; 3912.075;  194.125;    0.000
549.893; 3948.075;  232.125;    0.000
550.023; 3914.075;  222.125;    0.000
550.152; 4022.075;  223.125;    0.000
550.281; 4035.075;  210.125;    0.000
550.410; 3948.075;  197.125;    0.000
550.539; 3872.075;  222.125;    0.000
550.669; 4059.075;  245.125;    0.000
550.798; 4019.075;  265.125;    0.000
550.927; 4026.075;  249.125;    0.000
551.056; 3884.075;  184.125;    0.000
551.185; 3912.075;  247.125;    0.000
551.314; 3894.075;  258.125;    0.000
551.443; 3862.075;  224.125;    0.000
551.573; 3967.075;  204.125;    0.000
551.702; 3898.075;  220.125;    0.000
551.831; 4036.075;  287.125;    0.000
551.960; 3845.075;  259.125;    0.000
552.089; 4003.075;  222.125;    0.000
552.218; 4044.075;  254.125;    0.000
552.347; 4143.075;  260.125;    0.000
552.476; 4062.075;  251.125;    0.000
552.605; 4043.075;  229.125;    0.000
552.734; 4096.075;  261.125;    0.000
552.863; 4144.075;  225.125;    0.000
552.992; 4218.075;  202.125;    0.000
553.121; 4203.075;  193.125;    0.000
553.249; 4106.075;  224.125;    0.000
553.378; 4094.075;  274.125;    0.000
553.507; 4012.075;  248.125;    0.000
553.636; 4119.075;  203.125;    0.000
553.765; 4090.075;  224.125;    0.000
553.894; 4103.075;  246.125;    0.000
554.023; 4083.075;  229.125;    0.000
554.151; 4092.075;  216.125;    0.000
554.280; 3914.075;  223.125;    0.000
554.409; 3999.075;  240.125;    0.000
554.538; 4020.075;  277.125;    0.000
554.666; 4058.075;  244.125;    0.000
554.795; 3910.075;  240.125;    0.000
554.924; 3833.075;  257.125;    0.000
555.052; 4060.075;  266.125;    0.000
555.181; 3938.075;  244.125;    0.000
555.310; 3905.075;  262.125;    0.000
555.439; 3971.075;  260.125;    0.000
555.567; 3883.075;  234.125;    0.000
555.696; 3946.075;  237.125;    0.000
555.824; 3933.075;  232.125;    0.000
555.953; 3947.075;  279.125;    0.000
556.082; 3878.075;  234.125;    0.000
556.210; 3924.075;  235.125;    0.000
556.339; 4023.075;  198.125;    0.000
556.467; 3973.075;  216.125;    0.000
556.596; 3868.075;  273.125;    0.000
556.724; 3875.075;  245.125;    0.000
556.853; 3792.075;  241.125;    0.000
556.981; 3934.075;  219.125;    0.000
557.110; 3797.075;  242.125;    0.000
557.238; 3884.075;  202.125;    0.000
557.367; 3824.075;  254.125;    0.000
557.495; 3812.075;  260.125;    0.000
557.623; 3833.075;  207.125;    0.000
557.752; 3821.075;  219.125;    0.000
557.880; 3846.075;  209.125;    0.000
558.008; 3824.075;  243.125;    0.000
558.137; 3828.075;  244.125;    0.000
558.265; 3851.075;  221.125;    0.000
558.393; 3993.075;  297.125;    0.000
558.522; 3871.075;  232.125;    0.000
558.650; 3962.075;  299.125;    0.000
558.778; 3952.075;  210.125;    0.000
558.906; 3964.075;  240.125;    0.000
559.035; 3865.075;  252.125;    0.000
559.163; 3888.075;  246.125;    0.000
559.291; 3939.075;  213.125;    0.000
559.419; 3932.075;  221.125;    0.000
559.548; 3820.075;  208.125;    0.000
559.676; 4001.075;  254.125;    0.000
559.804; 4002.075;  213.125;    0.000
559.932; 3950.075;  208.125;    0.000
560.060; 3880.075;  276.125;    0.000
560.188; 4014.075;  278.125;    0.000
560.316; 3997.075;  217.125;    0.000
560.444; 4049.075;  254.125;    0.000
560.572; 4077.075;  226.125;    0.000
560.700; 4114.075;  282.125;    0.000
560.828; 4209.075;  211.125;    0.000
560.956; 4129.075;  264.125;    0.000
561.085; 4181.075;  295.125;    0.000
561.212; 4105.075;  229.125;    0.000
561.340; 4107.075;  259.125;    0.000
561.468; 4253.075;  253.125;    0.000
561.596; 4137.075;  240.125;    0.000
561.724; 4047.075;  259.125;    0.000
561.852; 4127.075;  224.125;    0.000
561.980; 4140.075;  251.125;    0.000
562.108; 4223.075;  214.125;    0.000
562.236; 4209.075;  258.125;    0.000
562.364; 4304.075;  237.125;    0.000
562.492; 4266.075;  228.125;    0.000
562.619; 4302.075;  223.125;    0.000
562.747; 4230.075;  263.125;    0.000
562.875; 4321.075;  257.125;    0.000
563.003; 4208.075;  216.125;    0.000
563.130; 4455.075;  190.125;    0.000
563.258; 4381.075;  225.125;    0.000
563.386; 4427.075;  259.125;    0.000
563.514; 4555.075;  264.125;    0.000
563.641; 4664.075;  230.125;    0.000
563.769; 4556.075;  257.125;    0.000
563.897; 4607.075;  210.125;    0.000
564.024; 4816.075;  221.125;    0.000
564.152; 4814.075;  256.125;    0.000
564.280; 4796.075;  225.125;    0.000
564.407; 4852.075;  262.125;    0.000
564.535; 4856.075;  235.125;    0.000
564.662; 4970.075;  238.125;    0.000
564.790; 4961.075;  248.125;    0.000
564.917; 4924.075;  214.125;    0.000
565.045; 4954.075;  253.125;    0.000
565.173; 4848.075;  225.125;    0.000
565.300; 5073.075;  261.125;    0.000
565.428; 5003.075;  218.125;    0.000
565.555; 5126.075;  245.125;    0.000
565.682; 5243.075;  242.125;    0.000
565.810; 5302.075;  228.125;    0.000
565.937; 5329.075;  230.125;    0.000
566.065; 5612.075;  251.125;    0.000
566.192; 5555.075;  196.125;    0.000
566.320; 5804.075;  217.125;    0.000
566.447; 5945.075;  224.125;    0.000
566.574; 5871.075;  221.125;    0.000
566.702; 6208.075;  221.125;    0.000
566.829; 6244.075;  252.125;    0.000
566.956; 6166.075;  214.125;    0.000
567.083; 6331.075;  204.125;    0.000
567.211; 6204.075;  216.125;    0.000
567.338; 6458.075;  228.125;    0.000
567.465; 6370.075;  208.125;    0.000
567.593; 6333.075;  205.125;    0.000
567.720; 6452.075;  194.125;    0.000
567.847; 6432.075;  268.125;    0.000
567.974; 6477.075;  198.125;    0.000
568.101; 6837.075;  224.125;    0.000
568.228; 7889.075;  236.125;    0.000
568.356; 8434.075;  207.125;    0.000
568.483; 8034.075;  220.125;    0.000
568.610; 8049.075;  181.125;    0.000
568.737; 9003.075;  216.125;    0.000
568.864;10531.075;  258.125;    0.000
568.991; 9825.075;  203.125;    0.000
569.118; 8817.075;  232.125;    0.000
569.245; 7973.075;  192.125;    0.000
569.372; 7496.075;  226.125;    0.000
569.499; 7092.075;  211.125;    0.000
569.626; 6657.075;  247.125;    0.000
569.753; 6373.075;  248.125;    0.000
569.880; 6243.075;  226.125;    0.000
570.007; 6124.075;  215.125;    0.000
570.134; 5872.075;  205.125;    0.000
570.261; 5825.075;  187.125;    0.000
570.388; 5737.075;  258.125;    0.000
570.515; 5698.075;  241.125;    0.000
570.642; 5478.075;  211.125;    0.000
570.768; 5428.075;  228.125;    0.000
570.895; 5401.075;  229.125;    0.000
571.022; 5253.075;  203.125;    0.000
571.149; 5195.075;  206.125;    0.000
571.276; 5243.075;  191.125;    0.000
571.402; 5140.075;  218.125;    0.000
571.529; 5085.075;  192.125;    0.000
571.656; 5017.075;  209.125;    0.000
571.783; 4916.075;  181.125;    0.000
571.909; 4994.075;  251.125;    0.000
572.036; 4902.075;  225.125;    0.000
572.163; 4825.075;  214.125;    0.000
572.289; 4697.075;  252.125;    0.000
572.416; 4804.075;  220.125;    0.000
572.543; 4745.075;  225.125;    0.000
572.669; 4647.075;  226.125;    0.000
572.796; 4661.075;  231.125;    0.000
572.922; 4701.075;  258.125;    0.000
573.049; 4678.075;  202.125;    0.000
573.176; 4577.075;  254.125;    0.000
573.302; 4626.075;  215.125;    0.000
573.429; 4475.075;  251.125;    0.000
573.555; 4509.075;  221.125;    0.000
573.682; 4635.075;  227.125;    0.000
573.808; 4523.075;  259.125;    0.000
573.935; 4575.075;  233.125;    0.000
574.061; 4470.075;  241.125;    0.000
574.188; 4461.075;  238.125;    0.000
574.314; 4402.075;  221.125;    0.000
574.440; 4482.075;  221.125;    0.000
574.567; 4464.075;  216.125;    0.000
574.693; 4463.075;  224.125;    0.000
574.820; 4527.075;  199.125;    0.000
574.946; 4389.075;  248.125;    0.000
575.072; 4463.075;  220.125;    0.000
575.198; 4566.075;  262.125;    0.000
575.325; 4404.075;  232.125;    0.000
575.451; 4470.075;  225.125;    0.000
575.577; 4469.075;  216.125;    0.000
575.704; 4364.075;  248.125;    0.000
575.830; 4401.075;  227.125;    0.000
575.956; 4376.075;  206.125;    0.000
576.082; 4471.075;  222.125;    0.000
576.208; 4385.075;  206.125;    0.000
576.335; 4304.075;  256.125;    0.000
576.461; 4513.075;  247.125;    0.000
576.587; 4476.075;  219.125;    0.000
576.713; 4502.075;  215.125;    0.000
576.839; 4401.075;  225.125;    0.000
576.965; 4418.075;  230.125;    0.000
577.091; 4381.075;  235.125;    0.000
577.217; 4448.075;  235.125;    0.000
577.343; 4429.075;  233.125;    0.000
577.469; 4481.075;  242.125;    0.000
577.596; 4489.075;  241.125;    0.000
577.722; 4461.075;  255.125;    0.000
577.848; 4408.075;  235.125;    0.000
577.974; 4377.075;  210.125;    0.000
578.099; 4453.075;  239.125;    0.000
578.225; 4469.075;  258.125;    0.000
578.351; 4407.075;  209.125;    0.000
578.477; 4448.075;  255.125;    0.000
578.603; 4563.075;  213.125;    0.000
578.729; 4485.075;  221.125;    0.000
578.855; 4395.075;  209.125;    0.000
578.981; 4472.075;  206.125;    0.000
579.107; 4504.075;  221.125;    0.000
579.232; 4502.075;  206.125;    0.000
579.358; 4593.075;  226.125;    0.000
579.484; 4530.075;  244.125;    0.000
579.610; 4588.075;  261.125;    0.000
579.735; 4602.075;  270.125;    0.000
579.861; 4659.075;  255.125;    0.000
579.987; 4609.075;  249.125;    0.000
580.113; 4739.075;  260.125;    0.000
580.238; 4664.075;  206.125;    0.000
580.364; 4733.075;  249.125;    0.000
580.490; 4648.075;  225.125;    0.000
580.615; 4777.075;  266.125;    0.000
580.741; 4816.075;  224.125;    0.000
580.867; 4776.075;  251.125;    0.000
580.992; 4741.075;  270.125;    0.000
581.118; 4730.075;  248.125;    0.000
581.243; 4885.075;  251.125;    0.000
581.369; 4970.075;  192.125;    0.000
581.494; 4938.075;  259.125;    0.000
581.620; 5023.075;  245.125;    0.000
581.745; 5007.075;  232.125;    0.000
581.871; 5045.075;  243.125;    0.000
581.996; 4961.075;  216.125;    0.000
582.122; 4933.075;  263.125;    0.000
582.247; 4910.075;  254.125;    0.000
582.373; 5054.075;  232.125;    0.000
582.498; 5187.075;  275.125;    0.000
582.624; 5229.075;  260.125;    0.000
582.749; 5313.075;  251.125;    0.000
582.874; 5273.075;  245.125;    0.000
583.000; 5395.075;  278.125;    0.000
583.125; 5432.075;  211.125;    0.000
583.250; 5583.075;  246.125;    0.000
583.376; 5569.075;  259.125;    0.000
583.501; 5581.075;  254.125;    0.000
583.626; 5652.075;  209.125;    0.000
583.751; 5904.075;  239.125;    0.000
583.877; 5854.075;  255.125;    0.000
584.002; 5917.075;  263.125;    0.000
584.127; 5935.075;  205.125;    0.000
584.252; 6088.075;  196.125;    0.000
584.377; 6246.075;  249.125;    0.000
584.503; 6337.075;  219.125;    0.000
584.628; 6367.075;  243.125;    0.000
584.753; 6582.075;  250.125;    0.000
584.878; 6606.075;  208.125;    0.000
585.003; 6867.075;  234.125;    0.000
585.128; 6875.075;  207.125;    0.000
585.253; 7110.075;  219.125;    0.000
585.378; 7163.075;  205.125;    0.000
585.503; 7375.075;  256.125;    0.000
585.628; 7574.075;  217.125;    0.000
585.753; 7758.075;  213.125;    0.000
585.878; 7825.075;  147.125;    0.000
586.003; 8102.075;  256.125;    0.000
586.128; 8458.075;  214.125;    0.000
586.253; 8781.075;  254.125;    0.000
586.378; 8999.075;  252.125;    0.000
586.503; 9305.075;  219.125;    0.000
586.628; 9691.075;  226.125;    0.000
586.753;10037.075;  237.125;    0.000
586.878;10479.075;  185.125;    0.000
587.003;10978.075;  248.125;    0.000
587.127;11759.075;  237.125;    0.000
587.252;12226.075;  221.125;    0.000
587.377;12971.075;  244.125;    0.000
587.502;13672.075;  260.125;    0.000
587.627;14895.075;  232.125;    0.000
587.751;15916.075;  250.125;    0.000
587.876;17309.074;  234.125;    0.000
588.001;18692.074;  248.125;    0.000
588.125;20712.074;  236.125;    0.000
588.250;22988.074;  192.125;    0.000
588.375;26000.074;  265.125;    0.000
588.499;29793.074;  235.125;    0.000
588.624;34974.074;  212.125;    0.000
588.749;41208.074;  214.125;    0.000
588.873;45236.074;  236.125;    0.000
588.998;48136.074;  230.125;    0.000
589.122;51805.074;  231.125;    0.000
589.247;51779.074;  250.125;    0.000
589.372;49518.074;  247.125;    0.000
589.496;47782.074;  230.125;    0.000
589.621;48778.074;  237.125;    0.000
589.745;48701.074;  277.125;    0.000
589.870;44290.074;  283.125;    0.000
589.994;37325.074;  263.125;    0.000
590.118;31769.074;  239.125;    0.000
590.243;27659.074;  218.125;    0.000
590.367;24705.074;  226.125;    0.000
590.492;22267.074;  269.125;    0.000
590.616;20221.074;  205.125;    0.000
590.740;18719.074;  243.125;    0.000
590.865;17204.074;  281.125;    0.000
590.989;15817.075;  233.125;    0.000
591.114;14952.075;  222.125;    0.000
591.238;14053.075;  204.125;    0.000
591.362;13202.075;  283.125;    0.000
591.486;12600.075;  236.125;    0.000
591.611;12185.075;  228.125;    0.000
591.735;11790.075;  249.125;    0.000
591.859;11269.075;  202.125;    0.000
591.983;11031.075;  257.125;    0.000
592.107;10434.075;  230.125;    0.000
592.232;10155.075;  266.125;    0.000
592.356; 9793.075;  232.125;    0.000
592.480; 9527.075;  245.125;    0.000
592.604; 9272.075;  254.125;    0.000
592.728; 9003.075;  233.125;    0.000
592.852; 8772.075;  213.125;    0.000
592.976; 8593.075;  234.125;    0.000
593.100; 8320.075;  246.125;    0.000
593.224; 8166.075;  305.125;    0.000
593.349; 7994.075;  240.125;    0.000
593.473; 7722.075;  206.125;    0.000
593.597; 7707.075;  243.125;    0.000
593.721; 7556.075;  247.125;    0.000
593.844; 7467.075;  230.125;    0.000
593.968; 7321.075;  226.125;    0.000
594.092; 7055.075;  193.125;    0.000
594.216; 6968.075;  237.125;    0.000
594.340; 6892.075;  235.125;    0.000
594.464; 6800.075;  225.125;    0.000
594.588; 6713.075;  269.125;    0.000
594.712; 6470.075;  242.125;    0.000
594.836; 6352.075;  240.125;    0.000
594.959; 6262.075;  255.125;    0.000
595.083; 6158.075;  258.125;    0.000
595.207; 6145.075;  264.125;    0.000
595.331; 6011.075;  215.125;    0.000
595.455; 5866.075;  234.125;    0.000
595.578; 5787.075;  215.125;    0.000
595.702; 5817.075;  259.125;    0.000
595.826; 5735.075;  232.125;    0.000
595.949; 5714.075;  251.125;    0.000
596.073; 5571.075;  197.125;    0.000
596.197; 5406.075;  239.125;    0.000
596.320; 5313.075;  229.125;    0.000
596.444; 5282.075;  264.125;    0.000
596.568; 5245.075;  207.125;    0.000
596.691; 5262.075;  234.125;    0.000
596.815; 5131.075;  241.125;    0.000
596.938; 5039.075;  244.125;    0.000
597.062; 5117.075;  210.125;    0.000
597.186; 5051.075;  247.125;    0.000
597.309; 5017.075;  215.125;    0.000
597.433; 4886.075;  266.125;    0.000
597.556; 4864.075;  234.125;    0.000
597.680; 4819.075;  261.125;    0.000
597.803; 4892.075;  239.125;    0.000
597.926; 4729.075;  251.125;    0.000
598.050; 4761.075;  227.125;    0.000
598.173; 4604.075;  247.125;    0.000
598.297; 4686.075;  244.125;    0.000
598.420; 4606.075;  243.125;    0.000
598.543; 4637.075;  237.125;    0.000
598.667; 4525.075;  239.125;    0.000
598.790; 4574.075;  217.125;    0.000
598.913; 4469.075;  244.125;    0.000
599.037; 4559.075;  249.125;    0.000
599.160; 4373.075;  222.125;    0.000
599.283; 4483.075;  235.125;    0.000
599.406; 4375.075;  228.125;    0.000
599.530; 4321.075;  234.125;    0.000
599.653; 4246.075;  228.125;    0.000
599.776; 4259.075;  263.125;    0.000
599.899; 4408.075;  197.125;    0.000
600.022; 4238.075;  224.125;    0.000
600.145; 4287.075;  211.125;    0.000
600.269; 4335.075;  246.125;    0.000
600.392; 4258.075;  233.125;    0.000
600.515; 4142.075;  266.125;    0.000
600.638; 4153.075;  246.125;    0.000
600.761; 4082.075;  213.125;    0.000
600.884; 4148.075;  279.125;    0.000
601.007; 4015.075;  268.125;    0.000
601.130; 4015.075;  203.125;    0.000
601.253; 4045.075;  241.125;    0.000
601.376; 4075.075;  248.125;    0.000
601.499; 4056.075;  241.125;    0.000
601.622; 4084.075;  266.125;    0.000
601.745; 3794.075;  237.125;    0.000
601.868; 3963.075;  256.125;    0.000
601.991; 3962.075;  260.125;    0.000
602.113; 3988.075;  246.125;    0.000
602.236; 3976.075;  243.125;    0.000
602.359; 4033.075;  220.125;    0.000
602.482; 3996.075;  236.125;    0.000
602.605; 3849.075;  216.125;    0.000
602.728; 3900.075;  247.125;    0.000
602.850; 3896.075;  255.125;    0.000
602.973; 3799.075;  224.125;    0.000
603.096; 3872.075;  258.125;    0.000
603.219; 3969.075;  222.125;    0.000
603.341; 3882.075;  235.125;    0.000
603.464; 3820.075;  223.125;    0.000
603.587; 3838.075;  250.125;    0.000
603.709; 3810.075;  229.125;    0.000
603.832; 3809.075;  285.125;    0.000
603.955; 3689.075;  225.125;    0.000
604.077; 3780.075;  235.125;    0.000
604.200; 3759.075;  209.125;    0.000
604.323; 3713.075;  240.125;    0.000
604.445; 3745.075;  198.125;    0.000
604.568; 3767.075;  230.125;    0.000
604.690; 3726.075;  225.125;    0.000
604.813; 3658.075;  248.125;    0.000
604.935; 3727.075;  204.125;    0.000
605.058; 3659.075;  191.125;    0.000
605.180; 3644.075;  237.125;    0.000
605.303; 3689.075;  224.125;    0.000
605.425; 3685.075;  244.125;    0.000
605.547; 3804.075;  268.125;    0.000
605.670; 3682.075;  211.125;    0.000
605.792; 3696.075;  266.125;    0.000
605.915; 3549.075;  202.125;    0.000
606.037; 3613.075;  236.125;    0.000
606.159; 3596.075;  234.125;    0.000
606.282; 3555.075;  223.125;    0.000
606.404; 3560.075;  217.125;    0.000
606.526; 3597.075;  221.125;    0.000
606.648; 3427.075;  204.125;    0.000
606.771; 3538.075;  265.125;    0.000
606.893; 3530.075;  211.125;    0.000
607.015; 3488.075;  206.125;    0.000
607.137; 3501.075;  222.125;    0.000
607.260; 3520.075;  228.125;    0.000
607.382; 3475.075;  202.125;    0.000
607.504; 3415.075;  257.125;    0.000
607.626; 3540.075;  249.125;    0.000
607.748; 3617.075;  233.125;    0.000
607.870; 3482.075;  222.125;    0.000
607.992; 3438.075;  227.125;    0.000
608.114; 3558.075;  228.125;    0.000
608.237; 3508.075;  254.125;    0.000
608.359; 3375.075;  216.125;    0.000
608.481; 3389.075;  197.125;    0.000
608.603; 3469.075;  209.125;    0.000
608.725; 3439.075;  220.125;    0.000
608.847; 3500.075;  259.125;    0.000
608.969; 3486.075;  242.125;    0.000
609.090; 3445.075;  218.125;    0.000
609.212; 3397.075;  200.125;    0.000
609.334; 3432.075;  212.125;    0.000
609.456; 3486.075;  231.125;    0.000
609.578; 3435.075;  249.125;    0.000
609.700; 3383.075;  185.125;    0.000
609.822; 3379.075;  200.125;    0.000
609.944; 3322.075;  236.125;    0.000
610.065; 3359.075;  255.125;    0.000
610.187; 3434.075;  208.125;    0.000
610.309; 3456.075;  202.125;    0.000
610.431; 3398.075;  232.125;    0.000
610.552; 3281.075;  232.125;    0.000
610.674; 3414.075;  217.125;    0.000
610.796; 3411.075;  186.125;    0.000
610.918; 3370.075;  211.125;    0.000
611.039; 3357.075;  244.125;    0.000
611.161; 3411.075;  202.125;    0.000
611.282; 3337.075;  212.125;    0.000
611.404; 3300.075;  235.125;    0.000
611.526; 3469.075;  213.125;    0.000
611.647; 3383.075;  248.125;    0.000
611.769; 3390.075;  205.125;    0.000
611.890; 3273.075;  224.125;    0.000
612.012; 3378.075;  189.125;    0.000
612.133; 3347.075;  186.125;    0.000
612.255; 3318.075;  246.125;    0.000
612.377; 3343.075;  230.125;    0.000
612.498; 3313.075;  196.125;    0.000
612.619; 3329.075;  234.125;    0.000
612.741; 3336.075;  221.125;    0.000
612.862; 3437.075;  227.125;    0.000
612.984; 3286.075;  189.125;    0.000
613.105; 3293.075;  232.125;    0.000
613.226; 3311.075;  199.125;    0.000
613.348; 3314.075;  260.125;    0.000
613.469; 3341.075;  217.125;    0.000
613.590; 3255.075;  236.125;    0.000
613.712; 3319.075;  226.125;    0.000
613.833; 3228.075;  231.125;    0.000
613.954; 3191.075;  236.125;    0.000
614.076; 3205.075;  236.125;    0.000
614.197; 3330.075;  228.125;    0.000
614.318; 3406.075;  207.125;    0.000
614.439; 3286.075;  237.125;    0.000
614.560; 3300.075;  202.125;    0.000
614.682; 3337.075;  230.125;    0.000
614.803; 3333.075;  236.125;    0.000
614.924; 3355.075;  257.125;    0.000
615.045; 3441.075;  228.125;    0.000
615.166; 3418.075;  221.125;    0.000
615.287; 3643.075;  199.125;    0.000
615.408; 4159.075;  228.125;    0.000
615.529; 4320.075;  200.125;    0.000
615.650; 4003.075;  224.125;    0.000
615.771; 3765.075;  202.125;    0.000
615.892; 3930.075;  215.125;    0.000
616.013; 4780.075;  246.125;    0.000
616.134; 5276.075;  210.125;    0.000
616.255; 4980.075;  232.125;    0.000
616.376; 4297.075;  241.125;    0.000
616.497; 3933.075;  213.125;    0.000
616.618; 3708.075;  171.125;    0.000
616.739; 3738.075;  221.125;    0.000
616.860; 3698.075;  244.125;    0.000
616.981; 3529.075;  240.125;    0.000
617.102; 3451.075;  234.125;    0.000
617.222; 3482.075;  265.125;    0.000
617.343; 3547.075;  206.125;    0.000
617.464; 3439.075;  246.125;    0.000
617.585; 3351.075;  256.125;    0.000
617.705; 3328.075;  249.125;    0.000
617.826; 3391.075;  218.125;    0.000
617.947; 3360.075;  225.125;    0.000
618.068; 3330.075;  199.125;    0.000
618.188; 3442.075;  202.125;    0.000
618.309; 3280.075;  220.125;    0.000
618.430; 3258.075;  229.125;    0.000
618.550; 3318.075;  252.125;    0.000
618.671; 3231.075;  233.125;    0.000
618.791; 3277.075;  227.125;    0.000
618.912; 3218.075;  236.125;    0.000
619.033; 3265.075;  220.125;    0.000
619.153; 3205.075;  228.125;    0.000
619.274; 3208.075;  208.125;    0.000
619.394; 3183.075;  255.125;    0.000
619.515; 3151.075;  206.125;    0.000
619.635; 3113.075;  204.125;    0.000
619.756; 3141.075;  252.125;    0.000
619.876; 3192.075;  238.125;    0.000
619.996; 3170.075;  249.125;    0.000
620.117; 3284.075;  223.125;    0.000
620.237; 3133.075;  210.125;    0.000
620.358; 3239.075;  264.125;    0.000
620.478; 3156.075;  263.125;    0.000
620.598; 3171.075;  238.125;    0.000
620.719; 3146.075;  225.125;    0.000
620.839; 3141.075;  259.125;    0.000
620.959; 3156.075;  218.125;    0.000
621.079; 3076.075;  253.125;    0.000
621.200; 3076.075;  245.125;    0.000
621.320; 3119.075;  254.125;    0.000
621.440; 3055.075;  233.125;    0.000
621.560; 3092.075;  235.125;    0.000
621.681; 3130.075;  234.125;    0.000
621.801; 3092.075;  240.125;    0.000
621.921; 3206.075;  239.125;    0.000
622.041; 3078.075;  288.125;    0.000
622.161; 3066.075;  229.125;    0.000
622.281; 3065.075;  223.125;    0.000
622.401; 3098.075;  240.125;    0.000
622.521; 3051.075;  267.125;    0.000
622.641; 3051.075;  226.125;    0.000
622.761; 3081.075;  252.125;    0.000
622.882; 3077.075;  207.125;    0.000
623.002; 3025.075;  226.125;    0.000
623.121; 3032.075;  207.125;    0.000
623.241; 3110.075;  215.125;    0.000
623.361; 2913.075;  222.125;    0.000
623.481; 3053.075;  187.125;    0.000
623.601; 3047.075;  283.125;    0.000
623.721; 2954.075;  283.125;    0.000
623.841; 2997.075;  233.125;    0.000
623.961; 2931.075;  215.125;    0.000
624.081; 2991.075;  219.125;    0.000
624.201; 3016.075;  221.125;    0.000
624.320; 3013.075;  215.125;    0.000
624.440; 2887.075;  222.125;    0.000
624.560; 3022.075;  231.125;    0.000
624.680; 2932.075;  225.125;    0.000
624.799; 2978.075;  230.125;    0.000
624.919; 2935.075;  243.125;    0.000
625.039; 2944.075;  203.125;    0.000
625.159; 2993.075;  257.125;    0.000
625.278; 2946.075;  230.125;    0.000
625.398; 2999.075;  195.125;    0.000
625.518; 2938.075;  211.125;    0.000
625.637; 2942.075;  267.125;    0.000
625.757; 2929.075;  228.125;    0.000
625.876; 2887.075;  231.125;    0.000
625.996; 2996.075;  219.125;    0.000
626.115; 2905.075;  235.125;    0.000
626.235; 2877.075;  199.125;    0.000
626.354; 2911.075;  226.125;    0.000
626.474; 2952.075;  225.125;    0.000
626.594; 2872.075;  223.125;    0.000
626.713; 2941.075;  231.125;    0.000
626.832; 2921.075;  287.125;    0.000
626.952; 2826.075;  251.125;    0.000
627.071; 2988.075;  254.125;    0.000
627.191; 2874.075;  193.125;    0.000
627.310; 2933.075;  213.125;    0.000
627.429; 2933.075;  259.125;    0.000
627.549; 2901.075;  243.125;    0.000
627.668; 2916.075;  181.125;    0.000
627.787; 2843.075;  232.125;    0.000
627.907; 2885.075;  222.125;    0.000
628.026; 2895.075;  219.125;    0.000
628.145; 2835.075;  201.125;    0.000
628.264; 2924.075;  198.125;    0.000
628.384; 2922.075;  208.125;    0.000
628.503; 2877.075;  251.125;    0.000
628.622; 2874.075;  195.125;    0.000
628.741; 2900.075;  180.125;    0.000
628.860; 2814.075;  235.125;    0.000
628.980; 2803.075;  222.125;    0.000
629.099; 2813.075;  237.125;    0.000
629.218; 2861.075;  175.125;    0.000
629.337; 2846.075;  194.125;    0.000
629.456; 2829.075;  225.125;    0.000
629.575; 2842.075;  239.125;    0.000
629.694; 2869.075;  230.125;    0.000
629.813; 2731.075;  197.125;    0.000
629.932; 2811.075;  225.125;    0.000
630.051; 2845.075;  238.125;    0.000
630.170; 2863.075;  233.125;    0.000
630.289; 2745.075;  231.125;    0.000
630.408; 2794.075;  204.125;    0.000
630.527; 2872.075;  262.125;    0.000
630.646; 2835.075;  181.125;    0.000
630.764; 2796.075;  218.125;    0.000
630.883; 2841.075;  215.125;    0.000
631.002; 2769.075;  224.125;    0.000
631.121; 2806.075;  209.125;    0.000
631.240; 2822.075;  230.125;    0.000
631.359; 2898.075;  235.125;    0.000
631.477; 2823.075;  223.125;    0.000
631.596; 2809.075;  218.125;    0.000
631.715; 2937.075;  234.125;    0.000
631.834; 2751.075;  215.125;    0.000
631.952; 2889.075;  243.125;    0.000
632.071; 2772.075;  219.125;    0.000
632.190; 2739.075;  235.125;    0.000
632.308; 2847.075;  239.125;    0.000
632.427; 2734.075;  211.125;    0.000
632.546; 2809.075;  233.125;    0.000
632.664; 2744.075;  219.125;    0.000
632.783; 2776.075;  203.125;    0.000
632.901; 2738.075;  221.125;    0.000
633.020; 2751.075;  197.125;    0.000
633.138; 2783.075;  244.125;    0.000
633.257; 2678.075;  205.125;    0.000
633.375; 2862.075;  245.125;    0.000
633.494; 2761.075;  218.125;    0.000
633.612; 2758.075;  222.125;    0.000
633.731; 2682.075;  212.125;    0.000
633.849; 2743.075;  218.125;    0.000
633.968; 2715.075;  236.125;    0.000
634.086; 2809.075;  233.125;    0.000
634.204; 2711.075;  215.125;    0.000
634.323; 2771.075;  230.125;    0.000
634.441; 2736.075;  235.125;    0.000
634.559; 2716.075;  202.125;    0.000
634.678; 2657.075;  218.125;    0.000
634.796; 2660.075;  203.125;    0.000
634.914; 2714.075;  227.125;    0.000
635.032; 2774.075;  279.125;    0.000
635.151; 2762.075;  221.125;    0.000
635.269; 2663.075;  207.125;    0.000
635.387; 2590.075;  195.125;    0.000
635.505; 2643.075;  243.125;    0.000
635.623; 2679.075;  269.125;    0.000
635.742; 2619.075;  232.125;    0.000
635.860; 2644.075;  243.125;    0.000
635.978; 2701.075;  215.125;    0.000
636.096; 2682.075;  225.125;    0.000
636.214; 2708.075;  244.125;    0.000
636.332; 2572.075;  226.125;    0.000
636.450; 2662.075;  227.125;    0.000
636.568; 2621.075;  225.125;    0.000
636.686; 2719.075;  194.125;    0.000
636.804; 2652.075;  234.125;    0.000
636.922; 2700.075;  177.125;    0.000
637.040; 2737.075;  225.125;    0.000
637.158; 2627.075;  194.125;    0.000
637.276; 2638.075;  219.125;    0.000
637.394; 2696.075;  219.125;    0.000
637.512; 2614.075;  210.125;    0.000
637.629; 2691.075;  242.125;    0.000
637.747; 2654.075;  193.125;    0.000
637.865; 2633.075;  219.125;    0.000
637.983; 2604.075;  251.125;    0.000
638.101; 2565.075;  221.125;    0.000
638.218; 2584.075;  193.125;    0.000
638.336; 2597.075;  224.125;    0.000
638.454; 2699.075;  227.125;    0.000
638.572; 2594.075;  245.125;    0.000
638.689; 2653.075;  222.125;    0.000
638.807; 2568.075;  244.125;    0.000
638.925; 2617.075;  238.125;    0.000
639.042; 2624.075;  213.125;    0.000
639.160; 2601.075;  186.125;    0.000
639.278; 2587.075;  203.125;    0.000
639.395; 2650.075;  270.125;    0.000
639.513; 2565.075;  227.125;    0.000
639.630; 2718.075;  200.125;    0.000
639.748; 2599.075;  199.125;    0.000
639.865; 2606.075;  233.125;    0.000
639.983; 2569.075;  181.125;    0.000
640.100; 2557.075;  219.125;    0.000
640.218; 2581.075;  234.125;    0.000
640.335; 2614.075;  233.125;    0.000
640.453; 2587.075;  202.125;    0.000
640.570; 2543.075;  214.125;    0.000
640.688; 2559.075;  215.125;    0.000
640.805; 2497.075;  229.125;    0.000
640.922; 2585.075;  244.125;    0.000
641.040; 2634.075;  233.125;    0.000
641.157; 2562.075;  199.125;    0.000
641.274; 2476.075;  205.125;    0.000
641.391; 2559.075;  244.125;    0.000
641.509; 2615.075;  184.125;    0.000
641.626; 2593.075;  244.125;    0.000
641.743; 2569.075;  221.125;    0.000
641.860; 2570.075;  206.125;    0.000
641.978; 2582.075;  272.125;    0.000
642.095; 2504.075;  218.125;    0.000
642.212; 2557.075;  208.125;    0.000
642.329; 2505.075;  218.125;    0.000
642.446; 2447.075;  197.125;    0.000
642.563; 2491.075;  214.125;    0.000
642.681; 2554.075;  203.125;    0.000
642.798; 2603.075;  236.125;    0.000
642.915; 2539.075;  191.125;    0.000
643.032; 2526.075;  226.125;    0.000
643.149; 2518.075;  231.125;    0.000
643.266; 2537.075;  213.125;    0.000
643.383; 2594.075;  240.125;    0.000
643.500; 2490.075;  185.125;    0.000
643.617; 2577.075;  229.125;    0.000
643.734; 2563.075;  205.125;    0.000
643.850; 2549.075;  222.125;    0.000
643.967; 2557.075;  202.125;    0.000
644.084; 2593.075;  264.125;    0.000
644.201; 2553.075;  214.125;    0.000
644.318; 2582.075;  206.125;    0.000
644.435; 2557.075;  225.125;    0.000
644.552; 2583.075;  203.125;    0.000
644.668; 2633.075;  252.125;    0.000
644.785; 2567.075;  213.125;    0.000
644.902; 2599.075;  233.125;    0.000
645.019; 2491.075;  220.125;    0.000
645.135; 2582.075;  225.125;    0.000
645.252; 2527.075;  218.125;    0.000
645.369; 2548.075;  214.125;    0.000
645.485; 2616.075;  210.125;    0.000
645.602; 2532.075;  198.125;    0.000
645.719; 2533.075;  228.125;    0.000
645.835; 2594.075;  209.125;    0.000
645.952; 2568.075;  213.125;    0.000
646.068; 2576.075;  241.125;    0.000
646.185; 2632.075;  219.125;    0.000
646.302; 2609.075;  246.125;    0.000
646.418; 2631.075;  228.125;    0.000
646.535; 2600.075;  256.125;    0.000
646.651; 2606.075;  222.125;    0.000
646.768; 2640.075;  203.125;    0.000
646.884; 2587.075;  199.125;    0.000
647.000; 2676.075;  194.125;    0.000
647.117; 2586.075;  214.125;    0.000
647.233; 2587.075;  209.125;    0.000
647.350; 2582.075;  235.125;    0.000
647.466; 2632.075;  237.125;    0.000
647.582; 2618.075;  231.125;    0.000
647.699; 2633.075;  219.125;    0.000
647.815; 2596.075;  200.125;    0.000
647.931; 2691.075;  173.125;    0.000
648.047; 2598.075;  184.125;    0.000
648.164; 2703.075;  199.125;    0.000
648.280; 2689.075;  209.125;    0.000
648.396; 2682.075;  220.125;    0.000
648.512; 2644.075;  212.125;    0.000
648.629; 2709.075;  214.125;    0.000
648.745; 2674.075;  197.125;    0.000
648.861; 2725.075;  228.125;    0.000
648.977; 2655.075;  238.125;    0.000
649.093; 2680.075;  208.125;    0.000
649.209; 2663.075;  179.125;    0.000
649.325; 2755.075;  256.125;    0.000
649.441; 2631.075;  224.125;    0.000
649.557; 2558.075;  247.125;    0.000
649.673; 2738.075;  214.125;    0.000
649.789; 2676.075;  213.125;    0.000
649.905; 2610.075;  170.125;    0.000
650.021; 2794.075;  236.125;    0.000
650.137; 2705.075;  229.125;    0.000
650.253; 2639.075;  207.125;    0.000
650.369; 2648.075;  198.125;    0.000
650.485; 2713.075;  225.125;    0.000
650.601; 2711.075;  260.125;    0.000
650.717; 2679.075;  196.125;    0.000
650.833; 2706.075;  219.125;    0.000
650.948; 2688.075;  203.125;    0.000
651.064; 2687.075;  232.125;    0.000
651.180; 2652.075;  252.125;    0.000
651.296; 2784.075;  190.125;    0.000
651.411; 2693.075;  235.125;    0.000
651.527; 2734.075;  227.125;    0.000
651.643; 2830.075;  238.125;    0.000
651.759; 2694.075;  260.125;    0.000
651.874; 2756.075;  217.125;    0.000
651.990; 2739.075;  239.125;    0.000
652.105; 2777.075;  215.125;    0.000
652.221; 2785.075;  237.125;    0.000
652.337; 2787.075;  238.125;    0.000
652.452; 2820.075;  230.125;    0.000
652.568; 2800.075;  201.125;    0.000
652.683; 2761.075;  243.125;    0.000
652.799; 2809.075;  218.125;    0.000
652.914; 2810.075;  189.125;    0.000
653.030; 2828.075;  191.125;    0.000
653.145; 2872.075;  240.125;    0.000
653.261; 2871.075;  225.125;    0.000
653.376; 2867.075;  241.125;    0.000
653.492; 2951.075;  188.125;    0.000
653.607; 2932.075;  219.125;    0.000
653.722; 2994.075;  268.125;    0.000
653.838; 3088.075;  262.125;    0.000
653.953; 3006.075;  188.125;    0.000
654.068; 3102.075;  244.125;    0.000
654.184; 3094.075;  247.125;    0.000
654.299; 3039.075;  228.125;    0.000
654.414; 3102.075;  181.125;    0.000
654.530; 3217.075;  210.125;    0.000
654.645; 3207.075;  240.125;    0.000
654.760; 3353.075;  219.125;    0.000
654.875; 3312.075;  178.125;    0.000
654.990; 3493.075;  222.125;    0.000
655.106; 3481.075;  227.125;    0.000
655.221; 3490.075;  270.125;    0.000
655.336; 3553.075;  199.125;    0.000
655.451; 3610.075;  235.125;    0.000
655.566; 3705.075;  251.125;    0.000
655.681; 3873.075;  253.125;    0.000
655.796; 3969.075;  207.125;    0.000
655.911; 4071.075;  213.125;    0.000
656.026; 4259.075;  247.125;    0.000
656.141; 4323.075;  209.125;    0.000
656.256; 4461.075;  226.125;    0.000
656.371; 4507.075;  201.125;    0.000
656.486; 4570.075;  196.125;    0.000
656.601; 4416.075;  239.125;    0.000
656.716; 4326.075;  234.125;    0.000
656.831; 4225.075;  223.125;    0.000
656.946; 4016.075;  246.125;    0.000
657.060; 4191.075;  230.125;    0.000
657.175; 4004.075;  207.125;    0.000
657.290; 3951.075;  213.125;    0.000
657.405; 3829.075;  319.125;    0.000
657.520; 3758.075;  241.125;    0.000
657.634; 3700.075;  235.125;    0.000
657.749; 3650.075;  275.125;    0.000
657.864; 3564.075;  210.125;    0.000
657.979; 3527.075;  227.125;    0.000
658.093; 3487.075;  206.125;    0.000
658.208; 3460.075;  217.125;    0.000
658.323; 3315.075;  227.125;    0.000
658.437; 3334.075;  217.125;    0.000
658.552; 3246.075;  237.125;    0.000
658.666; 3234.075;  233.125;    0.000
658.781; 3206.075;  248.125;    0.000
658.895; 3252.075;  233.125;    0.000
659.010; 3241.075;  238.125;    0.000
659.125; 3029.075;  206.125;    0.000
659.239; 3057.075;  220.125;    0.000
659.353; 2995.075;  236.125;    0.000
659.468; 3064.075;  238.125;    0.000
659.582; 3041.075;  275.125;    0.000
659.697; 3053.075;  239.125;    0.000
659.811; 3003.075;  232.125;    0.000
659.926; 2898.075;  230.125;    0.000
660.040; 2914.075;  257.125;    0.000
660.154; 2871.075;  221.125;    0.000
660.269; 2859.075;  219.125;    0.000
660.383; 2826.075;  228.125;    0.000
660.497; 2879.075;  243.125;    0.000
660.612; 2813.075;  238.125;    0.000
660.726; 2880.075;  260.125;    0.000
660.840; 2756.075;  239.125;    0.000
660.954; 2777.075;  236.125;    0.000
661.068; 2814.075;  239.125;    0.000
661.183; 2793.075;  245.125;    0.000
661.297; 2672.075;  198.125;    0.000
661.411; 2674.075;  203.125;    0.000
661.525; 2743.075;  244.125;    0.000
661.639; 2619.075;  229.125;    0.000
661.753; 2677.075;  238.125;    0.000
661.867; 2634.075;  237.125;    0.000
661.981; 2589.075;  219.125;    0.000
662.095; 2588.075;  232.125;    0.000
662.209; 2650.075;  236.125;    0.000
662.323; 2579.075;  209.125;    0.000
662.437; 2559.075;  206.125;    0.000
662.551; 2539.075;  217.125;    0.000
662.665; 2560.075;  262.125;    0.000
662.779; 2469.075;  234.125;    0.000
662.893; 2504.075;  222.125;    0.000
663.007; 2444.075;  189.125;    0.000
663.121; 2518.075;  258.125;    0.000
663.235; 2514.075;  191.125;    0.000
663.349; 2495.075;  259.125;    0.000
663.462; 2508.075;  209.125;    0.000
663.576; 2442.075;  244.125;    0.000
663.690; 2461.075;  237.125;    0.000
663.804; 2413.075;  205.125;    0.000
663.917; 2388.075;  207.125;    0.000
664.031; 2426.075;  234.125;    0.000
664.145; 2395.075;  216.125;    0.000
664.258; 2315.075;  202.125;    0.000
664.372; 2365.075;  198.125;    0.000
664.486; 2314.075;  181.125;    0.000
664.599; 2357.075;  229.125;    0.000
664.713; 2368.075;  266.125;    0.000
664.827; 2354.075;  185.125;    0.000
664.940; 2351.075;  225.125;    0.000
665.054; 2293.075;  198.125;    0.000
665.167; 2255.075;  208.125;    0.000
665.281; 2354.075;  231.125;    0.000
665.394; 2255.075;  228.125;    0.000
665.508; 2228.075;  204.125;    0.000
665.621; 2239.075;  263.125;    0.000
665.735; 2366.075;  222.125;    0.000
665.848; 2243.075;  237.125;    0.000
665.961; 2246.075;  180.125;    0.000
666.075; 2276.075;  212.125;    0.000
666.188; 2246.075;  229.125;    0.000
666.301; 2241.075;  247.125;    0.000
666.415; 2274.075;  212.125;    0.000
666.528; 2303.075;  268.125;    0.000
666.641; 2226.075;  210.125;    0.000
666.755; 2239.075;  178.125;    0.000
666.868; 2247.075;  227.125;    0.000
666.981; 2205.075;  250.125;    0.000
667.094; 2242.075;  228.125;    0.000
667.207; 2153.075;  235.125;    0.000
667.321; 2156.075;  171.125;    0.000
667.434; 2158.075;  191.125;    0.000
667.547; 2253.075;  279.125;    0.000
667.660; 2157.075;  210.125;    0.000
667.773; 2149.075;  217.125;    0.000
667.886; 2162.075;  209.125;    0.000
667.999; 2143.075;  239.125;    0.000
668.112; 2129.075;  227.125;    0.000
668.225; 2189.075;  185.125;    0.000
668.338; 2171.075;  222.125;    0.000
668.451; 2121.075;  200.125;    0.000
668.564; 2138.075;  237.125;    0.000
668.677; 2093.075;  207.125;    0.000
668.790; 2131.075;  208.125;    0.000
668.903; 2150.075;  243.125;    0.000
669.016; 2077.075;  190.125;    0.000
669.129; 2095.075;  234.125;    0.000
669.242; 2077.075;  185.125;    0.000
669.354; 2092.075;  224.125;    0.000
669.467; 2127.075;  219.125;    0.000
669.580; 2101.075;  249.125;    0.000
669.693; 2054.075;  187.125;    0.000
669.806; 2045.075;  206.125;    0.000
669.918; 2076.075;  192.125;    0.000
670.031; 2160.075;  235.125;    0.000
670.144; 2153.075;  238.125;    0.000
670.256; 2119.075;  237.125;    0.000
670.369; 2051.075;  237.125;    0.000
670.482; 1994.075;  250.125;    0.000
670.594; 2064.075;  273.125;    0.000
670.707; 2103.075;  223.125;    0.000
670.820; 2136.075;  238.125;    0.000
670.932; 2084.075;  224.125;    0.000
671.045; 2107.075;  219.125;    0.000
671.157; 2090.075;  242.125;    0.000
671.270; 2030.075;  235.125;    0.000
671.382; 2084.075;  213.125;    0.000
671.495; 2044.075;  254.125;    0.000
671.607; 2052.075;  253.125;    0.000
671.720; 2007.075;  169.125;    0.000
671.832; 2029.075;  201.125;    0.000
671.944; 2048.075;  250.125;    0.000
672.057; 2032.075;  187.125;    0.000
672.169; 1990.075;  224.125;    0.000
672.281; 1994.075;  238.125;    0.000
672.394; 2093.075;  250.125;    0.000
672.506; 1986.075;  227.125;    0.000
672.618; 2060.075;  223.125;    0.000
672.731; 2043.075;  210.125;    0.000
672.843; 1975.075;  245.125;    0.000
672.955; 2035.075;  263.125;    0.000
673.067; 2103.075;  239.125;    0.000
673.180; 2036.075;  253.125;    0.000
673.292; 1946.075;  243.125;    0.000
673.404; 2016.075;  226.125;    0.000
673.516; 1968.075;  223.125;    0.000
673.628; 2022.075;  223.125;    0.000
673.740; 1966.075;  216.125;    0.000
673.852; 2027.075;  277.125;    0.000
673.964; 1998.075;  211.125;    0.000
674.076; 1974.075;  241.125;    0.000
674.188; 2015.075;  251.125;    0.000
674.300; 2033.075;  268.125;    0.000
674.412; 1940.075;  260.125;    0.000
674.524; 1975.075;  257.125;    0.000
674.636; 2023.075;  222.125;    0.000
674.748; 1994.075;  227.125;    0.000
674.860; 2001.075;  250.125;    0.000
674.972; 1964.075;  240.125;    0.000
675.084; 1998.075;  262.125;    0.000
675.196; 2010.075;  287.125;    0.000
675.307; 1977.075;  257.125;    0.000
675.419; 1903.075;  231.125;    0.000
675.531; 2040.075;  274.125;    0.000
675.643; 1939.075;  235.125;    0.000
675.755; 2001.075;  275.125;    0.000
675.866; 1963.075;  238.125;    0.000
675.978; 1944.075;  209.125;    0.000
676.090; 1904.075;  239.125;    0.000
676.201; 1994.075;  249.125;    0.000
676.313; 1883.075;  237.125;    0.000
676.425; 1960.075;  263.125;    0.000
676.536; 1940.075;  178.125;    0.000
676.648; 1956.075;  245.125;    0.000
676.759; 1967.075;  244.125;    0.000
676.871; 2002.075;  242.125;    0.000
676.983; 1980.075;  245.125;    0.000
677.094; 1942.075;  209.125;    0.000
677.206; 1930.075;  248.125;    0.000
677.317; 1934.075;  260.125;    0.000
677.429; 1907.075;  237.125;    0.000
677.540; 1956.075;  226.125;    0.000
677.651; 1859.075;  226.125;    0.000
677.763; 1925.075;  194.125;    0.000
677.874; 1965.075;  230.125;    0.000
677.986; 1850.075;  202.125;    0.000
678.097; 1878.075;  229.125;    0.000
678.208; 1914.075;  263.125;    0.000
678.320; 1883.075;  243.125;    0.000
678.431; 1871.075;  229.125;    0.000
678.542; 1909.075;  231.125;    0.000
678.653; 1861.075;  224.125;    0.000
678.765; 1919.075;  255.125;    0.000
678.876; 1856.075;  175.125;    0.000
678.987; 1858.075;  204.125;    0.000
679.098; 1879.075;  227.125;    0.000
679.209; 1911.075;  228.125;    0.000
679.320; 1858.075;  223.125;    0.000
679.432; 1832.075;  219.125;    0.000
679.543; 1753.075;  210.125;    0.000
679.654; 1844.075;  249.125;    0.000
679.765; 1870.075;  222.125;    0.000
679.876; 1857.075;  219.125;    0.000
679.987; 1798.075;  213.125;    0.000
680.098; 1813.075;  237.125;    0.000
680.209; 1818.075;  188.125;    0.000
680.320; 1781.075;  243.125;    0.000
680.431; 1841.075;  227.125;    0.000
680.542; 1847.075;  212.125;    0.000
680.653; 1827.075;  266.125;    0.000
680.763; 1789.075;  198.125;    0.000
680.874; 1849.075;  211.125;    0.000
680.985; 1871.075;  207.125;    0.000
681.096; 1910.075;  244.125;    0.000
681.207; 1788.075;  209.125;    0.000
681.318; 1829.075;  215.125;    0.000
681.428; 1787.075;  199.125;    0.000
681.539; 1792.075;  175.125;    0.000
681.650; 1851.075;  224.125;    0.000
681.760; 1808.075;  216.125;    0.000
681.871; 1791.075;  187.125;    0.000
681.982; 1818.075;  237.125;    0.000
682.093; 1878.075;  213.125;    0.000
682.203; 1842.075;  190.125;    0.000
682.314; 1856.075;  230.125;    0.000
682.424; 1862.075;  223.125;    0.000
682.535; 1791.075;  172.125;    0.000
682.646; 1803.075;  268.125;    0.000
682.756; 1847.075;  249.125;    0.000
682.867; 1828.075;  225.125;    0.000
682.977; 1841.075;  211.125;    0.000
683.088; 1790.075;  238.125;    0.000
683.198; 1832.075;  202.125;    0.000
683.308; 1830.075;  196.125;    0.000
683.419; 1828.075;  230.125;    0.000
683.529; 1823.075;  213.125;    0.000
683.640; 1785.075;  225.125;    0.000
683.750; 1794.075;  203.125;    0.000
683.860; 1825.075;  200.125;    0.000
683.971; 1820.075;  269.125;    0.000
684.081; 1766.075;  204.125;    0.000
684.191; 1815.075;  228.125;    0.000
684.301; 1819.075;  219.125;    0.000
684.412; 1769.075;  222.125;    0.000
684.522; 1806.075;  242.125;    0.000
684.632; 1809.075;  234.125;    0.000
684.742; 1802.075;  240.125;    0.000
684.852; 1724.075;  229.125;    0.000
684.963; 1793.075;  237.125;    0.000
685.073; 1783.075;  205.125;    0.000
685.183; 1849.075;  241.125;    0.000
685.293; 1799.075;  202.125;    0.000
685.403; 1778.075;  232.125;    0.000
685.513; 1817.075;  244.125;    0.000
685.623; 1800.075;  224.125;    0.000
685.733; 1831.075;  236.125;    0.000
685.843; 1842.075;  235.125;    0.000
685.953; 1767.075;  216.125;    0.000
686.063; 1703.075;  214.125;    0.000
686.173; 1790.075;  198.125;    0.000
686.283; 1742.075;  250.125;    0.000
686.393; 1865.075;  227.125;    0.000
686.503; 1764.075;  244.125;    0.000
686.612; 1790.075;  247.125;    0.000
686.722; 1827.075;  265.125;    0.000
686.832; 1827.075;  213.125;    0.000
686.942; 1817.075;  241.125;    0.000
687.052; 1846.075;  238.125;    0.000
687.161; 1815.075;  233.125;    0.000
687.271; 1798.075;  232.125;    0.000
687.381; 1848.075;  220.125;    0.000
687.491; 1753.075;  206.125;    0.000
687.600; 1881.075;  283.125;    0.000
687.710; 1758.075;  212.125;    0.000
687.820; 1769.075;  226.125;    0.000
687.929; 1760.075;  202.125;    0.000
688.039; 1807.075;  225.125;    0.000
688.148; 1741.075;  235.125;    0.000
688.258; 1743.075;  224.125;    0.000
688.367; 1787.075;  239.125;    0.000
688.477; 1764.075;  193.125;    0.000
688.586; 1756.075;  226.125;    0.000
688.696; 1781.075;  185.125;    0.000
688.805; 1746.075;  190.125;    0.000
688.915; 1802.075;  209.125;    0.000
689.024; 1752.075;  214.125;    0.000
689.134; 1826.075;  205.125;    0.000
689.243; 1735.075;  190.125;    0.000
689.352; 1779.075;  233.125;    0.000
689.462; 1845.075;  196.125;    0.000
689.571; 1784.075;  227.125;    0.000
689.680; 1787.075;  206.125;    0.000
689.790; 1750.075;  193.125;    0.000
689.899; 1742.075;  204.125;    0.000
690.008; 1859.075;  228.125;    0.000
690.117; 1766.075;  207.125;    0.000
690.227; 1820.075;  231.125;    0.000
690.336; 1713.075;  222.125;    0.000
690.445; 1733.075;  198.125;    0.000
690.554; 1732.075;  202.125;    0.000
690.663; 1707.075;  217.125;    0.000
690.772; 1744.075;  213.125;    0.000
690.881; 1797.075;  225.125;    0.000
690.990; 1735.075;  217.125;    0.000
691.099; 1674.075;  205.125;    0.000
691.209; 1702.075;  220.125;    0.000
691.318; 1754.075;  216.125;    0.000
691.427; 1729.075;  188.125;    0.000
691.536; 1796.075;  224.125;    0.000
691.644; 1685.075;  212.125;    0.000
691.753; 1751.075;  216.125;    0.000
691.862; 1807.075;  250.125;    0.000
691.971; 1719.075;  210.125;    0.000
692.080; 1744.075;  232.125;    0.000
692.189; 1775.075;  218.125;    0.000
692.298; 1754.075;  220.125;    0.000
692.406; 1756.075;  261.125;    0.000
692.515; 1772.075;  253.125;    0.000
692.624; 1710.075;  224.125;    0.000
692.733; 1726.075;  209.125;    0.000
692.842; 1763.075;  214.125;    0.000
692.950; 1756.075;  206.125;    0.000
693.059; 1718.075;  180.125;    0.000
693.168; 1713.075;  220.125;    0.000
693.276; 1641.075;  196.125;    0.000
693.385; 1736.075;  203.125;    0.000
693.494; 1734.075;  263.125;    0.000
693.602; 1755.075;  222.125;    0.000
693.711; 1713.075;  178.125;    0.000
693.819; 1767.075;  230.125;    0.000
693.928; 1754.075;  187.125;    0.000
694.036; 1655.075;  219.125;    0.000
694.145; 1774.075;  223.125;    0.000
694.253; 1751.075;  241.125;    0.000
694.362; 1670.075;  229.125;    0.000
694.470; 1783.075;  223.125;    0.000
694.579; 1780.075;  195.125;    0.000
694.687; 1777.075;  257.125;    0.000
694.795; 1784.075;  230.125;    0.000
694.904; 1655.075;  196.125;    0.000
695.012; 1692.075;  247.125;    0.000
695.120; 1670.075;  215.125;    0.000
695.229; 1727.075;  244.125;    0.000
695.337; 1694.075;  197.125;    0.000
695.445; 1780.075;  270.125;    0.000
695.553; 1822.075;  241.125;    0.000
695.662; 1709.075;  249.125;    0.000
695.770; 1742.075;  244.125;    0.000
695.878; 1755.075;  236.125;    0.000
695.986; 1730.075;  253.125;    0.000
696.094; 1689.075;  242.125;    0.000
696.202; 1681.075;  174.125;    0.000
696.310; 1737.075;  230.125;    0.000
696.419; 1702.075;  218.125;    0.000
696.527; 1749.075;  226.125;    0.000
696.635; 1761.075;  217.125;    0.000
696.743; 1649.075;  221.125;    0.000
696.851; 1785.075;  259.125;    0.000
696.959; 1727.075;  245.125;    0.000
697.067; 1827.075;  235.125;    0.000
697.174; 1727.075;  238.125;    0.000
697.282; 1767.075;  208.125;    0.000
697.390; 1729.075;  265.125;    0.000
697.498; 1670.075;  202.125;    0.000
697.606; 1728.075;  219.125;    0.000
697.714; 1806.075;  245.125;    0.000
697.822; 1774.075;  222.125;    0.000
697.929; 1701.075;  194.125;    0.000
698.037; 1695.075;  223.125;    0.000
698.145; 1662.075;  213.125;    0.000
698.253; 1765.075;  234.125;    0.000
698.360; 1743.075;  211.125;    0.000
698.468; 1679.075;  241.125;    0.000
698.576; 1762.075;  249.125;    0.000
698.683; 1779.075;  268.125;    0.000
698.791; 1727.075;  223.125;    0.000
698.899; 1764.075;  251.125;    0.000
699.006; 1652.075;  216.125;    0.000
699.114; 1763.075;  256.125;    0.000
699.221; 1648.075;  226.125;    0.000
699.329; 1770.075;  255.125;    0.000
699.436; 1698.075;  213.125;    0.000
699.544; 1686.075;  258.125;    0.000
699.651; 1668.075;  214.125;    0.000
699.759; 1730.075;  229.125;    0.000
699.866; 1741.075;  239.125;    0.000
699.974; 1671.075;  224.125;    0.000
700.081; 1747.075;  227.125;    0.000
700.188; 1664.075;  267.125;    0.000
700.296; 1669.075;  222.125;    0.000
700.403; 1733.075;  225.125;    0.000
700.510; 1664.075;  248.125;    0.000
700.618; 1732.075;  223.125;    0.000
700.725; 1652.075;  243.125;    0.000
700.832; 1597.075;  239.125;    0.000
700.940; 1651.075;  284.125;    0.000
701.047; 1716.075;  216.125;    0.000
701.154; 1668.075;  249.125;    0.000
701.261; 1722.075;  229.125;    0.000
701.368; 1699.075;  247.125;    0.000
701.475; 1712.075;  208.125;    0.000
701.582; 1724.075;  262.125;    0.000
701.690; 1734.075;  224.125;    0.000
701.797; 1737.075;  294.125;    0.000
701.904; 1794.075;  303.125;    0.000
702.011; 1778.075;  278.125;    0.000
702.118; 1712.075;  279.125;    0.000
702.225; 1743.075;  342.125;    0.000
702.332; 1751.075;  281.125;    0.000
702.439; 1697.075;  313.125;    0.000
702.546; 1741.075;  295.125;    0.000
702.652; 1750.075;  293.125;    0.000
702.759; 1782.075;  333.125;    0.000
702.866; 1668.075;  272.125;    0.000
702.973; 1809.075;  310.125;    0.000
703.080; 1789.075;  313.125;    0.000
703.187; 1737.075;  316.125;    0.000
703.294; 1743.075;  328.125;    0.000
703.400; 1632.075;  312.125;    0.000
703.507;  481.075;  349.125;    0.000
703.614;  309.075;  298.125;    0.000
703.720;  343.075;  300.125;    0.000
703.827;  292.075;  346.125;    0.000
703.934;  326.075;  308.125;    0.000
704.040;  293.075;  300.125;    0.000
704.147;  313.075;  317.125;    0.000
704.254;  350.075;  350.125;    0.000
704.360;  292.075;  285.125;    0.000
704.467;  333.075;  334.125;    0.000
704.573;  305.075;  330.125;    0.000
704.680;  333.075;  312.125;    0.000
704.786;  317.075;  305.125;    0.000
704.893;  306.075;  330.125;    0.000
704.999;  309.075;  315.125;    0.000
705.106;  363.075;  327.125;    0.000

