
Integration time [ms]:   0.300
Averaging Nr. [scans]: 1
Smoothing Nr. [pixels]: 0
Data measured with spectrometer [name]: NIR
Wave   ;Sample   ;Dark     ;Reference
[nm]   ;[counts] ;[counts] ;[counts] 

691.496;  -14.375;  155.525;    0.000
691.696;   21.625;  186.525;    0.000
691.896;  -35.375;  113.525;    0.000
692.096;  -13.375;  169.525;    0.000
692.296;  -46.375;  119.525;    0.000
692.496;   28.625;  182.525;    0.000
692.695;  -25.375;  119.525;    0.000
692.895;  -22.375;  183.525;    0.000
693.095;   24.625;  119.525;    0.000
693.295;    8.625;  156.525;    0.000
693.495;    1.625;  145.525;    0.000
693.695;   -9.375;  144.525;    0.000
693.894;    2.625;  174.525;    0.000
694.094;  -26.375;  148.525;    0.000
694.294;  -28.375;  114.525;    0.000
694.494;  332.625;  137.525;    0.000
694.693; 3030.625;  112.525;    0.000
694.893; 3466.625;   85.525;    0.000
695.093; 3494.625;  152.525;    0.000
695.293; 3379.625;  159.525;    0.000
695.492; 3523.625;  131.525;    0.000
695.692; 3554.625;  134.525;    0.000
695.891; 3558.625;  161.525;    0.000
696.091; 3510.625;  180.525;    0.000
696.291; 3553.625;  120.525;    0.000
696.490; 3593.625;  146.525;    0.000
696.690; 3538.625;  145.525;    0.000
696.889; 3546.625;  171.525;    0.000
697.089; 3542.625;   98.525;    0.000
697.288; 3638.625;  172.525;    0.000
697.488; 3626.625;  137.525;    0.000
697.687; 3644.625;  171.525;    0.000
697.887; 3462.625;  142.525;    0.000
698.086; 3652.625;  159.525;    0.000
698.286; 3652.625;  122.525;    0.000
698.485; 3610.625;  121.525;    0.000
698.684; 3735.625;   94.525;    0.000
698.884; 3668.625;  131.525;    0.000
699.083; 3621.625;  112.525;    0.000
699.282; 3667.625;  119.525;    0.000
699.482; 3612.625;  117.525;    0.000
699.681; 3687.625;  115.525;    0.000
699.880; 3795.625;  166.525;    0.000
700.080; 3750.625;  194.525;    0.000
700.279; 3723.625;   98.525;    0.000
700.478; 3763.625;  159.525;    0.000
700.677; 3889.625;  134.525;    0.000
700.877; 3785.625;  171.525;    0.000
701.076; 3726.625;  141.525;    0.000
701.275; 3657.625;  119.525;    0.000
701.474; 3677.625;  132.525;    0.000
701.673; 3746.625;  141.525;    0.000
701.872; 3718.625;  158.525;    0.000
702.071; 3804.625;  129.525;    0.000
702.271; 3654.625;  122.525;    0.000
702.470; 3852.625;  158.525;    0.000
702.669; 3686.625;  145.525;    0.000
702.868; 3762.625;  135.525;    0.000
703.067; 3717.625;  169.525;    0.000
703.266; 3890.625;  125.525;    0.000
703.465; 3801.625;  153.525;    0.000
703.664; 3786.625;  113.525;    0.000
703.863; 3814.625;  170.525;    0.000
704.062; 3820.625;  115.525;    0.000
704.260; 3890.625;  133.525;    0.000
704.459; 3892.625;  123.525;    0.000
704.658; 3814.625;  105.525;    0.000
704.857; 3902.625;  125.525;    0.000
705.056; 3825.625;  108.525;    0.000
705.255; 3824.625;  117.525;    0.000
705.454; 3879.625;  126.525;    0.000
705.652; 3834.625;  137.525;    0.000
705.851; 3870.625;   95.525;    0.000
706.050; 3846.625;  120.525;    0.000
706.249; 3853.625;   81.525;    0.000
706.447; 3891.625;  105.525;    0.000
706.646; 3830.625;  107.525;    0.000
706.845; 3916.625;  104.525;    0.000
707.043; 3956.625;  136.525;    0.000
707.242; 3902.625;   89.525;    0.000
707.441; 3939.625;  147.525;    0.000
707.639; 3966.625;  156.525;    0.000
707.838; 3877.625;  114.525;    0.000
708.037; 3941.625;  100.525;    0.000
708.235; 3914.625;  103.525;    0.000
708.434; 3987.625;  102.525;    0.000
708.632; 3894.625;  100.525;    0.000
708.831; 3956.625;  121.525;    0.000
709.029; 4040.625;  102.525;    0.000
709.228; 4026.625;   88.525;    0.000
709.426; 3975.625;  135.525;    0.000
709.625; 4020.625;  128.525;    0.000
709.823; 3979.625;  123.525;    0.000
710.022; 4013.625;  137.525;    0.000
710.220; 4212.625;  134.525;    0.000
710.418; 4039.625;  122.525;    0.000
710.617; 4069.625;   64.525;    0.000
710.815; 4115.625;   94.525;    0.000
711.013; 4046.625;  127.525;    0.000
711.212; 4151.625;  105.525;    0.000
711.410; 4101.625;  117.525;    0.000
711.608; 4110.625;  114.525;    0.000
711.807; 4125.625;  119.525;    0.000
712.005; 4232.625;   92.525;    0.000
712.203; 4173.625;   95.525;    0.000
712.401; 4156.625;  107.525;    0.000
712.599; 4238.625;  127.525;    0.000
712.798; 4200.625;  120.525;    0.000
712.996; 4081.625;   76.525;    0.000
713.194; 4156.625;  118.525;    0.000
713.392; 4133.625;   60.525;    0.000
713.590; 4222.625;   92.525;    0.000
713.788; 4305.625;  110.525;    0.000
713.986; 4342.625;  130.525;    0.000
714.184; 4191.625;   71.525;    0.000
714.382; 4324.625;   86.525;    0.000
714.580; 4298.625;   74.525;    0.000
714.778; 4446.625;  133.525;    0.000
714.976; 4466.625;   81.525;    0.000
715.174; 4501.625;  100.525;    0.000
715.372; 4707.625;  141.525;    0.000
715.570; 4928.625;   73.525;    0.000
715.768; 5076.625;  119.525;    0.000
715.966; 5146.625;   81.525;    0.000
716.164; 5040.625;  130.525;    0.000
716.362; 4987.625;  125.525;    0.000
716.560; 4941.625;  109.525;    0.000
716.758; 4831.625;   96.525;    0.000
716.955; 4888.625;   83.525;    0.000
717.153; 4775.625;   87.525;    0.000
717.351; 4747.625;  123.525;    0.000
717.549; 4664.625;  121.525;    0.000
717.746; 4719.625;  128.525;    0.000
717.944; 4717.625;  132.525;    0.000
718.142; 4651.625;  120.525;    0.000
718.340; 4565.625;   94.525;    0.000
718.537; 4611.625;   95.525;    0.000
718.735; 4819.625;  152.525;    0.000
718.933; 4658.625;  124.525;    0.000
719.130; 4599.625;  114.525;    0.000
719.328; 4724.625;   63.525;    0.000
719.525; 4561.625;  146.525;    0.000
719.723; 4591.625;   96.525;    0.000
719.920; 4604.625;  120.525;    0.000
720.118; 4691.625;   59.525;    0.000
720.316; 4691.625;  116.525;    0.000
720.513; 4602.625;  127.525;    0.000
720.711; 4581.625;  110.525;    0.000
720.908; 4645.625;   92.525;    0.000
721.105; 4609.625;  138.525;    0.000
721.303; 4537.625;   90.525;    0.000
721.500; 4628.625;  126.525;    0.000
721.698; 4674.625;  103.525;    0.000
721.895; 4626.625;  206.525;    0.000
722.092; 4754.625;   63.525;    0.000
722.290; 4600.625;  123.525;    0.000
722.487; 4629.625;  137.525;    0.000
722.684; 4620.625;  126.525;    0.000
722.882; 4580.625;  119.525;    0.000
723.079; 4750.625;  132.525;    0.000
723.276; 4509.625;   98.525;    0.000
723.473; 4586.625;   97.525;    0.000
723.671; 4649.625;   43.525;    0.000
723.868; 4641.625;  142.525;    0.000
724.065; 4678.625;  102.525;    0.000
724.262; 4854.625;  119.525;    0.000
724.459; 4644.625;   73.525;    0.000
724.656; 4782.625;  128.525;    0.000
724.854; 4584.625;  135.525;    0.000
725.051; 4692.625;   81.525;    0.000
725.248; 4728.625;   88.525;    0.000
725.445; 4841.625;  129.525;    0.000
725.642; 4806.625;   76.525;    0.000
725.839; 4763.625;  134.525;    0.000
726.036; 4729.625;  101.525;    0.000
726.233; 4673.625;   68.525;    0.000
726.430; 4744.625;  121.525;    0.000
726.627; 4952.625;  136.525;    0.000
726.824; 4761.625;   87.525;    0.000
727.021; 4800.625;  141.525;    0.000
727.218; 4782.625;   92.525;    0.000
727.414; 4825.625;  121.525;    0.000
727.611; 4851.625;  100.525;    0.000
727.808; 4772.625;  130.525;    0.000
728.005; 4737.625;   83.525;    0.000
728.202; 4794.625;  120.525;    0.000
728.399; 4862.625;   75.525;    0.000
728.595; 4897.625;  148.525;    0.000
728.792; 4823.625;   79.525;    0.000
728.989; 4870.625;   86.525;    0.000
729.186; 4832.625;   80.525;    0.000
729.382; 4854.625;   72.525;    0.000
729.579; 4980.625;  112.525;    0.000
729.776; 4811.625;  106.525;    0.000
729.972; 4764.625;   77.525;    0.000
730.169; 4853.625;  118.525;    0.000
730.366; 4862.625;   92.525;    0.000
730.562; 4917.625;  104.525;    0.000
730.759; 4893.625;   95.525;    0.000
730.955; 4963.625;   85.525;    0.000
731.152; 4842.625;   79.525;    0.000
731.348; 4874.625;   72.525;    0.000
731.545; 4892.625;   56.525;    0.000
731.741; 4914.625;  106.525;    0.000
731.938; 5017.625;  113.525;    0.000
732.134; 4920.625;  106.525;    0.000
732.331; 5018.625;   82.525;    0.000
732.527; 4883.625;   80.525;    0.000
732.724; 5036.625;   97.525;    0.000
732.920; 5018.625;  127.525;    0.000
733.116; 4983.625;  115.525;    0.000
733.313; 4902.625;  153.525;    0.000
733.509; 4891.625;   76.525;    0.000
733.705; 5059.625;  159.525;    0.000
733.902; 4972.625;   82.525;    0.000
734.098; 5013.625;   70.525;    0.000
734.294; 4900.625;  105.525;    0.000
734.490; 5047.625;  110.525;    0.000
734.687; 5139.625;  102.525;    0.000
734.883; 4947.625;   77.525;    0.000
735.079; 5178.625;   93.525;    0.000
735.275; 5031.625;  109.525;    0.000
735.471; 5025.625;   99.525;    0.000
735.667; 4969.625;  107.525;    0.000
735.863; 5077.625;   89.525;    0.000
736.060; 5058.625;  105.525;    0.000
736.256; 5053.625;  113.525;    0.000
736.452; 5050.625;   90.525;    0.000
736.648; 5082.625;   88.525;    0.000
736.844; 5212.625;  129.525;    0.000
737.040; 5238.625;  139.525;    0.000
737.236; 5194.625;  129.525;    0.000
737.432; 5338.625;   67.525;    0.000
737.628; 5176.625;  104.525;    0.000
737.824; 5143.625;  111.525;    0.000
738.019; 5178.625;  116.525;    0.000
738.215; 5264.625;  135.525;    0.000
738.411; 5328.625;  118.525;    0.000
738.607; 5125.625;   58.525;    0.000
738.803; 5261.625;   32.525;    0.000
738.999; 5220.625;  120.525;    0.000
739.195; 5293.625;   76.525;    0.000
739.390; 5411.625;  119.525;    0.000
739.586; 5330.625;   83.525;    0.000
739.782; 5396.625;  134.525;    0.000
739.978; 5373.625;  122.525;    0.000
740.173; 5380.625;   96.525;    0.000
740.369; 5425.625;   86.525;    0.000
740.565; 5458.625;  122.525;    0.000
740.760; 5597.625;   99.525;    0.000
740.956; 5514.625;  137.525;    0.000
741.152; 5611.625;  108.525;    0.000
741.347; 5498.625;   65.525;    0.000
741.543; 5702.625;   73.525;    0.000
741.738; 5804.625;  142.525;    0.000
741.934; 5928.625;  131.525;    0.000
742.129; 6251.625;   66.525;    0.000
742.325; 6874.625;  143.525;    0.000
742.520; 7590.625;  119.525;    0.000
742.716; 7313.625;  109.525;    0.000
742.911; 6893.625;   62.525;    0.000
743.107; 6639.625;  119.525;    0.000
743.302; 6618.625;   78.525;    0.000
743.498; 6706.625;  130.525;    0.000
743.693; 6772.625;   75.525;    0.000
743.888; 7092.625;  135.525;    0.000
744.084; 7883.625;  106.525;    0.000
744.279; 9612.625;  101.525;    0.000
744.474; 9624.625;   91.525;    0.000
744.670; 8743.625;  144.525;    0.000
744.865; 8085.625;  128.525;    0.000
745.060; 7731.625;   63.525;    0.000
745.255; 7397.625;  155.525;    0.000
745.451; 7311.625;  110.525;    0.000
745.646; 7229.625;  150.525;    0.000
745.841; 7130.625;  128.525;    0.000
746.036; 7205.625;  110.525;    0.000
746.231; 7392.625;  126.525;    0.000
746.426; 7567.625;   83.525;    0.000
746.622; 8660.625;  157.525;    0.000
746.817;11208.625;  112.525;    0.000
747.012;12692.625;  115.525;    0.000
747.207;11265.625;  161.525;    0.000
747.402;10055.625;   88.525;    0.000
747.597; 9193.625;  103.525;    0.000
747.792; 8901.625;  152.525;    0.000
747.987; 8621.625;   80.525;    0.000
748.182; 8212.625;   89.525;    0.000
748.377; 7863.625;  104.525;    0.000
748.572; 7546.625;  138.525;    0.000
748.767; 7458.625;  100.525;    0.000
748.961; 7058.625;  106.525;    0.000
749.156; 6991.625;  113.525;    0.000
749.351; 6833.625;  116.525;    0.000
749.546; 6740.625;  107.525;    0.000
749.741; 6688.625;  102.525;    0.000
749.936; 6488.625;  105.525;    0.000
750.130; 6453.625;  111.525;    0.000
750.325; 6548.625;   72.525;    0.000
750.520; 6343.625;   96.525;    0.000
750.715; 6411.625;  135.525;    0.000
750.909; 6371.625;  107.525;    0.000
751.104; 6202.625;  106.525;    0.000
751.299; 6245.625;  144.525;    0.000
751.493; 6359.625;  116.525;    0.000
751.688; 6217.625;   96.525;    0.000
751.882; 6095.625;   92.525;    0.000
752.077; 6082.625;  109.525;    0.000
752.272; 6112.625;   96.525;    0.000
752.466; 5951.625;  110.525;    0.000
752.661; 6108.625;  120.525;    0.000
752.855; 5937.625;   70.525;    0.000
753.050; 5924.625;  129.525;    0.000
753.244; 6011.625;  126.525;    0.000
753.439; 5999.625;  115.525;    0.000
753.633; 5897.625;  120.525;    0.000
753.828; 5860.625;  129.525;    0.000
754.022; 5913.625;  139.525;    0.000
754.216; 5891.625;  121.525;    0.000
754.411; 5707.625;  108.525;    0.000
754.605; 5766.625;   94.525;    0.000
754.799; 5837.625;  125.525;    0.000
754.994; 5728.625;  160.525;    0.000
755.188; 5809.625;  151.525;    0.000
755.382; 5779.625;  102.525;    0.000
755.576; 5596.625;  103.525;    0.000
755.771; 5754.625;   99.525;    0.000
755.965; 5689.625;  158.525;    0.000
756.159; 5692.625;   96.525;    0.000
756.353; 5743.625;  157.525;    0.000
756.547; 5599.625;  132.525;    0.000
756.742; 5658.625;  106.525;    0.000
756.936; 5652.625;  113.525;    0.000
757.130; 5703.625;  114.525;    0.000
757.324; 5641.625;  111.525;    0.000
757.518; 5637.625;  142.525;    0.000
757.712; 5588.625;  137.525;    0.000
757.906; 5619.625;   93.525;    0.000
758.100; 5741.625;  119.525;    0.000
758.294; 5696.625;  132.525;    0.000
758.488; 5740.625;  153.525;    0.000
758.682; 5589.625;  101.525;    0.000
758.876; 5801.625;  129.525;    0.000
759.070; 5556.625;  168.525;    0.000
759.264; 5553.625;   96.525;    0.000
759.458; 5665.625;  117.525;    0.000
759.651; 5640.625;  135.525;    0.000
759.845; 5626.625;  127.525;    0.000
760.039; 5609.625;  120.525;    0.000
760.233; 5564.625;  124.525;    0.000
760.427; 5606.625;  115.525;    0.000
760.620; 5699.625;  130.525;    0.000
760.814; 5532.625;  102.525;    0.000
761.008; 5652.625;  174.525;    0.000
761.202; 5685.625;  132.525;    0.000
761.395; 5690.625;  126.525;    0.000
761.589; 5577.625;  133.525;    0.000
761.783; 5595.625;  147.525;    0.000
761.976; 5713.625;  147.525;    0.000
762.170; 5560.625;  174.525;    0.000
762.363; 5690.625;   97.525;    0.000
762.557; 5594.625;  141.525;    0.000
762.750; 5685.625;  112.525;    0.000
762.944; 5630.625;  110.525;    0.000
763.138; 5799.625;  125.525;    0.000
763.331; 5634.625;  101.525;    0.000
763.524; 5814.625;  101.525;    0.000
763.718; 5926.625;  156.525;    0.000
763.911; 5702.625;  143.525;    0.000
764.105; 5773.625;  139.525;    0.000
764.298; 5598.625;   89.525;    0.000
764.492; 5666.625;  111.525;    0.000
764.685; 5602.625;  136.525;    0.000
764.878; 5688.625;  146.525;    0.000
765.072; 5746.625;  110.525;    0.000
765.265; 5848.625;  141.525;    0.000
765.458; 5696.625;   82.525;    0.000
765.651; 5704.625;  144.525;    0.000
765.845; 5851.625;   79.525;    0.000
766.038; 5880.625;  123.525;    0.000
766.231; 6473.625;  125.525;    0.000
766.424; 9359.625;  131.525;    0.000
766.617; 9587.625;   62.525;    0.000
766.811; 6597.625;  142.525;    0.000
767.004; 5979.625;  134.525;    0.000
767.197; 5958.625;  147.525;    0.000
767.390; 5815.625;  100.525;    0.000
767.583; 5877.625;  121.525;    0.000
767.776; 6038.625;   91.525;    0.000
767.969; 5887.625;  113.525;    0.000
768.162; 6014.625;  170.525;    0.000
768.355; 5897.625;  134.525;    0.000
768.548; 5870.625;  177.525;    0.000
768.741; 5806.625;   96.525;    0.000
768.934; 6013.625;  143.525;    0.000
769.127; 6088.625;  147.525;    0.000
769.320; 6094.625;   93.525;    0.000
769.513; 6340.625;  137.525;    0.000
769.706; 6922.625;   96.525;    0.000
769.898; 9404.625;  118.525;    0.000
770.091; 7613.625;  138.525;    0.000
770.284; 6330.625;  133.525;    0.000
770.477; 6235.625;  137.525;    0.000
770.670; 6322.625;  124.525;    0.000
770.862; 6497.625;  125.525;    0.000
771.055; 6318.625;  135.525;    0.000
771.248; 6390.625;  109.525;    0.000
771.441; 6355.625;  141.525;    0.000
771.633; 6380.625;  142.525;    0.000
771.826; 6500.625;  123.525;    0.000
772.018; 6542.625;  136.525;    0.000
772.211; 6670.625;  145.525;    0.000
772.404; 6697.625;  127.525;    0.000
772.596; 6613.625;  193.525;    0.000
772.789; 6739.625;   64.525;    0.000
772.981; 6670.625;  142.525;    0.000
773.174; 6858.625;  105.525;    0.000
773.366; 6932.625;  166.525;    0.000
773.559; 6954.625;  125.525;    0.000
773.751; 7171.625;  126.525;    0.000
773.944; 7260.625;  147.525;    0.000
774.136; 7280.625;  155.525;    0.000
774.329; 7591.625;  127.525;    0.000
774.521; 7726.625;  133.525;    0.000
774.713; 7821.625;  139.525;    0.000
774.906; 8181.625;  170.525;    0.000
775.098; 8493.625;  144.525;    0.000
775.290; 8883.625;  162.525;    0.000
775.483; 9402.625;  137.525;    0.000
775.675; 9768.625;  148.525;    0.000
775.867;10392.625;   81.525;    0.000
776.059;11352.625;  134.525;    0.000
776.251;12311.625;  137.525;    0.000
776.444;13824.625;  155.525;    0.000
776.636;16063.625;  148.525;    0.000
776.828;20069.625;  129.525;    0.000
777.020;27643.625;  133.525;    0.000
777.212;40605.625;  137.525;    0.000
777.404;45129.625;  124.525;    0.000
777.596;41945.625;  142.525;    0.000
777.788;31726.625;  155.525;    0.000
777.980;24419.625;  119.525;    0.000
778.172;20278.625;  129.525;    0.000
778.364;17076.625;  122.525;    0.000
778.556;15318.625;  129.525;    0.000
778.748;13700.625;  178.525;    0.000
778.940;12395.625;  128.525;    0.000
779.132;11688.625;  145.525;    0.000
779.324;10637.625;   89.525;    0.000
779.516;10060.625;  161.525;    0.000
779.708; 9529.625;  183.525;    0.000
779.900; 9043.625;  124.525;    0.000
780.091; 8717.625;  143.525;    0.000
780.283; 8396.625;  135.525;    0.000
780.475; 8169.625;  129.525;    0.000
780.667; 8090.625;  178.525;    0.000
780.859; 7641.625;  146.525;    0.000
781.050; 7580.625;  156.525;    0.000
781.242; 7361.625;  138.525;    0.000
781.434; 7168.625;  117.525;    0.000
781.625; 7018.625;  161.525;    0.000
781.817; 6964.625;  127.525;    0.000
782.008; 6909.625;  138.525;    0.000
782.200; 6712.625;  139.525;    0.000
782.392; 6589.625;  179.525;    0.000
782.583; 6704.625;  137.525;    0.000
782.775; 6467.625;  162.525;    0.000
782.966; 6404.625;  159.525;    0.000
783.158; 6369.625;  118.525;    0.000
783.349; 6296.625;  160.525;    0.000
783.541; 6295.625;  139.525;    0.000
783.732; 6181.625;  145.525;    0.000
783.924; 6175.625;  146.525;    0.000
784.115; 6148.625;  125.525;    0.000
784.306; 6143.625;  118.525;    0.000
784.498; 5967.625;  144.525;    0.000
784.689; 5948.625;  145.525;    0.000
784.880; 5933.625;  137.525;    0.000
785.072; 5911.625;  157.525;    0.000
785.263; 5983.625;  149.525;    0.000
785.454; 5793.625;  128.525;    0.000
785.645; 5787.625;  131.525;    0.000
785.837; 5704.625;  137.525;    0.000
786.028; 5899.625;  161.525;    0.000
786.219; 5799.625;  155.525;    0.000
786.410; 5684.625;  146.525;    0.000
786.601; 5747.625;  120.525;    0.000
786.792; 5791.625;  179.525;    0.000
786.984; 5833.625;  113.525;    0.000
787.175; 5683.625;  156.525;    0.000
787.366; 5699.625;  131.525;    0.000
787.557; 5713.625;  138.525;    0.000
787.748; 5701.625;  112.525;    0.000
787.939; 5714.625;  115.525;    0.000
788.130; 5781.625;  150.525;    0.000
788.321; 5797.625;  122.525;    0.000
788.512; 5824.625;  147.525;    0.000
788.703; 5794.625;  126.525;    0.000
788.894; 5830.625;   80.525;    0.000
789.084; 5728.625;  127.525;    0.000
789.275; 5818.625;  141.525;    0.000
789.466; 5793.625;  108.525;    0.000
789.657; 5806.625;  137.525;    0.000
789.848; 5814.625;  126.525;    0.000
790.039; 5865.625;  144.525;    0.000
790.229; 5852.625;  105.525;    0.000
790.420; 5810.625;   96.525;    0.000
790.611; 5842.625;  171.525;    0.000
790.801; 5774.625;   89.525;    0.000
790.992; 5862.625;  140.525;    0.000
791.183; 5803.625;  143.525;    0.000
791.373; 5738.625;  128.525;    0.000
791.564; 5742.625;   96.525;    0.000
791.755; 5742.625;  111.525;    0.000
791.945; 5668.625;  112.525;    0.000
792.136; 5743.625;  124.525;    0.000
792.326; 5810.625;   88.525;    0.000
792.517; 5946.625;  130.525;    0.000
792.707; 5908.625;  144.525;    0.000
792.898; 5933.625;  120.525;    0.000
793.088; 5945.625;  106.525;    0.000
793.279; 6030.625;  104.525;    0.000
793.469; 6022.625;  103.525;    0.000
793.660; 6145.625;  120.525;    0.000
793.850; 6300.625;  106.525;    0.000
794.040; 6486.625;  135.525;    0.000
794.231; 6738.625;   80.525;    0.000
794.421; 7188.625;  120.525;    0.000
794.611; 7978.625;  154.525;    0.000
794.802; 9241.625;  103.525;    0.000
794.992; 9728.625;  120.525;    0.000
795.182; 9902.625;  156.525;    0.000
795.372; 9363.625;  104.525;    0.000
795.563; 8410.625;  153.525;    0.000
795.753; 7806.625;  112.525;    0.000
795.943; 7347.625;  128.525;    0.000
796.133; 7044.625;  128.525;    0.000
796.323; 6683.625;  152.525;    0.000
796.513; 6538.625;  123.525;    0.000
796.703; 6380.625;  134.525;    0.000
796.893; 6293.625;  120.525;    0.000
797.083; 6205.625;  136.525;    0.000
797.273; 6149.625;  128.525;    0.000
797.463; 5936.625;  140.525;    0.000
797.653; 5897.625;   75.525;    0.000
797.843; 5798.625;  114.525;    0.000
798.033; 5808.625;   90.525;    0.000
798.223; 5578.625;  136.525;    0.000
798.413; 5585.625;  164.525;    0.000
798.603; 5574.625;  150.525;    0.000
798.793; 5414.625;  137.525;    0.000
798.983; 5421.625;  119.525;    0.000
799.172; 5398.625;  136.525;    0.000
799.362; 5426.625;  138.525;    0.000
799.552; 5412.625;  123.525;    0.000
799.742; 5224.625;  117.525;    0.000
799.932; 5162.625;  108.525;    0.000
800.121; 5254.625;  152.525;    0.000
800.311; 5268.625;  117.525;    0.000
800.501; 5215.625;  100.525;    0.000
800.690; 5235.625;  139.525;    0.000
800.880; 5118.625;  138.525;    0.000
801.070; 5124.625;  120.525;    0.000
801.259; 5257.625;  143.525;    0.000
801.449; 5059.625;  110.525;    0.000
801.638; 5131.625;  140.525;    0.000
801.828; 5054.625;  103.525;    0.000
802.017; 5085.625;   78.525;    0.000
802.207; 5038.625;  126.525;    0.000
802.396; 5233.625;  151.525;    0.000
802.586; 4993.625;  106.525;    0.000
802.775; 5048.625;  152.525;    0.000
802.965; 5150.625;  117.525;    0.000
803.154; 5066.625;  171.525;    0.000
803.343; 5146.625;  126.525;    0.000
803.533; 5054.625;  135.525;    0.000
803.722; 5007.625;  144.525;    0.000
803.911; 5024.625;  109.525;    0.000
804.101; 4974.625;  146.525;    0.000
804.290; 4992.625;  115.525;    0.000
804.479; 4994.625;  128.525;    0.000
804.668; 5075.625;  156.525;    0.000
804.857; 5103.625;  151.525;    0.000
805.047; 5076.625;  131.525;    0.000
805.236; 5029.625;  144.525;    0.000
805.425; 5116.625;  160.525;    0.000
805.614; 4987.625;  112.525;    0.000
805.803; 5181.625;  120.525;    0.000
805.992; 5017.625;  148.525;    0.000
806.181; 5040.625;  108.525;    0.000
806.370; 5039.625;  142.525;    0.000
806.559; 5109.625;  116.525;    0.000
806.748; 5058.625;  108.525;    0.000
806.937; 4984.625;  110.525;    0.000
807.126; 5057.625;  126.525;    0.000
807.315; 4957.625;  121.525;    0.000
807.504; 5068.625;  102.525;    0.000
807.693; 5138.625;  134.525;    0.000
807.882; 5135.625;  135.525;    0.000
808.071; 5132.625;  135.525;    0.000
808.260; 5038.625;   93.525;    0.000
808.448; 5285.625;  151.525;    0.000
808.637; 5324.625;  105.525;    0.000
808.826; 5227.625;  178.525;    0.000
809.015; 5109.625;  152.525;    0.000
809.203; 5308.625;  147.525;    0.000
809.392; 5240.625;  144.525;    0.000
809.581; 5341.625;  167.525;    0.000
809.770; 5281.625;  151.525;    0.000
809.958; 5302.625;  128.525;    0.000
810.147; 5323.625;  152.525;    0.000
810.335; 5501.625;  160.525;    0.000
810.524; 5492.625;  130.525;    0.000
810.713; 5514.625;  128.525;    0.000
810.901; 5524.625;  140.525;    0.000
811.090; 5713.625;  152.525;    0.000
811.278; 5710.625;  126.525;    0.000
811.467; 5825.625;  161.525;    0.000
811.655; 5958.625;  184.525;    0.000
811.844; 5793.625;  148.525;    0.000
812.032; 5924.625;  138.525;    0.000
812.220; 5886.625;  157.525;    0.000
812.409; 5998.625;  143.525;    0.000
812.597; 5980.625;  124.525;    0.000
812.785; 6010.625;  170.525;    0.000
812.974; 6031.625;  135.525;    0.000
813.162; 6118.625;  135.525;    0.000
813.350; 6162.625;  182.525;    0.000
813.539; 6173.625;  126.525;    0.000
813.727; 6366.625;  127.525;    0.000
813.915; 6431.625;  140.525;    0.000
814.103; 6464.625;  176.525;    0.000
814.291; 6608.625;  115.525;    0.000
814.479; 6558.625;  119.525;    0.000
814.668; 6728.625;  134.525;    0.000
814.856; 6787.625;  120.525;    0.000
815.044; 7019.625;  164.525;    0.000
815.232; 7079.625;  146.525;    0.000
815.420; 7246.625;  154.525;    0.000
815.608; 7359.625;  137.525;    0.000
815.796; 7457.625;  108.525;    0.000
815.984; 7681.625;  134.525;    0.000
816.172; 7911.625;  123.525;    0.000
816.360; 8362.625;  181.525;    0.000
816.548; 8637.625;  139.525;    0.000
816.736; 9066.625;  138.525;    0.000
816.924; 9446.625;  151.525;    0.000
817.111;10055.625;  156.525;    0.000
817.299;10704.625;  147.525;    0.000
817.487;11522.625;  188.525;    0.000
817.675;13072.625;  129.525;    0.000
817.863;15310.625;  128.525;    0.000
818.050;20215.625;  110.525;    0.000
818.238;32903.625;  166.525;    0.000
818.426;43496.625;  136.525;    0.000
818.613;34515.625;  143.525;    0.000
818.801;29338.625;  150.525;    0.000
818.989;28113.625;  179.525;    0.000
819.176;29711.625;  123.525;    0.000
819.364;39817.625;  148.525;    0.000
819.552;51179.625;   86.525;    0.000
819.739;40862.625;  169.525;    0.000
819.927;31976.625;  130.525;    0.000
820.114;27085.625;  144.525;    0.000
820.302;23866.625;  166.525;    0.000
820.489;21493.625;  145.525;    0.000
820.677;19890.625;  101.525;    0.000
820.864;18751.625;  149.525;    0.000
821.052;18658.625;  130.525;    0.000
821.239;18236.625;  147.525;    0.000
821.426;18772.625;  121.525;    0.000
821.614;20634.625;  187.525;    0.000
821.801;21413.625;  105.525;    0.000
821.988;19200.625;  167.525;    0.000
822.176;18255.625;  130.525;    0.000
822.363;18629.625;  143.525;    0.000
822.550;17068.625;  108.525;    0.000
822.737;15590.625;  109.525;    0.000
822.924;14627.625;  156.525;    0.000
823.112;13947.625;  123.525;    0.000
823.299;12870.625;  128.525;    0.000
823.486;12269.625;  138.525;    0.000
823.673;11744.625;  125.525;    0.000
823.860;11571.625;  138.525;    0.000
824.047;11495.625;  122.525;    0.000
824.234;12196.625;  134.525;    0.000
824.421;12402.625;   95.525;    0.000
824.608;11179.625;  151.525;    0.000
824.795;10117.625;  117.525;    0.000
824.982; 9475.625;  143.525;    0.000
825.169; 9369.625;   83.525;    0.000
825.356; 8904.625;  126.525;    0.000
825.543; 8409.625;   92.525;    0.000
825.730; 7974.625;  113.525;    0.000
825.917; 7839.625;  142.525;    0.000
826.104; 7634.625;  182.525;    0.000
826.290; 7351.625;  137.525;    0.000
826.477; 7150.625;  126.525;    0.000
826.664; 7182.625;  135.525;    0.000
826.851; 6771.625;  139.525;    0.000
827.038; 6836.625;  135.525;    0.000
827.224; 6509.625;  143.525;    0.000
827.411; 6490.625;  153.525;    0.000
827.598; 6292.625;  122.525;    0.000
827.784; 6261.625;  138.525;    0.000
827.971; 6239.625;  134.525;    0.000
828.157; 5944.625;  152.525;    0.000
828.344; 5870.625;  135.525;    0.000
828.531; 5819.625;  137.525;    0.000
828.717; 5750.625;  117.525;    0.000
828.904; 5603.625;  127.525;    0.000
829.090; 5599.625;  172.525;    0.000
829.277; 5380.625;  144.525;    0.000
829.463; 5407.625;  159.525;    0.000
829.650; 5276.625;  187.525;    0.000
829.836; 5353.625;  138.525;    0.000
830.022; 5313.625;  196.525;    0.000
830.209; 5225.625;  118.525;    0.000
830.395; 4987.625;  148.525;    0.000
830.581; 4943.625;  108.525;    0.000
830.768; 4942.625;  137.525;    0.000
830.954; 4774.625;  162.525;    0.000
831.140; 4864.625;  117.525;    0.000
831.327; 4825.625;  176.525;    0.000
831.513; 4735.625;  162.525;    0.000
831.699; 4690.625;  157.525;    0.000
831.885; 4666.625;  153.525;    0.000
832.071; 4663.625;  123.525;    0.000
832.257; 4650.625;  142.525;    0.000
832.444; 4517.625;  165.525;    0.000
832.630; 4658.625;  159.525;    0.000
832.816; 4548.625;  145.525;    0.000
833.002; 4415.625;  120.525;    0.000
833.188; 4470.625;  145.525;    0.000
833.374; 4440.625;  137.525;    0.000
833.560; 4338.625;  152.525;    0.000
833.746; 4253.625;  139.525;    0.000
833.932; 4307.625;  170.525;    0.000
834.118; 4292.625;  111.525;    0.000
834.303; 4279.625;  141.525;    0.000
834.489; 4268.625;  146.525;    0.000
834.675; 4332.625;  156.525;    0.000
834.861; 4165.625;   87.525;    0.000
835.047; 4239.625;  134.525;    0.000
835.233; 4001.625;   89.525;    0.000
835.418; 4169.625;  145.525;    0.000
835.604; 4131.625;  136.525;    0.000
835.790; 4080.625;  132.525;    0.000
835.976; 4089.625;  161.525;    0.000
836.161; 4050.625;  157.525;    0.000
836.347; 4070.625;  147.525;    0.000
836.533; 4033.625;  116.525;    0.000
836.718; 3995.625;  168.525;    0.000
836.904; 4036.625;  199.525;    0.000
837.089; 3976.625;  165.525;    0.000
837.275; 3922.625;  166.525;    0.000
837.460; 4062.625;  144.525;    0.000
837.646; 4091.625;  164.525;    0.000
837.831; 3993.625;  122.525;    0.000
838.017; 3973.625;  163.525;    0.000
838.202; 3920.625;  139.525;    0.000
838.388; 3960.625;  174.525;    0.000
838.573; 4025.625;  140.525;    0.000
838.759; 3870.625;  167.525;    0.000
838.944; 3908.625;  142.525;    0.000
839.129; 3957.625;  164.525;    0.000
839.315; 3963.625;  129.525;    0.000
839.500; 3886.625;  150.525;    0.000
839.685; 3898.625;  118.525;    0.000
839.870; 3819.625;  177.525;    0.000
840.056; 3886.625;  144.525;    0.000
840.241; 3931.625;  121.525;    0.000
840.426; 3908.625;  131.525;    0.000
840.611; 4034.625;  177.525;    0.000
840.796; 3915.625;  173.525;    0.000
840.981; 3920.625;  156.525;    0.000
841.166; 4023.625;  145.525;    0.000
841.352; 4067.625;  150.525;    0.000
841.537; 4044.625;  143.525;    0.000
841.722; 4101.625;  165.525;    0.000
841.907; 4037.625;  184.525;    0.000
842.092; 4093.625;  171.525;    0.000
842.277; 4225.625;  155.525;    0.000
842.461; 4283.625;  152.525;    0.000
842.646; 4258.625;  107.525;    0.000
842.831; 4376.625;  160.525;    0.000
843.016; 4470.625;  160.525;    0.000
843.201; 4574.625;  164.525;    0.000
843.386; 4767.625;  134.525;    0.000
843.571; 5012.625;  132.525;    0.000
843.755; 5213.625;  158.525;    0.000
843.940; 5642.625;  152.525;    0.000
844.125; 6262.625;  154.525;    0.000
844.310; 7311.625;  147.525;    0.000
844.494; 9541.625;  158.525;    0.000
844.679;12982.625;  173.525;    0.000
844.864;12546.625;  152.525;    0.000
845.048;10338.625;  139.525;    0.000
845.233; 8719.625;  200.525;    0.000
845.418; 7774.625;  139.525;    0.000
845.602; 6746.625;  147.525;    0.000
845.787; 6116.625;  148.525;    0.000
845.971; 5884.625;  170.525;    0.000
846.156; 5403.625;  136.525;    0.000
846.340; 5334.625;  146.525;    0.000
846.525; 4948.625;  188.525;    0.000
846.709; 4673.625;  128.525;    0.000
846.893; 4635.625;  151.525;    0.000
847.078; 4527.625;  164.525;    0.000
847.262; 4406.625;  155.525;    0.000
847.447; 4113.625;  114.525;    0.000
847.631; 4080.625;  148.525;    0.000
847.815; 4061.625;  114.525;    0.000
848.000; 3903.625;  134.525;    0.000
848.184; 3880.625;  154.525;    0.000
848.368; 3732.625;  145.525;    0.000
848.552; 3749.625;  122.525;    0.000
848.736; 3754.625;  139.525;    0.000
848.921; 3719.625;  143.525;    0.000
849.105; 3645.625;  145.525;    0.000
849.289; 3727.625;  173.525;    0.000
849.473; 3550.625;  147.525;    0.000
849.657; 3638.625;  144.525;    0.000
849.841; 3517.625;  168.525;    0.000
850.025; 3460.625;  205.525;    0.000
850.209; 3419.625;  171.525;    0.000
850.393; 3340.625;  130.525;    0.000
850.577; 3410.625;  146.525;    0.000
850.761; 3476.625;  188.525;    0.000
850.945; 3235.625;  137.525;    0.000
851.129; 3369.625;  192.525;    0.000
851.313; 3281.625;  199.525;    0.000
851.497; 3304.625;  165.525;    0.000
851.680; 3357.625;  196.525;    0.000
851.864; 3225.625;  169.525;    0.000
852.048; 3312.625;  156.525;    0.000
852.232; 3322.625;  150.525;    0.000
852.416; 3375.625;  219.525;    0.000
852.599; 3160.625;  168.525;    0.000
852.783; 3136.625;  165.525;    0.000
852.967; 3193.625;  166.525;    0.000
853.150; 3302.625;  191.525;    0.000
853.334; 3231.625;  158.525;    0.000
853.518; 3259.625;  168.525;    0.000
853.701; 3197.625;  125.525;    0.000
853.885; 3244.625;  165.525;    0.000
854.068; 3244.625;  142.525;    0.000
854.252; 3219.625;  167.525;    0.000
854.435; 3183.625;  146.525;    0.000
854.619; 3156.625;  163.525;    0.000
854.802; 3241.625;  167.525;    0.000
854.986; 3217.625;  163.525;    0.000
855.169; 3077.625;  146.525;    0.000
855.353; 3143.625;  183.525;    0.000
855.536; 3129.625;  140.525;    0.000
855.719; 3174.625;  168.525;    0.000
855.903; 3266.625;  170.525;    0.000
856.086; 3250.625;  145.525;    0.000
856.269; 3209.625;  126.525;    0.000
856.452; 3180.625;  142.525;    0.000
856.636; 3402.625;  140.525;    0.000
856.819; 3732.625;  127.525;    0.000
857.002; 3708.625;  165.525;    0.000
857.185; 3564.625;  111.525;    0.000
857.368; 3521.625;  143.525;    0.000
857.552; 3480.625;  174.525;    0.000
857.735; 3485.625;  194.525;    0.000
857.918; 3453.625;  171.525;    0.000
858.101; 3301.625;  142.525;    0.000
858.284; 3324.625;  118.525;    0.000
858.467; 3413.625;  163.525;    0.000
858.650; 3534.625;  149.525;    0.000
858.833; 3644.625;  120.525;    0.000
859.016; 3672.625;  169.525;    0.000
859.199; 3719.625;  121.525;    0.000
859.382; 4092.625;  184.525;    0.000
859.564; 4374.625;  139.525;    0.000
859.747; 4281.625;  126.525;    0.000
859.930; 4027.625;  109.525;    0.000
860.113; 3969.625;  137.525;    0.000
860.296; 3949.625;  182.525;    0.000
860.478; 3808.625;  136.525;    0.000
860.661; 3762.625;  157.525;    0.000
860.844; 3719.625;  129.525;    0.000
861.027; 3642.625;  163.525;    0.000
861.209; 3632.625;  151.525;    0.000
861.392; 3599.625;  124.525;    0.000
861.575; 3630.625;  163.525;    0.000
861.757; 3751.625;  205.525;    0.000
861.940; 3742.625;  180.525;    0.000
862.122; 3787.625;  148.525;    0.000
862.305; 3911.625;  128.525;    0.000
862.487; 4078.625;  172.525;    0.000
862.670; 4413.625;  123.525;    0.000
862.852; 5078.625;  126.525;    0.000
863.035; 6087.625;  174.525;    0.000
863.217; 5995.625;  160.525;    0.000
863.400; 5370.625;  164.525;    0.000
863.582; 5172.625;  118.525;    0.000
863.764; 4752.625;  143.525;    0.000
863.947; 4657.625;  137.525;    0.000
864.129; 4585.625;  166.525;    0.000
864.311; 4322.625;  128.525;    0.000
864.493; 4325.625;  153.525;    0.000
864.676; 4197.625;  156.525;    0.000
864.858; 4172.625;  159.525;    0.000
865.040; 4112.625;  163.525;    0.000
865.222; 4072.625;  138.525;    0.000
865.404; 4222.625;  157.525;    0.000
865.587; 4502.625;  184.525;    0.000
865.769; 4669.625;  178.525;    0.000
865.951; 4647.625;  104.525;    0.000
866.133; 4507.625;  147.525;    0.000
866.315; 4498.625;  141.525;    0.000
866.497; 4622.625;  132.525;    0.000
866.679; 4780.625;  139.525;    0.000
866.861; 4891.625;  118.525;    0.000
867.043; 5187.625;  154.525;    0.000
867.225; 5432.625;  147.525;    0.000
867.407; 5886.625;  158.525;    0.000
867.589; 6589.625;  172.525;    0.000
867.770; 7937.625;  159.525;    0.000
867.952;11077.625;  149.525;    0.000
868.134;14471.625;  156.525;    0.000
868.316;14304.625;  171.525;    0.000
868.498;13950.625;  200.525;    0.000
868.679;11926.625;  174.525;    0.000
868.861;10176.625;  175.525;    0.000
869.043; 8591.625;  174.525;    0.000
869.224; 7651.625;  122.525;    0.000
869.406; 6696.625;  166.525;    0.000
869.588; 6312.625;  143.525;    0.000
869.769; 6015.625;  152.525;    0.000
869.951; 5879.625;  165.525;    0.000
870.132; 5931.625;  115.525;    0.000
870.314; 6497.625;  139.525;    0.000
870.495; 6787.625;  168.525;    0.000
870.677; 6165.625;  188.525;    0.000
870.858; 5987.625;  123.525;    0.000
871.040; 6207.625;  170.525;    0.000
871.221; 6870.625;  148.525;    0.000
871.403; 6699.625;  140.525;    0.000
871.584; 6116.625;  174.525;    0.000
871.765; 6259.625;  168.525;    0.000
871.947; 6585.625;  191.525;    0.000
872.128; 5972.625;  132.525;    0.000
872.309; 5399.625;  140.525;    0.000
872.491; 4853.625;  157.525;    0.000
872.672; 4539.625;  130.525;    0.000
872.853; 4470.625;  148.525;    0.000
873.034; 4367.625;  138.525;    0.000
873.215; 4227.625;  152.525;    0.000
873.396; 3870.625;  149.525;    0.000
873.578; 3785.625;  173.525;    0.000
873.759; 3690.625;  158.525;    0.000
873.940; 3557.625;  147.525;    0.000
874.121; 3513.625;  136.525;    0.000
874.302; 3412.625;  151.525;    0.000
874.483; 3278.625;  137.525;    0.000
874.664; 3324.625;  163.525;    0.000
874.845; 3388.625;  124.525;    0.000
875.026; 3350.625;  134.525;    0.000
875.207; 3249.625;  164.525;    0.000
875.388; 3238.625;  163.525;    0.000
875.568; 3157.625;  176.525;    0.000
875.749; 3031.625;  108.525;    0.000
875.930; 3120.625;  191.525;    0.000
876.111; 3006.625;  170.525;    0.000
876.292; 2922.625;  180.525;    0.000
876.472; 2966.625;  150.525;    0.000
876.653; 2865.625;  162.525;    0.000
876.834; 2951.625;  176.525;    0.000
877.015; 2776.625;  203.525;    0.000
877.195; 2810.625;  178.525;    0.000
877.376; 2738.625;  141.525;    0.000
877.556; 2824.625;  135.525;    0.000
877.737; 2755.625;  174.525;    0.000
877.918; 2753.625;  150.525;    0.000
878.098; 2730.625;  133.525;    0.000
878.279; 2748.625;  129.525;    0.000
878.459; 2681.625;  162.525;    0.000
878.640; 2711.625;  187.525;    0.000
878.820; 2758.625;  151.525;    0.000
879.000; 2714.625;  159.525;    0.000
879.181; 2735.625;  171.525;    0.000
879.361; 2748.625;  167.525;    0.000
879.542; 2649.625;  126.525;    0.000
879.722; 2652.625;  152.525;    0.000
879.902; 2648.625;  144.525;    0.000
880.083; 2705.625;  154.525;    0.000
880.263; 2807.625;  148.525;    0.000
880.443; 2836.625;  185.525;    0.000
880.623; 3065.625;  172.525;    0.000
880.803; 3403.625;  152.525;    0.000
880.984; 3024.625;  165.525;    0.000
881.164; 2897.625;  164.525;    0.000
881.344; 2939.625;  141.525;    0.000
881.524; 2870.625;  160.525;    0.000
881.704; 2875.625;  164.525;    0.000
881.884; 3017.625;  159.525;    0.000
882.064; 3100.625;  158.525;    0.000
882.244; 3153.625;  147.525;    0.000
882.424; 2990.625;  160.525;    0.000
882.604; 2939.625;  150.525;    0.000
882.784; 2848.625;  138.525;    0.000
882.964; 2733.625;  157.525;    0.000
883.144; 2742.625;  128.525;    0.000
883.324; 2792.625;  220.525;    0.000
883.504; 2733.625;  177.525;    0.000
883.683; 2605.625;  159.525;    0.000
883.863; 2586.625;  143.525;    0.000
884.043; 2606.625;  156.525;    0.000
884.223; 2493.625;  152.525;    0.000
884.402; 2538.625;  169.525;    0.000
884.582; 2518.625;  162.525;    0.000
884.762; 2510.625;  172.525;    0.000
884.941; 2434.625;  220.525;    0.000
885.121; 2490.625;  128.525;    0.000
885.301; 2510.625;  141.525;    0.000
885.480; 2436.625;  141.525;    0.000
885.660; 2440.625;  132.525;    0.000
885.839; 2380.625;  146.525;    0.000
886.019; 2448.625;  170.525;    0.000
886.198; 2388.625;  143.525;    0.000
886.378; 2333.625;  159.525;    0.000
886.557; 2445.625;  148.525;    0.000
886.737; 2355.625;  125.525;    0.000
886.916; 2357.625;  177.525;    0.000
887.095; 2511.625;  186.525;    0.000
887.275; 2414.625;  134.525;    0.000
887.454; 2394.625;  148.525;    0.000
887.633; 2357.625;  171.525;    0.000
887.813; 2400.625;  187.525;    0.000
887.992; 2369.625;  157.525;    0.000
888.171; 2418.625;  143.525;    0.000
888.350; 2390.625;  182.525;    0.000
888.530; 2362.625;  142.525;    0.000
888.709; 2317.625;  160.525;    0.000
888.888; 2354.625;  197.525;    0.000
889.067; 2290.625;  126.525;    0.000
889.246; 2358.625;  197.525;    0.000
889.425; 2332.625;  161.525;    0.000
889.604; 2352.625;  180.525;    0.000
889.783; 2276.625;  135.525;    0.000
889.962; 2282.625;  107.525;    0.000
890.141; 2322.625;  167.525;    0.000
890.320; 2379.625;  149.525;    0.000
890.499; 2347.625;  194.525;    0.000
890.678; 2309.625;  138.525;    0.000
890.857; 2342.625;  146.525;    0.000
891.036; 2296.625;  178.525;    0.000
891.214; 2251.625;  151.525;    0.000
891.393; 2233.625;  137.525;    0.000
891.572; 2320.625;  177.525;    0.000
891.751; 2268.625;  149.525;    0.000
891.930; 2333.625;  189.525;    0.000
892.108; 2273.625;  136.525;    0.000
892.287; 2356.625;  129.525;    0.000
892.466; 2257.625;  163.525;    0.000
892.644; 2301.625;  147.525;    0.000
892.823; 2262.625;  127.525;    0.000
893.001; 2266.625;  192.525;    0.000
893.180; 2213.625;  157.525;    0.000
893.359; 2216.625;  176.525;    0.000
893.537; 2328.625;  146.525;    0.000
893.716; 2272.625;  154.525;    0.000
893.894; 2304.625;  166.525;    0.000
894.073; 2360.625;  163.525;    0.000
894.251; 2233.625;  166.525;    0.000
894.429; 2235.625;  149.525;    0.000
894.608; 2297.625;  141.525;    0.000
894.786; 2311.625;  139.525;    0.000
894.964; 2213.625;  180.525;    0.000
895.143; 2260.625;  193.525;    0.000
895.321; 2301.625;  163.525;    0.000
895.499; 2338.625;  163.525;    0.000
895.677; 2329.625;  194.525;    0.000
895.856; 2282.625;  176.525;    0.000
896.034; 2271.625;  173.525;    0.000
896.212; 2342.625;  180.525;    0.000
896.390; 2330.625;  146.525;    0.000
896.568; 2370.625;  167.525;    0.000
896.746; 2260.625;  158.525;    0.000
896.924; 2353.625;  163.525;    0.000
897.102; 2382.625;  170.525;    0.000
897.280; 2344.625;  159.525;    0.000
897.458; 2352.625;  182.525;    0.000
897.636; 2323.625;  151.525;    0.000
897.814; 2362.625;  130.525;    0.000
897.992; 2362.625;  213.525;    0.000
898.170; 2395.625;  164.525;    0.000
898.348; 2381.625;  159.525;    0.000
898.526; 2395.625;  182.525;    0.000
898.704; 2408.625;  209.525;    0.000
898.882; 2336.625;  145.525;    0.000
899.059; 2343.625;  172.525;    0.000
899.237; 2372.625;  172.525;    0.000
899.415; 2341.625;  211.525;    0.000
899.593; 2355.625;  151.525;    0.000
899.770; 2429.625;  147.525;    0.000
899.948; 2459.625;  218.525;    0.000
900.125; 2405.625;  166.525;    0.000
900.303; 2438.625;  146.525;    0.000
900.481; 2399.625;  174.525;    0.000
900.658; 2480.625;  198.525;    0.000
900.836; 2445.625;  125.525;    0.000
901.013; 2382.625;  197.525;    0.000
901.191; 2454.625;  181.525;    0.000
901.368; 2519.625;  185.525;    0.000
901.546; 2583.625;  197.525;    0.000
901.723; 2612.625;  205.525;    0.000
901.901; 2632.625;  187.525;    0.000
902.078; 2738.625;  163.525;    0.000
902.255; 2733.625;  141.525;    0.000
902.433; 2827.625;  183.525;    0.000
902.610; 2729.625;  181.525;    0.000
902.787; 2755.625;  174.525;    0.000
902.964; 2806.625;  174.525;    0.000
903.142; 2814.625;  141.525;    0.000
903.319; 3011.625;  214.525;    0.000
903.496; 2942.625;  187.525;    0.000
903.673; 2935.625;  183.525;    0.000
903.850; 2960.625;  125.525;    0.000
904.027; 3168.625;  197.525;    0.000
904.204; 3265.625;  197.525;    0.000
904.381; 3466.625;  196.525;    0.000
904.558; 3943.625;  176.525;    0.000
904.735; 4505.625;  179.525;    0.000
904.912; 4547.625;  203.525;    0.000
905.089; 4484.625;  159.525;    0.000
905.266; 4192.625;  176.525;    0.000
905.443; 3783.625;  184.525;    0.000
905.620; 3536.625;  168.525;    0.000
905.797; 3577.625;  214.525;    0.000
905.974; 3371.625;  154.525;    0.000
906.151; 3271.625;  132.525;    0.000
906.327; 3329.625;  192.525;    0.000
906.504; 3205.625;  186.525;    0.000
906.681; 3132.625;  171.525;    0.000
906.858; 3071.625;  181.525;    0.000
907.034; 3029.625;  164.525;    0.000
907.211; 2954.625;  184.525;    0.000
907.388; 2726.625;  177.525;    0.000
907.564; 2839.625;  150.525;    0.000
907.741; 2789.625;  195.525;    0.000
907.917; 2748.625;  190.525;    0.000
908.094; 2800.625;  214.525;    0.000
908.271; 2720.625;  173.525;    0.000
908.447; 2697.625;  229.525;    0.000
908.623; 2646.625;  162.525;    0.000
908.800; 2647.625;  195.525;    0.000
908.976; 2561.625;  171.525;    0.000
909.153; 2611.625;  167.525;    0.000
909.329; 2542.625;  227.525;    0.000
909.505; 2478.625;  167.525;    0.000
909.682; 2579.625;  174.525;    0.000
909.858; 2454.625;  158.525;    0.000
910.034; 2609.625;  188.525;    0.000
910.211; 2470.625;  158.525;    0.000
910.387; 2492.625;  208.525;    0.000
910.563; 2509.625;  203.525;    0.000
910.739; 2456.625;  201.525;    0.000
910.915; 2450.625;  170.525;    0.000
911.091; 2484.625;  171.525;    0.000
911.268; 2359.625;  220.525;    0.000
911.444; 2420.625;  202.525;    0.000
911.620; 2465.625;  175.525;    0.000
911.796; 2416.625;  175.525;    0.000
911.972; 2481.625;  164.525;    0.000
912.148; 2487.625;  174.525;    0.000
912.324; 2447.625;  155.525;    0.000
912.500; 2440.625;  156.525;    0.000
912.676; 2445.625;  138.525;    0.000
912.851; 2406.625;  158.525;    0.000
913.027; 2455.625;  161.525;    0.000
913.203; 2471.625;  168.525;    0.000
913.379; 2369.625;  172.525;    0.000
913.555; 2386.625;  193.525;    0.000
913.730; 2354.625;  149.525;    0.000
913.906; 2373.625;  159.525;    0.000
914.082; 2471.625;  184.525;    0.000
914.258; 2456.625;  194.525;    0.000
914.433; 2318.625;  175.525;    0.000
914.609; 2344.625;  175.525;    0.000
914.784; 2292.625;  170.525;    0.000
914.960; 2491.625;  212.525;    0.000
915.136; 2281.625;  157.525;    0.000
915.311; 2444.625;  204.525;    0.000
915.487; 2319.625;  180.525;    0.000
915.662; 2473.625;  203.525;    0.000
915.838; 2463.625;  194.525;    0.000
916.013; 2456.625;  217.525;    0.000
916.189; 2417.625;  196.525;    0.000
916.364; 2427.625;  236.525;    0.000
916.539; 2368.625;  192.525;    0.000
916.715; 2391.625;  181.525;    0.000
916.890; 2521.625;  185.525;    0.000
917.065; 2480.625;  166.525;    0.000
917.240; 2453.625;  182.525;    0.000
917.416; 2411.625;  188.525;    0.000
917.591; 2399.625;  185.525;    0.000
917.766; 2386.625;  187.525;    0.000
917.941; 2467.625;  181.525;    0.000
918.116; 2392.625;  207.525;    0.000
918.292; 2393.625;  140.525;    0.000
918.467; 2465.625;  187.525;    0.000
918.642; 2458.625;  208.525;    0.000
918.817; 2483.625;  203.525;    0.000
918.992; 2371.625;  162.525;    0.000
919.167; 2418.625;  206.525;    0.000
919.342; 2522.625;  188.525;    0.000
919.517; 2482.625;  190.525;    0.000
919.692; 2525.625;  174.525;    0.000
919.867; 2529.625;  181.525;    0.000
920.041; 2486.625;  179.525;    0.000
920.216; 2506.625;  186.525;    0.000
920.391; 2598.625;  209.525;    0.000
920.566; 2592.625;  205.525;    0.000
920.741; 2660.625;  205.525;    0.000
920.915; 2830.625;  206.525;    0.000
921.090; 2928.625;  219.525;    0.000
921.265; 3584.625;  185.525;    0.000
921.439; 3949.625;  171.525;    0.000
921.614; 3653.625;  197.525;    0.000
921.789; 3250.625;  189.525;    0.000
921.963; 3125.625;  210.525;    0.000
922.138; 2985.625;  171.525;    0.000
922.312; 2944.625;  194.525;    0.000
922.487; 3064.625;  231.525;    0.000
922.661; 3132.625;  179.525;    0.000
922.836; 3452.625;  213.525;    0.000
923.010; 3586.625;  182.525;    0.000
923.185; 3331.625;  239.525;    0.000
923.359; 3079.625;  200.525;    0.000
923.534; 3069.625;  232.525;    0.000
923.708; 3277.625;  221.525;    0.000
923.882; 3374.625;  193.525;    0.000
924.057; 3221.625;  204.525;    0.000
924.231; 2997.625;  172.525;    0.000
924.405; 3020.625;  202.525;    0.000
924.579; 2924.625;  207.525;    0.000
924.753; 2938.625;  167.525;    0.000
924.928; 2822.625;  202.525;    0.000
925.102; 2918.625;  200.525;    0.000
925.276; 2925.625;  185.525;    0.000
925.450; 2963.625;  170.525;    0.000
925.624; 2968.625;  176.525;    0.000
925.798; 3118.625;  221.525;    0.000
925.972; 3162.625;  162.525;    0.000
926.146; 3328.625;  207.525;    0.000
926.320; 3603.625;  185.525;    0.000
926.494; 3899.625;  192.525;    0.000
926.668; 4034.625;  179.525;    0.000
926.842; 4128.625;  181.525;    0.000
927.016; 4213.625;  224.525;    0.000
927.190; 4077.625;  193.525;    0.000
927.363; 3989.625;  194.525;    0.000
927.537; 3912.625;  210.525;    0.000
927.711; 3603.625;  153.525;    0.000
927.885; 3774.625;  184.525;    0.000
928.058; 3590.625;  197.525;    0.000
928.232; 3532.625;  219.525;    0.000
928.406; 3419.625;  175.525;    0.000
928.579; 3409.625;  179.525;    0.000
928.753; 3336.625;  208.525;    0.000
928.927; 3260.625;  163.525;    0.000
929.100; 3197.625;  138.525;    0.000
929.274; 3107.625;  160.525;    0.000
929.447; 3040.625;  152.525;    0.000
929.621; 3057.625;  168.525;    0.000
929.794; 2975.625;  152.525;    0.000
929.968; 2998.625;  163.525;    0.000
930.141; 2939.625;  164.525;    0.000
930.315; 2919.625;  170.525;    0.000
930.488; 2784.625;  216.525;    0.000
930.661; 2801.625;  184.525;    0.000
930.835; 2856.625;  156.525;    0.000
931.008; 2797.625;  206.525;    0.000
931.181; 2771.625;  163.525;    0.000
931.354; 2747.625;  198.525;    0.000
931.528; 2672.625;  156.525;    0.000
931.701; 2645.625;  170.525;    0.000
931.874; 2560.625;  167.525;    0.000
932.047; 2593.625;  146.525;    0.000
932.220; 2655.625;  159.525;    0.000
932.393; 2549.625;  186.525;    0.000
932.566; 2502.625;  147.525;    0.000
932.739; 2525.625;  192.525;    0.000
932.912; 2510.625;  197.525;    0.000
933.085; 2557.625;  176.525;    0.000
933.258; 2446.625;  171.525;    0.000
933.431; 2394.625;  150.525;    0.000
933.604; 2422.625;  176.525;    0.000
933.777; 2528.625;  215.525;    0.000
933.950; 2424.625;  164.525;    0.000
934.123; 2414.625;  174.525;    0.000
934.296; 2408.625;  203.525;    0.000
934.468; 2340.625;  208.525;    0.000
934.641; 2397.625;  182.525;    0.000
934.814; 2387.625;  170.525;    0.000
934.987; 2384.625;  183.525;    0.000
935.159; 2409.625;  154.525;    0.000
935.332; 2523.625;  178.525;    0.000
935.505; 2412.625;  213.525;    0.000
935.677; 2377.625;  173.525;    0.000
935.850; 2351.625;  190.525;    0.000
936.022; 2364.625;  205.525;    0.000
936.195; 2367.625;  201.525;    0.000
936.367; 2345.625;  189.525;    0.000
936.540; 2444.625;  179.525;    0.000
936.712; 2321.625;  195.525;    0.000
936.885; 2461.625;  207.525;    0.000
937.057; 2457.625;  163.525;    0.000
937.229; 2446.625;  175.525;    0.000
937.402; 2433.625;  168.525;    0.000
937.574; 2472.625;  136.525;    0.000
937.746; 2604.625;  166.525;    0.000
937.919; 2710.625;  178.525;    0.000
938.091; 2818.625;  192.525;    0.000
938.263; 2966.625;  164.525;    0.000
938.435; 3233.625;  204.525;    0.000
938.608; 3589.625;  153.525;    0.000
938.780; 4186.625;  159.525;    0.000
938.952; 4258.625;  160.525;    0.000
939.124; 4346.625;  156.525;    0.000
939.296; 4838.625;  110.525;    0.000
939.468; 5022.625;  135.525;    0.000
939.640; 4530.625;  144.525;    0.000
939.812; 3966.625;  232.525;    0.000
939.984; 3756.625;  128.525;    0.000
940.156; 3376.625;  195.525;    0.000
940.328; 3210.625;  226.525;    0.000
940.500; 3088.625;  146.525;    0.000
940.672; 3042.625;  190.525;    0.000
940.843; 2903.625;  156.525;    0.000
941.015; 2905.625;  200.525;    0.000
941.187; 2702.625;  159.525;    0.000
941.359; 2783.625;  183.525;    0.000
941.531; 2672.625;  137.525;    0.000
941.702; 2709.625;  186.525;    0.000
941.874; 2648.625;  164.525;    0.000
942.046; 2616.625;  202.525;    0.000
942.217; 2525.625;  146.525;    0.000
942.389; 2597.625;  165.525;    0.000
942.560; 2490.625;  191.525;    0.000
942.732; 2357.625;  240.525;    0.000
942.904; 2453.625;  173.525;    0.000
943.075; 2294.625;  157.525;    0.000
943.247; 2370.625;  155.525;    0.000
943.418; 2250.625;  164.525;    0.000
943.589; 2286.625;  150.525;    0.000
943.761; 2232.625;  143.525;    0.000
943.932; 2320.625;  151.525;    0.000
944.104; 2270.625;  194.525;    0.000
944.275; 2274.625;  154.525;    0.000
944.446; 2156.625;  169.525;    0.000
944.617; 2087.625;  138.525;    0.000
944.789; 2171.625;  158.525;    0.000
944.960; 2174.625;  197.525;    0.000
945.131; 2114.625;  139.525;    0.000
945.302; 2191.625;  169.525;    0.000
945.473; 2181.625;  149.525;    0.000
945.645; 2237.625;  171.525;    0.000
945.816; 2178.625;  167.525;    0.000
945.987; 2270.625;  156.525;    0.000
946.158; 2335.625;  185.525;    0.000
946.329; 2320.625;  201.525;    0.000
946.500; 2190.625;  182.525;    0.000
946.671; 2198.625;  156.525;    0.000
946.842; 2190.625;  190.525;    0.000
947.013; 2173.625;  159.525;    0.000
947.183; 2097.625;  209.525;    0.000
947.354; 2098.625;  171.525;    0.000
947.525; 2076.625;  180.525;    0.000
947.696; 2048.625;  163.525;    0.000
947.867; 2142.625;  168.525;    0.000
948.037; 1996.625;  153.525;    0.000
948.208; 2106.625;  178.525;    0.000
948.379; 2111.625;  192.525;    0.000
948.550; 2067.625;  180.525;    0.000
948.720; 1980.625;  196.525;    0.000
948.891; 2103.625;  173.525;    0.000
949.061; 2094.625;  207.525;    0.000
949.232; 1997.625;  176.525;    0.000
949.403; 1965.625;  152.525;    0.000
949.573; 2031.625;  186.525;    0.000
949.744; 2073.625;  181.525;    0.000
949.914; 2024.625;  174.525;    0.000
950.085; 1944.625;  146.525;    0.000
950.255; 1930.625;  162.525;    0.000
950.425; 2031.625;  189.525;    0.000
950.596; 1960.625;  175.525;    0.000
950.766; 2049.625;  209.525;    0.000
950.936; 1949.625;  201.525;    0.000
951.107; 1894.625;  141.525;    0.000
951.277; 1999.625;  211.525;    0.000
951.447; 1907.625;  218.525;    0.000
951.617; 1962.625;  191.525;    0.000
951.788; 1986.625;  193.525;    0.000
951.958; 2012.625;  217.525;    0.000
952.128; 2007.625;  192.525;    0.000
952.298; 1921.625;  237.525;    0.000
952.468; 1928.625;  194.525;    0.000
952.638; 1938.625;  201.525;    0.000
952.808; 1927.625;  203.525;    0.000
952.978; 1959.625;  216.525;    0.000
953.148; 1916.625;  209.525;    0.000
953.318; 1943.625;  213.525;    0.000
953.488; 1842.625;  161.525;    0.000
953.658; 1939.625;  222.525;    0.000
953.828; 1849.625;  196.525;    0.000
953.998; 1961.625;  227.525;    0.000
954.167; 1857.625;  163.525;    0.000
954.337; 1866.625;  201.525;    0.000
954.507; 1833.625;  227.525;    0.000
954.677; 1888.625;  204.525;    0.000
954.846; 1804.625;  210.525;    0.000
955.016; 1832.625;  198.525;    0.000
955.186; 1944.625;  203.525;    0.000
955.355; 1854.625;  198.525;    0.000
955.525; 1855.625;  198.525;    0.000
955.695; 1897.625;  187.525;    0.000
955.864; 1847.625;  243.525;    0.000
956.034; 1865.625;  192.525;    0.000
956.203; 1878.625;  259.525;    0.000
956.373; 1815.625;  185.525;    0.000
956.542; 1824.625;  230.525;    0.000
956.711; 1841.625;  218.525;    0.000
956.881; 1812.625;  232.525;    0.000
957.050; 1894.625;  246.525;    0.000
957.220; 1815.625;  229.525;    0.000
957.389; 1769.625;  211.525;    0.000
957.558; 1772.625;  173.525;    0.000
957.727; 1825.625;  226.525;    0.000
957.897; 1768.625;  209.525;    0.000
958.066; 1721.625;  217.525;    0.000
958.235; 1742.625;  160.525;    0.000
958.404; 1819.625;  199.525;    0.000
958.573; 1788.625;  223.525;    0.000
958.743; 1731.625;  189.525;    0.000
958.912; 1746.625;  199.525;    0.000
959.081; 1716.625;  216.525;    0.000
959.250; 1693.625;  192.525;    0.000
959.419; 1699.625;  216.525;    0.000
959.588; 1691.625;  209.525;    0.000
959.757; 1644.625;  194.525;    0.000
959.926; 1789.625;  200.525;    0.000
960.094; 1714.625;  174.525;    0.000
960.263; 1723.625;  218.525;    0.000
960.432; 1745.625;  173.525;    0.000
960.601; 1653.625;  177.525;    0.000
960.770; 1656.625;  188.525;    0.000
960.939; 1680.625;  167.525;    0.000
961.107; 1683.625;  195.525;    0.000
961.276; 1612.625;  183.525;    0.000
961.445; 1672.625;  195.525;    0.000
961.613; 1591.625;  198.525;    0.000
961.782; 1747.625;  224.525;    0.000
961.951; 1721.625;  178.525;    0.000
962.119; 1709.625;  214.525;    0.000
962.288; 1647.625;  174.525;    0.000
962.456; 1671.625;  197.525;    0.000
962.625; 1747.625;  212.525;    0.000
962.793; 1626.625;  183.525;    0.000
962.962; 1720.625;  189.525;    0.000
963.130; 1703.625;  151.525;    0.000
963.298; 1709.625;  197.525;    0.000
963.467; 1683.625;  202.525;    0.000
963.635; 1644.625;  172.525;    0.000
963.803; 1679.625;  203.525;    0.000
963.972; 1649.625;  204.525;    0.000
964.140; 1686.625;  193.525;    0.000
964.308; 1613.625;  159.525;    0.000
964.477; 1705.625;  142.525;    0.000
964.645; 1683.625;  202.525;    0.000
964.813; 1680.625;  158.525;    0.000
964.981; 1714.625;  179.525;    0.000
965.149; 1730.625;  176.525;    0.000
965.317; 1710.625;  229.525;    0.000
965.485; 1713.625;  179.525;    0.000
965.653; 1743.625;  205.525;    0.000
965.821; 1724.625;  196.525;    0.000
965.989; 1670.625;  202.525;    0.000
966.157; 1768.625;  199.525;    0.000
966.325; 1648.625;  178.525;    0.000
966.493; 1715.625;  177.525;    0.000
966.661; 1681.625;  172.525;    0.000
966.829; 1710.625;  167.525;    0.000
966.996; 1605.625;  202.525;    0.000
967.164; 1641.625;  175.525;    0.000
967.332; 1681.625;  207.525;    0.000
967.500; 1696.625;  170.525;    0.000
967.667; 1676.625;  222.525;    0.000
967.835; 1756.625;  245.525;    0.000
968.003; 1676.625;  180.525;    0.000
968.170; 1734.625;  222.525;    0.000
968.338; 1683.625;  183.525;    0.000
968.505; 1727.625;  197.525;    0.000
968.673; 1733.625;  209.525;    0.000
968.841; 1599.625;  162.525;    0.000
969.008; 1708.625;  187.525;    0.000
969.175; 1709.625;  204.525;    0.000
969.343; 1643.625;  157.525;    0.000
969.510; 1620.625;  189.525;    0.000
969.678; 1709.625;  153.525;    0.000
969.845; 1737.625;  190.525;    0.000
970.012; 1670.625;  162.525;    0.000
970.180; 1687.625;  223.525;    0.000
970.347; 1707.625;  195.525;    0.000
970.514; 1632.625;  185.525;    0.000
970.681; 1676.625;  187.525;    0.000
970.849; 1670.625;  183.525;    0.000
971.016; 1681.625;  168.525;    0.000
971.183; 1715.625;  160.525;    0.000
971.350; 1631.625;  193.525;    0.000
971.517; 1775.625;  202.525;    0.000
971.684; 1702.625;  242.525;    0.000
971.851; 1712.625;  192.525;    0.000
972.018; 1645.625;  194.525;    0.000
972.185; 1669.625;  193.525;    0.000
972.352; 1733.625;  187.525;    0.000
972.519; 1678.625;  233.525;    0.000
972.686; 1609.625;  186.525;    0.000
972.853; 1642.625;  165.525;    0.000
973.020; 1606.625;  183.525;    0.000
973.186; 1638.625;  186.525;    0.000
973.353; 1614.625;  177.525;    0.000
973.520; 1704.625;  203.525;    0.000
973.687; 1660.625;  211.525;    0.000
973.853; 1664.625;  194.525;    0.000
974.020; 1620.625;  201.525;    0.000
974.187; 1676.625;  187.525;    0.000
974.353; 1681.625;  188.525;    0.000
974.520; 1643.625;  136.525;    0.000
974.687; 1643.625;  169.525;    0.000
974.853; 1641.625;  207.525;    0.000
975.020; 1667.625;  190.525;    0.000
975.186; 1700.625;  182.525;    0.000
975.353; 1691.625;  202.525;    0.000
975.519; 1645.625;  189.525;    0.000
975.685; 1580.625;  176.525;    0.000
975.852; 1621.625;  175.525;    0.000
976.018; 1707.625;  155.525;    0.000
976.184; 1613.625;  179.525;    0.000
976.351; 1682.625;  191.525;    0.000
976.517; 1657.625;  246.525;    0.000
976.683; 1642.625;  222.525;    0.000
976.849; 1637.625;  216.525;    0.000
977.016; 1642.625;  212.525;    0.000
977.182; 1620.625;  192.525;    0.000
977.348; 1588.625;  145.525;    0.000
977.514; 1552.625;  195.525;    0.000
977.680; 1630.625;  210.525;    0.000
977.846; 1542.625;  172.525;    0.000
978.012; 1567.625;  190.525;    0.000
978.178; 1637.625;  201.525;    0.000
978.344; 1573.625;  190.525;    0.000
978.510; 1578.625;  199.525;    0.000
978.676; 1526.625;  174.525;    0.000
978.842; 1569.625;  195.525;    0.000
979.008; 1560.625;  205.525;    0.000
979.174; 1644.625;  187.525;    0.000
979.340; 1582.625;  194.525;    0.000
979.505; 1580.625;  221.525;    0.000
979.671; 1520.625;  178.525;    0.000
979.837; 1651.625;  215.525;    0.000
980.003; 1545.625;  176.525;    0.000
980.168; 1628.625;  185.525;    0.000
980.334; 1561.625;  165.525;    0.000
980.499; 1637.625;  231.525;    0.000
980.665; 1601.625;  238.525;    0.000
980.831; 1632.625;  194.525;    0.000
980.996; 1623.625;  169.525;    0.000
981.162; 1608.625;  199.525;    0.000
981.327; 1612.625;  158.525;    0.000
981.493; 1544.625;  193.525;    0.000
981.658; 1505.625;  181.525;    0.000
981.823; 1605.625;  199.525;    0.000
981.989; 1593.625;  186.525;    0.000
982.154; 1631.625;  225.525;    0.000
982.319; 1633.625;  191.525;    0.000
982.485; 1586.625;  205.525;    0.000
982.650; 1696.625;  234.525;    0.000
982.815; 1704.625;  193.525;    0.000
982.980; 1605.625;  177.525;    0.000
983.146; 1650.625;  212.525;    0.000
983.311; 1546.625;  177.525;    0.000
983.476; 1599.625;  185.525;    0.000
983.641; 1575.625;  149.525;    0.000
983.806; 1598.625;  175.525;    0.000
983.971; 1620.625;  234.525;    0.000
984.136; 1618.625;  191.525;    0.000
984.301; 1607.625;  215.525;    0.000
984.466; 1671.625;  207.525;    0.000
984.631; 1708.625;  206.525;    0.000
984.796; 1567.625;  229.525;    0.000
984.961; 1586.625;  220.525;    0.000
985.126; 1593.625;  204.525;    0.000
985.291; 1643.625;  210.525;    0.000
985.455; 1575.625;  193.525;    0.000
985.620; 1647.625;  207.525;    0.000
985.785; 1624.625;  188.525;    0.000
985.950; 1602.625;  168.525;    0.000
986.114; 1597.625;  239.525;    0.000
986.279; 1521.625;  223.525;    0.000
986.444; 1651.625;  154.525;    0.000
986.608; 1705.625;  232.525;    0.000
986.773; 1712.625;  214.525;    0.000
986.937; 1648.625;  220.525;    0.000
987.102; 1676.625;  224.525;    0.000
987.266; 1587.625;  157.525;    0.000
987.431; 1654.625;  246.525;    0.000
987.595; 1645.625;  203.525;    0.000
987.760; 1623.625;  202.525;    0.000
987.924; 1683.625;  208.525;    0.000
988.088; 1637.625;  169.525;    0.000
988.253; 1568.625;  237.525;    0.000
988.417; 1638.625;  202.525;    0.000
988.581; 1591.625;  215.525;    0.000
988.746; 1611.625;  210.525;    0.000
988.910; 1526.625;  191.525;    0.000
989.074; 1611.625;  197.525;    0.000
989.238; 1564.625;  191.525;    0.000
989.402; 1621.625;  222.525;    0.000
989.566; 1539.625;  221.525;    0.000
989.731; 1516.625;  216.525;    0.000
989.895; 1535.625;  183.525;    0.000
990.059; 1623.625;  150.525;    0.000
990.223; 1514.625;  183.525;    0.000
990.387; 1579.625;  241.525;    0.000
990.551; 1529.625;  198.525;    0.000
990.714; 1539.625;  176.525;    0.000
990.878; 1533.625;  203.525;    0.000
991.042; 1548.625;  146.525;    0.000
991.206; 1611.625;  199.525;    0.000
991.370; 1566.625;  223.525;    0.000
991.534; 1539.625;  158.525;    0.000
991.697; 1582.625;  182.525;    0.000
991.861; 1581.625;  195.525;    0.000
992.025; 1603.625;  206.525;    0.000
992.188; 1520.625;  174.525;    0.000
992.352; 1565.625;  183.525;    0.000
992.516; 1446.625;  181.525;    0.000
992.679; 1530.625;  162.525;    0.000
992.843; 1477.625;  173.525;    0.000
993.006; 1573.625;  189.525;    0.000
993.170; 1574.625;  200.525;    0.000
993.333; 1498.625;  167.525;    0.000
993.497; 1548.625;  217.525;    0.000
993.660; 1534.625;  179.525;    0.000
993.824; 1584.625;  195.525;    0.000
993.987; 1594.625;  186.525;    0.000
994.150; 1536.625;  164.525;    0.000
994.314; 1647.625;  215.525;    0.000
994.477; 1520.625;  186.525;    0.000
994.640; 1567.625;  192.525;    0.000
994.803; 1534.625;  215.525;    0.000
994.967; 1505.625;  208.525;    0.000
995.130; 1561.625;  196.525;    0.000
995.293; 1543.625;  221.525;    0.000
995.456; 1509.625;  164.525;    0.000
995.619; 1606.625;  224.525;    0.000
995.782; 1480.625;  184.525;    0.000
995.945; 1582.625;  220.525;    0.000
996.108; 1499.625;  187.525;    0.000
996.271; 1476.625;  192.525;    0.000
996.434; 1558.625;  162.525;    0.000
996.597; 1565.625;  148.525;    0.000
996.760; 1502.625;  186.525;    0.000
996.923; 1521.625;  154.525;    0.000
997.086; 1467.625;  156.525;    0.000
997.248; 1562.625;  215.525;    0.000
997.411; 1588.625;  160.525;    0.000
997.574; 1488.625;  159.525;    0.000
997.737; 1536.625;  179.525;    0.000
997.899; 1485.625;  184.525;    0.000
998.062; 1508.625;  180.525;    0.000
998.225; 1465.625;  168.525;    0.000
998.387; 1459.625;  192.525;    0.000
998.550; 1571.625;  178.525;    0.000
998.712; 1492.625;  192.525;    0.000
998.875; 1559.625;  230.525;    0.000
999.037; 1526.625;  200.525;    0.000
999.200; 1477.625;  196.525;    0.000
999.362; 1569.625;  173.525;    0.000
999.525; 1465.625;  196.525;    0.000
999.687; 1471.625;  159.525;    0.000
999.849; 1458.625;  180.525;    0.000
1000.012; 1530.625;  210.525;    0.000
1000.174; 1572.625;  175.525;    0.000
1000.336; 1548.625;  174.525;    0.000
1000.499; 1573.625;  180.525;    0.000
1000.661; 1620.625;  204.525;    0.000
1000.823; 1542.625;  181.525;    0.000
1000.985; 1559.625;  178.525;    0.000
1001.147; 1621.625;  215.525;    0.000
1001.309; 1560.625;  212.525;    0.000
1001.471; 1571.625;  192.525;    0.000
1001.633; 1546.625;  207.525;    0.000
1001.796; 1551.625;  211.525;    0.000
1001.958; 1612.625;  200.525;    0.000
1002.119; 1657.625;  210.525;    0.000
1002.281; 1707.625;  204.525;    0.000
1002.443; 1766.625;  230.525;    0.000
1002.605; 1867.625;  178.525;    0.000
1002.767; 1835.625;  228.525;    0.000
1002.929; 1988.625;  199.525;    0.000
1003.091; 2013.625;  220.525;    0.000
1003.252; 2056.625;  219.525;    0.000
1003.414; 2209.625;  213.525;    0.000
1003.576; 2317.625;  202.525;    0.000
1003.738; 2365.625;  184.525;    0.000
1003.899; 2460.625;  218.525;    0.000
1004.061; 2597.625;  210.525;    0.000
1004.222; 2610.625;  179.525;    0.000
1004.384; 2808.625;  183.525;    0.000
1004.546; 2716.625;  206.525;    0.000
1004.707; 2755.625;  191.525;    0.000
1004.869; 2804.625;  197.525;    0.000
1005.030; 2754.625;  186.525;    0.000
1005.191; 2681.625;  188.525;    0.000
1005.353; 2593.625;  215.525;    0.000
1005.514; 2509.625;  184.525;    0.000
1005.675; 2369.625;  209.525;    0.000
1005.837; 2306.625;  239.525;    0.000
1005.998; 2220.625;  218.525;    0.000
1006.159; 2332.625;  212.525;    0.000
1006.321; 2334.625;  220.525;    0.000
1006.482; 2436.625;  201.525;    0.000
1006.643; 2564.625;  222.525;    0.000
1006.804; 2641.625;  191.525;    0.000
1006.965; 2655.625;  214.525;    0.000
1007.126; 2738.625;  214.525;    0.000
1007.287; 2799.625;  243.525;    0.000
1007.448; 2627.625;  251.525;    0.000
1007.609; 2542.625;  244.525;    0.000
1007.770; 2549.625;  211.525;    0.000
1007.931; 2494.625;  225.525;    0.000
1008.092; 2583.625;  188.525;    0.000
1008.253; 2699.625;  224.525;    0.000
1008.414; 2646.625;  198.525;    0.000
1008.575; 2764.625;  244.525;    0.000
1008.736; 2652.625;  219.525;    0.000
1008.896; 2715.625;  206.525;    0.000
1009.057; 2605.625;  258.525;    0.000
1009.218; 2626.625;  209.525;    0.000
1009.379; 2597.625;  204.525;    0.000
1009.539; 2675.625;  242.525;    0.000
1009.700; 2735.625;  205.525;    0.000
1009.860; 2778.625;  211.525;    0.000
1010.021; 2834.625;  219.525;    0.000
1010.182; 2786.625;  206.525;    0.000
1010.342; 2781.625;  219.525;    0.000
1010.503; 2877.625;  231.525;    0.000
1010.663; 3004.625;  260.525;    0.000
1010.823; 3068.625;  200.525;    0.000
1010.984; 3046.625;  189.525;    0.000
1011.144; 3166.625;  234.525;    0.000
1011.305; 3040.625;  212.525;    0.000
1011.465; 3271.625;  202.525;    0.000
1011.625; 3327.625;  236.525;    0.000
1011.785; 3420.625;  203.525;    0.000
1011.946; 3350.625;  195.525;    0.000
1012.106; 3389.625;  176.525;    0.000
1012.266; 3349.625;  211.525;    0.000
1012.426; 3251.625;  244.525;    0.000
1012.586; 3395.625;  202.525;    0.000
1012.746; 3344.625;  234.525;    0.000
1012.906; 3196.625;  246.525;    0.000
1013.066; 3336.625;  232.525;    0.000
1013.226; 3339.625;  248.525;    0.000
1013.386; 3249.625;  231.525;    0.000
1013.546; 3167.625;  233.525;    0.000
1013.706; 3195.625;  211.525;    0.000
1013.866; 3245.625;  240.525;    0.000
1014.026; 3249.625;  188.525;    0.000
1014.186; 3204.625;  186.525;    0.000
1014.346; 3087.625;  203.525;    0.000
1014.505; 3273.625;  238.525;    0.000
1014.665; 3464.625;  206.525;    0.000
1014.825; 3250.625;  200.525;    0.000
1014.985; 3123.625;  215.525;    0.000
1015.144; 3391.625;  250.525;    0.000
1015.304; 3610.625;  195.525;    0.000
1015.464; 3491.625;  237.525;    0.000
1015.623; 3296.625;  232.525;    0.000
1015.783; 3631.625;  220.525;    0.000
1015.942; 4059.625;  219.525;    0.000
1016.102; 3860.625;  202.525;    0.000
1016.261; 3695.625;  225.525;    0.000
1016.420; 4101.625;  246.525;    0.000
1016.580; 4453.625;  226.525;    0.000
1016.739; 4385.625;  214.525;    0.000
1016.899; 4075.625;  205.525;    0.000
1017.058; 4329.625;  217.525;    0.000
1017.217; 4802.625;  199.525;    0.000
1017.376; 4478.625;  219.525;    0.000
1017.536; 3944.625;  209.525;    0.000
1017.695; 4001.625;  213.525;    0.000
1017.854; 4132.625;  187.525;    0.000
1018.013; 4030.625;  222.525;    0.000
1018.172; 3826.625;  204.525;    0.000
1018.331; 3795.625;  195.525;    0.000
1018.490; 3988.625;  213.525;    0.000
1018.649; 4341.625;  216.525;    0.000
1018.808; 4438.625;  227.525;    0.000
1018.967; 4266.625;  206.525;    0.000
1019.126; 4329.625;  206.525;    0.000
1019.285; 4619.625;  219.525;    0.000
1019.444; 4470.625;  218.525;    0.000
1019.603; 4242.625;  206.525;    0.000
1019.762; 4030.625;  189.525;    0.000
1019.921; 4164.625;  217.525;    0.000
1020.079; 4411.625;  200.525;    0.000
1020.238; 4648.625;  219.525;    0.000
1020.397; 4544.625;  227.525;    0.000
1020.555; 4230.625;  207.525;    0.000
1020.714; 4385.625;  253.525;    0.000
1020.873; 4571.625;  230.525;    0.000
1021.031; 4615.625;  232.525;    0.000
1021.190; 4233.625;  226.525;    0.000
1021.348; 4272.625;  224.525;    0.000
1021.507; 4676.625;  215.525;    0.000
1021.665; 4917.625;  233.525;    0.000
1021.824; 4665.625;  196.525;    0.000
1021.982; 4348.625;  215.525;    0.000
1022.141; 4357.625;  200.525;    0.000
1022.299; 4879.625;  200.525;    0.000
1022.457; 5044.625;  179.525;    0.000
1022.616; 4678.625;  226.525;    0.000
1022.774; 4299.625;  216.525;    0.000
1022.932; 4514.625;  212.525;    0.000
1023.090; 5057.625;  220.525;    0.000
1023.249; 5091.625;  194.525;    0.000
1023.407; 4772.625;  227.525;    0.000
1023.565; 4435.625;  190.525;    0.000
1023.723; 4540.625;  190.525;    0.000
1023.881; 5254.625;  214.525;    0.000
1024.039; 5131.625;  179.525;    0.000
1024.197; 4891.625;  274.525;    0.000
1024.355; 4545.625;  269.525;    0.000
1024.513; 4683.625;  259.525;    0.000
1024.671; 5194.625;  211.525;    0.000
1024.829; 5293.625;  230.525;    0.000
1024.987; 5021.625;  239.525;    0.000
1025.145; 4718.625;  231.525;    0.000
1025.302; 4731.625;  212.525;    0.000
1025.460; 5310.625;  224.525;    0.000
1025.618; 5338.625;  217.525;    0.000
1025.776; 5256.625;  232.525;    0.000
1025.933; 4650.625;  212.525;    0.000
1026.091; 4897.625;  214.525;    0.000
1026.249; 5246.625;  224.525;    0.000
1026.406; 5552.625;  219.525;    0.000
1026.564; 5521.625;  262.525;    0.000
1026.721; 5106.625;  206.525;    0.000
1026.879; 4888.625;  227.525;    0.000
1027.036; 5328.625;  234.525;    0.000
1027.194; 5461.625;  256.525;    0.000
1027.351; 5692.625;  229.525;    0.000
1027.509; 5042.625;  253.525;    0.000
1027.666; 4997.625;  248.525;    0.000
1027.823; 5325.625;  215.525;    0.000
1027.981; 5310.625;  248.525;    0.000
1028.138; 5743.625;  257.525;    0.000
1028.295; 5430.625;  215.525;    0.000
1028.452; 5188.625;  236.525;    0.000
1028.609; 5186.625;  240.525;    0.000
1028.767; 5664.625;  258.525;    0.000
1028.924; 5657.625;  211.525;    0.000
1029.081; 5530.625;  226.525;    0.000
1029.238; 5549.625;  228.525;    0.000
1029.395; 5358.625;  264.525;    0.000
1029.552; 5621.625;  227.525;    0.000
1029.709; 5652.625;  232.525;    0.000
1029.866; 5668.625;  223.525;    0.000
1030.023; 5654.625;  220.525;    0.000
1030.180; 5166.625;  222.525;    0.000
1030.337; 5382.625;  224.525;    0.000
1030.494; 5699.625;  228.525;    0.000
1030.650; 5861.625;  242.525;    0.000
1030.807; 6150.625;  214.525;    0.000
1030.964; 5512.625;  207.525;    0.000
1031.121; 5374.625;  236.525;    0.000
1031.277; 5343.625;  206.525;    0.000
1031.434; 5758.625;  249.525;    0.000
1031.591; 6340.625;  253.525;    0.000
1031.747; 6217.625;  240.525;    0.000
1031.904; 6120.625;  212.525;    0.000
1032.060; 5783.625;  185.525;    0.000
1032.217; 5856.625;  201.525;    0.000
1032.373; 6623.625;  207.525;    0.000
1032.530; 6770.625;  226.525;    0.000
1032.686; 7207.625;  226.525;    0.000
1032.843; 6989.625;  203.525;    0.000
1032.999; 6605.625;  233.525;    0.000
1033.155; 6523.625;  232.525;    0.000
1033.312; 6700.625;  239.525;    0.000
1033.468; 8101.625;  207.525;    0.000
1033.624; 8364.625;  238.525;    0.000
1033.780; 8696.625;  255.525;    0.000
1033.937; 8395.625;  188.525;    0.000
1034.093; 7681.625;  244.525;    0.000
1034.249; 7874.625;  182.525;    0.000
1034.405; 7669.625;  251.525;    0.000
1034.561; 8805.625;  250.525;    0.000
1034.717; 9379.625;  208.525;    0.000
1034.873; 9012.625;  210.525;    0.000
1035.029; 9112.625;  245.525;    0.000
1035.185; 8332.625;  230.525;    0.000
1035.341; 8112.625;  209.525;    0.000
1035.497; 8977.625;  244.525;    0.000
1035.653; 9219.625;  229.525;    0.000
1035.809;10169.625;  275.525;    0.000
1035.964;10895.625;  203.525;    0.000
1036.120; 9953.625;  215.525;    0.000
1036.276;10320.625;  228.525;    0.000
1036.432; 9853.625;  183.525;    0.000
1036.587; 9378.625;  214.525;    0.000
1036.743;10383.625;  240.525;    0.000
1036.899;10930.625;  202.525;    0.000
1037.054;11481.625;  182.525;    0.000
1037.210;12762.625;  228.525;    0.000
1037.365;12532.625;  239.525;    0.000
1037.521;11323.625;  230.525;    0.000
1037.676;11152.625;  217.525;    0.000
1037.832;10332.625;  235.525;    0.000
1037.987;10522.625;  210.525;    0.000
1038.143;11179.625;  206.525;    0.000
1038.298;11939.625;  177.525;    0.000
1038.453;12583.625;  215.525;    0.000
1038.609;13617.625;  210.525;    0.000
1038.764;13218.625;  227.525;    0.000
1038.919;12291.625;  197.525;    0.000
1039.074;12685.625;  183.525;    0.000
1039.229;11391.625;  218.525;    0.000
1039.385;11592.625;  251.525;    0.000
1039.540;11948.625;  222.525;    0.000
1039.695;12895.625;  215.525;    0.000
1039.850;14012.625;  204.525;    0.000
1040.005;15277.625;  241.525;    0.000
1040.160;15577.625;  180.525;    0.000
1040.315;14989.625;  197.525;    0.000
1040.470;14409.625;  180.525;    0.000
1040.625;13743.625;  196.525;    0.000
1040.780;13008.625;  245.525;    0.000
1040.935;13344.625;  204.525;    0.000
1041.089;13776.625;  213.525;    0.000
1041.244;15686.625;  200.525;    0.000
1041.399;16983.625;  212.525;    0.000
1041.554;18441.625;  239.525;    0.000
1041.708;20449.625;  238.525;    0.000
1041.863;19519.625;  213.525;    0.000
1042.018;18816.625;  236.525;    0.000
1042.172;18131.625;  238.525;    0.000
1042.327;16566.625;  254.525;    0.000
1042.481;16798.625;  197.525;    0.000
1042.636;17791.625;  205.525;    0.000
1042.791;17613.625;  218.525;    0.000
1042.945;20947.625;  261.525;    0.000
1043.099;21842.625;  201.525;    0.000
1043.254;22238.625;  191.525;    0.000
1043.408;23403.625;  279.525;    0.000
1043.563;24300.625;  203.525;    0.000
1043.717;23551.625;  229.525;    0.000
1043.871;21298.625;  213.525;    0.000
1044.025;20652.625;  240.525;    0.000
1044.180;19871.625;  220.525;    0.000
1044.334;20795.625;  268.525;    0.000
1044.488;21697.625;  261.525;    0.000
1044.642;22676.625;  205.525;    0.000
1044.796;24925.625;  240.525;    0.000
1044.950;27259.625;  258.525;    0.000
1045.104;30621.625;  218.525;    0.000
1045.258;30646.625;  213.525;    0.000
1045.412;29895.625;  223.525;    0.000
1045.566;28784.625;  240.525;    0.000
1045.720;28483.625;  235.525;    0.000
1045.874;26192.625;  221.525;    0.000
1046.028;23894.625;  247.525;    0.000
1046.182;23433.625;  200.525;    0.000
1046.336;23795.625;  220.525;    0.000
1046.489;25779.625;  228.525;    0.000
1046.643;27597.625;  249.525;    0.000
1046.797;29730.625;  230.525;    0.000
1046.951;29884.625;  234.525;    0.000
1047.104;29951.625;  262.525;    0.000
1047.258;32391.625;  210.525;    0.000
1047.411;34802.625;  235.525;    0.000
1047.565;34442.625;  237.525;    0.000
1047.719;32423.625;  237.525;    0.000
1047.872;31747.625;  225.525;    0.000
1048.026;30093.625;  237.525;    0.000
1048.179;29328.625;  220.525;    0.000
1048.332;27992.625;  219.525;    0.000
1048.486;27631.625;  195.525;    0.000
1048.639;28481.625;  213.525;    0.000
1048.792;29118.625;  245.525;    0.000
1048.946;32887.625;  234.525;    0.000
1049.099;35663.625;  226.525;    0.000
1049.252;35493.625;  282.525;    0.000
1049.406;33284.625;  255.525;    0.000
1049.559;35040.625;  223.525;    0.000
1049.712;38881.625;  253.525;    0.000
1049.865;41927.625;  271.525;    0.000
1050.018;42594.625;  241.525;    0.000
1050.171;36283.625;  202.525;    0.000
1050.324;34569.625;  250.525;    0.000
1050.477;36864.625;  251.525;    0.000
1050.630;38835.625;  216.525;    0.000
1050.783;40812.625;  205.525;    0.000
1050.936;38303.625;  219.525;    0.000
1051.089;36330.625;  247.525;    0.000
1051.242;37855.625;  238.525;    0.000
1051.394;42137.625;  252.525;    0.000
1051.547;43649.625;  245.525;    0.000
1051.700;40265.625;  206.525;    0.000
1051.853;39528.625;  270.525;    0.000
1052.005;40167.625;  245.525;    0.000
1052.158;45588.625;  290.525;    0.000
1052.311;51062.625;  237.525;    0.000
1052.463;49956.625;  271.525;    0.000
1052.616;43569.625;  255.525;    0.000
1052.768;38193.625;  257.525;    0.000
1052.921;36645.625;  289.525;    0.000
1053.073;41478.625;  287.525;    0.000
1053.226;48045.625;  268.525;    0.000
1053.378;54392.625;  294.525;    0.000
1053.531;55736.625;  255.525;    0.000
1053.683;52948.625;  293.525;    0.000
1053.835;44852.625;  274.525;    0.000
1053.988;35618.625;  282.525;    0.000
1054.140; 6351.625;  291.525;    0.000
1054.292; 1493.625;  292.525;    0.000
1054.444; 1171.625;  299.525;    0.000
1054.596; 1133.625;  319.525;    0.000
1054.749; 1028.625;  295.525;    0.000
1054.901;  901.625;  266.525;    0.000
1055.053;  860.625;  300.525;    0.000
1055.205;  819.625;  290.525;    0.000
1055.357;  824.625;  304.525;    0.000
1055.509;  751.625;  292.525;    0.000
1055.661;  772.625;  339.525;    0.000
1055.813;  725.625;  306.525;    0.000
1055.965;  695.625;  293.525;    0.000
1056.116;  729.625;  300.525;    0.000
1056.268;  631.625;  306.525;    0.000
1056.420;  709.625;  288.525;    0.000

