
Integration time [ms]:   0.300
Averaging Nr. [scans]: 1
Smoothing Nr. [pixels]: 0
Data measured with spectrometer [name]: UV2
Wave   ;Sample   ;Dark     ;Reference
[nm]   ;[counts] ;[counts] ;[counts] 

353.533;  249.575;  178.050;    0.000
353.597;  246.575;  251.050;    0.000
353.660;  228.575;  213.050;    0.000
353.723;  188.575;  185.050;    0.000
353.786;  159.575;  191.050;    0.000
353.850;  241.575;  238.050;    0.000
353.913;  174.575;  181.050;    0.000
353.976;  163.575;  190.050;    0.000
354.039;  177.575;  184.050;    0.000
354.102;  216.575;  231.050;    0.000
354.166;  207.575;  188.050;    0.000
354.229;  210.575;  224.050;    0.000
354.292;  196.575;  186.050;    0.000
354.355;  217.575;  175.050;    0.000
354.418;  191.575;  191.050;    0.000
354.481;  200.575;  181.050;    0.000
354.545;  634.575;  193.050;    0.000
354.608;  687.575;  210.050;    0.000
354.671;  649.575;  183.050;    0.000
354.734;  628.575;  189.050;    0.000
354.797;  723.575;  168.050;    0.000
354.860;  686.575;  178.050;    0.000
354.923;  698.575;  236.050;    0.000
354.986;  721.575;  181.050;    0.000
355.050;  737.575;  168.050;    0.000
355.113;  720.575;  201.050;    0.000
355.176;  712.575;  206.050;    0.000
355.239;  788.575;  213.050;    0.000
355.302;  751.575;  198.050;    0.000
355.365;  777.575;  199.050;    0.000
355.428;  829.575;  200.050;    0.000
355.491;  851.575;  232.050;    0.000
355.554;  753.575;  184.050;    0.000
355.617;  798.575;  214.050;    0.000
355.680;  789.575;  191.050;    0.000
355.743;  835.575;  161.050;    0.000
355.806;  804.575;  153.050;    0.000
355.869;  845.575;  221.050;    0.000
355.932;  794.575;  152.050;    0.000
355.995;  845.575;  195.050;    0.000
356.058;  844.575;  172.050;    0.000
356.121;  851.575;  186.050;    0.000
356.184;  921.575;  196.050;    0.000
356.247;  862.575;  183.050;    0.000
356.310;  851.575;  159.050;    0.000
356.373;  927.575;  183.050;    0.000
356.436;  878.575;  176.050;    0.000
356.498;  863.575;  191.050;    0.000
356.561;  912.575;  145.050;    0.000
356.624;  912.575;  187.050;    0.000
356.687;  986.575;  181.050;    0.000
356.750;  928.575;  227.050;    0.000
356.813;  852.575;  147.050;    0.000
356.876;  917.575;  184.050;    0.000
356.939;  901.575;  141.050;    0.000
357.001;  954.575;  188.050;    0.000
357.064;  927.575;  173.050;    0.000
357.127;  935.575;  159.050;    0.000
357.190;  887.575;  185.050;    0.000
357.253;  913.575;  180.050;    0.000
357.316;  952.575;  199.050;    0.000
357.378;  988.575;  196.050;    0.000
357.441;  944.575;  175.050;    0.000
357.504;  892.575;  164.050;    0.000
357.567;  905.575;  145.050;    0.000
357.629;  955.575;  205.050;    0.000
357.692;  917.575;  175.050;    0.000
357.755;  983.575;  205.050;    0.000
357.818;  889.575;  141.050;    0.000
357.880;  949.575;  170.050;    0.000
357.943;  946.575;  152.050;    0.000
358.006;  987.575;  145.050;    0.000
358.069;  964.575;  164.050;    0.000
358.131;  973.575;  148.050;    0.000
358.194;  957.575;  122.050;    0.000
358.257;  966.575;  147.050;    0.000
358.319; 1032.575;  156.050;    0.000
358.382; 1011.575;  193.050;    0.000
358.445;  951.575;  155.050;    0.000
358.507;  967.575;  160.050;    0.000
358.570;  912.575;  159.050;    0.000
358.633;  971.575;  163.050;    0.000
358.695; 1014.575;  174.050;    0.000
358.758;  942.575;  127.050;    0.000
358.821; 1000.575;  165.050;    0.000
358.883; 1013.575;  145.050;    0.000
358.946;  980.575;  127.050;    0.000
359.008; 1022.575;  180.050;    0.000
359.071;  988.575;  173.050;    0.000
359.134;  995.575;  150.050;    0.000
359.196;  955.575;  158.050;    0.000
359.259;  989.575;  159.050;    0.000
359.321; 1000.575;  159.050;    0.000
359.384; 1019.575;  182.050;    0.000
359.446;  940.575;  140.050;    0.000
359.509; 1034.575;  146.050;    0.000
359.571;  983.575;  133.050;    0.000
359.634; 1063.575;   93.050;    0.000
359.696; 1004.575;  142.050;    0.000
359.759; 1023.575;  161.050;    0.000
359.821; 1044.575;  110.050;    0.000
359.884; 1002.575;  114.050;    0.000
359.946; 1058.575;  180.050;    0.000
360.009; 1073.575;  158.050;    0.000
360.071; 1008.575;  116.050;    0.000
360.134; 1091.575;  170.050;    0.000
360.196; 1010.575;  128.050;    0.000
360.259; 1030.575;  157.050;    0.000
360.321;  987.575;  122.050;    0.000
360.384;  999.575;  119.050;    0.000
360.446; 1072.575;  122.050;    0.000
360.508; 1058.575;  195.050;    0.000
360.571; 1100.575;  128.050;    0.000
360.633; 1116.575;  172.050;    0.000
360.696; 1082.575;  115.050;    0.000
360.758; 1061.575;  162.050;    0.000
360.820; 1028.575;  149.050;    0.000
360.883; 1019.575;  151.050;    0.000
360.945; 1121.575;  149.050;    0.000
361.007; 1058.575;  135.050;    0.000
361.070; 1103.575;  162.050;    0.000
361.132; 1057.575;  198.050;    0.000
361.194; 1066.575;  141.050;    0.000
361.257; 1043.575;  154.050;    0.000
361.319; 1060.575;  147.050;    0.000
361.381; 1156.575;  154.050;    0.000
361.443; 1135.575;  144.050;    0.000
361.506; 1144.575;  164.050;    0.000
361.568; 1054.575;  148.050;    0.000
361.630; 1099.575;  127.050;    0.000
361.693; 1113.575;  158.050;    0.000
361.755; 1076.575;  161.050;    0.000
361.817; 1127.575;  173.050;    0.000
361.879; 1112.575;  159.050;    0.000
361.941; 1138.575;  153.050;    0.000
362.004; 1153.575;  148.050;    0.000
362.066; 1097.575;  150.050;    0.000
362.128; 1120.575;  132.050;    0.000
362.190; 1141.575;  207.050;    0.000
362.252; 1148.575;  142.050;    0.000
362.315; 1093.575;  153.050;    0.000
362.377; 1107.575;  164.050;    0.000
362.439; 1101.575;  155.050;    0.000
362.501; 1117.575;  157.050;    0.000
362.563; 1141.575;  188.050;    0.000
362.625; 1141.575;  194.050;    0.000
362.688; 1128.575;  159.050;    0.000
362.750; 1171.575;  205.050;    0.000
362.812; 1117.575;  148.050;    0.000
362.874; 1069.575;  173.050;    0.000
362.936; 1159.575;  152.050;    0.000
362.998; 1093.575;  145.050;    0.000
363.060; 1212.575;  184.050;    0.000
363.122; 1159.575;  147.050;    0.000
363.184; 1217.575;  136.050;    0.000
363.246; 1196.575;  171.050;    0.000
363.308; 1155.575;  154.050;    0.000
363.370; 1239.575;  175.050;    0.000
363.432; 1136.575;  139.050;    0.000
363.494; 1119.575;  163.050;    0.000
363.556; 1145.575;  117.050;    0.000
363.618; 1156.575;  126.050;    0.000
363.680; 1204.575;  147.050;    0.000
363.742; 1155.575;  161.050;    0.000
363.804; 1216.575;  159.050;    0.000
363.866; 1165.575;  170.050;    0.000
363.928; 1135.575;  122.050;    0.000
363.990; 1193.575;  167.050;    0.000
364.052; 1160.575;  180.050;    0.000
364.114; 1215.575;  119.050;    0.000
364.176; 1233.575;  184.050;    0.000
364.238; 1208.575;  180.050;    0.000
364.300; 1201.575;  159.050;    0.000
364.362; 1205.575;  163.050;    0.000
364.424; 1124.575;  139.050;    0.000
364.486; 1233.575;  189.050;    0.000
364.548; 1233.575;  167.050;    0.000
364.609; 1205.575;  165.050;    0.000
364.671; 1221.575;  171.050;    0.000
364.733; 1235.575;  165.050;    0.000
364.795; 1157.575;  122.050;    0.000
364.857; 1185.575;  147.050;    0.000
364.919; 1219.575;  104.050;    0.000
364.981; 1161.575;  143.050;    0.000
365.042; 1170.575;  166.050;    0.000
365.104; 1255.575;  162.050;    0.000
365.166; 1137.575;  155.050;    0.000
365.228; 1232.575;  179.050;    0.000
365.290; 1177.575;  133.050;    0.000
365.351; 1192.575;  142.050;    0.000
365.413; 1220.575;  144.050;    0.000
365.475; 1241.575;  139.050;    0.000
365.537; 1221.575;  181.050;    0.000
365.598; 1193.575;  166.050;    0.000
365.660; 1215.575;  130.050;    0.000
365.722; 1225.575;  177.050;    0.000
365.784; 1153.575;  149.050;    0.000
365.845; 1241.575;  156.050;    0.000
365.907; 1161.575;  122.050;    0.000
365.969; 1240.575;  140.050;    0.000
366.030; 1177.575;  156.050;    0.000
366.092; 1179.575;  140.050;    0.000
366.154; 1225.575;  169.050;    0.000
366.215; 1273.575;  170.050;    0.000
366.277; 1205.575;  143.050;    0.000
366.339; 1257.575;  139.050;    0.000
366.400; 1214.575;  139.050;    0.000
366.462; 1233.575;  140.050;    0.000
366.524; 1209.575;  150.050;    0.000
366.585; 1179.575;  163.050;    0.000
366.647; 1283.575;  193.050;    0.000
366.708; 1200.575;  135.050;    0.000
366.770; 1229.575;  165.050;    0.000
366.832; 1301.575;  168.050;    0.000
366.893; 1248.575;  157.050;    0.000
366.955; 1252.575;  132.050;    0.000
367.016; 1223.575;  127.050;    0.000
367.078; 1257.575;  146.050;    0.000
367.139; 1173.575;  129.050;    0.000
367.201; 1223.575;  148.050;    0.000
367.262; 1313.575;  165.050;    0.000
367.324; 1204.575;  171.050;    0.000
367.385; 1217.575;  118.050;    0.000
367.447; 1359.575;  144.050;    0.000
367.508; 1328.575;  135.050;    0.000
367.570; 1325.575;  160.050;    0.000
367.631; 1211.575;  157.050;    0.000
367.693; 1297.575;  168.050;    0.000
367.754; 1270.575;  139.050;    0.000
367.816; 1281.575;  141.050;    0.000
367.877; 1285.575;  195.050;    0.000
367.939; 1296.575;  166.050;    0.000
368.000; 1279.575;  127.050;    0.000
368.062; 1264.575;  143.050;    0.000
368.123; 1247.575;  156.050;    0.000
368.184; 1331.575;  179.050;    0.000
368.246; 1225.575;  168.050;    0.000
368.307; 1296.575;  203.050;    0.000
368.369; 1287.575;  149.050;    0.000
368.430; 1252.575;  121.050;    0.000
368.491; 1252.575;  131.050;    0.000
368.553; 1249.575;  161.050;    0.000
368.614; 1237.575;  157.050;    0.000
368.675; 1228.575;  152.050;    0.000
368.737; 1311.575;  168.050;    0.000
368.798; 1323.575;  147.050;    0.000
368.859; 1269.575;  174.050;    0.000
368.921; 1273.575;  168.050;    0.000
368.982; 1309.575;  151.050;    0.000
369.043; 1308.575;  169.050;    0.000
369.104; 1326.575;  149.050;    0.000
369.166; 1295.575;  178.050;    0.000
369.227; 1297.575;  149.050;    0.000
369.288; 1271.575;  131.050;    0.000
369.349; 1311.575;  128.050;    0.000
369.411; 1312.575;  198.050;    0.000
369.472; 1370.575;  156.050;    0.000
369.533; 1333.575;  142.050;    0.000
369.594; 1304.575;  125.050;    0.000
369.656; 1290.575;  153.050;    0.000
369.717; 1341.575;  124.050;    0.000
369.778; 1340.575;  163.050;    0.000
369.839; 1261.575;  130.050;    0.000
369.900; 1363.575;  170.050;    0.000
369.961; 1244.575;  142.050;    0.000
370.023; 1333.575;  197.050;    0.000
370.084; 1299.575;  151.050;    0.000
370.145; 1287.575;  128.050;    0.000
370.206; 1336.575;  152.050;    0.000
370.267; 1307.575;  154.050;    0.000
370.328; 1263.575;  154.050;    0.000
370.389; 1288.575;  173.050;    0.000
370.451; 1350.575;  191.050;    0.000
370.512; 1319.575;  155.050;    0.000
370.573; 1368.575;  134.050;    0.000
370.634; 1348.575;  160.050;    0.000
370.695; 1329.575;  124.050;    0.000
370.756; 1336.575;  169.050;    0.000
370.817; 1336.575;  169.050;    0.000
370.878; 1367.575;  200.050;    0.000
370.939; 1317.575;  157.050;    0.000
371.000; 1365.575;  131.050;    0.000
371.061; 1309.575;  136.050;    0.000
371.122; 1341.575;  176.050;    0.000
371.183; 1278.575;   81.050;    0.000
371.244; 1415.575;  156.050;    0.000
371.305; 1317.575;  131.050;    0.000
371.366; 1349.575;  161.050;    0.000
371.427; 1373.575;  127.050;    0.000
371.488; 1378.575;  184.050;    0.000
371.549; 1392.575;  159.050;    0.000
371.610; 1409.575;  147.050;    0.000
371.671; 1281.575;  132.050;    0.000
371.732; 1341.575;  163.050;    0.000
371.793; 1344.575;  179.050;    0.000
371.853; 1357.575;  179.050;    0.000
371.914; 1317.575;  149.050;    0.000
371.975; 1339.575;  117.050;    0.000
372.036; 1319.575;  141.050;    0.000
372.097; 1401.575;  101.050;    0.000
372.158; 1313.575;  115.050;    0.000
372.219; 1403.575;  174.050;    0.000
372.280; 1340.575;  134.050;    0.000
372.340; 1412.575;  180.050;    0.000
372.401; 1383.575;  166.050;    0.000
372.462; 1361.575;  171.050;    0.000
372.523; 1398.575;  132.050;    0.000
372.584; 1355.575;  182.050;    0.000
372.645; 1389.575;  149.050;    0.000
372.705; 1394.575;  182.050;    0.000
372.766; 1431.575;  145.050;    0.000
372.827; 1410.575;  161.050;    0.000
372.888; 1360.575;  156.050;    0.000
372.948; 1357.575;  158.050;    0.000
373.009; 1402.575;  178.050;    0.000
373.070; 1364.575;  166.050;    0.000
373.131; 1316.575;  154.050;    0.000
373.191; 1405.575;  193.050;    0.000
373.252; 1373.575;  148.050;    0.000
373.313; 1318.575;  152.050;    0.000
373.373; 1319.575;  156.050;    0.000
373.434; 1357.575;  166.050;    0.000
373.495; 1367.575;  152.050;    0.000
373.555; 1385.575;  145.050;    0.000
373.616; 1408.575;  141.050;    0.000
373.677; 1408.575;  169.050;    0.000
373.737; 1357.575;  166.050;    0.000
373.798; 1428.575;  151.050;    0.000
373.859; 1415.575;  170.050;    0.000
373.919; 1413.575;  206.050;    0.000
373.980; 1325.575;  140.050;    0.000
374.041; 1401.575;  148.050;    0.000
374.101; 1381.575;  165.050;    0.000
374.162; 1458.575;  166.050;    0.000
374.222; 1443.575;  156.050;    0.000
374.283; 1379.575;  161.050;    0.000
374.343; 1369.575;  185.050;    0.000
374.404; 1405.575;  148.050;    0.000
374.465; 1420.575;  162.050;    0.000
374.525; 1374.575;  177.050;    0.000
374.586; 1420.575;  164.050;    0.000
374.646; 1519.575;  180.050;    0.000
374.707; 1483.575;  203.050;    0.000
374.767; 1425.575;  148.050;    0.000
374.828; 1432.575;  142.050;    0.000
374.888; 1443.575;  187.050;    0.000
374.949; 1408.575;  137.050;    0.000
375.009; 1454.575;  155.050;    0.000
375.070; 1449.575;  165.050;    0.000
375.130; 1437.575;  168.050;    0.000
375.190; 1418.575;  157.050;    0.000
375.251; 1509.575;  206.050;    0.000
375.311; 1520.575;  141.050;    0.000
375.372; 1423.575;  144.050;    0.000
375.432; 1441.575;  153.050;    0.000
375.493; 1446.575;  168.050;    0.000
375.553; 1451.575;  146.050;    0.000
375.613; 1379.575;  142.050;    0.000
375.674; 1446.575;  153.050;    0.000
375.734; 1451.575;  166.050;    0.000
375.794; 1398.575;  145.050;    0.000
375.855; 1482.575;  162.050;    0.000
375.915; 1444.575;  162.050;    0.000
375.975; 1442.575;  144.050;    0.000
376.036; 1436.575;  128.050;    0.000
376.096; 1492.575;  122.050;    0.000
376.156; 1430.575;  140.050;    0.000
376.217; 1481.575;  158.050;    0.000
376.277; 1512.575;  163.050;    0.000
376.337; 1423.575;  139.050;    0.000
376.398; 1447.575;  176.050;    0.000
376.458; 1480.575;  143.050;    0.000
376.518; 1437.575;  136.050;    0.000
376.578; 1449.575;  177.050;    0.000
376.639; 1508.575;  163.050;    0.000
376.699; 1420.575;  183.050;    0.000
376.759; 1369.575;  169.050;    0.000
376.819; 1371.575;  147.050;    0.000
376.880; 1433.575;  188.050;    0.000
376.940; 1483.575;  185.050;    0.000
377.000; 1453.575;  131.050;    0.000
377.060; 1497.575;  182.050;    0.000
377.120; 1404.575;  165.050;    0.000
377.180; 1477.575;  169.050;    0.000
377.241; 1426.575;  146.050;    0.000
377.301; 1521.575;  183.050;    0.000
377.361; 1531.575;  124.050;    0.000
377.421; 1457.575;  186.050;    0.000
377.481; 1449.575;  178.050;    0.000
377.541; 1432.575;  140.050;    0.000
377.601; 1541.575;  175.050;    0.000
377.661; 1528.575;  169.050;    0.000
377.722; 1495.575;  144.050;    0.000
377.782; 1421.575;  182.050;    0.000
377.842; 1491.575;  161.050;    0.000
377.902; 1487.575;  151.050;    0.000
377.962; 1389.575;  134.050;    0.000
378.022; 1480.575;  153.050;    0.000
378.082; 1509.575;  178.050;    0.000
378.142; 1542.575;  118.050;    0.000
378.202; 1516.575;  153.050;    0.000
378.262; 1555.575;  166.050;    0.000
378.322; 1511.575;  174.050;    0.000
378.382; 1513.575;  148.050;    0.000
378.442; 1566.575;  190.050;    0.000
378.502; 1473.575;  136.050;    0.000
378.562; 1490.575;  130.050;    0.000
378.622; 1488.575;  188.050;    0.000
378.682; 1547.575;  163.050;    0.000
378.742; 1546.575;  150.050;    0.000
378.802; 1549.575;  127.050;    0.000
378.862; 1602.575;  186.050;    0.000
378.921; 1549.575;  203.050;    0.000
378.981; 1628.575;  177.050;    0.000
379.041; 1538.575;  134.050;    0.000
379.101; 1517.575;  167.050;    0.000
379.161; 1570.575;  130.050;    0.000
379.221; 1537.575;  169.050;    0.000
379.281; 1573.575;  162.050;    0.000
379.341; 1570.575;  134.050;    0.000
379.401; 1547.575;  151.050;    0.000
379.460; 1582.575;  190.050;    0.000
379.520; 1601.575;  158.050;    0.000
379.580; 1575.575;  162.050;    0.000
379.640; 1544.575;  146.050;    0.000
379.700; 1600.575;  167.050;    0.000
379.759; 1636.575;  194.050;    0.000
379.819; 1571.575;  176.050;    0.000
379.879; 1570.575;  140.050;    0.000
379.939; 1651.575;  184.050;    0.000
379.999; 1647.575;  165.050;    0.000
380.058; 1625.575;  194.050;    0.000
380.118; 1620.575;  137.050;    0.000
380.178; 1604.575;  139.050;    0.000
380.237; 1682.575;  139.050;    0.000
380.297; 1604.575;  160.050;    0.000
380.357; 1613.575;  194.050;    0.000
380.417; 1669.575;  174.050;    0.000
380.476; 1627.575;  153.050;    0.000
380.536; 1706.575;  169.050;    0.000
380.596; 1665.575;  159.050;    0.000
380.655; 1629.575;  178.050;    0.000
380.715; 1663.575;  196.050;    0.000
380.775; 1666.575;  202.050;    0.000
380.834; 1678.575;  186.050;    0.000
380.894; 1701.575;  167.050;    0.000
380.954; 1699.575;  150.050;    0.000
381.013; 1748.575;  187.050;    0.000
381.073; 1698.575;  114.050;    0.000
381.132; 1658.575;  176.050;    0.000
381.192; 1695.575;  197.050;    0.000
381.252; 1758.575;  172.050;    0.000
381.311; 1757.575;  155.050;    0.000
381.371; 1726.575;  172.050;    0.000
381.430; 1654.575;  143.050;    0.000
381.490; 1658.575;  136.050;    0.000
381.549; 1742.575;  131.050;    0.000
381.609; 1797.575;  203.050;    0.000
381.668; 1764.575;  135.050;    0.000
381.728; 1742.575;  163.050;    0.000
381.787; 1770.575;  195.050;    0.000
381.847; 1878.575;  185.050;    0.000
381.906; 1789.575;  187.050;    0.000
381.966; 1799.575;  153.050;    0.000
382.025; 1772.575;  175.050;    0.000
382.085; 1826.575;  195.050;    0.000
382.144; 1846.575;  210.050;    0.000
382.204; 1899.575;  201.050;    0.000
382.263; 1896.575;  178.050;    0.000
382.323; 1923.575;  151.050;    0.000
382.382; 1958.575;  147.050;    0.000
382.441; 2036.575;  144.050;    0.000
382.501; 2010.575;  156.050;    0.000
382.560; 2081.575;  160.050;    0.000
382.619; 2170.575;  173.050;    0.000
382.679; 2148.575;  167.050;    0.000
382.738; 2265.575;  189.050;    0.000
382.798; 2286.575;  181.050;    0.000
382.857; 2441.575;  161.050;    0.000
382.916; 2602.575;  162.050;    0.000
382.976; 2679.575;  169.050;    0.000
383.035; 2705.575;  174.050;    0.000
383.094; 2746.575;  178.050;    0.000
383.154; 3035.575;  188.050;    0.000
383.213; 3350.575;  162.050;    0.000
383.272; 3276.575;  144.050;    0.000
383.331; 2755.575;  144.050;    0.000
383.391; 2602.575;  198.050;    0.000
383.450; 2620.575;  185.050;    0.000
383.509; 2530.575;  132.050;    0.000
383.568; 2663.575;  171.050;    0.000
383.628; 2848.575;  171.050;    0.000
383.687; 3012.575;  172.050;    0.000
383.746; 3485.575;  144.050;    0.000
383.805; 3776.575;  177.050;    0.000
383.864; 3586.575;  145.050;    0.000
383.924; 2963.575;  203.050;    0.000
383.983; 2635.575;  153.050;    0.000
384.042; 2441.575;  171.050;    0.000
384.101; 2273.575;  186.050;    0.000
384.160; 2132.575;  132.050;    0.000
384.219; 2098.575;  157.050;    0.000
384.279; 2128.575;  166.050;    0.000
384.338; 2073.575;  141.050;    0.000
384.397; 1977.575;  142.050;    0.000
384.456; 1957.575;  155.050;    0.000
384.515; 1946.575;  158.050;    0.000
384.574; 1975.575;  208.050;    0.000
384.633; 1981.575;  158.050;    0.000
384.692; 1953.575;  162.050;    0.000
384.751; 1881.575;  179.050;    0.000
384.810; 1968.575;  150.050;    0.000
384.869; 1888.575;  147.050;    0.000
384.929; 1965.575;  132.050;    0.000
384.988; 1927.575;  166.050;    0.000
385.047; 1863.575;  161.050;    0.000
385.106; 1905.575;  180.050;    0.000
385.165; 1971.575;  123.050;    0.000
385.224; 1891.575;  153.050;    0.000
385.283; 1846.575;  158.050;    0.000
385.342; 1882.575;  184.050;    0.000
385.401; 1987.575;  191.050;    0.000
385.459; 1886.575;  143.050;    0.000
385.518; 1890.575;  152.050;    0.000
385.577; 1820.575;  134.050;    0.000
385.636; 1944.575;  187.050;    0.000
385.695; 1846.575;  141.050;    0.000
385.754; 1876.575;  143.050;    0.000
385.813; 1878.575;  145.050;    0.000
385.872; 1815.575;  116.050;    0.000
385.931; 1849.575;  147.050;    0.000
385.990; 1862.575;  170.050;    0.000
386.049; 1943.575;  189.050;    0.000
386.107; 1888.575;  122.050;    0.000
386.166; 1932.575;  155.050;    0.000
386.225; 1845.575;  173.050;    0.000
386.284; 1902.575;  138.050;    0.000
386.343; 1910.575;  216.050;    0.000
386.402; 1857.575;  162.050;    0.000
386.460; 1897.575;  131.050;    0.000
386.519; 1829.575;  122.050;    0.000
386.578; 1906.575;  140.050;    0.000
386.637; 1928.575;  169.050;    0.000
386.696; 1893.575;  176.050;    0.000
386.754; 1885.575;  127.050;    0.000
386.813; 1861.575;  138.050;    0.000
386.872; 1818.575;  135.050;    0.000
386.931; 1887.575;  170.050;    0.000
386.989; 1845.575;  167.050;    0.000
387.048; 1873.575;  131.050;    0.000
387.107; 1911.575;  176.050;    0.000
387.165; 1856.575;  139.050;    0.000
387.224; 1820.575;  150.050;    0.000
387.283; 1897.575;  169.050;    0.000
387.342; 1869.575;  191.050;    0.000
387.400; 1824.575;  131.050;    0.000
387.459; 1867.575;  139.050;    0.000
387.517; 1887.575;  214.050;    0.000
387.576; 1883.575;  146.050;    0.000
387.635; 1839.575;  161.050;    0.000
387.693; 1969.575;  197.050;    0.000
387.752; 1882.575;  159.050;    0.000
387.811; 1846.575;  144.050;    0.000
387.869; 1942.575;  172.050;    0.000
387.928; 1824.575;  160.050;    0.000
387.986; 1933.575;  192.050;    0.000
388.045; 1838.575;  121.050;    0.000
388.103; 1856.575;  129.050;    0.000
388.162; 1858.575;  169.050;    0.000
388.221; 1787.575;  171.050;    0.000
388.279; 1913.575;  135.050;    0.000
388.338; 1870.575;  222.050;    0.000
388.396; 1857.575;  168.050;    0.000
388.455; 1908.575;  178.050;    0.000
388.513; 1828.575;  151.050;    0.000
388.572; 1883.575;  147.050;    0.000
388.630; 1888.575;  158.050;    0.000
388.689; 1801.575;  163.050;    0.000
388.747; 1855.575;  180.050;    0.000
388.806; 1831.575;  119.050;    0.000
388.864; 1878.575;  159.050;    0.000
388.922; 1837.575;  152.050;    0.000
388.981; 1887.575;  125.050;    0.000
389.039; 1856.575;  151.050;    0.000
389.098; 1892.575;  151.050;    0.000
389.156; 1930.575;  175.050;    0.000
389.214; 1907.575;  133.050;    0.000
389.273; 1902.575;  142.050;    0.000
389.331; 1869.575;  179.050;    0.000
389.390; 1845.575;  179.050;    0.000
389.448; 1862.575;  159.050;    0.000
389.506; 1948.575;  140.050;    0.000
389.565; 1876.575;  160.050;    0.000
389.623; 1905.575;  181.050;    0.000
389.681; 1903.575;  181.050;    0.000
389.740; 1852.575;  187.050;    0.000
389.798; 1891.575;  163.050;    0.000
389.856; 1903.575;  185.050;    0.000
389.914; 1881.575;  170.050;    0.000
389.973; 1880.575;  150.050;    0.000
390.031; 1893.575;  149.050;    0.000
390.089; 1918.575;  191.050;    0.000
390.147; 1822.575;  126.050;    0.000
390.206; 1883.575;  174.050;    0.000
390.264; 1901.575;  164.050;    0.000
390.322; 1903.575;  150.050;    0.000
390.380; 1784.575;  137.050;    0.000
390.439; 1904.575;  176.050;    0.000
390.497; 1878.575;  188.050;    0.000
390.555; 1891.575;  143.050;    0.000
390.613; 1842.575;  174.050;    0.000
390.671; 1915.575;  208.050;    0.000
390.729; 1821.575;  135.050;    0.000
390.788; 1860.575;  169.050;    0.000
390.846; 1864.575;  173.050;    0.000
390.904; 1878.575;  176.050;    0.000
390.962; 1866.575;  179.050;    0.000
391.020; 1961.575;  201.050;    0.000
391.078; 1903.575;  192.050;    0.000
391.136; 1901.575;  170.050;    0.000
391.194; 1904.575;  163.050;    0.000
391.253; 1898.575;  203.050;    0.000
391.311; 1839.575;  170.050;    0.000
391.369; 1942.575;  191.050;    0.000
391.427; 1955.575;  226.050;    0.000
391.485; 1899.575;  181.050;    0.000
391.543; 1946.575;  177.050;    0.000
391.601; 1948.575;  150.050;    0.000
391.659; 1970.575;  201.050;    0.000
391.717; 1968.575;  166.050;    0.000
391.775; 1884.575;  200.050;    0.000
391.833; 1966.575;  180.050;    0.000
391.891; 1991.575;  172.050;    0.000
391.949; 1956.575;  174.050;    0.000
392.007; 1963.575;  194.050;    0.000
392.065; 1923.575;  161.050;    0.000
392.123; 2042.575;  159.050;    0.000
392.180; 1982.575;  193.050;    0.000
392.238; 1947.575;  188.050;    0.000
392.296; 2024.575;  206.050;    0.000
392.354; 1848.575;  170.050;    0.000
392.412; 2018.575;  207.050;    0.000
392.470; 1952.575;  168.050;    0.000
392.528; 1964.575;  185.050;    0.000
392.586; 1995.575;  154.050;    0.000
392.644; 1947.575;  190.050;    0.000
392.701; 1988.575;  195.050;    0.000
392.759; 1993.575;  229.050;    0.000
392.817; 2009.575;  176.050;    0.000
392.875; 1950.575;  198.050;    0.000
392.933; 2000.575;  174.050;    0.000
392.991; 1987.575;  237.050;    0.000
393.048; 2057.575;  212.050;    0.000
393.106; 2025.575;  191.050;    0.000
393.164; 1974.575;  136.050;    0.000
393.222; 1933.575;  164.050;    0.000
393.279; 1972.575;  208.050;    0.000
393.337; 2101.575;  203.050;    0.000
393.395; 2087.575;  191.050;    0.000
393.453; 2048.575;  153.050;    0.000
393.510; 2029.575;  171.050;    0.000
393.568; 2015.575;  203.050;    0.000
393.626; 2055.575;  169.050;    0.000
393.684; 1992.575;  201.050;    0.000
393.741; 2025.575;  172.050;    0.000
393.799; 2069.575;  149.050;    0.000
393.857; 2044.575;  151.050;    0.000
393.914; 2026.575;  192.050;    0.000
393.972; 2013.575;  176.050;    0.000
394.030; 1987.575;  165.050;    0.000
394.087; 2075.575;  192.050;    0.000
394.145; 2063.575;  183.050;    0.000
394.202; 2040.575;  161.050;    0.000
394.260; 2131.575;  135.050;    0.000
394.318; 2018.575;  188.050;    0.000
394.375; 2024.575;  163.050;    0.000
394.433; 2052.575;  151.050;    0.000
394.490; 2049.575;  190.050;    0.000
394.548; 2060.575;  157.050;    0.000
394.605; 2114.575;  205.050;    0.000
394.663; 2059.575;  173.050;    0.000
394.720; 2133.575;  171.050;    0.000
394.778; 2105.575;  190.050;    0.000
394.836; 1969.575;  134.050;    0.000
394.893; 2078.575;  142.050;    0.000
394.951; 2164.575;  192.050;    0.000
395.008; 2147.575;  149.050;    0.000
395.065; 2059.575;  194.050;    0.000
395.123; 2089.575;  160.050;    0.000
395.180; 2098.575;  178.050;    0.000
395.238; 2061.575;  191.050;    0.000
395.295; 2106.575;  160.050;    0.000
395.353; 2116.575;  162.050;    0.000
395.410; 2047.575;  165.050;    0.000
395.468; 2130.575;  190.050;    0.000
395.525; 2121.575;  173.050;    0.000
395.582; 2212.575;  161.050;    0.000
395.640; 2073.575;  200.050;    0.000
395.697; 2198.575;  198.050;    0.000
395.754; 2154.575;  136.050;    0.000
395.812; 2125.575;  172.050;    0.000
395.869; 2215.575;  172.050;    0.000
395.927; 2131.575;  145.050;    0.000
395.984; 2120.575;  220.050;    0.000
396.041; 2130.575;  137.050;    0.000
396.098; 2127.575;  161.050;    0.000
396.156; 2174.575;  159.050;    0.000
396.213; 2152.575;  200.050;    0.000
396.270; 2191.575;  209.050;    0.000
396.328; 2152.575;  162.050;    0.000
396.385; 2232.575;  186.050;    0.000
396.442; 2160.575;  177.050;    0.000
396.499; 2175.575;  183.050;    0.000
396.557; 2150.575;  182.050;    0.000
396.614; 2151.575;  186.050;    0.000
396.671; 2163.575;  144.050;    0.000
396.728; 2217.575;  176.050;    0.000
396.785; 2132.575;  169.050;    0.000
396.843; 2170.575;  134.050;    0.000
396.900; 2170.575;  184.050;    0.000
396.957; 2162.575;  197.050;    0.000
397.014; 2239.575;  187.050;    0.000
397.071; 2233.575;  186.050;    0.000
397.128; 2224.575;  200.050;    0.000
397.186; 2288.575;  175.050;    0.000
397.243; 2212.575;  154.050;    0.000
397.300; 2232.575;  191.050;    0.000
397.357; 2245.575;  238.050;    0.000
397.414; 2243.575;  161.050;    0.000
397.471; 2187.575;  135.050;    0.000
397.528; 2297.575;  158.050;    0.000
397.585; 2287.575;  159.050;    0.000
397.642; 2257.575;  180.050;    0.000
397.699; 2302.575;  170.050;    0.000
397.756; 2218.575;  175.050;    0.000
397.814; 2259.575;  182.050;    0.000
397.871; 2274.575;  173.050;    0.000
397.928; 2281.575;  173.050;    0.000
397.985; 2282.575;  176.050;    0.000
398.042; 2290.575;  189.050;    0.000
398.099; 2236.575;  160.050;    0.000
398.156; 2290.575;  218.050;    0.000
398.212; 2363.575;  194.050;    0.000
398.269; 2292.575;  199.050;    0.000
398.326; 2350.575;  188.050;    0.000
398.383; 2251.575;  187.050;    0.000
398.440; 2350.575;  174.050;    0.000
398.497; 2420.575;  214.050;    0.000
398.554; 2345.575;  181.050;    0.000
398.611; 2300.575;  195.050;    0.000
398.668; 2354.575;  145.050;    0.000
398.725; 2406.575;  178.050;    0.000
398.782; 2453.575;  210.050;    0.000
398.839; 2329.575;  216.050;    0.000
398.895; 2443.575;  189.050;    0.000
398.952; 2526.575;  206.050;    0.000
399.009; 2408.575;  142.050;    0.000
399.066; 2351.575;  192.050;    0.000
399.123; 2521.575;  181.050;    0.000
399.180; 2510.575;  200.050;    0.000
399.236; 2500.575;  156.050;    0.000
399.293; 2577.575;  194.050;    0.000
399.350; 2552.575;  167.050;    0.000
399.407; 2553.575;  192.050;    0.000
399.463; 2572.575;  161.050;    0.000
399.520; 2545.575;  149.050;    0.000
399.577; 2629.575;  156.050;    0.000
399.634; 2657.575;  195.050;    0.000
399.690; 2731.575;  163.050;    0.000
399.747; 2655.575;  192.050;    0.000
399.804; 2663.575;  212.050;    0.000
399.861; 2607.575;  203.050;    0.000
399.917; 2567.575;  221.050;    0.000
399.974; 2558.575;  221.050;    0.000
400.031; 2636.575;  195.050;    0.000
400.087; 2550.575;  159.050;    0.000
400.144; 2592.575;  201.050;    0.000
400.201; 2598.575;  206.050;    0.000
400.257; 2536.575;  168.050;    0.000
400.314; 2549.575;  183.050;    0.000
400.370; 2498.575;  209.050;    0.000
400.427; 2551.575;  192.050;    0.000
400.484; 2474.575;  150.050;    0.000
400.540; 2525.575;  213.050;    0.000
400.597; 2511.575;  161.050;    0.000
400.653; 2568.575;  170.050;    0.000
400.710; 2504.575;  173.050;    0.000
400.766; 2532.575;  204.050;    0.000
400.823; 2521.575;  194.050;    0.000
400.879; 2544.575;  188.050;    0.000
400.936; 2435.575;  172.050;    0.000
400.993; 2491.575;  154.050;    0.000
401.049; 2503.575;  157.050;    0.000
401.105; 2557.575;  214.050;    0.000
401.162; 2493.575;  195.050;    0.000
401.218; 2504.575;  195.050;    0.000
401.275; 2602.575;  182.050;    0.000
401.331; 2452.575;  188.050;    0.000
401.388; 2479.575;  194.050;    0.000
401.444; 2499.575;  175.050;    0.000
401.501; 2543.575;  169.050;    0.000
401.557; 2472.575;  176.050;    0.000
401.614; 2517.575;  153.050;    0.000
401.670; 2534.575;  178.050;    0.000
401.726; 2506.575;  179.050;    0.000
401.783; 2498.575;  198.050;    0.000
401.839; 2509.575;  179.050;    0.000
401.895; 2527.575;  154.050;    0.000
401.952; 2476.575;  138.050;    0.000
402.008; 2454.575;  135.050;    0.000
402.064; 2484.575;  154.050;    0.000
402.121; 2497.575;  199.050;    0.000
402.177; 2438.575;  126.050;    0.000
402.233; 2543.575;  190.050;    0.000
402.290; 2434.575;  175.050;    0.000
402.346; 2511.575;  200.050;    0.000
402.402; 2515.575;  191.050;    0.000
402.458; 2578.575;  172.050;    0.000
402.515; 2550.575;  186.050;    0.000
402.571; 2524.575;  189.050;    0.000
402.627; 2546.575;  151.050;    0.000
402.683; 2528.575;  187.050;    0.000
402.740; 2486.575;  147.050;    0.000
402.796; 2518.575;  176.050;    0.000
402.852; 2571.575;  200.050;    0.000
402.908; 2580.575;  201.050;    0.000
402.964; 2523.575;  153.050;    0.000
403.021; 2566.575;  165.050;    0.000
403.077; 2590.575;  195.050;    0.000
403.133; 2460.575;  139.050;    0.000
403.189; 2599.575;  166.050;    0.000
403.245; 2610.575;  194.050;    0.000
403.301; 2642.575;  210.050;    0.000
403.357; 2652.575;  187.050;    0.000
403.414; 2545.575;  195.050;    0.000
403.470; 2602.575;  150.050;    0.000
403.526; 2618.575;  158.050;    0.000
403.582; 2696.575;  184.050;    0.000
403.638; 2709.575;  171.050;    0.000
403.694; 2645.575;  197.050;    0.000
403.750; 2636.575;  196.050;    0.000
403.806; 2618.575;  192.050;    0.000
403.862; 2629.575;  169.050;    0.000
403.918; 2639.575;  199.050;    0.000
403.974; 2583.575;  156.050;    0.000
404.030; 2593.575;  193.050;    0.000
404.086; 2606.575;  161.050;    0.000
404.142; 2619.575;  172.050;    0.000
404.198; 2652.575;  195.050;    0.000
404.254; 2560.575;  167.050;    0.000
404.310; 2579.575;  156.050;    0.000
404.366; 2582.575;  144.050;    0.000
404.422; 2640.575;  161.050;    0.000
404.478; 2701.575;  179.050;    0.000
404.534; 2655.575;  163.050;    0.000
404.590; 2558.575;  183.050;    0.000
404.646; 2602.575;  155.050;    0.000
404.701; 2617.575;  142.050;    0.000
404.757; 2755.575;  175.050;    0.000
404.813; 2644.575;  153.050;    0.000
404.869; 2674.575;  199.050;    0.000
404.925; 2614.575;  153.050;    0.000
404.981; 2613.575;  174.050;    0.000
405.037; 2626.575;  185.050;    0.000
405.092; 2717.575;  166.050;    0.000
405.148; 2746.575;  161.050;    0.000
405.204; 2652.575;  170.050;    0.000
405.260; 2689.575;  154.050;    0.000
405.316; 2660.575;  128.050;    0.000
405.371; 2665.575;  142.050;    0.000
405.427; 2716.575;  196.050;    0.000
405.483; 2711.575;  172.050;    0.000
405.539; 2585.575;  182.050;    0.000
405.594; 2755.575;  153.050;    0.000
405.650; 2677.575;  124.050;    0.000
405.706; 2719.575;  189.050;    0.000
405.761; 2632.575;  165.050;    0.000
405.817; 2699.575;  152.050;    0.000
405.873; 2682.575;  174.050;    0.000
405.928; 2679.575;  167.050;    0.000
405.984; 2680.575;  210.050;    0.000
406.040; 2671.575;  160.050;    0.000
406.095; 2730.575;  163.050;    0.000
406.151; 2756.575;  208.050;    0.000
406.207; 2704.575;  177.050;    0.000
406.262; 2669.575;  176.050;    0.000
406.318; 2754.575;  157.050;    0.000
406.374; 2642.575;  141.050;    0.000
406.429; 2691.575;  189.050;    0.000
406.485; 2781.575;  190.050;    0.000
406.540; 2707.575;  155.050;    0.000
406.596; 2900.575;  182.050;    0.000
406.651; 2944.575;  200.050;    0.000
406.707; 2894.575;  130.050;    0.000
406.763; 2785.575;  174.050;    0.000
406.818; 2862.575;  151.050;    0.000
406.874; 2879.575;  122.050;    0.000
406.929; 2967.575;  153.050;    0.000
406.985; 2986.575;  198.050;    0.000
407.040; 3023.575;  174.050;    0.000
407.095; 2924.575;  161.050;    0.000
407.151; 2882.575;  184.050;    0.000
407.206; 2930.575;  188.050;    0.000
407.262; 2972.575;  180.050;    0.000
407.317; 3084.575;  186.050;    0.000
407.373; 2965.575;  200.050;    0.000
407.428; 2990.575;  211.050;    0.000
407.484; 2994.575;  193.050;    0.000
407.539; 3067.575;  167.050;    0.000
407.594; 3071.575;  178.050;    0.000
407.650; 3011.575;  171.050;    0.000
407.705; 3014.575;  153.050;    0.000
407.760; 3028.575;  196.050;    0.000
407.816; 2990.575;  205.050;    0.000
407.871; 3032.575;  232.050;    0.000
407.926; 3096.575;  215.050;    0.000
407.982; 3012.575;  154.050;    0.000
408.037; 3031.575;  217.050;    0.000
408.092; 3084.575;  190.050;    0.000
408.148; 3003.575;  181.050;    0.000
408.203; 2993.575;  203.050;    0.000
408.258; 2981.575;  154.050;    0.000
408.314; 3074.575;  198.050;    0.000
408.369; 2977.575;  156.050;    0.000
408.424; 2952.575;  216.050;    0.000
408.479; 2881.575;  191.050;    0.000
408.534; 2947.575;  200.050;    0.000
408.590; 2954.575;  182.050;    0.000
408.645; 2975.575;  141.050;    0.000
408.700; 2951.575;  209.050;    0.000
408.755; 2955.575;  205.050;    0.000
408.810; 2932.575;  171.050;    0.000
408.866; 2876.575;  200.050;    0.000
408.921; 2936.575;  188.050;    0.000
408.976; 2958.575;  156.050;    0.000
409.031; 2892.575;  164.050;    0.000
409.086; 2883.575;  155.050;    0.000
409.141; 2937.575;  205.050;    0.000
409.196; 2947.575;  173.050;    0.000
409.252; 2946.575;  179.050;    0.000
409.307; 2893.575;  131.050;    0.000
409.362; 2978.575;  173.050;    0.000
409.417; 2891.575;  120.050;    0.000
409.472; 3044.575;  198.050;    0.000
409.527; 2888.575;  153.050;    0.000
409.582; 2945.575;  177.050;    0.000
409.637; 2900.575;  184.050;    0.000
409.692; 2982.575;  203.050;    0.000
409.747; 2871.575;  158.050;    0.000
409.802; 2903.575;  212.050;    0.000
409.857; 2863.575;  192.050;    0.000
409.912; 2873.575;  179.050;    0.000
409.967; 2972.575;  177.050;    0.000
410.022; 2954.575;  204.050;    0.000
410.077; 2870.575;  175.050;    0.000
410.132; 2802.575;  207.050;    0.000
410.187; 2975.575;  169.050;    0.000
410.242; 2945.575;  186.050;    0.000
410.297; 2866.575;  185.050;    0.000
410.351; 2966.575;  191.050;    0.000
410.406; 2990.575;  215.050;    0.000
410.461; 2940.575;  190.050;    0.000
410.516; 2973.575;  172.050;    0.000
410.571; 2972.575;  190.050;    0.000
410.626; 2976.575;  189.050;    0.000
410.681; 2992.575;  191.050;    0.000
410.736; 2907.575;  166.050;    0.000
410.790; 2987.575;  179.050;    0.000
410.845; 2957.575;  196.050;    0.000
410.900; 2919.575;  168.050;    0.000
410.955; 3023.575;  173.050;    0.000
411.010; 2914.575;  162.050;    0.000
411.064; 2920.575;  205.050;    0.000
411.119; 2887.575;  203.050;    0.000
411.174; 3006.575;  207.050;    0.000
411.229; 2964.575;  218.050;    0.000
411.283; 2926.575;  218.050;    0.000
411.338; 2919.575;  180.050;    0.000
411.393; 2884.575;  191.050;    0.000
411.447; 2874.575;  207.050;    0.000
411.502; 2949.575;  204.050;    0.000
411.557; 2952.575;  208.050;    0.000
411.612; 2902.575;  191.050;    0.000
411.666; 3015.575;  233.050;    0.000
411.721; 2922.575;  193.050;    0.000
411.776; 2975.575;  195.050;    0.000
411.830; 2953.575;  229.050;    0.000
411.885; 2920.575;  181.050;    0.000
411.939; 3074.575;  214.050;    0.000
411.994; 3010.575;  140.050;    0.000
412.049; 3048.575;  205.050;    0.000
412.103; 3057.575;  232.050;    0.000
412.158; 2949.575;  228.050;    0.000
412.212; 2950.575;  204.050;    0.000
412.267; 2966.575;  203.050;    0.000
412.322; 3005.575;  212.050;    0.000
412.376; 3097.575;  195.050;    0.000
412.431; 2977.575;  197.050;    0.000
412.485; 2996.575;  235.050;    0.000
412.540; 2932.575;  197.050;    0.000
412.594; 2937.575;  199.050;    0.000
412.649; 3025.575;  195.050;    0.000
412.703; 2927.575;  214.050;    0.000
412.758; 2997.575;  213.050;    0.000
412.812; 2965.575;  154.050;    0.000
412.866; 2763.575;  159.050;    0.000
412.921; 2979.575;  207.050;    0.000
412.975; 2920.575;  194.050;    0.000
413.030; 2975.575;  214.050;    0.000
413.084; 2879.575;  174.050;    0.000
413.139; 2936.575;  211.050;    0.000
413.193; 2902.575;  223.050;    0.000
413.247; 3061.575;  198.050;    0.000
413.302; 2942.575;  184.050;    0.000
413.356; 2878.575;  194.050;    0.000
413.410; 2843.575;  219.050;    0.000
413.465; 2962.575;  209.050;    0.000
413.519; 2865.575;  178.050;    0.000
413.573; 2990.575;  189.050;    0.000
413.628; 2930.575;  184.050;    0.000
413.682; 2928.575;  189.050;    0.000
413.736; 3020.575;  196.050;    0.000
413.791; 2929.575;  208.050;    0.000
413.845; 2944.575;  206.050;    0.000
413.899; 2894.575;  193.050;    0.000
413.953; 2929.575;  176.050;    0.000
414.008; 2957.575;  163.050;    0.000
414.062; 2885.575;  195.050;    0.000
414.116; 2887.575;  176.050;    0.000
414.170; 3004.575;  218.050;    0.000
414.225; 2861.575;  183.050;    0.000
414.279; 2961.575;  191.050;    0.000
414.333; 2957.575;  215.050;    0.000
414.387; 2828.575;  187.050;    0.000
414.441; 2903.575;  182.050;    0.000
414.496; 2967.575;  205.050;    0.000
414.550; 2909.575;  203.050;    0.000
414.604; 2863.575;  223.050;    0.000
414.658; 2997.575;  159.050;    0.000
414.712; 2950.575;  194.050;    0.000
414.766; 2944.575;  232.050;    0.000
414.820; 2869.575;  235.050;    0.000
414.874; 3008.575;  169.050;    0.000
414.928; 2987.575;  207.050;    0.000
414.982; 2970.575;  174.050;    0.000
415.037; 3021.575;  173.050;    0.000
415.091; 2963.575;  219.050;    0.000
415.145; 2981.575;  174.050;    0.000
415.199; 2920.575;  207.050;    0.000
415.253; 3022.575;  228.050;    0.000
415.307; 3051.575;  182.050;    0.000
415.361; 2876.575;  219.050;    0.000
415.415; 3033.575;  218.050;    0.000
415.469; 3059.575;  233.050;    0.000
415.523; 3052.575;  203.050;    0.000
415.577; 2924.575;  186.050;    0.000
415.631; 2919.575;  215.050;    0.000
415.684; 2931.575;  212.050;    0.000
415.738; 2924.575;  206.050;    0.000
415.792; 2881.575;  219.050;    0.000
415.846; 2955.575;  208.050;    0.000
415.900; 2914.575;  203.050;    0.000
415.954; 2950.575;  237.050;    0.000
416.008; 3017.575;  242.050;    0.000
416.062; 2847.575;  197.050;    0.000
416.116; 3038.575;  189.050;    0.000
416.169; 2998.575;  199.050;    0.000
416.223; 2992.575;  230.050;    0.000
416.277; 3005.575;  226.050;    0.000
416.331; 2806.575;  254.050;    0.000
416.385; 2940.575;  204.050;    0.000
416.439; 2976.575;  201.050;    0.000
416.492; 3023.575;  238.050;    0.000
416.546; 3113.575;  234.050;    0.000
416.600; 2982.575;  244.050;    0.000
416.654; 2905.575;  233.050;    0.000
416.707; 2881.575;  214.050;    0.000
416.761; 2912.575;  214.050;    0.000
416.815; 2901.575;  192.050;    0.000
416.869; 2954.575;  225.050;    0.000
416.922; 2969.575;  214.050;    0.000
416.976; 2963.575;  206.050;    0.000
417.030; 2985.575;  226.050;    0.000
417.083; 2919.575;  207.050;    0.000
417.137; 2934.575;  236.050;    0.000
417.191; 2911.575;  208.050;    0.000
417.244; 2952.575;  260.050;    0.000
417.298; 2889.575;  222.050;    0.000
417.352; 2922.575;  191.050;    0.000
417.405; 2950.575;  229.050;    0.000
417.459; 2946.575;  249.050;    0.000
417.512; 2917.575;  259.050;    0.000
417.566; 2845.575;  220.050;    0.000
417.620; 2892.575;  229.050;    0.000
417.673; 2928.575;  190.050;    0.000
417.727; 2852.575;  204.050;    0.000
417.780; 2923.575;  223.050;    0.000
417.834; 2927.575;  213.050;    0.000
417.887; 2953.575;  238.050;    0.000
417.941; 2859.575;  244.050;    0.000
417.994; 2881.575;  247.050;    0.000
418.048; 2914.575;  225.050;    0.000
418.101; 2868.575;  210.050;    0.000
418.155; 2879.575;  224.050;    0.000
418.208; 2978.575;  229.050;    0.000
418.262; 3011.575;  255.050;    0.000
418.315; 2920.575;  248.050;    0.000
418.369; 2995.575;  212.050;    0.000
418.422; 2870.575;  241.050;    0.000
418.476; 2838.575;  220.050;    0.000
418.529; 2944.575;  257.050;    0.000
418.582; 2871.575;  203.050;    0.000
418.636; 2898.575;  221.050;    0.000
418.689; 2918.575;  202.050;    0.000
418.743; 2982.575;  227.050;    0.000
418.796; 2971.575;  226.050;    0.000
418.849; 2944.575;  199.050;    0.000
418.903; 2960.575;  234.050;    0.000
418.956; 2954.575;  236.050;    0.000
419.009; 2870.575;  305.050;    0.000
419.063; 2900.575;  216.050;    0.000
419.116; 2913.575;  245.050;    0.000
419.169; 2943.575;  208.050;    0.000
419.222; 2926.575;  233.050;    0.000
419.276; 2954.575;  244.050;    0.000
419.329; 2895.575;  197.050;    0.000
419.382; 2853.575;  222.050;    0.000
419.435; 2914.575;  199.050;    0.000
419.489; 2930.575;  226.050;    0.000
419.542; 2916.575;  223.050;    0.000
419.595; 2900.575;  204.050;    0.000
419.648; 2923.575;  234.050;    0.000
419.701; 2830.575;  211.050;    0.000
419.755; 2780.575;  184.050;    0.000
419.808; 2869.575;  223.050;    0.000
419.861; 2887.575;  197.050;    0.000
419.914; 2900.575;  258.050;    0.000
419.967; 2876.575;  205.050;    0.000
420.020; 2871.575;  195.050;    0.000
420.073; 2843.575;  191.050;    0.000
420.127; 2916.575;  256.050;    0.000
420.180; 2855.575;  232.050;    0.000
420.233; 2813.575;  200.050;    0.000
420.286; 2970.575;  207.050;    0.000
420.339; 2908.575;  223.050;    0.000
420.392; 2863.575;  243.050;    0.000
420.445; 2810.575;  195.050;    0.000
420.498; 2821.575;  239.050;    0.000
420.551; 2822.575;  201.050;    0.000
420.604; 2853.575;  245.050;    0.000
420.657; 2876.575;  221.050;    0.000
420.710; 2796.575;  223.050;    0.000
420.763; 2911.575;  241.050;    0.000
420.816; 2816.575;  198.050;    0.000
420.869; 2771.575;  210.050;    0.000
420.922; 2797.575;  206.050;    0.000
420.975; 2807.575;  239.050;    0.000
421.028; 2768.575;  248.050;    0.000
421.081; 2741.575;  236.050;    0.000
421.134; 2912.575;  208.050;    0.000
421.187; 2693.575;  216.050;    0.000
421.239; 2698.575;  199.050;    0.000
421.292; 2737.575;  255.050;    0.000
421.345; 2761.575;  241.050;    0.000
421.398; 2783.575;  221.050;    0.000
421.451; 2827.575;  237.050;    0.000
421.504; 2782.575;  225.050;    0.000
421.557; 2791.575;  213.050;    0.000
421.609; 2757.575;  178.050;    0.000
421.662; 2748.575;  206.050;    0.000
421.715; 2856.575;  212.050;    0.000
421.768; 2802.575;  236.050;    0.000
421.821; 2748.575;  228.050;    0.000
421.873; 2727.575;  200.050;    0.000
421.926; 2755.575;  226.050;    0.000
421.979; 2801.575;  221.050;    0.000
422.032; 2734.575;  219.050;    0.000
422.084; 2715.575;  253.050;    0.000
422.137; 2730.575;  195.050;    0.000
422.190; 2754.575;  192.050;    0.000
422.243; 2717.575;  236.050;    0.000
422.295; 2630.575;  205.050;    0.000
422.348; 2728.575;  198.050;    0.000
422.401; 2722.575;  245.050;    0.000
422.453; 2676.575;  241.050;    0.000
422.506; 2781.575;  255.050;    0.000
422.559; 2748.575;  188.050;    0.000
422.611; 2715.575;  236.050;    0.000
422.664; 2766.575;  218.050;    0.000
422.716; 2881.575;  210.050;    0.000
422.769; 2691.575;  209.050;    0.000
422.822; 2735.575;  213.050;    0.000
422.874; 2654.575;  227.050;    0.000
422.927; 2682.575;  272.050;    0.000
422.979; 2729.575;  204.050;    0.000
423.032; 2686.575;  210.050;    0.000
423.084; 2700.575;  236.050;    0.000
423.137; 2672.575;  223.050;    0.000
423.189; 2724.575;  253.050;    0.000
423.242; 2757.575;  185.050;    0.000
423.294; 2622.575;  232.050;    0.000
423.347; 2685.575;  213.050;    0.000
423.399; 2655.575;  227.050;    0.000
423.452; 2709.575;  236.050;    0.000
423.504; 2647.575;  232.050;    0.000
423.557; 2658.575;  195.050;    0.000
423.609; 2699.575;  238.050;    0.000
423.662; 2688.575;  207.050;    0.000
423.714; 2683.575;  231.050;    0.000
423.766; 2642.575;  211.050;    0.000
423.819; 2610.575;  207.050;    0.000
423.871; 2688.575;  228.050;    0.000
423.923; 2573.575;  223.050;    0.000
423.976; 2660.575;  217.050;    0.000
424.028; 2546.575;  231.050;    0.000
424.081; 2672.575;  219.050;    0.000
424.133; 2763.575;  255.050;    0.000
424.185; 2649.575;  199.050;    0.000
424.238; 2623.575;  238.050;    0.000
424.290; 2692.575;  209.050;    0.000
424.342; 2659.575;  213.050;    0.000
424.394; 2616.575;  215.050;    0.000
424.447; 2687.575;  265.050;    0.000
424.499; 2692.575;  238.050;    0.000
424.551; 2647.575;  256.050;    0.000
424.603; 2626.575;  222.050;    0.000
424.656; 2679.575;  227.050;    0.000
424.708; 2632.575;  250.050;    0.000
424.760; 2591.575;  228.050;    0.000
424.812; 2610.575;  249.050;    0.000
424.864; 2564.575;  222.050;    0.000
424.917; 2508.575;  235.050;    0.000
424.969; 2567.575;  266.050;    0.000
425.021; 2586.575;  233.050;    0.000
425.073; 2650.575;  194.050;    0.000
425.125; 2583.575;  256.050;    0.000
425.177; 2655.575;  225.050;    0.000
425.229; 2544.575;  242.050;    0.000
425.282; 2610.575;  236.050;    0.000
425.334; 2582.575;  250.050;    0.000
425.386; 2658.575;  231.050;    0.000
425.438; 2598.575;  216.050;    0.000
425.490; 2639.575;  240.050;    0.000
425.542; 2582.575;  231.050;    0.000
425.594; 2490.575;  206.050;    0.000
425.646; 2562.575;  201.050;    0.000
425.698; 2546.575;  193.050;    0.000
425.750; 2588.575;  241.050;    0.000
425.802; 2606.575;  199.050;    0.000
425.854; 2534.575;  216.050;    0.000
425.906; 2564.575;  220.050;    0.000
425.958; 2592.575;  200.050;    0.000
426.010; 2513.575;  214.050;    0.000
426.062; 2482.575;  245.050;    0.000
426.114; 2536.575;  241.050;    0.000
426.166; 2547.575;  241.050;    0.000
426.218; 2503.575;  255.050;    0.000
426.270; 2573.575;  228.050;    0.000
426.321; 2484.575;  222.050;    0.000
426.373; 2563.575;  218.050;    0.000
426.425; 2568.575;  258.050;    0.000
426.477; 2476.575;  225.050;    0.000
426.529; 2539.575;  223.050;    0.000
426.581; 2441.575;  198.050;    0.000
426.633; 2540.575;  228.050;    0.000
426.684; 2541.575;  210.050;    0.000
426.736; 2525.575;  208.050;    0.000
426.788; 2508.575;  231.050;    0.000
426.840; 2393.575;  212.050;    0.000
426.892; 2535.575;  221.050;    0.000
426.943; 2517.575;  240.050;    0.000
426.995; 2497.575;  243.050;    0.000
427.047; 2517.575;  231.050;    0.000
427.099; 2455.575;  189.050;    0.000
427.150; 2466.575;  212.050;    0.000
427.202; 2499.575;  219.050;    0.000
427.254; 2425.575;  203.050;    0.000
427.306; 2399.575;  217.050;    0.000
427.357; 2576.575;  232.050;    0.000
427.409; 2464.575;  251.050;    0.000
427.461; 2442.575;  185.050;    0.000
427.512; 2485.575;  239.050;    0.000
427.564; 2496.575;  208.050;    0.000
427.616; 2509.575;  233.050;    0.000
427.667; 2449.575;  223.050;    0.000
427.719; 2480.575;  206.050;    0.000
427.770; 2453.575;  195.050;    0.000
427.822; 2467.575;  223.050;    0.000
427.874; 2445.575;  232.050;    0.000
427.925; 2409.575;  209.050;    0.000
427.977; 2425.575;  208.050;    0.000
428.028; 2463.575;  187.050;    0.000
428.080; 2460.575;  209.050;    0.000
428.131; 2429.575;  237.050;    0.000
428.183; 2459.575;  200.050;    0.000
428.234; 2379.575;  215.050;    0.000
428.286; 2458.575;  229.050;    0.000
428.337; 2471.575;  206.050;    0.000
428.389; 2359.575;  216.050;    0.000
428.440; 2468.575;  287.050;    0.000
428.492; 2506.575;  269.050;    0.000
428.543; 2396.575;  234.050;    0.000
428.595; 2420.575;  214.050;    0.000
428.646; 2464.575;  229.050;    0.000
428.697; 2405.575;  249.050;    0.000
428.749; 2390.575;  250.050;    0.000
428.800; 2453.575;  242.050;    0.000
428.852; 2469.575;  232.050;    0.000
428.903; 2401.575;  196.050;    0.000
428.954; 2431.575;  226.050;    0.000
429.006; 2424.575;  232.050;    0.000
429.057; 2373.575;  188.050;    0.000
429.108; 2375.575;  237.050;    0.000
429.160; 2371.575;  221.050;    0.000
429.211; 2384.575;  222.050;    0.000
429.262; 2429.575;  215.050;    0.000
429.314; 2385.575;  225.050;    0.000
429.365; 2322.575;  220.050;    0.000
429.416; 2418.575;  242.050;    0.000
429.467; 2413.575;  220.050;    0.000
429.519; 2389.575;  217.050;    0.000
429.570; 2359.575;  248.050;    0.000
429.621; 2356.575;  233.050;    0.000
429.672; 2362.575;  220.050;    0.000
429.724; 2313.575;  179.050;    0.000
429.775; 2359.575;  218.050;    0.000
429.826; 2380.575;  197.050;    0.000
429.877; 2411.575;  206.050;    0.000
429.928; 2344.575;  229.050;    0.000
429.980; 2377.575;  207.050;    0.000
430.031; 2406.575;  264.050;    0.000
430.082; 2343.575;  210.050;    0.000
430.133; 2296.575;  218.050;    0.000
430.184; 2365.575;  246.050;    0.000
430.235; 2373.575;  201.050;    0.000
430.286; 2418.575;  207.050;    0.000
430.337; 2300.575;  224.050;    0.000
430.388; 2307.575;  216.050;    0.000
430.439; 2391.575;  210.050;    0.000
430.490; 2307.575;  208.050;    0.000
430.542; 2310.575;  211.050;    0.000
430.593; 2261.575;  203.050;    0.000
430.644; 2338.575;  235.050;    0.000
430.695; 2292.575;  200.050;    0.000
430.746; 2376.575;  215.050;    0.000
430.797; 2394.575;  235.050;    0.000
430.848; 2387.575;  197.050;    0.000
430.898; 2354.575;  209.050;    0.000
430.949; 2339.575;  231.050;    0.000
431.000; 2331.575;  227.050;    0.000
431.051; 2322.575;  225.050;    0.000
431.102; 2248.575;  180.050;    0.000
431.153; 2336.575;  248.050;    0.000
431.204; 2314.575;  185.050;    0.000
431.255; 2340.575;  199.050;    0.000
431.306; 2286.575;  228.050;    0.000
431.357; 2251.575;  237.050;    0.000
431.408; 2391.575;  223.050;    0.000
431.458; 2352.575;  240.050;    0.000
431.509; 2323.575;  207.050;    0.000
431.560; 2384.575;  219.050;    0.000
431.611; 2350.575;  206.050;    0.000
431.662; 2312.575;  253.050;    0.000
431.713; 2355.575;  199.050;    0.000
431.763; 2428.575;  197.050;    0.000
431.814; 2267.575;  205.050;    0.000
431.865; 2264.575;  218.050;    0.000
431.916; 2341.575;  202.050;    0.000
431.966; 2322.575;  203.050;    0.000
432.017; 2319.575;  244.050;    0.000
432.068; 2312.575;  246.050;    0.000
432.118; 2381.575;  212.050;    0.000
432.169; 2397.575;  214.050;    0.000
432.220; 2358.575;  241.050;    0.000
432.271; 2282.575;  237.050;    0.000
432.321; 2297.575;  246.050;    0.000
432.372; 2305.575;  257.050;    0.000
432.423; 2187.575;  198.050;    0.000
432.473; 2352.575;  202.050;    0.000
432.524; 2282.575;  242.050;    0.000
432.574; 2271.575;  202.050;    0.000
432.625; 2277.575;  212.050;    0.000
432.676; 2346.575;  242.050;    0.000
432.726; 2307.575;  268.050;    0.000
432.777; 2258.575;  228.050;    0.000
432.827; 2242.575;  230.050;    0.000
432.878; 2291.575;  221.050;    0.000
432.928; 2290.575;  218.050;    0.000
432.979; 2250.575;  243.050;    0.000
433.029; 2224.575;  217.050;    0.000
433.080; 2348.575;  208.050;    0.000
433.130; 2282.575;  236.050;    0.000
433.181; 2320.575;  282.050;    0.000
433.231; 2374.575;  257.050;    0.000
433.282; 2335.575;  268.050;    0.000
433.332; 2303.575;  241.050;    0.000
433.383; 2306.575;  271.050;    0.000
433.433; 2341.575;  262.050;    0.000
433.484; 2270.575;  266.050;    0.000
433.534; 2368.575;  217.050;    0.000
433.585; 2276.575;  230.050;    0.000
433.635; 2266.575;  245.050;    0.000
433.685; 2401.575;  250.050;    0.000
433.736; 2344.575;  308.050;    0.000
433.786; 2389.575;  242.050;    0.000
433.836; 2309.575;  256.050;    0.000
433.887; 2310.575;  250.050;    0.000
433.937; 2289.575;  250.050;    0.000
433.987; 2237.575;  219.050;    0.000
434.038; 2189.575;  248.050;    0.000
434.088; 2317.575;  231.050;    0.000
434.138; 2266.575;  266.050;    0.000
434.189; 2287.575;  240.050;    0.000
434.239; 2277.575;  245.050;    0.000
434.289; 2357.575;  285.050;    0.000
434.339; 2375.575;  255.050;    0.000
434.389; 2328.575;  242.050;    0.000
434.440; 2282.575;  273.050;    0.000
434.490; 2249.575;  272.050;    0.000
434.540; 2363.575;  264.050;    0.000
434.590; 2392.575;  233.050;    0.000
434.640; 2359.575;  244.050;    0.000
434.691; 2268.575;  226.050;    0.000
434.741; 2421.575;  253.050;    0.000
434.791; 2360.575;  269.050;    0.000
434.841; 2433.575;  252.050;    0.000
434.891; 2426.575;  281.050;    0.000
434.941; 2393.575;  296.050;    0.000
434.991; 2403.575;  264.050;    0.000
435.042; 2393.575;  262.050;    0.000
435.092; 2369.575;  237.050;    0.000
435.142; 2290.575;  232.050;    0.000
435.192; 2337.575;  251.050;    0.000
435.242; 2370.575;  251.050;    0.000
435.292; 2263.575;  246.050;    0.000
435.342; 2269.575;  236.050;    0.000
435.392; 2306.575;  273.050;    0.000
435.442; 2361.575;  273.050;    0.000
435.492; 2272.575;  273.050;    0.000
435.542; 2294.575;  242.050;    0.000
435.592; 2223.575;  213.050;    0.000
435.642; 2314.575;  248.050;    0.000
435.692; 2243.575;  242.050;    0.000
435.742; 2227.575;  222.050;    0.000
435.792; 2258.575;  260.050;    0.000
435.842; 2244.575;  266.050;    0.000
435.891; 2230.575;  227.050;    0.000
435.941; 2244.575;  228.050;    0.000
435.991; 2226.575;  282.050;    0.000
436.041; 2220.575;  231.050;    0.000
436.091; 2195.575;  250.050;    0.000
436.141; 2162.575;  221.050;    0.000
436.191; 2257.575;  223.050;    0.000
436.241; 2176.575;  250.050;    0.000
436.290; 2269.575;  243.050;    0.000
436.340; 2170.575;  236.050;    0.000
436.390; 2256.575;  260.050;    0.000
436.440; 2133.575;  253.050;    0.000
436.490; 2133.575;  236.050;    0.000
436.539; 2283.575;  249.050;    0.000
436.589; 2136.575;  231.050;    0.000
436.639; 2133.575;  237.050;    0.000
436.689; 2059.575;  222.050;    0.000
436.738; 2303.575;  263.050;    0.000
436.788; 2136.575;  230.050;    0.000
436.838; 2165.575;  281.050;    0.000
436.887; 2181.575;  230.050;    0.000
436.937; 2150.575;  250.050;    0.000
436.987; 2184.575;  251.050;    0.000
437.036; 2119.575;  238.050;    0.000
437.086; 2083.575;  234.050;    0.000
437.136; 2095.575;  250.050;    0.000
437.185; 2126.575;  228.050;    0.000
437.235; 2145.575;  309.050;    0.000
437.285; 2136.575;  246.050;    0.000
437.334; 2046.575;  262.050;    0.000
437.384; 2234.575;  228.050;    0.000
437.433; 2158.575;  241.050;    0.000
437.483; 2125.575;  220.050;    0.000
437.532; 2153.575;  252.050;    0.000
437.582; 2194.575;  270.050;    0.000
437.631; 2062.575;  251.050;    0.000
437.681; 2176.575;  284.050;    0.000
437.730; 2141.575;  239.050;    0.000
437.780; 2117.575;  221.050;    0.000
437.829; 2102.575;  254.050;    0.000
437.879; 2100.575;  221.050;    0.000
437.928; 2115.575;  205.050;    0.000
437.978; 2115.575;  223.050;    0.000
438.027; 2155.575;  262.050;    0.000
438.077; 2100.575;  280.050;    0.000
438.126; 2027.575;  254.050;    0.000
438.176; 2108.575;  230.050;    0.000
438.225; 2010.575;  227.050;    0.000
438.274; 2056.575;  264.050;    0.000
438.324; 2087.575;  233.050;    0.000
438.373; 2098.575;  238.050;    0.000
438.422; 2073.575;  260.050;    0.000
438.472; 2026.575;  223.050;    0.000
438.521; 2035.575;  213.050;    0.000
438.570; 2062.575;  236.050;    0.000
438.620; 2114.575;  282.050;    0.000
438.669; 2065.575;  209.050;    0.000
438.718; 2078.575;  245.050;    0.000
438.768; 2068.575;  238.050;    0.000
438.817; 2086.575;  259.050;    0.000
438.866; 2046.575;  232.050;    0.000
438.915; 2107.575;  288.050;    0.000
438.965; 2020.575;  228.050;    0.000
439.014; 2067.575;  246.050;    0.000
439.063; 2160.575;  287.050;    0.000
439.112; 2082.575;  217.050;    0.000
439.162; 2122.575;  275.050;    0.000
439.211; 2049.575;  287.050;    0.000
439.260; 2166.575;  238.050;    0.000
439.309; 2047.575;  225.050;    0.000
439.358; 2074.575;  248.050;    0.000
439.407; 2158.575;  237.050;    0.000
439.456; 2065.575;  223.050;    0.000
439.506; 2104.575;  266.050;    0.000
439.555; 2132.575;  260.050;    0.000
439.604; 2032.575;  233.050;    0.000
439.653; 2022.575;  242.050;    0.000
439.702; 2049.575;  255.050;    0.000
439.751; 2011.575;  202.050;    0.000
439.800; 2021.575;  247.050;    0.000
439.849; 2047.575;  250.050;    0.000
439.898; 2122.575;  216.050;    0.000
439.947; 2101.575;  231.050;    0.000
439.996; 2122.575;  272.050;    0.000
440.045; 2059.575;  217.050;    0.000
440.094; 2092.575;  220.050;    0.000
440.143; 2138.575;  245.050;    0.000
440.192; 2067.575;  267.050;    0.000
440.241; 2136.575;  263.050;    0.000
440.290; 2112.575;  246.050;    0.000
440.339; 2081.575;  225.050;    0.000
440.388; 2092.575;  256.050;    0.000
440.437; 2146.575;  253.050;    0.000
440.486; 2125.575;  249.050;    0.000
440.535; 2115.575;  232.050;    0.000
440.583; 2119.575;  220.050;    0.000
440.632; 2043.575;  239.050;    0.000
440.681; 2116.575;  236.050;    0.000
440.730; 2143.575;  282.050;    0.000
440.779; 2096.575;  245.050;    0.000
440.828; 2130.575;  213.050;    0.000
440.876; 2038.575;  231.050;    0.000
440.925; 2103.575;  271.050;    0.000
440.974; 2116.575;  240.050;    0.000
441.023; 2105.575;  214.050;    0.000
441.072; 2116.575;  236.050;    0.000
441.120; 2196.575;  271.050;    0.000
441.169; 2160.575;  281.050;    0.000
441.218; 2145.575;  255.050;    0.000
441.267; 2213.575;  272.050;    0.000
441.315; 2157.575;  229.050;    0.000
441.364; 2147.575;  241.050;    0.000
441.413; 2115.575;  224.050;    0.000
441.461; 2129.575;  241.050;    0.000
441.510; 2223.575;  289.050;    0.000
441.559; 2165.575;  222.050;    0.000
441.607; 2166.575;  242.050;    0.000
441.656; 2208.575;  255.050;    0.000
441.705; 2243.575;  260.050;    0.000
441.753; 2218.575;  290.050;    0.000
441.802; 2241.575;  264.050;    0.000
441.850; 2166.575;  224.050;    0.000
441.899; 2207.575;  275.050;    0.000
441.948; 2180.575;  227.050;    0.000
441.996; 2174.575;  216.050;    0.000
442.045; 2207.575;  271.050;    0.000
442.093; 2158.575;  227.050;    0.000
442.142; 2186.575;  273.050;    0.000
442.190; 2145.575;  257.050;    0.000
442.239; 2144.575;  269.050;    0.000
442.287; 2120.575;  257.050;    0.000
442.336; 2152.575;  237.050;    0.000
442.384; 2124.575;  214.050;    0.000
442.433; 2159.575;  272.050;    0.000
442.481; 2187.575;  258.050;    0.000
442.529; 2101.575;  242.050;    0.000
442.578; 2073.575;  278.050;    0.000
442.626; 2139.575;  264.050;    0.000
442.675; 2110.575;  293.050;    0.000
442.723; 2058.575;  244.050;    0.000
442.771; 2103.575;  232.050;    0.000
442.820; 2121.575;  266.050;    0.000
442.868; 2212.575;  253.050;    0.000
442.917; 2132.575;  250.050;    0.000
442.965; 2168.575;  279.050;    0.000
443.013; 2192.575;  253.050;    0.000
443.062; 2145.575;  282.050;    0.000
443.110; 2189.575;  258.050;    0.000
443.158; 2127.575;  246.050;    0.000
443.206; 2073.575;  255.050;    0.000
443.255; 2155.575;  296.050;    0.000
443.303; 2179.575;  272.050;    0.000
443.351; 2175.575;  270.050;    0.000
443.399; 2100.575;  258.050;    0.000
443.448; 2145.575;  265.050;    0.000
443.496; 2162.575;  219.050;    0.000
443.544; 2098.575;  205.050;    0.000
443.592; 2204.575;  266.050;    0.000
443.640; 2163.575;  260.050;    0.000
443.689; 2149.575;  232.050;    0.000
443.737; 2270.575;  281.050;    0.000
443.785; 2166.575;  248.050;    0.000
443.833; 2225.575;  286.050;    0.000
443.881; 2214.575;  225.050;    0.000
443.929; 2179.575;  255.050;    0.000
443.977; 2246.575;  248.050;    0.000
444.025; 2228.575;  255.050;    0.000
444.074; 2229.575;  266.050;    0.000
444.122; 2208.575;  266.050;    0.000
444.170; 2252.575;  207.050;    0.000
444.218; 2142.575;  253.050;    0.000
444.266; 2233.575;  263.050;    0.000
444.314; 2191.575;  272.050;    0.000
444.362; 2237.575;  272.050;    0.000
444.410; 2203.575;  255.050;    0.000
444.458; 2222.575;  288.050;    0.000
444.506; 2199.575;  263.050;    0.000
444.554; 2216.575;  243.050;    0.000
444.602; 2235.575;  285.050;    0.000
444.650; 2228.575;  273.050;    0.000
444.698; 2276.575;  221.050;    0.000
444.746; 2254.575;  243.050;    0.000
444.793; 2291.575;  217.050;    0.000
444.841; 2264.575;  262.050;    0.000
444.889; 2257.575;  264.050;    0.000
444.937; 2273.575;  226.050;    0.000
444.985; 2252.575;  257.050;    0.000
445.033; 2194.575;  264.050;    0.000
445.081; 2227.575;  264.050;    0.000
445.129; 2223.575;  187.050;    0.000
445.176; 2199.575;  212.050;    0.000
445.224; 2217.575;  198.050;    0.000
445.272; 2174.575;  265.050;    0.000
445.320; 2340.575;  239.050;    0.000
445.368; 2214.575;  245.050;    0.000
445.415; 2246.575;  215.050;    0.000
445.463; 2207.575;  202.050;    0.000
445.511; 2168.575;  234.050;    0.000
445.559; 2267.575;  269.050;    0.000
445.606; 2242.575;  214.050;    0.000
445.654; 2196.575;  227.050;    0.000
445.702; 2138.575;  276.050;    0.000
445.749; 2189.575;  256.050;    0.000
445.797; 2232.575;  236.050;    0.000
445.845; 2242.575;  230.050;    0.000
445.892; 2173.575;  233.050;    0.000
445.940; 2202.575;  257.050;    0.000
445.988; 2223.575;  253.050;    0.000
446.035; 2201.575;  265.050;    0.000
446.083; 2198.575;  254.050;    0.000
446.130; 2227.575;  228.050;    0.000
446.178; 2166.575;  256.050;    0.000
446.226; 2252.575;  238.050;    0.000
446.273; 2291.575;  228.050;    0.000
446.321; 2208.575;  220.050;    0.000
446.368; 2270.575;  249.050;    0.000
446.416; 2286.575;  221.050;    0.000
446.463; 2269.575;  232.050;    0.000
446.511; 2182.575;  243.050;    0.000
446.558; 2255.575;  217.050;    0.000
446.606; 2284.575;  256.050;    0.000
446.653; 2232.575;  238.050;    0.000
446.701; 2245.575;  259.050;    0.000
446.748; 2260.575;  227.050;    0.000
446.796; 2310.575;  236.050;    0.000
446.843; 2333.575;  241.050;    0.000
446.891; 2209.575;  292.050;    0.000
446.938; 2265.575;  219.050;    0.000
446.985; 2267.575;  255.050;    0.000
447.033; 2392.575;  237.050;    0.000
447.080; 2349.575;  278.050;    0.000
447.128; 2353.575;  237.050;    0.000
447.175; 2317.575;  247.050;    0.000
447.222; 2218.575;  235.050;    0.000
447.270; 2339.575;  274.050;    0.000
447.317; 2313.575;  222.050;    0.000
447.364; 2335.575;  230.050;    0.000
447.411; 2363.575;  297.050;    0.000
447.459; 2372.575;  243.050;    0.000
447.506; 2348.575;  202.050;    0.000
447.553; 2533.575;  232.050;    0.000
447.601; 2384.575;  262.050;    0.000
447.648; 2424.575;  254.050;    0.000
447.695; 2523.575;  287.050;    0.000
447.742; 2503.575;  232.050;    0.000
447.789; 2501.575;  257.050;    0.000
447.837; 2607.575;  260.050;    0.000
447.884; 2497.575;  272.050;    0.000
447.931; 2568.575;  241.050;    0.000
447.978; 2526.575;  241.050;    0.000
448.025; 2595.575;  264.050;    0.000
448.072; 2520.575;  279.050;    0.000
448.120; 2581.575;  263.050;    0.000
448.167; 2611.575;  284.050;    0.000
448.214; 2588.575;  252.050;    0.000
448.261; 2506.575;  247.050;    0.000
448.308; 2627.575;  249.050;    0.000
448.355; 2493.575;  263.050;    0.000
448.402; 2448.575;  251.050;    0.000
448.449; 2457.575;  257.050;    0.000
448.496; 2404.575;  243.050;    0.000
448.543; 2354.575;  274.050;    0.000
448.590; 2391.575;  299.050;    0.000
448.637; 2357.575;  259.050;    0.000
448.684; 2345.575;  266.050;    0.000
448.731; 2379.575;  261.050;    0.000
448.778; 2374.575;  292.050;    0.000
448.825; 2324.575;  253.050;    0.000
448.872; 2285.575;  253.050;    0.000
448.919; 2271.575;  218.050;    0.000
448.966; 2288.575;  254.050;    0.000
449.013; 2228.575;  263.050;    0.000
449.060; 2215.575;  282.050;    0.000
449.107; 2169.575;  244.050;    0.000
449.154; 2210.575;  236.050;    0.000
449.200; 2229.575;  226.050;    0.000
449.247; 2209.575;  273.050;    0.000
449.294; 2198.575;  270.050;    0.000
449.341; 2213.575;  283.050;    0.000
449.388; 2196.575;  261.050;    0.000
449.435; 2207.575;  254.050;    0.000
449.481; 2299.575;  318.050;    0.000
449.528; 2148.575;  274.050;    0.000
449.575; 2155.575;  251.050;    0.000
449.622; 2179.575;  276.050;    0.000
449.668; 2124.575;  242.050;    0.000
449.715; 2186.575;  286.050;    0.000
449.762; 2185.575;  268.050;    0.000
449.809; 2130.575;  285.050;    0.000
449.855; 2140.575;  277.050;    0.000
449.902; 2095.575;  246.050;    0.000
449.949; 2168.575;  268.050;    0.000
449.995; 2101.575;  289.050;    0.000
450.042; 2164.575;  256.050;    0.000
450.089; 2137.575;  290.050;    0.000
450.135; 2136.575;  300.050;    0.000
450.182; 2191.575;  317.050;    0.000
450.229; 2147.575;  282.050;    0.000
450.275; 2149.575;  307.050;    0.000
450.322; 2137.575;  260.050;    0.000
450.368; 2133.575;  315.050;    0.000
450.415; 2144.575;  306.050;    0.000
450.462; 2156.575;  314.050;    0.000
450.508; 2155.575;  303.050;    0.000
450.555; 2089.575;  281.050;    0.000
450.601; 2073.575;  291.050;    0.000
450.648; 2073.575;  288.050;    0.000
450.694; 2077.575;  290.050;    0.000
450.741; 2140.575;  303.050;    0.000
450.787; 1999.575;  298.050;    0.000
450.834; 2007.575;  265.050;    0.000
450.880; 2115.575;  273.050;    0.000
450.927; 2039.575;  312.050;    0.000
450.973; 2135.575;  303.050;    0.000
451.019; 2104.575;  222.050;    0.000
451.066; 2106.575;  284.050;    0.000
451.112; 2076.575;  296.050;    0.000
451.159; 2132.575;  299.050;    0.000
451.205; 2058.575;  311.050;    0.000
451.251; 2091.575;  306.050;    0.000
451.298; 2024.575;  281.050;    0.000
451.344; 2155.575;  311.050;    0.000
451.390; 2135.575;  331.050;    0.000
451.437; 2040.575;  303.050;    0.000
451.483; 2080.575;  284.050;    0.000
451.529; 2039.575;  310.050;    0.000
451.576; 2064.575;  301.050;    0.000
451.622; 1976.575;  275.050;    0.000
451.668; 2011.575;  269.050;    0.000
451.714; 2073.575;  277.050;    0.000
451.761; 2056.575;  298.050;    0.000
451.807; 2099.575;  316.050;    0.000
451.853; 2103.575;  301.050;    0.000
451.899; 1974.575;  292.050;    0.000
451.945; 1989.575;  324.050;    0.000
451.992; 2141.575;  292.050;    0.000
452.038; 2014.575;  261.050;    0.000
452.084; 2080.575;  286.050;    0.000
452.130; 2010.575;  301.050;    0.000
452.176; 1945.575;  287.050;    0.000
452.222; 2017.575;  265.050;    0.000
452.268; 1914.575;  268.050;    0.000
452.315; 1981.575;  272.050;    0.000
452.361; 1940.575;  258.050;    0.000
452.407; 2049.575;  279.050;    0.000
452.453; 1985.575;  252.050;    0.000
452.499; 2034.575;  305.050;    0.000
452.545; 2037.575;  263.050;    0.000
452.591; 2045.575;  284.050;    0.000
452.637; 1985.575;  289.050;    0.000
452.683; 2001.575;  249.050;    0.000
452.729; 2020.575;  290.050;    0.000
452.775; 2037.575;  315.050;    0.000
452.821; 2025.575;  271.050;    0.000
452.867; 1907.575;  258.050;    0.000
452.913; 1967.575;  256.050;    0.000
452.959; 2019.575;  266.050;    0.000
453.005; 1975.575;  299.050;    0.000
453.051; 2037.575;  299.050;    0.000
453.097; 2004.575;  268.050;    0.000
453.142; 2050.575;  251.050;    0.000
453.188; 1994.575;  284.050;    0.000
453.234; 1932.575;  285.050;    0.000
453.280; 1937.575;  263.050;    0.000
453.326; 1953.575;  273.050;    0.000
453.372; 1960.575;  253.050;    0.000
453.418; 2018.575;  269.050;    0.000
453.463; 1965.575;  250.050;    0.000
453.509; 1943.575;  289.050;    0.000
453.555; 1949.575;  262.050;    0.000
453.601; 2001.575;  274.050;    0.000
453.647; 1986.575;  306.050;    0.000
453.692; 1961.575;  264.050;    0.000
453.738; 1908.575;  312.050;    0.000
453.784; 2005.575;  300.050;    0.000
453.829; 1989.575;  284.050;    0.000
453.875; 2062.575;  270.050;    0.000
453.921; 1895.575;  237.050;    0.000
453.967; 1931.575;  263.050;    0.000
454.012; 1961.575;  295.050;    0.000
454.058; 1963.575;  293.050;    0.000
454.104; 1974.575;  264.050;    0.000
454.149; 2008.575;  282.050;    0.000
454.195; 1930.575;  277.050;    0.000
454.240; 1969.575;  307.050;    0.000
454.286; 1978.575;  282.050;    0.000
454.332; 1938.575;  291.050;    0.000
454.377; 1989.575;  302.050;    0.000
454.423; 1946.575;  276.050;    0.000
454.468; 1941.575;  281.050;    0.000
454.514; 1966.575;  290.050;    0.000
454.559; 1970.575;  289.050;    0.000
454.605; 1901.575;  258.050;    0.000
454.650; 1880.575;  281.050;    0.000
454.696; 1993.575;  308.050;    0.000
454.741; 1980.575;  288.050;    0.000
454.787; 1954.575;  284.050;    0.000
454.832; 1953.575;  306.050;    0.000
454.878; 2019.575;  288.050;    0.000
454.923; 1975.575;  287.050;    0.000
454.969; 1935.575;  325.050;    0.000
455.014; 1938.575;  323.050;    0.000
455.060; 1965.575;  290.050;    0.000
455.105; 1920.575;  285.050;    0.000
455.150; 1972.575;  303.050;    0.000
455.196; 1960.575;  282.050;    0.000
455.241; 1934.575;  281.050;    0.000
455.286; 1963.575;  290.050;    0.000
455.332; 1993.575;  280.050;    0.000
455.377; 1945.575;  243.050;    0.000
455.422; 1929.575;  308.050;    0.000
455.468; 1938.575;  308.050;    0.000
455.513; 1918.575;  290.050;    0.000
455.558; 1865.575;  211.050;    0.000
455.604; 1949.575;  289.050;    0.000
455.649; 1955.575;  297.050;    0.000
455.694; 1978.575;  287.050;    0.000
455.739; 1932.575;  296.050;    0.000
455.785; 1923.575;  315.050;    0.000
455.830; 1893.575;  328.050;    0.000
455.875; 1938.575;  310.050;    0.000
455.920; 1948.575;  261.050;    0.000
455.965; 1851.575;  277.050;    0.000
456.010; 1936.575;  317.050;    0.000
456.056; 1907.575;  299.050;    0.000
456.101; 1930.575;  262.050;    0.000
456.146; 2007.575;  318.050;    0.000
456.191; 2000.575;  274.050;    0.000
456.236; 1947.575;  274.050;    0.000
456.281; 1906.575;  275.050;    0.000
456.326; 1956.575;  256.050;    0.000
456.371; 1946.575;  260.050;    0.000
456.416; 1967.575;  304.050;    0.000
456.461; 1898.575;  278.050;    0.000
456.507; 1966.575;  299.050;    0.000
456.552; 1989.575;  305.050;    0.000
456.597; 1954.575;  271.050;    0.000
456.642; 1972.575;  273.050;    0.000
456.687; 1990.575;  290.050;    0.000
456.732; 1996.575;  327.050;    0.000
456.776; 1945.575;  284.050;    0.000
456.821; 1962.575;  321.050;    0.000
456.866; 1943.575;  272.050;    0.000
456.911; 1882.575;  232.050;    0.000
456.956; 1987.575;  263.050;    0.000
457.001; 1935.575;  277.050;    0.000
457.046; 1954.575;  284.050;    0.000
457.091; 1968.575;  269.050;    0.000
457.136; 1970.575;  269.050;    0.000
457.181; 2002.575;  275.050;    0.000
457.225; 2048.575;  310.050;    0.000
457.270; 2064.575;  295.050;    0.000
457.315; 1937.575;  284.050;    0.000
457.360; 2012.575;  264.050;    0.000
457.405; 1912.575;  273.050;    0.000
457.450; 1939.575;  284.050;    0.000
457.494; 1973.575;  273.050;    0.000
457.539; 1951.575;  287.050;    0.000
457.584; 1929.575;  279.050;    0.000
457.629; 1951.575;  288.050;    0.000
457.673; 1966.575;  297.050;    0.000
457.718; 2003.575;  270.050;    0.000
457.763; 1968.575;  295.050;    0.000
457.807; 2061.575;  321.050;    0.000
457.852; 2046.575;  293.050;    0.000
457.897; 1974.575;  282.050;    0.000
457.941; 1992.575;  320.050;    0.000
457.986; 1989.575;  295.050;    0.000
458.031; 1981.575;  314.050;    0.000
458.075; 2034.575;  280.050;    0.000
458.120; 2104.575;  314.050;    0.000
458.165; 1961.575;  289.050;    0.000
458.209; 1993.575;  289.050;    0.000
458.254; 1995.575;  272.050;    0.000
458.298; 2030.575;  305.050;    0.000
458.343; 2045.575;  284.050;    0.000
458.387; 2049.575;  340.050;    0.000
458.432; 2031.575;  306.050;    0.000
458.476; 2132.575;  311.050;    0.000
458.521; 2070.575;  304.050;    0.000
458.565; 2047.575;  329.050;    0.000
458.610; 2075.575;  287.050;    0.000
458.654; 2052.575;  300.050;    0.000
458.699; 2127.575;  295.050;    0.000
458.743; 2050.575;  269.050;    0.000
458.788; 2082.575;  294.050;    0.000
458.832; 2092.575;  301.050;    0.000
458.877; 2131.575;  303.050;    0.000
458.921; 2044.575;  259.050;    0.000
458.965; 2126.575;  308.050;    0.000
459.010; 2030.575;  330.050;    0.000
459.054; 2091.575;  298.050;    0.000
459.099; 2028.575;  303.050;    0.000
459.143; 2149.575;  333.050;    0.000
459.187; 2090.575;  291.050;    0.000
459.231; 2198.575;  316.050;    0.000
459.276; 2146.575;  294.050;    0.000
459.320; 2057.575;  291.050;    0.000
459.364; 2203.575;  318.050;    0.000
459.409; 2180.575;  325.050;    0.000
459.453; 2096.575;  293.050;    0.000
459.497; 2114.575;  354.050;    0.000
459.541; 2121.575;  313.050;    0.000
459.586; 2170.575;  282.050;    0.000
459.630; 2211.575;  286.050;    0.000
459.674; 2173.575;  292.050;    0.000
459.718; 2172.575;  280.050;    0.000
459.762; 2179.575;  304.050;    0.000
459.807; 2270.575;  352.050;    0.000
459.851; 2168.575;  300.050;    0.000
459.895; 2131.575;  311.050;    0.000
459.939; 2123.575;  303.050;    0.000
459.983; 2160.575;  299.050;    0.000
460.027; 2174.575;  307.050;    0.000
460.071; 2247.575;  313.050;    0.000
460.115; 2230.575;  325.050;    0.000
460.159; 2240.575;  331.050;    0.000
460.204; 2151.575;  301.050;    0.000
460.248; 2130.575;  329.050;    0.000
460.292; 2226.575;  310.050;    0.000
460.336; 2160.575;  304.050;    0.000
460.380; 2231.575;  313.050;    0.000
460.424; 2200.575;  300.050;    0.000
460.468; 2212.575;  338.050;    0.000
460.512; 2212.575;  310.050;    0.000
460.556; 2215.575;  337.050;    0.000
460.599; 2248.575;  310.050;    0.000
460.643; 2193.575;  303.050;    0.000
460.687; 2271.575;  316.050;    0.000
460.731; 2141.575;  292.050;    0.000
460.775; 2254.575;  294.050;    0.000
460.819; 2225.575;  310.050;    0.000
460.863; 2293.575;  349.050;    0.000
460.907; 2072.575;  265.050;    0.000
460.951; 2281.575;  325.050;    0.000
460.995; 2260.575;  338.050;    0.000
461.038; 2193.575;  304.050;    0.000
461.082; 2315.575;  312.050;    0.000
461.126; 2231.575;  358.050;    0.000
461.170; 2257.575;  306.050;    0.000
461.214; 2253.575;  330.050;    0.000
461.257; 2275.575;  311.050;    0.000
461.301; 2226.575;  303.050;    0.000
461.345; 2248.575;  310.050;    0.000
461.389; 2187.575;  296.050;    0.000
461.432; 2145.575;  304.050;    0.000
461.476; 2278.575;  305.050;    0.000
461.520; 2230.575;  319.050;    0.000
461.563; 2237.575;  294.050;    0.000
461.607; 2296.575;  295.050;    0.000
461.651; 2241.575;  335.050;    0.000
461.694; 2284.575;  276.050;    0.000
461.738; 2230.575;  327.050;    0.000
461.782; 2303.575;  288.050;    0.000
461.825; 2261.575;  319.050;    0.000
461.869; 2339.575;  305.050;    0.000
461.913; 2309.575;  281.050;    0.000
461.956; 2296.575;  281.050;    0.000
462.000; 2368.575;  339.050;    0.000
462.043; 2331.575;  347.050;    0.000
462.087; 2326.575;  314.050;    0.000
462.130; 2337.575;  332.050;    0.000
462.174; 2323.575;  332.050;    0.000
462.217; 2445.575;  299.050;    0.000
462.261; 2378.575;  323.050;    0.000
462.304; 2316.575;  286.050;    0.000
462.348; 2377.575;  305.050;    0.000
462.391; 2350.575;  293.050;    0.000
462.435; 2359.575;  365.050;    0.000
462.478; 2308.575;  329.050;    0.000
462.522; 2333.575;  316.050;    0.000
462.565; 2403.575;  328.050;    0.000
462.608; 2374.575;  350.050;    0.000
462.652; 2392.575;  328.050;    0.000
462.695; 2455.575;  358.050;    0.000
462.739; 2407.575;  317.050;    0.000
462.782; 2428.575;  329.050;    0.000
462.825; 2396.575;  368.050;    0.000
462.869; 2499.575;  343.050;    0.000
462.912; 2436.575;  404.050;    0.000
462.955; 2450.575;  328.050;    0.000
462.998; 2503.575;  340.050;    0.000
463.042; 2515.575;  361.050;    0.000
463.085; 2480.575;  337.050;    0.000
463.128; 2425.575;  373.050;    0.000
463.172; 2386.575;  347.050;    0.000
463.215;  358.575;  305.050;    0.000
463.258;  310.575;  324.050;    0.000
463.301;  305.575;  296.050;    0.000
463.344;  341.575;  332.050;    0.000
463.388;  338.575;  309.050;    0.000
463.431;  292.575;  298.050;    0.000
463.474;  358.575;  351.050;    0.000
463.517;  309.575;  319.050;    0.000
463.560;  335.575;  325.050;    0.000
463.603;  340.575;  330.050;    0.000
463.646;  345.575;  332.050;    0.000
463.690;  324.575;  325.050;    0.000
463.733;  313.575;  323.050;    0.000
463.776;  298.575;  276.050;    0.000
463.819;  333.575;  320.050;    0.000
463.862;  301.575;  275.050;    0.000

