
Integration time [ms]:   1.000
Averaging Nr. [scans]: 1
Smoothing Nr. [pixels]: 0
Data measured with spectrometer [name]: UV1
Wave   ;Sample   ;Dark     ;Reference
[nm]   ;[counts] ;[counts] ;[counts] 

236.381;  123.800;    0.000;    0.000
236.451;  193.800;    0.000;    0.000
236.520;  208.800;    0.000;    0.000
236.590;  193.800;    0.000;    0.000
236.660;  193.800;    0.000;    0.000
236.730;  185.800;    0.000;    0.000
236.799;  202.800;    0.000;    0.000
236.869;  196.800;    0.000;    0.000
236.939;  156.800;    0.000;    0.000
237.009;  166.800;    0.000;    0.000
237.078;  176.800;    0.000;    0.000
237.148;  169.800;    0.000;    0.000
237.218;  192.800;    0.000;    0.000
237.287;  208.800;    0.000;    0.000
237.357;  181.800;    0.000;    0.000
237.427;  208.800;    0.000;    0.000
237.496;  412.800;    0.000;    0.000
237.566;  348.800;    0.000;    0.000
237.636;  344.800;    0.000;    0.000
237.705;  380.800;    0.000;    0.000
237.775;  346.800;    0.000;    0.000
237.845;  398.800;    0.000;    0.000
237.914;  356.800;    0.000;    0.000
237.984;  372.800;    0.000;    0.000
238.054;  368.800;    0.000;    0.000
238.123;  409.800;    0.000;    0.000
238.193;  379.800;    0.000;    0.000
238.263;  358.800;    0.000;    0.000
238.332;  328.800;    0.000;    0.000
238.402;  402.800;    0.000;    0.000
238.471;  374.800;    0.000;    0.000
238.541;  347.800;    0.000;    0.000
238.611;  331.800;    0.000;    0.000
238.680;  346.800;    0.000;    0.000
238.750;  369.800;    0.000;    0.000
238.819;  351.800;    0.000;    0.000
238.889;  383.800;    0.000;    0.000
238.958;  391.800;    0.000;    0.000
239.028;  355.800;    0.000;    0.000
239.097;  354.800;    0.000;    0.000
239.167;  355.800;    0.000;    0.000
239.237;  387.800;    0.000;    0.000
239.306;  381.800;    0.000;    0.000
239.376;  373.800;    0.000;    0.000
239.445;  387.800;    0.000;    0.000
239.515;  357.800;    0.000;    0.000
239.584;  341.800;    0.000;    0.000
239.654;  318.800;    0.000;    0.000
239.723;  364.800;    0.000;    0.000
239.793;  405.800;    0.000;    0.000
239.862;  362.800;    0.000;    0.000
239.932;  370.800;    0.000;    0.000
240.001;  335.800;    0.000;    0.000
240.070;  384.800;    0.000;    0.000
240.140;  374.800;    0.000;    0.000
240.209;  339.800;    0.000;    0.000
240.279;  345.800;    0.000;    0.000
240.348;  371.800;    0.000;    0.000
240.418;  322.800;    0.000;    0.000
240.487;  337.800;    0.000;    0.000
240.556;  339.800;    0.000;    0.000
240.626;  410.800;    0.000;    0.000
240.695;  347.800;    0.000;    0.000
240.765;  363.800;    0.000;    0.000
240.834;  344.800;    0.000;    0.000
240.903;  365.800;    0.000;    0.000
240.973;  323.800;    0.000;    0.000
241.042;  331.800;    0.000;    0.000
241.112;  371.800;    0.000;    0.000
241.181;  370.800;    0.000;    0.000
241.250;  334.800;    0.000;    0.000
241.320;  339.800;    0.000;    0.000
241.389;  311.800;    0.000;    0.000
241.458;  389.800;    0.000;    0.000
241.528;  349.800;    0.000;    0.000
241.597;  353.800;    0.000;    0.000
241.666;  335.800;    0.000;    0.000
241.736;  367.800;    0.000;    0.000
241.805;  322.800;    0.000;    0.000
241.874;  374.800;    0.000;    0.000
241.943;  350.800;    0.000;    0.000
242.013;  371.800;    0.000;    0.000
242.082;  347.800;    0.000;    0.000
242.151;  315.800;    0.000;    0.000
242.221;  381.800;    0.000;    0.000
242.290;  327.800;    0.000;    0.000
242.359;  329.800;    0.000;    0.000
242.428;  361.800;    0.000;    0.000
242.498;  315.800;    0.000;    0.000
242.567;  340.800;    0.000;    0.000
242.636;  357.800;    0.000;    0.000
242.705;  318.800;    0.000;    0.000
242.774;  330.800;    0.000;    0.000
242.844;  363.800;    0.000;    0.000
242.913;  346.800;    0.000;    0.000
242.982;  352.800;    0.000;    0.000
243.051;  353.800;    0.000;    0.000
243.120;  349.800;    0.000;    0.000
243.190;  333.800;    0.000;    0.000
243.259;  333.800;    0.000;    0.000
243.328;  340.800;    0.000;    0.000
243.397;  354.800;    0.000;    0.000
243.466;  330.800;    0.000;    0.000
243.535;  334.800;    0.000;    0.000
243.605;  322.800;    0.000;    0.000
243.674;  394.800;    0.000;    0.000
243.743;  373.800;    0.000;    0.000
243.812;  347.800;    0.000;    0.000
243.881;  345.800;    0.000;    0.000
243.950;  327.800;    0.000;    0.000
244.019;  375.800;    0.000;    0.000
244.088;  394.800;    0.000;    0.000
244.158;  391.800;    0.000;    0.000
244.227;  326.800;    0.000;    0.000
244.296;  333.800;    0.000;    0.000
244.365;  337.800;    0.000;    0.000
244.434;  355.800;    0.000;    0.000
244.503;  289.800;    0.000;    0.000
244.572;  285.800;    0.000;    0.000
244.641;  320.800;    0.000;    0.000
244.710;  354.800;    0.000;    0.000
244.779;  335.800;    0.000;    0.000
244.848;  286.800;    0.000;    0.000
244.917;  360.800;    0.000;    0.000
244.986;  328.800;    0.000;    0.000
245.055;  333.800;    0.000;    0.000
245.124;  327.800;    0.000;    0.000
245.193;  311.800;    0.000;    0.000
245.262;  292.800;    0.000;    0.000
245.331;  370.800;    0.000;    0.000
245.400;  328.800;    0.000;    0.000
245.469;  341.800;    0.000;    0.000
245.538;  359.800;    0.000;    0.000
245.607;  364.800;    0.000;    0.000
245.676;  343.800;    0.000;    0.000
245.745;  330.800;    0.000;    0.000
245.814;  376.800;    0.000;    0.000
245.883;  345.800;    0.000;    0.000
245.952;  362.800;    0.000;    0.000
246.021;  347.800;    0.000;    0.000
246.090;  343.800;    0.000;    0.000
246.159;  368.800;    0.000;    0.000
246.227;  292.800;    0.000;    0.000
246.296;  337.800;    0.000;    0.000
246.365;  369.800;    0.000;    0.000
246.434;  417.800;    0.000;    0.000
246.503;  336.800;    0.000;    0.000
246.572;  384.800;    0.000;    0.000
246.641;  312.800;    0.000;    0.000
246.710;  344.800;    0.000;    0.000
246.779;  358.800;    0.000;    0.000
246.847;  358.800;    0.000;    0.000
246.916;  320.800;    0.000;    0.000
246.985;  350.800;    0.000;    0.000
247.054;  330.800;    0.000;    0.000
247.123;  327.800;    0.000;    0.000
247.192;  333.800;    0.000;    0.000
247.260;  350.800;    0.000;    0.000
247.329;  303.800;    0.000;    0.000
247.398;  373.800;    0.000;    0.000
247.467;  351.800;    0.000;    0.000
247.536;  364.800;    0.000;    0.000
247.604;  337.800;    0.000;    0.000
247.673;  357.800;    0.000;    0.000
247.742;  344.800;    0.000;    0.000
247.811;  345.800;    0.000;    0.000
247.879;  354.800;    0.000;    0.000
247.948;  338.800;    0.000;    0.000
248.017;  346.800;    0.000;    0.000
248.086;  354.800;    0.000;    0.000
248.154;  322.800;    0.000;    0.000
248.223;  327.800;    0.000;    0.000
248.292;  333.800;    0.000;    0.000
248.361;  349.800;    0.000;    0.000
248.429;  355.800;    0.000;    0.000
248.498;  339.800;    0.000;    0.000
248.567;  359.800;    0.000;    0.000
248.635;  344.800;    0.000;    0.000
248.704;  316.800;    0.000;    0.000
248.773;  295.800;    0.000;    0.000
248.841;  307.800;    0.000;    0.000
248.910;  303.800;    0.000;    0.000
248.979;  302.800;    0.000;    0.000
249.047;  296.800;    0.000;    0.000
249.116;  303.800;    0.000;    0.000
249.185;  293.800;    0.000;    0.000
249.253;  263.800;    0.000;    0.000
249.322;  299.800;    0.000;    0.000
249.390;  252.800;    0.000;    0.000
249.459;  293.800;    0.000;    0.000
249.528;  320.800;    0.000;    0.000
249.596;  315.800;    0.000;    0.000
249.665;  279.800;    0.000;    0.000
249.733;  274.800;    0.000;    0.000
249.802;  236.800;    0.000;    0.000
249.871;  284.800;    0.000;    0.000
249.939;  263.800;    0.000;    0.000
250.008;  257.800;    0.000;    0.000
250.076;  309.800;    0.000;    0.000
250.145;  284.800;    0.000;    0.000
250.213;  280.800;    0.000;    0.000
250.282;  255.800;    0.000;    0.000
250.350;  260.800;    0.000;    0.000
250.419;  312.800;    0.000;    0.000
250.487;  322.800;    0.000;    0.000
250.556;  296.800;    0.000;    0.000
250.624;  319.800;    0.000;    0.000
250.693;  220.800;    0.000;    0.000
250.761;  288.800;    0.000;    0.000
250.830;  319.800;    0.000;    0.000
250.898;  230.800;    0.000;    0.000
250.967;  229.800;    0.000;    0.000
251.035;  248.800;    0.000;    0.000
251.104;  260.800;    0.000;    0.000
251.172;  249.800;    0.000;    0.000
251.241;  225.800;    0.000;    0.000
251.309;  236.800;    0.000;    0.000
251.378;  228.800;    0.000;    0.000
251.446;  226.800;    0.000;    0.000
251.514;  226.800;    0.000;    0.000
251.583;  242.800;    0.000;    0.000
251.651;  256.800;    0.000;    0.000
251.720;  250.800;    0.000;    0.000
251.788;  257.800;    0.000;    0.000
251.856;  219.800;    0.000;    0.000
251.925;  227.800;    0.000;    0.000
251.993;  238.800;    0.000;    0.000
252.062;  215.800;    0.000;    0.000
252.130;  272.800;    0.000;    0.000
252.198;  249.800;    0.000;    0.000
252.267;  235.800;    0.000;    0.000
252.335;  219.800;    0.000;    0.000
252.403;  241.800;    0.000;    0.000
252.472;  242.800;    0.000;    0.000
252.540;  256.800;    0.000;    0.000
252.608;  265.800;    0.000;    0.000
252.677;  227.800;    0.000;    0.000
252.745;  270.800;    0.000;    0.000
252.813;  251.800;    0.000;    0.000
252.881;  190.800;    0.000;    0.000
252.950;  236.800;    0.000;    0.000
253.018;  217.800;    0.000;    0.000
253.086;  217.800;    0.000;    0.000
253.155;  193.800;    0.000;    0.000
253.223;  215.800;    0.000;    0.000
253.291;  212.800;    0.000;    0.000
253.359;  248.800;    0.000;    0.000
253.428;  258.800;    0.000;    0.000
253.496;  220.800;    0.000;    0.000
253.564;  207.800;    0.000;    0.000
253.632;  224.800;    0.000;    0.000
253.700;  236.800;    0.000;    0.000
253.769;  239.800;    0.000;    0.000
253.837;  240.800;    0.000;    0.000
253.905;  223.800;    0.000;    0.000
253.973;  230.800;    0.000;    0.000
254.041;  244.800;    0.000;    0.000
254.110;  223.800;    0.000;    0.000
254.178;  182.800;    0.000;    0.000
254.246;  233.800;    0.000;    0.000
254.314;  233.800;    0.000;    0.000
254.382;  238.800;    0.000;    0.000
254.450;  201.800;    0.000;    0.000
254.518;  205.800;    0.000;    0.000
254.587;  180.800;    0.000;    0.000
254.655;  218.800;    0.000;    0.000
254.723;  205.800;    0.000;    0.000
254.791;  278.800;    0.000;    0.000
254.859;  258.800;    0.000;    0.000
254.927;  266.800;    0.000;    0.000
254.995;  199.800;    0.000;    0.000
255.063;  208.800;    0.000;    0.000
255.131;  253.800;    0.000;    0.000
255.199;  239.800;    0.000;    0.000
255.267;  195.800;    0.000;    0.000
255.336;  251.800;    0.000;    0.000
255.404;  172.800;    0.000;    0.000
255.472;  222.800;    0.000;    0.000
255.540;  211.800;    0.000;    0.000
255.608;  199.800;    0.000;    0.000
255.676;  235.800;    0.000;    0.000
255.744;  198.800;    0.000;    0.000
255.812;  253.800;    0.000;    0.000
255.880;  255.800;    0.000;    0.000
255.948;  255.800;    0.000;    0.000
256.016;  219.800;    0.000;    0.000
256.084;  229.800;    0.000;    0.000
256.152;  232.800;    0.000;    0.000
256.220;  191.800;    0.000;    0.000
256.288;  225.800;    0.000;    0.000
256.356;  227.800;    0.000;    0.000
256.424;  224.800;    0.000;    0.000
256.491;  198.800;    0.000;    0.000
256.559;  245.800;    0.000;    0.000
256.627;  208.800;    0.000;    0.000
256.695;  211.800;    0.000;    0.000
256.763;  256.800;    0.000;    0.000
256.831;  217.800;    0.000;    0.000
256.899;  228.800;    0.000;    0.000
256.967;  194.800;    0.000;    0.000
257.035;  227.800;    0.000;    0.000
257.103;  264.800;    0.000;    0.000
257.171;  218.800;    0.000;    0.000
257.238;  210.800;    0.000;    0.000
257.306;  221.800;    0.000;    0.000
257.374;  247.800;    0.000;    0.000
257.442;  202.800;    0.000;    0.000
257.510;  205.800;    0.000;    0.000
257.578;  217.800;    0.000;    0.000
257.646;  236.800;    0.000;    0.000
257.713;  219.800;    0.000;    0.000
257.781;  211.800;    0.000;    0.000
257.849;  244.800;    0.000;    0.000
257.917;  208.800;    0.000;    0.000
257.985;  196.800;    0.000;    0.000
258.052;  229.800;    0.000;    0.000
258.120;  227.800;    0.000;    0.000
258.188;  234.800;    0.000;    0.000
258.256;  266.800;    0.000;    0.000
258.324;  258.800;    0.000;    0.000
258.391;  236.800;    0.000;    0.000
258.459;  237.800;    0.000;    0.000
258.527;  225.800;    0.000;    0.000
258.595;  239.800;    0.000;    0.000
258.662;  215.800;    0.000;    0.000
258.730;  246.800;    0.000;    0.000
258.798;  206.800;    0.000;    0.000
258.865;  230.800;    0.000;    0.000
258.933;  231.800;    0.000;    0.000
259.001;  211.800;    0.000;    0.000
259.069;  205.800;    0.000;    0.000
259.136;  253.800;    0.000;    0.000
259.204;  261.800;    0.000;    0.000
259.272;  253.800;    0.000;    0.000
259.339;  255.800;    0.000;    0.000
259.407;  244.800;    0.000;    0.000
259.475;  212.800;    0.000;    0.000
259.542;  242.800;    0.000;    0.000
259.610;  252.800;    0.000;    0.000
259.677;  253.800;    0.000;    0.000
259.745;  208.800;    0.000;    0.000
259.813;  262.800;    0.000;    0.000
259.880;  285.800;    0.000;    0.000
259.948;  244.800;    0.000;    0.000
260.016;  252.800;    0.000;    0.000
260.083;  244.800;    0.000;    0.000
260.151;  257.800;    0.000;    0.000
260.218;  256.800;    0.000;    0.000
260.286;  250.800;    0.000;    0.000
260.353;  306.800;    0.000;    0.000
260.421;  242.800;    0.000;    0.000
260.489;  282.800;    0.000;    0.000
260.556;  260.800;    0.000;    0.000
260.624;  281.800;    0.000;    0.000
260.691;  265.800;    0.000;    0.000
260.759;  295.800;    0.000;    0.000
260.826;  269.800;    0.000;    0.000
260.894;  242.800;    0.000;    0.000
260.961;  258.800;    0.000;    0.000
261.029;  298.800;    0.000;    0.000
261.096;  299.800;    0.000;    0.000
261.164;  282.800;    0.000;    0.000
261.231;  237.800;    0.000;    0.000
261.299;  253.800;    0.000;    0.000
261.366;  267.800;    0.000;    0.000
261.434;  275.800;    0.000;    0.000
261.501;  325.800;    0.000;    0.000
261.568;  282.800;    0.000;    0.000
261.636;  310.800;    0.000;    0.000
261.703;  323.800;    0.000;    0.000
261.771;  309.800;    0.000;    0.000
261.838;  316.800;    0.000;    0.000
261.906;  261.800;    0.000;    0.000
261.973;  283.800;    0.000;    0.000
262.040;  305.800;    0.000;    0.000
262.108;  308.800;    0.000;    0.000
262.175;  268.800;    0.000;    0.000
262.243;  332.800;    0.000;    0.000
262.310;  315.800;    0.000;    0.000
262.377;  292.800;    0.000;    0.000
262.445;  318.800;    0.000;    0.000
262.512;  304.800;    0.000;    0.000
262.579;  318.800;    0.000;    0.000
262.647;  283.800;    0.000;    0.000
262.714;  320.800;    0.000;    0.000
262.781;  317.800;    0.000;    0.000
262.849;  274.800;    0.000;    0.000
262.916;  309.800;    0.000;    0.000
262.983;  371.800;    0.000;    0.000
263.051;  298.800;    0.000;    0.000
263.118;  310.800;    0.000;    0.000
263.185;  309.800;    0.000;    0.000
263.252;  332.800;    0.000;    0.000
263.320;  341.800;    0.000;    0.000
263.387;  317.800;    0.000;    0.000
263.454;  345.800;    0.000;    0.000
263.522;  326.800;    0.000;    0.000
263.589;  358.800;    0.000;    0.000
263.656;  348.800;    0.000;    0.000
263.723;  342.800;    0.000;    0.000
263.790;  332.800;    0.000;    0.000
263.858;  355.800;    0.000;    0.000
263.925;  353.800;    0.000;    0.000
263.992;  368.800;    0.000;    0.000
264.059;  373.800;    0.000;    0.000
264.126;  354.800;    0.000;    0.000
264.194;  387.800;    0.000;    0.000
264.261;  388.800;    0.000;    0.000
264.328;  394.800;    0.000;    0.000
264.395;  378.800;    0.000;    0.000
264.462;  369.800;    0.000;    0.000
264.529;  387.800;    0.000;    0.000
264.597;  324.800;    0.000;    0.000
264.664;  361.800;    0.000;    0.000
264.731;  369.800;    0.000;    0.000
264.798;  372.800;    0.000;    0.000
264.865;  355.800;    0.000;    0.000
264.932;  422.800;    0.000;    0.000
264.999;  332.800;    0.000;    0.000
265.066;  392.800;    0.000;    0.000
265.133;  366.800;    0.000;    0.000
265.201;  379.800;    0.000;    0.000
265.268;  361.800;    0.000;    0.000
265.335;  360.800;    0.000;    0.000
265.402;  364.800;    0.000;    0.000
265.469;  387.800;    0.000;    0.000
265.536;  361.800;    0.000;    0.000
265.603;  416.800;    0.000;    0.000
265.670;  388.800;    0.000;    0.000
265.737;  362.800;    0.000;    0.000
265.804;  411.800;    0.000;    0.000
265.871;  426.800;    0.000;    0.000
265.938;  398.800;    0.000;    0.000
266.005;  390.800;    0.000;    0.000
266.072;  385.800;    0.000;    0.000
266.139;  407.800;    0.000;    0.000
266.206;  397.800;    0.000;    0.000
266.273;  423.800;    0.000;    0.000
266.340;  385.800;    0.000;    0.000
266.407;  432.800;    0.000;    0.000
266.474;  415.800;    0.000;    0.000
266.541;  388.800;    0.000;    0.000
266.608;  415.800;    0.000;    0.000
266.675;  416.800;    0.000;    0.000
266.742;  398.800;    0.000;    0.000
266.808;  401.800;    0.000;    0.000
266.875;  448.800;    0.000;    0.000
266.942;  405.800;    0.000;    0.000
267.009;  426.800;    0.000;    0.000
267.076;  395.800;    0.000;    0.000
267.143;  432.800;    0.000;    0.000
267.210;  408.800;    0.000;    0.000
267.277;  376.800;    0.000;    0.000
267.344;  461.800;    0.000;    0.000
267.410;  399.800;    0.000;    0.000
267.477;  470.800;    0.000;    0.000
267.544;  448.800;    0.000;    0.000
267.611;  454.800;    0.000;    0.000
267.678;  436.800;    0.000;    0.000
267.745;  457.800;    0.000;    0.000
267.811;  409.800;    0.000;    0.000
267.878;  390.800;    0.000;    0.000
267.945;  439.800;    0.000;    0.000
268.012;  470.800;    0.000;    0.000
268.079;  448.800;    0.000;    0.000
268.145;  412.800;    0.000;    0.000
268.212;  385.800;    0.000;    0.000
268.279;  417.800;    0.000;    0.000
268.346;  451.800;    0.000;    0.000
268.412;  408.800;    0.000;    0.000
268.479;  420.800;    0.000;    0.000
268.546;  468.800;    0.000;    0.000
268.613;  446.800;    0.000;    0.000
268.679;  413.800;    0.000;    0.000
268.746;  476.800;    0.000;    0.000
268.813;  418.800;    0.000;    0.000
268.879;  392.800;    0.000;    0.000
268.946;  445.800;    0.000;    0.000
269.013;  442.800;    0.000;    0.000
269.079;  426.800;    0.000;    0.000
269.146;  377.800;    0.000;    0.000
269.213;  418.800;    0.000;    0.000
269.280;  480.800;    0.000;    0.000
269.346;  449.800;    0.000;    0.000
269.413;  393.800;    0.000;    0.000
269.479;  432.800;    0.000;    0.000
269.546;  445.800;    0.000;    0.000
269.613;  416.800;    0.000;    0.000
269.679;  432.800;    0.000;    0.000
269.746;  390.800;    0.000;    0.000
269.813;  424.800;    0.000;    0.000
269.879;  478.800;    0.000;    0.000
269.946;  430.800;    0.000;    0.000
270.012;  412.800;    0.000;    0.000
270.079;  425.800;    0.000;    0.000
270.145;  506.800;    0.000;    0.000
270.212;  455.800;    0.000;    0.000
270.279;  455.800;    0.000;    0.000
270.345;  422.800;    0.000;    0.000
270.412;  382.800;    0.000;    0.000
270.478;  427.800;    0.000;    0.000
270.545;  441.800;    0.000;    0.000
270.611;  431.800;    0.000;    0.000
270.678;  387.800;    0.000;    0.000
270.744;  389.800;    0.000;    0.000
270.811;  403.800;    0.000;    0.000
270.877;  368.800;    0.000;    0.000
270.944;  391.800;    0.000;    0.000
271.010;  407.800;    0.000;    0.000
271.077;  438.800;    0.000;    0.000
271.143;  447.800;    0.000;    0.000
271.210;  440.800;    0.000;    0.000
271.276;  415.800;    0.000;    0.000
271.342;  465.800;    0.000;    0.000
271.409;  407.800;    0.000;    0.000
271.475;  403.800;    0.000;    0.000
271.542;  452.800;    0.000;    0.000
271.608;  415.800;    0.000;    0.000
271.675;  436.800;    0.000;    0.000
271.741;  445.800;    0.000;    0.000
271.807;  403.800;    0.000;    0.000
271.874;  430.800;    0.000;    0.000
271.940;  427.800;    0.000;    0.000
272.007;  432.800;    0.000;    0.000
272.073;  414.800;    0.000;    0.000
272.139;  439.800;    0.000;    0.000
272.206;  447.800;    0.000;    0.000
272.272;  439.800;    0.000;    0.000
272.338;  444.800;    0.000;    0.000
272.405;  417.800;    0.000;    0.000
272.471;  399.800;    0.000;    0.000
272.537;  413.800;    0.000;    0.000
272.604;  391.800;    0.000;    0.000
272.670;  440.800;    0.000;    0.000
272.736;  418.800;    0.000;    0.000
272.802;  445.800;    0.000;    0.000
272.869;  420.800;    0.000;    0.000
272.935;  415.800;    0.000;    0.000
273.001;  482.800;    0.000;    0.000
273.068;  395.800;    0.000;    0.000
273.134;  380.800;    0.000;    0.000
273.200;  434.800;    0.000;    0.000
273.266;  387.800;    0.000;    0.000
273.333;  453.800;    0.000;    0.000
273.399;  373.800;    0.000;    0.000
273.465;  456.800;    0.000;    0.000
273.531;  395.800;    0.000;    0.000
273.597;  387.800;    0.000;    0.000
273.664;  448.800;    0.000;    0.000
273.730;  422.800;    0.000;    0.000
273.796;  412.800;    0.000;    0.000
273.862;  429.800;    0.000;    0.000
273.928;  423.800;    0.000;    0.000
273.995;  450.800;    0.000;    0.000
274.061;  437.800;    0.000;    0.000
274.127;  416.800;    0.000;    0.000
274.193;  384.800;    0.000;    0.000
274.259;  437.800;    0.000;    0.000
274.325;  411.800;    0.000;    0.000
274.391;  398.800;    0.000;    0.000
274.457;  392.800;    0.000;    0.000
274.524;  448.800;    0.000;    0.000
274.590;  428.800;    0.000;    0.000
274.656;  415.800;    0.000;    0.000
274.722;  419.800;    0.000;    0.000
274.788;  414.800;    0.000;    0.000
274.854;  452.800;    0.000;    0.000
274.920;  416.800;    0.000;    0.000
274.986;  385.800;    0.000;    0.000
275.052;  393.800;    0.000;    0.000
275.118;  403.800;    0.000;    0.000
275.184;  414.800;    0.000;    0.000
275.250;  408.800;    0.000;    0.000
275.316;  390.800;    0.000;    0.000
275.382;  410.800;    0.000;    0.000
275.448;  401.800;    0.000;    0.000
275.514;  403.800;    0.000;    0.000
275.580;  404.800;    0.000;    0.000
275.646;  421.800;    0.000;    0.000
275.712;  439.800;    0.000;    0.000
275.778;  424.800;    0.000;    0.000
275.844;  385.800;    0.000;    0.000
275.910;  442.800;    0.000;    0.000
275.976;  436.800;    0.000;    0.000
276.042;  421.800;    0.000;    0.000
276.108;  452.800;    0.000;    0.000
276.174;  440.800;    0.000;    0.000
276.240;  385.800;    0.000;    0.000
276.306;  376.800;    0.000;    0.000
276.372;  396.800;    0.000;    0.000
276.437;  392.800;    0.000;    0.000
276.503;  434.800;    0.000;    0.000
276.569;  440.800;    0.000;    0.000
276.635;  400.800;    0.000;    0.000
276.701;  418.800;    0.000;    0.000
276.767;  426.800;    0.000;    0.000
276.833;  419.800;    0.000;    0.000
276.899;  446.800;    0.000;    0.000
276.964;  418.800;    0.000;    0.000
277.030;  449.800;    0.000;    0.000
277.096;  415.800;    0.000;    0.000
277.162;  459.800;    0.000;    0.000
277.228;  407.800;    0.000;    0.000
277.293;  431.800;    0.000;    0.000
277.359;  462.800;    0.000;    0.000
277.425;  459.800;    0.000;    0.000
277.491;  463.800;    0.000;    0.000
277.557;  413.800;    0.000;    0.000
277.622;  431.800;    0.000;    0.000
277.688;  439.800;    0.000;    0.000
277.754;  415.800;    0.000;    0.000
277.820;  463.800;    0.000;    0.000
277.885;  474.800;    0.000;    0.000
277.951;  465.800;    0.000;    0.000
278.017;  463.800;    0.000;    0.000
278.083;  435.800;    0.000;    0.000
278.148;  439.800;    0.000;    0.000
278.214;  453.800;    0.000;    0.000
278.280;  428.800;    0.000;    0.000
278.345;  507.800;    0.000;    0.000
278.411;  447.800;    0.000;    0.000
278.477;  457.800;    0.000;    0.000
278.542;  422.800;    0.000;    0.000
278.608;  442.800;    0.000;    0.000
278.674;  489.800;    0.000;    0.000
278.739;  415.800;    0.000;    0.000
278.805;  458.800;    0.000;    0.000
278.871;  443.800;    0.000;    0.000
278.936;  431.800;    0.000;    0.000
279.002;  476.800;    0.000;    0.000
279.067;  479.800;    0.000;    0.000
279.133;  499.800;    0.000;    0.000
279.199;  509.800;    0.000;    0.000
279.264;  451.800;    0.000;    0.000
279.330;  490.800;    0.000;    0.000
279.395;  521.800;    0.000;    0.000
279.461;  611.800;    0.000;    0.000
279.527;  978.800;    0.000;    0.000
279.592;  865.800;    0.000;    0.000
279.658;  597.800;    0.000;    0.000
279.723;  528.800;    0.000;    0.000
279.789;  519.800;    0.000;    0.000
279.854;  533.800;    0.000;    0.000
279.920;  498.800;    0.000;    0.000
279.985;  462.800;    0.000;    0.000
280.051;  546.800;    0.000;    0.000
280.116;  527.800;    0.000;    0.000
280.182;  634.800;    0.000;    0.000
280.247;  739.800;    0.000;    0.000
280.313;  653.800;    0.000;    0.000
280.378;  487.800;    0.000;    0.000
280.444;  509.800;    0.000;    0.000
280.509;  487.800;    0.000;    0.000
280.574;  547.800;    0.000;    0.000
280.640;  462.800;    0.000;    0.000
280.705;  471.800;    0.000;    0.000
280.771;  506.800;    0.000;    0.000
280.836;  495.800;    0.000;    0.000
280.902;  479.800;    0.000;    0.000
280.967;  527.800;    0.000;    0.000
281.032;  511.800;    0.000;    0.000
281.098;  497.800;    0.000;    0.000
281.163;  457.800;    0.000;    0.000
281.229;  545.800;    0.000;    0.000
281.294;  503.800;    0.000;    0.000
281.359;  493.800;    0.000;    0.000
281.425;  514.800;    0.000;    0.000
281.490;  500.800;    0.000;    0.000
281.555;  478.800;    0.000;    0.000
281.621;  487.800;    0.000;    0.000
281.686;  470.800;    0.000;    0.000
281.751;  497.800;    0.000;    0.000
281.816;  486.800;    0.000;    0.000
281.882;  529.800;    0.000;    0.000
281.947;  533.800;    0.000;    0.000
282.012;  499.800;    0.000;    0.000
282.078;  488.800;    0.000;    0.000
282.143;  491.800;    0.000;    0.000
282.208;  534.800;    0.000;    0.000
282.273;  514.800;    0.000;    0.000
282.339;  475.800;    0.000;    0.000
282.404;  538.800;    0.000;    0.000
282.469;  511.800;    0.000;    0.000
282.534;  489.800;    0.000;    0.000
282.600;  513.800;    0.000;    0.000
282.665;  485.800;    0.000;    0.000
282.730;  521.800;    0.000;    0.000
282.795;  567.800;    0.000;    0.000
282.860;  532.800;    0.000;    0.000
282.926;  568.800;    0.000;    0.000
282.991;  520.800;    0.000;    0.000
283.056;  542.800;    0.000;    0.000
283.121;  529.800;    0.000;    0.000
283.186;  508.800;    0.000;    0.000
283.251;  498.800;    0.000;    0.000
283.316;  532.800;    0.000;    0.000
283.382;  519.800;    0.000;    0.000
283.447;  550.800;    0.000;    0.000
283.512;  486.800;    0.000;    0.000
283.577;  561.800;    0.000;    0.000
283.642;  538.800;    0.000;    0.000
283.707;  581.800;    0.000;    0.000
283.772;  527.800;    0.000;    0.000
283.837;  539.800;    0.000;    0.000
283.902;  534.800;    0.000;    0.000
283.967;  521.800;    0.000;    0.000
284.032;  540.800;    0.000;    0.000
284.097;  549.800;    0.000;    0.000
284.163;  555.800;    0.000;    0.000
284.228;  553.800;    0.000;    0.000
284.293;  546.800;    0.000;    0.000
284.358;  562.800;    0.000;    0.000
284.423;  504.800;    0.000;    0.000
284.488;  561.800;    0.000;    0.000
284.553;  546.800;    0.000;    0.000
284.618;  543.800;    0.000;    0.000
284.683;  491.800;    0.000;    0.000
284.748;  594.800;    0.000;    0.000
284.812;  520.800;    0.000;    0.000
284.877;  523.800;    0.000;    0.000
284.942;  589.800;    0.000;    0.000
285.007;  581.800;    0.000;    0.000
285.072;  591.800;    0.000;    0.000
285.137;  544.800;    0.000;    0.000
285.202;  657.800;    0.000;    0.000
285.267;  630.800;    0.000;    0.000
285.332;  488.800;    0.000;    0.000
285.397;  545.800;    0.000;    0.000
285.462;  512.800;    0.000;    0.000
285.527;  608.800;    0.000;    0.000
285.591;  513.800;    0.000;    0.000
285.656;  506.800;    0.000;    0.000
285.721;  508.800;    0.000;    0.000
285.786;  594.800;    0.000;    0.000
285.851;  510.800;    0.000;    0.000
285.916;  604.800;    0.000;    0.000
285.981;  587.800;    0.000;    0.000
286.045;  544.800;    0.000;    0.000
286.110;  569.800;    0.000;    0.000
286.175;  567.800;    0.000;    0.000
286.240;  556.800;    0.000;    0.000
286.305;  575.800;    0.000;    0.000
286.369;  616.800;    0.000;    0.000
286.434;  562.800;    0.000;    0.000
286.499;  559.800;    0.000;    0.000
286.564;  574.800;    0.000;    0.000
286.628;  567.800;    0.000;    0.000
286.693;  590.800;    0.000;    0.000
286.758;  575.800;    0.000;    0.000
286.823;  611.800;    0.000;    0.000
286.887;  565.800;    0.000;    0.000
286.952;  631.800;    0.000;    0.000
287.017;  603.800;    0.000;    0.000
287.082;  621.800;    0.000;    0.000
287.146;  595.800;    0.000;    0.000
287.211;  588.800;    0.000;    0.000
287.276;  535.800;    0.000;    0.000
287.340;  551.800;    0.000;    0.000
287.405;  622.800;    0.000;    0.000
287.470;  585.800;    0.000;    0.000
287.534;  626.800;    0.000;    0.000
287.599;  603.800;    0.000;    0.000
287.663;  587.800;    0.000;    0.000
287.728;  577.800;    0.000;    0.000
287.793;  664.800;    0.000;    0.000
287.857;  637.800;    0.000;    0.000
287.922;  647.800;    0.000;    0.000
287.987;  633.800;    0.000;    0.000
288.051;  586.800;    0.000;    0.000
288.116;  654.800;    0.000;    0.000
288.180;  626.800;    0.000;    0.000
288.245;  563.800;    0.000;    0.000
288.309;  600.800;    0.000;    0.000
288.374;  671.800;    0.000;    0.000
288.439;  639.800;    0.000;    0.000
288.503;  583.800;    0.000;    0.000
288.568;  675.800;    0.000;    0.000
288.632;  668.800;    0.000;    0.000
288.697;  609.800;    0.000;    0.000
288.761;  579.800;    0.000;    0.000
288.826;  593.800;    0.000;    0.000
288.890;  701.800;    0.000;    0.000
288.955;  630.800;    0.000;    0.000
289.019;  602.800;    0.000;    0.000
289.084;  609.800;    0.000;    0.000
289.148;  624.800;    0.000;    0.000
289.212;  624.800;    0.000;    0.000
289.277;  565.800;    0.000;    0.000
289.341;  609.800;    0.000;    0.000
289.406;  606.800;    0.000;    0.000
289.470;  632.800;    0.000;    0.000
289.535;  670.800;    0.000;    0.000
289.599;  672.800;    0.000;    0.000
289.663;  626.800;    0.000;    0.000
289.728;  625.800;    0.000;    0.000
289.792;  666.800;    0.000;    0.000
289.857;  691.800;    0.000;    0.000
289.921;  684.800;    0.000;    0.000
289.985;  603.800;    0.000;    0.000
290.050;  628.800;    0.000;    0.000
290.114;  653.800;    0.000;    0.000
290.178;  619.800;    0.000;    0.000
290.243;  626.800;    0.000;    0.000
290.307;  687.800;    0.000;    0.000
290.371;  646.800;    0.000;    0.000
290.436;  680.800;    0.000;    0.000
290.500;  607.800;    0.000;    0.000
290.564;  621.800;    0.000;    0.000
290.629;  613.800;    0.000;    0.000
290.693;  591.800;    0.000;    0.000
290.757;  658.800;    0.000;    0.000
290.821;  633.800;    0.000;    0.000
290.886;  630.800;    0.000;    0.000
290.950;  632.800;    0.000;    0.000
291.014;  633.800;    0.000;    0.000
291.078;  573.800;    0.000;    0.000
291.143;  652.800;    0.000;    0.000
291.207;  593.800;    0.000;    0.000
291.271;  642.800;    0.000;    0.000
291.335;  622.800;    0.000;    0.000
291.399;  670.800;    0.000;    0.000
291.464;  624.800;    0.000;    0.000
291.528;  670.800;    0.000;    0.000
291.592;  639.800;    0.000;    0.000
291.656;  605.800;    0.000;    0.000
291.720;  637.800;    0.000;    0.000
291.784;  558.800;    0.000;    0.000
291.849;  641.800;    0.000;    0.000
291.913;  655.800;    0.000;    0.000
291.977;  616.800;    0.000;    0.000
292.041;  686.800;    0.000;    0.000
292.105;  679.800;    0.000;    0.000
292.169;  612.800;    0.000;    0.000
292.233;  639.800;    0.000;    0.000
292.297;  698.800;    0.000;    0.000
292.361;  661.800;    0.000;    0.000
292.425;  603.800;    0.000;    0.000
292.490;  672.800;    0.000;    0.000
292.554;  635.800;    0.000;    0.000
292.618;  631.800;    0.000;    0.000
292.682;  672.800;    0.000;    0.000
292.746;  613.800;    0.000;    0.000
292.810;  664.800;    0.000;    0.000
292.874;  633.800;    0.000;    0.000
292.938;  719.800;    0.000;    0.000
293.002;  682.800;    0.000;    0.000
293.066;  638.800;    0.000;    0.000
293.130;  628.800;    0.000;    0.000
293.194;  654.800;    0.000;    0.000
293.258;  639.800;    0.000;    0.000
293.322;  705.800;    0.000;    0.000
293.386;  717.800;    0.000;    0.000
293.450;  672.800;    0.000;    0.000
293.514;  703.800;    0.000;    0.000
293.577;  675.800;    0.000;    0.000
293.641;  718.800;    0.000;    0.000
293.705;  730.800;    0.000;    0.000
293.769;  726.800;    0.000;    0.000
293.833;  695.800;    0.000;    0.000
293.897;  709.800;    0.000;    0.000
293.961;  677.800;    0.000;    0.000
294.025;  647.800;    0.000;    0.000
294.089;  655.800;    0.000;    0.000
294.152;  713.800;    0.000;    0.000
294.216;  712.800;    0.000;    0.000
294.280;  650.800;    0.000;    0.000
294.344;  737.800;    0.000;    0.000
294.408;  701.800;    0.000;    0.000
294.472;  712.800;    0.000;    0.000
294.536;  700.800;    0.000;    0.000
294.599;  719.800;    0.000;    0.000
294.663;  666.800;    0.000;    0.000
294.727;  682.800;    0.000;    0.000
294.791;  744.800;    0.000;    0.000
294.855;  684.800;    0.000;    0.000
294.918;  745.800;    0.000;    0.000
294.982;  669.800;    0.000;    0.000
295.046;  753.800;    0.000;    0.000
295.110;  658.800;    0.000;    0.000
295.173;  698.800;    0.000;    0.000
295.237;  722.800;    0.000;    0.000
295.301;  660.800;    0.000;    0.000
295.364;  756.800;    0.000;    0.000
295.428;  647.800;    0.000;    0.000
295.492;  765.800;    0.000;    0.000
295.556;  731.800;    0.000;    0.000
295.619;  684.800;    0.000;    0.000
295.683;  706.800;    0.000;    0.000
295.747;  715.800;    0.000;    0.000
295.810;  698.800;    0.000;    0.000
295.874;  773.800;    0.000;    0.000
295.938;  714.800;    0.000;    0.000
296.001;  745.800;    0.000;    0.000
296.065;  721.800;    0.000;    0.000
296.128;  721.800;    0.000;    0.000
296.192;  752.800;    0.000;    0.000
296.256;  713.800;    0.000;    0.000
296.319;  704.800;    0.000;    0.000
296.383;  754.800;    0.000;    0.000
296.447;  750.800;    0.000;    0.000
296.510;  656.800;    0.000;    0.000
296.574;  728.800;    0.000;    0.000
296.637;  664.800;    0.000;    0.000
296.701;  741.800;    0.000;    0.000
296.764;  721.800;    0.000;    0.000
296.828;  758.800;    0.000;    0.000
296.891;  754.800;    0.000;    0.000
296.955;  704.800;    0.000;    0.000
297.018;  808.800;    0.000;    0.000
297.082;  804.800;    0.000;    0.000
297.145;  731.800;    0.000;    0.000
297.209;  745.800;    0.000;    0.000
297.272;  780.800;    0.000;    0.000
297.336;  746.800;    0.000;    0.000
297.399;  780.800;    0.000;    0.000
297.463;  771.800;    0.000;    0.000
297.526;  716.800;    0.000;    0.000
297.590;  802.800;    0.000;    0.000
297.653;  771.800;    0.000;    0.000
297.717;  702.800;    0.000;    0.000
297.780;  737.800;    0.000;    0.000
297.843;  776.800;    0.000;    0.000
297.907;  755.800;    0.000;    0.000
297.970;  697.800;    0.000;    0.000
298.034;  769.800;    0.000;    0.000
298.097;  798.800;    0.000;    0.000
298.160;  774.800;    0.000;    0.000
298.224;  701.800;    0.000;    0.000
298.287;  752.800;    0.000;    0.000
298.350;  746.800;    0.000;    0.000
298.414;  801.800;    0.000;    0.000
298.477;  709.800;    0.000;    0.000
298.540;  796.800;    0.000;    0.000
298.604;  814.800;    0.000;    0.000
298.667;  775.800;    0.000;    0.000
298.730;  742.800;    0.000;    0.000
298.794;  702.800;    0.000;    0.000
298.857;  768.800;    0.000;    0.000
298.920;  761.800;    0.000;    0.000
298.984;  773.800;    0.000;    0.000
299.047;  795.800;    0.000;    0.000
299.110;  745.800;    0.000;    0.000
299.173;  812.800;    0.000;    0.000
299.237;  744.800;    0.000;    0.000
299.300;  758.800;    0.000;    0.000
299.363;  819.800;    0.000;    0.000
299.426;  818.800;    0.000;    0.000
299.489;  878.800;    0.000;    0.000
299.553;  924.800;    0.000;    0.000
299.616;  847.800;    0.000;    0.000
299.679;  889.800;    0.000;    0.000
299.742;  911.800;    0.000;    0.000
299.805;  847.800;    0.000;    0.000
299.868;  814.800;    0.000;    0.000
299.932;  877.800;    0.000;    0.000
299.995;  900.800;    0.000;    0.000
300.058;  877.800;    0.000;    0.000
300.121;  937.800;    0.000;    0.000
300.184;  739.800;    0.000;    0.000
300.247;  760.800;    0.000;    0.000
300.310;  756.800;    0.000;    0.000
300.374;  732.800;    0.000;    0.000
300.437;  768.800;    0.000;    0.000
300.500;  859.800;    0.000;    0.000
300.563;  874.800;    0.000;    0.000
300.626; 1072.800;    0.000;    0.000
300.689; 1124.800;    0.000;    0.000
300.752;  932.800;    0.000;    0.000
300.815;  853.800;    0.000;    0.000
300.878;  939.800;    0.000;    0.000
300.941;  964.800;    0.000;    0.000
301.004;  814.800;    0.000;    0.000
301.067;  848.800;    0.000;    0.000
301.130;  748.800;    0.000;    0.000
301.193;  759.800;    0.000;    0.000
301.256;  764.800;    0.000;    0.000
301.319;  801.800;    0.000;    0.000
301.382;  736.800;    0.000;    0.000
301.445;  796.800;    0.000;    0.000
301.508;  743.800;    0.000;    0.000
301.571;  708.800;    0.000;    0.000
301.634;  734.800;    0.000;    0.000
301.697;  790.800;    0.000;    0.000
301.760;  784.800;    0.000;    0.000
301.823;  807.800;    0.000;    0.000
301.885;  800.800;    0.000;    0.000
301.948;  757.800;    0.000;    0.000
302.011;  775.800;    0.000;    0.000
302.074;  792.800;    0.000;    0.000
302.137;  741.800;    0.000;    0.000
302.200;  778.800;    0.000;    0.000
302.263;  776.800;    0.000;    0.000
302.326;  755.800;    0.000;    0.000
302.388;  764.800;    0.000;    0.000
302.451;  768.800;    0.000;    0.000
302.514;  735.800;    0.000;    0.000
302.577;  770.800;    0.000;    0.000
302.640;  819.800;    0.000;    0.000
302.703;  762.800;    0.000;    0.000
302.765;  792.800;    0.000;    0.000
302.828;  807.800;    0.000;    0.000
302.891;  793.800;    0.000;    0.000
302.954;  711.800;    0.000;    0.000
303.016;  793.800;    0.000;    0.000
303.079;  790.800;    0.000;    0.000
303.142;  783.800;    0.000;    0.000
303.205;  782.800;    0.000;    0.000
303.267;  757.800;    0.000;    0.000
303.330;  814.800;    0.000;    0.000
303.393;  755.800;    0.000;    0.000
303.456;  807.800;    0.000;    0.000
303.518;  755.800;    0.000;    0.000
303.581;  810.800;    0.000;    0.000
303.644;  771.800;    0.000;    0.000
303.706;  713.800;    0.000;    0.000
303.769;  761.800;    0.000;    0.000
303.832;  791.800;    0.000;    0.000
303.894;  791.800;    0.000;    0.000
303.957;  765.800;    0.000;    0.000
304.020;  836.800;    0.000;    0.000
304.082;  790.800;    0.000;    0.000
304.145;  801.800;    0.000;    0.000
304.207;  803.800;    0.000;    0.000
304.270;  772.800;    0.000;    0.000
304.333;  844.800;    0.000;    0.000
304.395;  841.800;    0.000;    0.000
304.458;  832.800;    0.000;    0.000
304.520;  803.800;    0.000;    0.000
304.583;  868.800;    0.000;    0.000
304.646;  848.800;    0.000;    0.000
304.708;  770.800;    0.000;    0.000
304.771;  774.800;    0.000;    0.000
304.833;  917.800;    0.000;    0.000
304.896;  858.800;    0.000;    0.000
304.958;  850.800;    0.000;    0.000
305.021;  859.800;    0.000;    0.000
305.083;  793.800;    0.000;    0.000
305.146;  868.800;    0.000;    0.000
305.208;  827.800;    0.000;    0.000
305.271;  821.800;    0.000;    0.000
305.333;  851.800;    0.000;    0.000
305.396;  856.800;    0.000;    0.000
305.458;  858.800;    0.000;    0.000
305.520;  891.800;    0.000;    0.000
305.583;  792.800;    0.000;    0.000
305.645;  901.800;    0.000;    0.000
305.708;  870.800;    0.000;    0.000
305.770;  877.800;    0.000;    0.000
305.833;  891.800;    0.000;    0.000
305.895;  820.800;    0.000;    0.000
305.957;  802.800;    0.000;    0.000
306.020;  839.800;    0.000;    0.000
306.082;  830.800;    0.000;    0.000
306.144;  893.800;    0.000;    0.000
306.207;  854.800;    0.000;    0.000
306.269;  851.800;    0.000;    0.000
306.331;  823.800;    0.000;    0.000
306.394;  869.800;    0.000;    0.000
306.456;  844.800;    0.000;    0.000
306.518;  825.800;    0.000;    0.000
306.581;  899.800;    0.000;    0.000
306.643;  855.800;    0.000;    0.000
306.705;  844.800;    0.000;    0.000
306.768;  876.800;    0.000;    0.000
306.830;  884.800;    0.000;    0.000
306.892;  887.800;    0.000;    0.000
306.954;  891.800;    0.000;    0.000
307.017;  940.800;    0.000;    0.000
307.079;  874.800;    0.000;    0.000
307.141;  914.800;    0.000;    0.000
307.203;  893.800;    0.000;    0.000
307.266;  873.800;    0.000;    0.000
307.328;  940.800;    0.000;    0.000
307.390;  887.800;    0.000;    0.000
307.452;  893.800;    0.000;    0.000
307.514;  972.800;    0.000;    0.000
307.577;  890.800;    0.000;    0.000
307.639;  970.800;    0.000;    0.000
307.701;  925.800;    0.000;    0.000
307.763;  928.800;    0.000;    0.000
307.825;  912.800;    0.000;    0.000
307.887;  949.800;    0.000;    0.000
307.949;  933.800;    0.000;    0.000
308.012;  928.800;    0.000;    0.000
308.074;  962.800;    0.000;    0.000
308.136;  972.800;    0.000;    0.000
308.198;  948.800;    0.000;    0.000
308.260;  968.800;    0.000;    0.000
308.322;  960.800;    0.000;    0.000
308.384;  975.800;    0.000;    0.000
308.446;  898.800;    0.000;    0.000
308.508;  990.800;    0.000;    0.000
308.570; 1014.800;    0.000;    0.000
308.632; 1000.800;    0.000;    0.000
308.694;  937.800;    0.000;    0.000
308.756;  981.800;    0.000;    0.000
308.818;  995.800;    0.000;    0.000
308.880;  971.800;    0.000;    0.000
308.942;  906.800;    0.000;    0.000
309.004; 1000.800;    0.000;    0.000
309.066;  942.800;    0.000;    0.000
309.128; 1005.800;    0.000;    0.000
309.190;  981.800;    0.000;    0.000
309.252;  991.800;    0.000;    0.000
309.314; 1018.800;    0.000;    0.000
309.376; 1039.800;    0.000;    0.000
309.438; 1036.800;    0.000;    0.000
309.500; 1046.800;    0.000;    0.000
309.562; 1015.800;    0.000;    0.000
309.624; 1009.800;    0.000;    0.000
309.686; 1075.800;    0.000;    0.000
309.747; 1060.800;    0.000;    0.000
309.809;  997.800;    0.000;    0.000
309.871; 1049.800;    0.000;    0.000
309.933; 1006.800;    0.000;    0.000
309.995;  973.800;    0.000;    0.000
310.057; 1044.800;    0.000;    0.000
310.119; 1036.800;    0.000;    0.000
310.180; 1008.800;    0.000;    0.000
310.242; 1033.800;    0.000;    0.000
310.304; 1064.800;    0.000;    0.000
310.366; 1036.800;    0.000;    0.000
310.428; 1022.800;    0.000;    0.000
310.489; 1052.800;    0.000;    0.000
310.551; 1058.800;    0.000;    0.000
310.613; 1026.800;    0.000;    0.000
310.675; 1076.800;    0.000;    0.000
310.737; 1061.800;    0.000;    0.000
310.798; 1088.800;    0.000;    0.000
310.860; 1059.800;    0.000;    0.000
310.922; 1047.800;    0.000;    0.000
310.983; 1106.800;    0.000;    0.000
311.045; 1106.800;    0.000;    0.000
311.107; 1048.800;    0.000;    0.000
311.169; 1039.800;    0.000;    0.000
311.230; 1105.800;    0.000;    0.000
311.292; 1097.800;    0.000;    0.000
311.354; 1027.800;    0.000;    0.000
311.415; 1094.800;    0.000;    0.000
311.477; 1085.800;    0.000;    0.000
311.539; 1122.800;    0.000;    0.000
311.600; 1134.800;    0.000;    0.000
311.662; 1179.800;    0.000;    0.000
311.724; 1167.800;    0.000;    0.000
311.785; 1148.800;    0.000;    0.000
311.847; 1095.800;    0.000;    0.000
311.908; 1117.800;    0.000;    0.000
311.970; 1135.800;    0.000;    0.000
312.032; 1167.800;    0.000;    0.000
312.093; 1144.800;    0.000;    0.000
312.155; 1149.800;    0.000;    0.000
312.216; 1148.800;    0.000;    0.000
312.278; 1213.800;    0.000;    0.000
312.339; 1141.800;    0.000;    0.000
312.401; 1254.800;    0.000;    0.000
312.462; 1212.800;    0.000;    0.000
312.524; 1230.800;    0.000;    0.000
312.585; 1216.800;    0.000;    0.000
312.647; 1118.800;    0.000;    0.000
312.708; 1195.800;    0.000;    0.000
312.770; 1248.800;    0.000;    0.000
312.831; 1215.800;    0.000;    0.000
312.893; 1278.800;    0.000;    0.000
312.954; 1251.800;    0.000;    0.000
313.016; 1301.800;    0.000;    0.000
313.077; 1286.800;    0.000;    0.000
313.139; 1253.800;    0.000;    0.000
313.200; 1311.800;    0.000;    0.000
313.261; 1353.800;    0.000;    0.000
313.323; 1388.800;    0.000;    0.000
313.384; 1335.800;    0.000;    0.000
313.446; 1406.800;    0.000;    0.000
313.507; 1385.800;    0.000;    0.000
313.568; 1368.800;    0.000;    0.000
313.630; 1346.800;    0.000;    0.000
313.691; 1339.800;    0.000;    0.000
313.752; 1421.800;    0.000;    0.000
313.814; 1474.800;    0.000;    0.000
313.875; 1456.800;    0.000;    0.000
313.936; 1473.800;    0.000;    0.000
313.998; 1441.800;    0.000;    0.000
314.059; 1506.800;    0.000;    0.000
314.120; 1575.800;    0.000;    0.000
314.182; 1586.800;    0.000;    0.000
314.243; 1654.800;    0.000;    0.000
314.304; 1652.800;    0.000;    0.000
314.365; 1677.800;    0.000;    0.000
314.427; 1635.800;    0.000;    0.000
314.488; 1709.800;    0.000;    0.000
314.549; 1705.800;    0.000;    0.000
314.610; 1752.800;    0.000;    0.000
314.672; 1810.800;    0.000;    0.000
314.733; 1815.800;    0.000;    0.000
314.794; 1944.800;    0.000;    0.000
314.855; 1970.800;    0.000;    0.000
314.917; 1980.800;    0.000;    0.000
314.978; 2111.800;    0.000;    0.000
315.039; 2205.800;    0.000;    0.000
315.100; 2262.800;    0.000;    0.000
315.161; 2379.800;    0.000;    0.000
315.222; 2560.800;    0.000;    0.000
315.283; 2647.800;    0.000;    0.000
315.345; 2872.800;    0.000;    0.000
315.406; 3069.800;    0.000;    0.000
315.467; 3345.800;    0.000;    0.000
315.528; 3784.800;    0.000;    0.000
315.589; 4287.800;    0.000;    0.000
315.650; 4912.800;    0.000;    0.000
315.711; 5880.800;    0.000;    0.000
315.772; 8070.800;    0.000;    0.000
315.833;12378.800;    0.000;    0.000
315.894;16591.801;    0.000;    0.000
315.955;16400.801;    0.000;    0.000
316.016;13944.800;    0.000;    0.000
316.078;11597.800;    0.000;    0.000
316.139; 9959.800;    0.000;    0.000
316.200; 8771.800;    0.000;    0.000
316.261; 7668.800;    0.000;    0.000
316.322; 6896.800;    0.000;    0.000
316.383; 6512.800;    0.000;    0.000
316.444; 5881.800;    0.000;    0.000
316.504; 5331.800;    0.000;    0.000
316.565; 5278.800;    0.000;    0.000
316.626; 4954.800;    0.000;    0.000
316.687; 4864.800;    0.000;    0.000
316.748; 4626.800;    0.000;    0.000
316.809; 4313.800;    0.000;    0.000
316.870; 4347.800;    0.000;    0.000
316.931; 4441.800;    0.000;    0.000
316.992; 4406.800;    0.000;    0.000
317.053; 4355.800;    0.000;    0.000
317.114; 4382.800;    0.000;    0.000
317.175; 4365.800;    0.000;    0.000
317.235; 4548.800;    0.000;    0.000
317.296; 4701.800;    0.000;    0.000
317.357; 4873.800;    0.000;    0.000
317.418; 5101.800;    0.000;    0.000
317.479; 5420.800;    0.000;    0.000
317.540; 5928.800;    0.000;    0.000
317.601; 6598.800;    0.000;    0.000
317.661; 7516.800;    0.000;    0.000
317.722; 8892.800;    0.000;    0.000
317.783;10810.800;    0.000;    0.000
317.844;15172.800;    0.000;    0.000
317.904;21341.801;    0.000;    0.000
317.965;24460.801;    0.000;    0.000
318.026;22880.801;    0.000;    0.000
318.087;20771.801;    0.000;    0.000
318.148;19056.801;    0.000;    0.000
318.208;16300.800;    0.000;    0.000
318.269;14392.800;    0.000;    0.000
318.330;12572.800;    0.000;    0.000
318.390;11219.800;    0.000;    0.000
318.451; 9944.800;    0.000;    0.000
318.512; 9112.800;    0.000;    0.000
318.572; 8276.800;    0.000;    0.000
318.633; 7724.800;    0.000;    0.000
318.694; 6999.800;    0.000;    0.000
318.754; 6662.800;    0.000;    0.000
318.815; 6210.800;    0.000;    0.000
318.876; 5730.800;    0.000;    0.000
318.936; 5568.800;    0.000;    0.000
318.997; 5199.800;    0.000;    0.000
319.058; 5015.800;    0.000;    0.000
319.118; 4695.800;    0.000;    0.000
319.179; 4495.800;    0.000;    0.000
319.239; 4282.800;    0.000;    0.000
319.300; 4153.800;    0.000;    0.000
319.361; 3959.800;    0.000;    0.000
319.421; 3697.800;    0.000;    0.000
319.482; 3643.800;    0.000;    0.000
319.542; 3547.800;    0.000;    0.000
319.603; 3408.800;    0.000;    0.000
319.663; 3323.800;    0.000;    0.000
319.724; 3168.800;    0.000;    0.000
319.784; 3143.800;    0.000;    0.000
319.845; 3051.800;    0.000;    0.000
319.905; 3008.800;    0.000;    0.000
319.966; 2895.800;    0.000;    0.000
320.026; 2836.800;    0.000;    0.000
320.087; 2693.800;    0.000;    0.000
320.147; 2725.800;    0.000;    0.000
320.208; 2678.800;    0.000;    0.000
320.268; 2569.800;    0.000;    0.000
320.329; 2582.800;    0.000;    0.000
320.389; 2490.800;    0.000;    0.000
320.449; 2488.800;    0.000;    0.000
320.510; 2395.800;    0.000;    0.000
320.570; 2374.800;    0.000;    0.000
320.631; 2369.800;    0.000;    0.000
320.691; 2267.800;    0.000;    0.000
320.751; 2276.800;    0.000;    0.000
320.812; 2261.800;    0.000;    0.000
320.872; 2223.800;    0.000;    0.000
320.932; 2134.800;    0.000;    0.000
320.993; 2167.800;    0.000;    0.000
321.053; 2124.800;    0.000;    0.000
321.113; 2028.800;    0.000;    0.000
321.174; 2031.800;    0.000;    0.000
321.234; 2087.800;    0.000;    0.000
321.294; 2007.800;    0.000;    0.000
321.355; 1944.800;    0.000;    0.000
321.415; 1958.800;    0.000;    0.000
321.475; 1929.800;    0.000;    0.000
321.535; 1929.800;    0.000;    0.000
321.596; 1959.800;    0.000;    0.000
321.656; 1972.800;    0.000;    0.000
321.716; 1903.800;    0.000;    0.000
321.776; 1926.800;    0.000;    0.000
321.837; 1834.800;    0.000;    0.000
321.897; 1787.800;    0.000;    0.000
321.957; 1858.800;    0.000;    0.000
322.017; 1819.800;    0.000;    0.000
322.077; 1841.800;    0.000;    0.000
322.138; 1803.800;    0.000;    0.000
322.198; 1747.800;    0.000;    0.000
322.258; 1813.800;    0.000;    0.000
322.318; 1733.800;    0.000;    0.000
322.378; 1824.800;    0.000;    0.000
322.438; 1793.800;    0.000;    0.000
322.499; 1763.800;    0.000;    0.000
322.559; 1652.800;    0.000;    0.000
322.619; 1736.800;    0.000;    0.000
322.679; 1664.800;    0.000;    0.000
322.739; 1670.800;    0.000;    0.000
322.799; 1677.800;    0.000;    0.000
322.859; 1622.800;    0.000;    0.000
322.919; 1634.800;    0.000;    0.000
322.979; 1638.800;    0.000;    0.000
323.039; 1561.800;    0.000;    0.000
323.099; 1558.800;    0.000;    0.000
323.159; 1629.800;    0.000;    0.000
323.219; 1571.800;    0.000;    0.000
323.279; 1611.800;    0.000;    0.000
323.339; 1594.800;    0.000;    0.000
323.399; 1685.800;    0.000;    0.000
323.459; 1614.800;    0.000;    0.000
323.519; 1675.800;    0.000;    0.000
323.579; 1631.800;    0.000;    0.000
323.639; 1573.800;    0.000;    0.000
323.699; 1612.800;    0.000;    0.000
323.759; 1607.800;    0.000;    0.000
323.819; 1585.800;    0.000;    0.000
323.879; 1527.800;    0.000;    0.000
323.939; 1598.800;    0.000;    0.000
323.999; 1588.800;    0.000;    0.000
324.059; 1553.800;    0.000;    0.000
324.119; 1550.800;    0.000;    0.000
324.178; 1525.800;    0.000;    0.000
324.238; 1539.800;    0.000;    0.000
324.298; 1484.800;    0.000;    0.000
324.358; 1532.800;    0.000;    0.000
324.418; 1463.800;    0.000;    0.000
324.478; 1548.800;    0.000;    0.000
324.538; 1501.800;    0.000;    0.000
324.597; 1538.800;    0.000;    0.000
324.657; 1452.800;    0.000;    0.000
324.717; 1525.800;    0.000;    0.000
324.777; 1494.800;    0.000;    0.000
324.837; 1442.800;    0.000;    0.000
324.896; 1505.800;    0.000;    0.000
324.956; 1484.800;    0.000;    0.000
325.016; 1512.800;    0.000;    0.000
325.076; 1471.800;    0.000;    0.000
325.135; 1447.800;    0.000;    0.000
325.195; 1468.800;    0.000;    0.000
325.255; 1450.800;    0.000;    0.000
325.315; 1466.800;    0.000;    0.000
325.374; 1437.800;    0.000;    0.000
325.434; 1415.800;    0.000;    0.000
325.494; 1462.800;    0.000;    0.000
325.553; 1481.800;    0.000;    0.000
325.613; 1449.800;    0.000;    0.000
325.673; 1434.800;    0.000;    0.000
325.732; 1403.800;    0.000;    0.000
325.792; 1387.800;    0.000;    0.000
325.852; 1398.800;    0.000;    0.000
325.911; 1414.800;    0.000;    0.000
325.971; 1447.800;    0.000;    0.000
326.031; 1419.800;    0.000;    0.000
326.090; 1391.800;    0.000;    0.000
326.150; 1437.800;    0.000;    0.000
326.209; 1367.800;    0.000;    0.000
326.269; 1373.800;    0.000;    0.000
326.328; 1373.800;    0.000;    0.000
326.388; 1401.800;    0.000;    0.000
326.448; 1484.800;    0.000;    0.000
326.507; 1375.800;    0.000;    0.000
326.567; 1422.800;    0.000;    0.000
326.626; 1390.800;    0.000;    0.000
326.686; 1342.800;    0.000;    0.000
326.745; 1290.800;    0.000;    0.000
326.805; 1315.800;    0.000;    0.000
326.864; 1335.800;    0.000;    0.000
326.924; 1397.800;    0.000;    0.000
326.983; 1291.800;    0.000;    0.000
327.043; 1337.800;    0.000;    0.000
327.102; 1357.800;    0.000;    0.000
327.161; 1367.800;    0.000;    0.000
327.221; 1434.800;    0.000;    0.000
327.280; 1411.800;    0.000;    0.000
327.340; 1418.800;    0.000;    0.000
327.399; 1398.800;    0.000;    0.000
327.459; 1357.800;    0.000;    0.000
327.518; 1347.800;    0.000;    0.000
327.577; 1285.800;    0.000;    0.000
327.637; 1327.800;    0.000;    0.000
327.696; 1353.800;    0.000;    0.000
327.755; 1334.800;    0.000;    0.000
327.815; 1401.800;    0.000;    0.000
327.874; 1348.800;    0.000;    0.000
327.933; 1349.800;    0.000;    0.000
327.993; 1350.800;    0.000;    0.000
328.052; 1379.800;    0.000;    0.000
328.111; 1338.800;    0.000;    0.000
328.171; 1346.800;    0.000;    0.000
328.230; 1332.800;    0.000;    0.000
328.289; 1291.800;    0.000;    0.000
328.349; 1389.800;    0.000;    0.000
328.408; 1343.800;    0.000;    0.000
328.467; 1323.800;    0.000;    0.000
328.526; 1352.800;    0.000;    0.000
328.586; 1365.800;    0.000;    0.000
328.645; 1354.800;    0.000;    0.000
328.704; 1343.800;    0.000;    0.000
328.763; 1297.800;    0.000;    0.000
328.822; 1402.800;    0.000;    0.000
328.882; 1368.800;    0.000;    0.000
328.941; 1317.800;    0.000;    0.000
329.000; 1333.800;    0.000;    0.000
329.059; 1348.800;    0.000;    0.000
329.118; 1349.800;    0.000;    0.000
329.177; 1326.800;    0.000;    0.000
329.237; 1408.800;    0.000;    0.000
329.296; 1392.800;    0.000;    0.000
329.355; 1364.800;    0.000;    0.000
329.414; 1364.800;    0.000;    0.000
329.473; 1355.800;    0.000;    0.000
329.532; 1348.800;    0.000;    0.000
329.591; 1358.800;    0.000;    0.000
329.650; 1368.800;    0.000;    0.000
329.709; 1388.800;    0.000;    0.000
329.768; 1359.800;    0.000;    0.000
329.827; 1382.800;    0.000;    0.000
329.886; 1389.800;    0.000;    0.000
329.945; 1454.800;    0.000;    0.000
330.004; 1416.800;    0.000;    0.000
330.063; 1415.800;    0.000;    0.000
330.122; 1495.800;    0.000;    0.000
330.181; 1412.800;    0.000;    0.000
330.240; 1371.800;    0.000;    0.000
330.299; 1312.800;    0.000;    0.000
330.358; 1395.800;    0.000;    0.000
330.417; 1355.800;    0.000;    0.000
330.476; 1356.800;    0.000;    0.000
330.535; 1415.800;    0.000;    0.000
330.594; 1354.800;    0.000;    0.000
330.653; 1317.800;    0.000;    0.000
330.712; 1371.800;    0.000;    0.000
330.771; 1424.800;    0.000;    0.000
330.830; 1287.800;    0.000;    0.000
330.889; 1321.800;    0.000;    0.000
330.948; 1348.800;    0.000;    0.000
331.006; 1351.800;    0.000;    0.000
331.065; 1366.800;    0.000;    0.000
331.124; 1369.800;    0.000;    0.000
331.183; 1238.800;    0.000;    0.000
331.242; 1310.800;    0.000;    0.000
331.301; 1397.800;    0.000;    0.000
331.359; 1261.800;    0.000;    0.000
331.418; 1274.800;    0.000;    0.000
331.477; 1283.800;    0.000;    0.000
331.536; 1263.800;    0.000;    0.000
331.595; 1276.800;    0.000;    0.000
331.653; 1340.800;    0.000;    0.000
331.712; 1215.800;    0.000;    0.000
331.771; 1323.800;    0.000;    0.000
331.830; 1331.800;    0.000;    0.000
331.888; 1326.800;    0.000;    0.000
331.947; 1242.800;    0.000;    0.000
332.006; 1287.800;    0.000;    0.000
332.065; 1341.800;    0.000;    0.000
332.123; 1217.800;    0.000;    0.000
332.182; 1317.800;    0.000;    0.000
332.241; 1267.800;    0.000;    0.000
332.299; 1251.800;    0.000;    0.000
332.358; 1372.800;    0.000;    0.000
332.417; 1378.800;    0.000;    0.000
332.475; 1314.800;    0.000;    0.000
332.534; 1311.800;    0.000;    0.000
332.592; 1271.800;    0.000;    0.000
332.651; 1320.800;    0.000;    0.000
332.710; 1303.800;    0.000;    0.000
332.768; 1289.800;    0.000;    0.000
332.827; 1309.800;    0.000;    0.000
332.885; 1289.800;    0.000;    0.000
332.944; 1328.800;    0.000;    0.000
333.003; 1279.800;    0.000;    0.000
333.061; 1304.800;    0.000;    0.000
333.120; 1296.800;    0.000;    0.000
333.178; 1386.800;    0.000;    0.000
333.237; 1346.800;    0.000;    0.000
333.295; 1391.800;    0.000;    0.000
333.354; 1372.800;    0.000;    0.000
333.412; 1352.800;    0.000;    0.000
333.471; 1365.800;    0.000;    0.000
333.529; 1485.800;    0.000;    0.000
333.588; 1425.800;    0.000;    0.000
333.646; 1378.800;    0.000;    0.000
333.705; 1426.800;    0.000;    0.000
333.763; 1410.800;    0.000;    0.000
333.822; 1388.800;    0.000;    0.000
333.880; 1386.800;    0.000;    0.000
333.938; 1405.800;    0.000;    0.000
333.997; 1383.800;    0.000;    0.000
334.055; 1465.800;    0.000;    0.000
334.114; 1446.800;    0.000;    0.000
334.172; 1373.800;    0.000;    0.000
334.230; 1474.800;    0.000;    0.000
334.289; 1453.800;    0.000;    0.000
334.347; 1398.800;    0.000;    0.000
334.405; 1435.800;    0.000;    0.000
334.464; 1382.800;    0.000;    0.000
334.522; 1377.800;    0.000;    0.000
334.580; 1396.800;    0.000;    0.000
334.639; 1429.800;    0.000;    0.000
334.697; 1437.800;    0.000;    0.000
334.755; 1413.800;    0.000;    0.000
334.814; 1406.800;    0.000;    0.000
334.872; 1430.800;    0.000;    0.000
334.930; 1404.800;    0.000;    0.000
334.988; 1472.800;    0.000;    0.000
335.047; 1368.800;    0.000;    0.000
335.105; 1409.800;    0.000;    0.000
335.163; 1415.800;    0.000;    0.000
335.221; 1472.800;    0.000;    0.000
335.280; 1436.800;    0.000;    0.000
335.338; 1404.800;    0.000;    0.000
335.396; 1404.800;    0.000;    0.000
335.454; 1345.800;    0.000;    0.000
335.512; 1428.800;    0.000;    0.000
335.570; 1416.800;    0.000;    0.000
335.629; 1404.800;    0.000;    0.000
335.687; 1406.800;    0.000;    0.000
335.745; 1432.800;    0.000;    0.000
335.803; 1560.800;    0.000;    0.000
335.861; 1564.800;    0.000;    0.000
335.919; 1524.800;    0.000;    0.000
335.977; 1511.800;    0.000;    0.000
336.035; 1426.800;    0.000;    0.000
336.094; 1600.800;    0.000;    0.000
336.152; 1532.800;    0.000;    0.000
336.210; 1558.800;    0.000;    0.000
336.268; 1529.800;    0.000;    0.000
336.326; 1545.800;    0.000;    0.000
336.384; 1518.800;    0.000;    0.000
336.442; 1464.800;    0.000;    0.000
336.500; 1459.800;    0.000;    0.000
336.558; 1450.800;    0.000;    0.000
336.616; 1440.800;    0.000;    0.000
336.674; 1411.800;    0.000;    0.000
336.732; 1446.800;    0.000;    0.000
336.790; 1443.800;    0.000;    0.000
336.848; 1427.800;    0.000;    0.000
336.906; 1402.800;    0.000;    0.000
336.964; 1409.800;    0.000;    0.000
337.022; 1467.800;    0.000;    0.000
337.080; 1511.800;    0.000;    0.000
337.138; 1557.800;    0.000;    0.000
337.195; 1531.800;    0.000;    0.000
337.253; 1412.800;    0.000;    0.000
337.311; 1461.800;    0.000;    0.000
337.369; 1439.800;    0.000;    0.000
337.427; 1412.800;    0.000;    0.000
337.485; 1403.800;    0.000;    0.000
337.543; 1410.800;    0.000;    0.000
337.601; 1434.800;    0.000;    0.000
337.658; 1399.800;    0.000;    0.000
337.716; 1406.800;    0.000;    0.000
337.774; 1365.800;    0.000;    0.000
337.832; 1335.800;    0.000;    0.000
337.890; 1299.800;    0.000;    0.000
337.947; 1415.800;    0.000;    0.000
338.005; 1355.800;    0.000;    0.000
338.063; 1300.800;    0.000;    0.000
338.121; 1411.800;    0.000;    0.000
338.178; 1395.800;    0.000;    0.000
338.236; 1441.800;    0.000;    0.000
338.294; 1427.800;    0.000;    0.000
338.352; 1454.800;    0.000;    0.000
338.409; 1475.800;    0.000;    0.000
338.467; 1451.800;    0.000;    0.000
338.525; 1356.800;    0.000;    0.000
338.583; 1327.800;    0.000;    0.000
338.640; 1315.800;    0.000;    0.000
338.698; 1391.800;    0.000;    0.000
338.756; 1413.800;    0.000;    0.000
338.813; 1474.800;    0.000;    0.000
338.871; 1449.800;    0.000;    0.000
338.928; 1459.800;    0.000;    0.000
338.986; 1471.800;    0.000;    0.000
339.044; 1492.800;    0.000;    0.000
339.101; 1411.800;    0.000;    0.000
339.159; 1426.800;    0.000;    0.000
339.216; 1461.800;    0.000;    0.000
339.274; 1423.800;    0.000;    0.000
339.332; 1464.800;    0.000;    0.000
339.389; 1463.800;    0.000;    0.000
339.447; 1411.800;    0.000;    0.000
339.504; 1398.800;    0.000;    0.000
339.562; 1431.800;    0.000;    0.000
339.619; 1410.800;    0.000;    0.000
339.677; 1429.800;    0.000;    0.000
339.734; 1431.800;    0.000;    0.000
339.792; 1437.800;    0.000;    0.000
339.849; 1427.800;    0.000;    0.000
339.907; 1435.800;    0.000;    0.000
339.964; 1404.800;    0.000;    0.000
340.022; 1365.800;    0.000;    0.000
340.079; 1426.800;    0.000;    0.000
340.137; 1429.800;    0.000;    0.000
340.194; 1321.800;    0.000;    0.000
340.252; 1418.800;    0.000;    0.000
340.309; 1354.800;    0.000;    0.000
340.366; 1359.800;    0.000;    0.000
340.424; 1434.800;    0.000;    0.000
340.481; 1422.800;    0.000;    0.000
340.538; 1499.800;    0.000;    0.000
340.596; 1373.800;    0.000;    0.000
340.653; 1405.800;    0.000;    0.000
340.711; 1411.800;    0.000;    0.000
340.768; 1417.800;    0.000;    0.000
340.825; 1463.800;    0.000;    0.000
340.883; 1418.800;    0.000;    0.000
340.940; 1420.800;    0.000;    0.000
340.997; 1371.800;    0.000;    0.000
341.054; 1420.800;    0.000;    0.000
341.112; 1465.800;    0.000;    0.000
341.169; 1479.800;    0.000;    0.000
341.226; 1478.800;    0.000;    0.000
341.284; 1449.800;    0.000;    0.000
341.341; 1454.800;    0.000;    0.000
341.398; 1494.800;    0.000;    0.000
341.455; 1531.800;    0.000;    0.000
341.512; 1475.800;    0.000;    0.000
341.570; 1496.800;    0.000;    0.000
341.627; 1521.800;    0.000;    0.000
341.684; 1443.800;    0.000;    0.000
341.741; 1523.800;    0.000;    0.000
341.798; 1431.800;    0.000;    0.000
341.856; 1404.800;    0.000;    0.000
341.913; 1428.800;    0.000;    0.000
341.970; 1435.800;    0.000;    0.000
342.027; 1459.800;    0.000;    0.000
342.084; 1501.800;    0.000;    0.000
342.141; 1498.800;    0.000;    0.000
342.198; 1438.800;    0.000;    0.000
342.255; 1451.800;    0.000;    0.000
342.313; 1473.800;    0.000;    0.000
342.370; 1494.800;    0.000;    0.000
342.427; 1367.800;    0.000;    0.000
342.484; 1389.800;    0.000;    0.000
342.541; 1383.800;    0.000;    0.000
342.598; 1454.800;    0.000;    0.000
342.655; 1375.800;    0.000;    0.000
342.712; 1449.800;    0.000;    0.000
342.769; 1378.800;    0.000;    0.000
342.826; 1457.800;    0.000;    0.000
342.883; 1409.800;    0.000;    0.000
342.940; 1391.800;    0.000;    0.000
342.997; 1384.800;    0.000;    0.000
343.054; 1513.800;    0.000;    0.000
343.111; 1396.800;    0.000;    0.000
343.168; 1384.800;    0.000;    0.000
343.225; 1427.800;    0.000;    0.000
343.282; 1468.800;    0.000;    0.000
343.339; 1450.800;    0.000;    0.000
343.395; 1418.800;    0.000;    0.000
343.452; 1438.800;    0.000;    0.000
343.509; 1353.800;    0.000;    0.000
343.566; 1480.800;    0.000;    0.000
343.623; 1471.800;    0.000;    0.000
343.680; 1359.800;    0.000;    0.000
343.737; 1431.800;    0.000;    0.000
343.794; 1434.800;    0.000;    0.000
343.850; 1410.800;    0.000;    0.000
343.907; 1465.800;    0.000;    0.000
343.964; 1461.800;    0.000;    0.000
344.021; 1475.800;    0.000;    0.000
344.078; 1529.800;    0.000;    0.000
344.134; 1523.800;    0.000;    0.000
344.191; 1482.800;    0.000;    0.000
344.248; 1554.800;    0.000;    0.000
344.305; 1511.800;    0.000;    0.000
344.361; 1532.800;    0.000;    0.000
344.418; 1483.800;    0.000;    0.000
344.475; 1493.800;    0.000;    0.000
344.532; 1531.800;    0.000;    0.000
344.588; 1529.800;    0.000;    0.000
344.645; 1458.800;    0.000;    0.000
344.702; 1501.800;    0.000;    0.000
344.758; 1504.800;    0.000;    0.000
344.815; 1513.800;    0.000;    0.000
344.872; 1494.800;    0.000;    0.000
344.928; 1493.800;    0.000;    0.000
344.985; 1460.800;    0.000;    0.000
345.042; 1474.800;    0.000;    0.000
345.098; 1538.800;    0.000;    0.000
345.155; 1461.800;    0.000;    0.000
345.212; 1512.800;    0.000;    0.000
345.268; 1450.800;    0.000;    0.000
345.325; 1459.800;    0.000;    0.000
345.381; 1521.800;    0.000;    0.000
345.438; 1558.800;    0.000;    0.000
345.495; 1528.800;    0.000;    0.000
345.551; 1599.800;    0.000;    0.000
345.608; 1541.800;    0.000;    0.000
345.664; 1526.800;    0.000;    0.000
345.721; 1489.800;    0.000;    0.000
345.777; 1524.800;    0.000;    0.000
345.834; 1461.800;    0.000;    0.000
345.890; 1480.800;    0.000;    0.000
345.947; 1409.800;    0.000;    0.000
346.003; 1494.800;    0.000;    0.000
346.060; 1400.800;    0.000;    0.000
346.116; 1456.800;    0.000;    0.000
346.173; 1494.800;    0.000;    0.000
346.229; 1462.800;    0.000;    0.000
346.285; 1411.800;    0.000;    0.000
346.342; 1428.800;    0.000;    0.000
346.398; 1534.800;    0.000;    0.000
346.455; 1517.800;    0.000;    0.000
346.511; 1575.800;    0.000;    0.000
346.567; 1569.800;    0.000;    0.000
346.624; 1582.800;    0.000;    0.000
346.680; 1559.800;    0.000;    0.000
346.737; 1576.800;    0.000;    0.000
346.793; 1565.800;    0.000;    0.000
346.849; 1572.800;    0.000;    0.000
346.906; 1629.800;    0.000;    0.000
346.962; 1729.800;    0.000;    0.000
347.018; 1610.800;    0.000;    0.000
347.074; 1624.800;    0.000;    0.000
347.131; 1538.800;    0.000;    0.000
347.187; 1542.800;    0.000;    0.000
347.243; 1608.800;    0.000;    0.000
347.300; 1555.800;    0.000;    0.000
347.356; 1518.800;    0.000;    0.000
347.412; 1495.800;    0.000;    0.000
347.468; 1565.800;    0.000;    0.000
347.524; 1488.800;    0.000;    0.000
347.581; 1509.800;    0.000;    0.000
347.637; 1555.800;    0.000;    0.000
347.693; 1549.800;    0.000;    0.000
347.749; 1556.800;    0.000;    0.000
347.805; 1516.800;    0.000;    0.000
347.862; 1560.800;    0.000;    0.000
347.918; 1575.800;    0.000;    0.000
347.974; 1486.800;    0.000;    0.000
348.030; 1508.800;    0.000;    0.000
348.086; 1492.800;    0.000;    0.000
348.142; 1490.800;    0.000;    0.000
348.198; 1503.800;    0.000;    0.000
348.254; 1537.800;    0.000;    0.000
348.311; 1510.800;    0.000;    0.000
348.367; 1516.800;    0.000;    0.000
348.423; 1475.800;    0.000;    0.000
348.479; 1483.800;    0.000;    0.000
348.535; 1510.800;    0.000;    0.000
348.591; 1547.800;    0.000;    0.000
348.647; 1504.800;    0.000;    0.000
348.703; 1561.800;    0.000;    0.000
348.759; 1529.800;    0.000;    0.000
348.815; 1597.800;    0.000;    0.000
348.871; 1509.800;    0.000;    0.000
348.927; 1586.800;    0.000;    0.000
348.983; 1510.800;    0.000;    0.000
349.039; 1536.800;    0.000;    0.000
349.095; 1546.800;    0.000;    0.000
349.151; 1520.800;    0.000;    0.000
349.207; 1585.800;    0.000;    0.000
349.263; 1507.800;    0.000;    0.000
349.319; 1564.800;    0.000;    0.000
349.374; 1539.800;    0.000;    0.000
349.430; 1544.800;    0.000;    0.000
349.486; 1546.800;    0.000;    0.000
349.542; 1639.800;    0.000;    0.000
349.598; 1588.800;    0.000;    0.000
349.654; 1549.800;    0.000;    0.000
349.710; 1494.800;    0.000;    0.000
349.766; 1525.800;    0.000;    0.000
349.821; 1499.800;    0.000;    0.000
349.877; 1512.800;    0.000;    0.000
349.933; 1548.800;    0.000;    0.000
349.989; 1569.800;    0.000;    0.000
350.045; 1566.800;    0.000;    0.000
350.100; 1535.800;    0.000;    0.000
350.156; 1520.800;    0.000;    0.000
350.212; 1544.800;    0.000;    0.000
350.268; 1466.800;    0.000;    0.000
350.323; 1487.800;    0.000;    0.000
350.379; 1525.800;    0.000;    0.000
350.435; 1594.800;    0.000;    0.000
350.491; 1482.800;    0.000;    0.000
350.546; 1527.800;    0.000;    0.000
350.602; 1485.800;    0.000;    0.000
350.658; 1516.800;    0.000;    0.000
350.713; 1485.800;    0.000;    0.000
350.769; 1519.800;    0.000;    0.000
350.825; 1539.800;    0.000;    0.000
350.880; 1540.800;    0.000;    0.000
350.936; 1502.800;    0.000;    0.000
350.992; 1482.800;    0.000;    0.000
351.047; 1469.800;    0.000;    0.000
351.103; 1457.800;    0.000;    0.000
351.158; 1458.800;    0.000;    0.000
351.214; 1501.800;    0.000;    0.000
351.270; 1485.800;    0.000;    0.000
351.325; 1540.800;    0.000;    0.000
351.381; 1442.800;    0.000;    0.000
351.436; 1481.800;    0.000;    0.000
351.492; 1498.800;    0.000;    0.000
351.547; 1512.800;    0.000;    0.000
351.603; 1598.800;    0.000;    0.000
351.658; 1547.800;    0.000;    0.000
351.714; 1566.800;    0.000;    0.000
351.769; 1513.800;    0.000;    0.000
351.825; 1556.800;    0.000;    0.000
351.880; 1589.800;    0.000;    0.000
351.936; 1621.800;    0.000;    0.000
351.991; 1629.800;    0.000;    0.000
352.047; 1548.800;    0.000;    0.000
352.102; 1522.800;    0.000;    0.000
352.158; 1562.800;    0.000;    0.000
352.213; 1470.800;    0.000;    0.000
352.268; 1482.800;    0.000;    0.000
352.324; 1424.800;    0.000;    0.000
352.379; 1535.800;    0.000;    0.000
352.434; 1527.800;    0.000;    0.000
352.490; 1563.800;    0.000;    0.000
352.545; 1561.800;    0.000;    0.000
352.601; 1568.800;    0.000;    0.000
352.656; 1471.800;    0.000;    0.000
352.711; 1581.800;    0.000;    0.000
352.767; 1525.800;    0.000;    0.000
352.822; 1496.800;    0.000;    0.000
352.877; 1542.800;    0.000;    0.000
352.932; 1513.800;    0.000;    0.000
352.988; 1500.800;    0.000;    0.000
353.043; 1556.800;    0.000;    0.000
353.098; 1492.800;    0.000;    0.000
353.153; 1595.800;    0.000;    0.000
353.209; 1594.800;    0.000;    0.000
353.264; 1482.800;    0.000;    0.000
353.319; 1492.800;    0.000;    0.000
353.374; 1444.800;    0.000;    0.000
353.430; 1425.800;    0.000;    0.000
353.485; 1531.800;    0.000;    0.000
353.540; 1557.800;    0.000;    0.000
353.595; 1506.800;    0.000;    0.000
353.650; 1446.800;    0.000;    0.000
353.705; 1536.800;    0.000;    0.000
353.761; 1481.800;    0.000;    0.000
353.816; 1536.800;    0.000;    0.000
353.871; 1435.800;    0.000;    0.000
353.926; 1495.800;    0.000;    0.000
353.981; 1458.800;    0.000;    0.000
354.036; 1436.800;    0.000;    0.000
354.091; 1524.800;    0.000;    0.000
354.146; 1479.800;    0.000;    0.000
354.201; 1479.800;    0.000;    0.000
354.256; 1545.800;    0.000;    0.000
354.311; 1618.800;    0.000;    0.000
354.367; 1504.800;    0.000;    0.000
354.422; 1529.800;    0.000;    0.000
354.477; 1485.800;    0.000;    0.000
354.532; 1496.800;    0.000;    0.000
354.587; 1509.800;    0.000;    0.000
354.642; 1472.800;    0.000;    0.000
354.697; 1520.800;    0.000;    0.000
354.751; 1546.800;    0.000;    0.000
354.806; 1516.800;    0.000;    0.000
354.861; 1562.800;    0.000;    0.000
354.916; 1558.800;    0.000;    0.000
354.971; 1532.800;    0.000;    0.000
355.026; 1545.800;    0.000;    0.000
355.081; 1464.800;    0.000;    0.000
355.136; 1485.800;    0.000;    0.000
355.191; 1473.800;    0.000;    0.000
355.246; 1516.800;    0.000;    0.000
355.301; 1496.800;    0.000;    0.000
355.355; 1534.800;    0.000;    0.000
355.410; 1556.800;    0.000;    0.000
355.465; 1538.800;    0.000;    0.000
355.520; 1458.800;    0.000;    0.000
355.575; 1524.800;    0.000;    0.000
355.630; 1407.800;    0.000;    0.000
355.684; 1468.800;    0.000;    0.000
355.739; 1459.800;    0.000;    0.000
355.794; 1503.800;    0.000;    0.000
355.849; 1538.800;    0.000;    0.000
355.904; 1543.800;    0.000;    0.000
355.958; 1508.800;    0.000;    0.000
356.013; 1487.800;    0.000;    0.000
356.068; 1525.800;    0.000;    0.000
356.123; 1507.800;    0.000;    0.000
356.177; 1583.800;    0.000;    0.000
356.232; 1484.800;    0.000;    0.000
356.287; 1549.800;    0.000;    0.000
356.341; 1566.800;    0.000;    0.000
356.396; 1511.800;    0.000;    0.000
356.451; 1499.800;    0.000;    0.000
356.505; 1494.800;    0.000;    0.000
356.560; 1536.800;    0.000;    0.000
356.615; 1459.800;    0.000;    0.000
356.669; 1509.800;    0.000;    0.000
356.724; 1591.800;    0.000;    0.000
356.778; 1499.800;    0.000;    0.000
356.833; 1554.800;    0.000;    0.000
356.888; 1497.800;    0.000;    0.000
356.942; 1508.800;    0.000;    0.000
356.997; 1491.800;    0.000;    0.000
357.051; 1445.800;    0.000;    0.000
357.106; 1535.800;    0.000;    0.000
357.160; 1432.800;    0.000;    0.000
357.215; 1406.800;    0.000;    0.000
357.269; 1433.800;    0.000;    0.000
357.324; 1556.800;    0.000;    0.000
357.378; 1463.800;    0.000;    0.000
357.433; 1474.800;    0.000;    0.000
357.487; 1549.800;    0.000;    0.000
357.542; 1494.800;    0.000;    0.000
357.596; 1500.800;    0.000;    0.000
357.651; 1533.800;    0.000;    0.000
357.705; 1503.800;    0.000;    0.000
357.760; 1480.800;    0.000;    0.000
357.814; 1491.800;    0.000;    0.000
357.868; 1492.800;    0.000;    0.000
357.923; 1500.800;    0.000;    0.000
357.977; 1531.800;    0.000;    0.000
358.032; 1516.800;    0.000;    0.000
358.086; 1517.800;    0.000;    0.000
358.140; 1544.800;    0.000;    0.000
358.195; 1486.800;    0.000;    0.000
358.249; 1595.800;    0.000;    0.000
358.303; 1516.800;    0.000;    0.000
358.358; 1496.800;    0.000;    0.000
358.412; 1460.800;    0.000;    0.000
358.466; 1405.800;    0.000;    0.000
358.521; 1471.800;    0.000;    0.000
358.575; 1398.800;    0.000;    0.000
358.629; 1432.800;    0.000;    0.000
358.683; 1430.800;    0.000;    0.000
358.738; 1402.800;    0.000;    0.000
358.792; 1465.800;    0.000;    0.000
358.846; 1507.800;    0.000;    0.000
358.900; 1470.800;    0.000;    0.000
358.954; 1443.800;    0.000;    0.000
359.009; 1477.800;    0.000;    0.000
359.063; 1428.800;    0.000;    0.000
359.117; 1467.800;    0.000;    0.000
359.171; 1543.800;    0.000;    0.000
359.225; 1503.800;    0.000;    0.000
359.280; 1474.800;    0.000;    0.000
359.334; 1516.800;    0.000;    0.000
359.388; 1497.800;    0.000;    0.000
359.442; 1481.800;    0.000;    0.000
359.496; 1451.800;    0.000;    0.000
359.550; 1473.800;    0.000;    0.000
359.604; 1500.800;    0.000;    0.000
359.658; 1454.800;    0.000;    0.000
359.712; 1468.800;    0.000;    0.000
359.766; 1505.800;    0.000;    0.000
359.820; 1526.800;    0.000;    0.000
359.875; 1514.800;    0.000;    0.000
359.929; 1467.800;    0.000;    0.000
359.983; 1450.800;    0.000;    0.000
360.037; 1406.800;    0.000;    0.000
360.091; 1487.800;    0.000;    0.000
360.145; 1489.800;    0.000;    0.000
360.199; 1541.800;    0.000;    0.000
360.253; 1441.800;    0.000;    0.000
360.306; 1443.800;    0.000;    0.000
360.360; 1477.800;    0.000;    0.000
360.414; 1516.800;    0.000;    0.000
360.468; 1446.800;    0.000;    0.000
360.522; 1528.800;    0.000;    0.000
360.576; 1517.800;    0.000;    0.000
360.630; 1452.800;    0.000;    0.000
360.684; 1452.800;    0.000;    0.000
360.738; 1483.800;    0.000;    0.000
360.792; 1570.800;    0.000;    0.000
360.846; 1474.800;    0.000;    0.000
360.899; 1554.800;    0.000;    0.000
360.953; 1482.800;    0.000;    0.000
361.007; 1519.800;    0.000;    0.000
361.061; 1505.800;    0.000;    0.000
361.115; 1477.800;    0.000;    0.000
361.168; 1511.800;    0.000;    0.000
361.222; 1479.800;    0.000;    0.000
361.276; 1527.800;    0.000;    0.000
361.330; 1500.800;    0.000;    0.000
361.384; 1492.800;    0.000;    0.000
361.437; 1537.800;    0.000;    0.000
361.491; 1493.800;    0.000;    0.000
361.545; 1483.800;    0.000;    0.000
361.599; 1446.800;    0.000;    0.000
361.652; 1506.800;    0.000;    0.000
361.706; 1554.800;    0.000;    0.000
361.760; 1474.800;    0.000;    0.000
361.813; 1517.800;    0.000;    0.000
361.867; 1535.800;    0.000;    0.000
361.921; 1513.800;    0.000;    0.000
361.974; 1457.800;    0.000;    0.000
362.028; 1485.800;    0.000;    0.000
362.082; 1514.800;    0.000;    0.000
362.135; 1467.800;    0.000;    0.000
362.189; 1502.800;    0.000;    0.000
362.242; 1524.800;    0.000;    0.000
362.296; 1608.800;    0.000;    0.000
362.350; 1699.800;    0.000;    0.000
362.403; 1741.800;    0.000;    0.000
362.457; 1597.800;    0.000;    0.000
362.510; 1520.800;    0.000;    0.000
362.564; 1540.800;    0.000;    0.000
362.617; 1585.800;    0.000;    0.000
362.671; 1574.800;    0.000;    0.000
362.724; 1604.800;    0.000;    0.000
362.778; 1616.800;    0.000;    0.000
362.831; 1588.800;    0.000;    0.000
362.885; 1614.800;    0.000;    0.000
362.938; 1699.800;    0.000;    0.000
362.992;  384.800;    0.000;    0.000
363.045;  278.800;    0.000;    0.000
363.099;  304.800;    0.000;    0.000
363.152;  291.800;    0.000;    0.000
363.205;  285.800;    0.000;    0.000
363.259;  248.800;    0.000;    0.000
363.312;  321.800;    0.000;    0.000
363.366;  308.800;    0.000;    0.000
363.419;  309.800;    0.000;    0.000
363.472;  320.800;    0.000;    0.000
363.526;  286.800;    0.000;    0.000
363.579;  278.800;    0.000;    0.000
363.632;  286.800;    0.000;    0.000
363.686;  300.800;    0.000;    0.000
363.739;  274.800;    0.000;    0.000
363.792;  271.800;    0.000;    0.000

