Yeso_posicion2_Burst5-n5
Integration time [ms]:   1.000
Averaging Nr. [scans]: 1
Smoothing Nr. [pixels]: 0
Data measured with spectrometer [name]: UV1
Wave   ;Sample   ;Dark     ;Reference
[nm]   ;[counts] ;[counts] ;[counts] 

236.381;  124.875;    0.000;    0.000
236.451;  191.875;    0.000;    0.000
236.520;  212.875;    0.000;    0.000
236.590;  227.875;    0.000;    0.000
236.660;  186.875;    0.000;    0.000
236.730;  182.875;    0.000;    0.000
236.799;  202.875;    0.000;    0.000
236.869;  200.875;    0.000;    0.000
236.939;  190.875;    0.000;    0.000
237.009;  179.875;    0.000;    0.000
237.078;  189.875;    0.000;    0.000
237.148;  199.875;    0.000;    0.000
237.218;  176.875;    0.000;    0.000
237.287;  195.875;    0.000;    0.000
237.357;  176.875;    0.000;    0.000
237.427;  189.875;    0.000;    0.000
237.496;  438.875;    0.000;    0.000
237.566;  392.875;    0.000;    0.000
237.636;  382.875;    0.000;    0.000
237.705;  396.875;    0.000;    0.000
237.775;  381.875;    0.000;    0.000
237.845;  393.875;    0.000;    0.000
237.914;  384.875;    0.000;    0.000
237.984;  445.875;    0.000;    0.000
238.054;  392.875;    0.000;    0.000
238.123;  395.875;    0.000;    0.000
238.193;  365.875;    0.000;    0.000
238.263;  374.875;    0.000;    0.000
238.332;  373.875;    0.000;    0.000
238.402;  394.875;    0.000;    0.000
238.471;  376.875;    0.000;    0.000
238.541;  365.875;    0.000;    0.000
238.611;  385.875;    0.000;    0.000
238.680;  353.875;    0.000;    0.000
238.750;  379.875;    0.000;    0.000
238.819;  406.875;    0.000;    0.000
238.889;  351.875;    0.000;    0.000
238.958;  389.875;    0.000;    0.000
239.028;  381.875;    0.000;    0.000
239.097;  356.875;    0.000;    0.000
239.167;  419.875;    0.000;    0.000
239.237;  382.875;    0.000;    0.000
239.306;  385.875;    0.000;    0.000
239.376;  387.875;    0.000;    0.000
239.445;  408.875;    0.000;    0.000
239.515;  408.875;    0.000;    0.000
239.584;  385.875;    0.000;    0.000
239.654;  387.875;    0.000;    0.000
239.723;  400.875;    0.000;    0.000
239.793;  342.875;    0.000;    0.000
239.862;  382.875;    0.000;    0.000
239.932;  383.875;    0.000;    0.000
240.001;  326.875;    0.000;    0.000
240.070;  372.875;    0.000;    0.000
240.140;  371.875;    0.000;    0.000
240.209;  373.875;    0.000;    0.000
240.279;  366.875;    0.000;    0.000
240.348;  399.875;    0.000;    0.000
240.418;  338.875;    0.000;    0.000
240.487;  366.875;    0.000;    0.000
240.556;  407.875;    0.000;    0.000
240.626;  359.875;    0.000;    0.000
240.695;  362.875;    0.000;    0.000
240.765;  387.875;    0.000;    0.000
240.834;  361.875;    0.000;    0.000
240.903;  376.875;    0.000;    0.000
240.973;  382.875;    0.000;    0.000
241.042;  373.875;    0.000;    0.000
241.112;  382.875;    0.000;    0.000
241.181;  331.875;    0.000;    0.000
241.250;  348.875;    0.000;    0.000
241.320;  399.875;    0.000;    0.000
241.389;  389.875;    0.000;    0.000
241.458;  351.875;    0.000;    0.000
241.528;  368.875;    0.000;    0.000
241.597;  410.875;    0.000;    0.000
241.666;  352.875;    0.000;    0.000
241.736;  407.875;    0.000;    0.000
241.805;  378.875;    0.000;    0.000
241.874;  392.875;    0.000;    0.000
241.943;  351.875;    0.000;    0.000
242.013;  388.875;    0.000;    0.000
242.082;  352.875;    0.000;    0.000
242.151;  337.875;    0.000;    0.000
242.221;  368.875;    0.000;    0.000
242.290;  372.875;    0.000;    0.000
242.359;  318.875;    0.000;    0.000
242.428;  406.875;    0.000;    0.000
242.498;  361.875;    0.000;    0.000
242.567;  352.875;    0.000;    0.000
242.636;  418.875;    0.000;    0.000
242.705;  393.875;    0.000;    0.000
242.774;  361.875;    0.000;    0.000
242.844;  357.875;    0.000;    0.000
242.913;  402.875;    0.000;    0.000
242.982;  371.875;    0.000;    0.000
243.051;  367.875;    0.000;    0.000
243.120;  351.875;    0.000;    0.000
243.190;  323.875;    0.000;    0.000
243.259;  367.875;    0.000;    0.000
243.328;  356.875;    0.000;    0.000
243.397;  328.875;    0.000;    0.000
243.466;  360.875;    0.000;    0.000
243.535;  334.875;    0.000;    0.000
243.605;  332.875;    0.000;    0.000
243.674;  354.875;    0.000;    0.000
243.743;  400.875;    0.000;    0.000
243.812;  332.875;    0.000;    0.000
243.881;  371.875;    0.000;    0.000
243.950;  366.875;    0.000;    0.000
244.019;  357.875;    0.000;    0.000
244.088;  358.875;    0.000;    0.000
244.158;  388.875;    0.000;    0.000
244.227;  364.875;    0.000;    0.000
244.296;  321.875;    0.000;    0.000
244.365;  375.875;    0.000;    0.000
244.434;  315.875;    0.000;    0.000
244.503;  370.875;    0.000;    0.000
244.572;  370.875;    0.000;    0.000
244.641;  313.875;    0.000;    0.000
244.710;  384.875;    0.000;    0.000
244.779;  356.875;    0.000;    0.000
244.848;  371.875;    0.000;    0.000
244.917;  343.875;    0.000;    0.000
244.986;  291.875;    0.000;    0.000
245.055;  346.875;    0.000;    0.000
245.124;  324.875;    0.000;    0.000
245.193;  346.875;    0.000;    0.000
245.262;  326.875;    0.000;    0.000
245.331;  332.875;    0.000;    0.000
245.400;  333.875;    0.000;    0.000
245.469;  338.875;    0.000;    0.000
245.538;  345.875;    0.000;    0.000
245.607;  385.875;    0.000;    0.000
245.676;  374.875;    0.000;    0.000
245.745;  337.875;    0.000;    0.000
245.814;  343.875;    0.000;    0.000
245.883;  367.875;    0.000;    0.000
245.952;  363.875;    0.000;    0.000
246.021;  395.875;    0.000;    0.000
246.090;  417.875;    0.000;    0.000
246.159;  414.875;    0.000;    0.000
246.227;  318.875;    0.000;    0.000
246.296;  334.875;    0.000;    0.000
246.365;  358.875;    0.000;    0.000
246.434;  395.875;    0.000;    0.000
246.503;  343.875;    0.000;    0.000
246.572;  397.875;    0.000;    0.000
246.641;  355.875;    0.000;    0.000
246.710;  389.875;    0.000;    0.000
246.779;  356.875;    0.000;    0.000
246.847;  324.875;    0.000;    0.000
246.916;  347.875;    0.000;    0.000
246.985;  344.875;    0.000;    0.000
247.054;  321.875;    0.000;    0.000
247.123;  324.875;    0.000;    0.000
247.192;  404.875;    0.000;    0.000
247.260;  316.875;    0.000;    0.000
247.329;  330.875;    0.000;    0.000
247.398;  377.875;    0.000;    0.000
247.467;  330.875;    0.000;    0.000
247.536;  372.875;    0.000;    0.000
247.604;  362.875;    0.000;    0.000
247.673;  329.875;    0.000;    0.000
247.742;  345.875;    0.000;    0.000
247.811;  363.875;    0.000;    0.000
247.879;  356.875;    0.000;    0.000
247.948;  345.875;    0.000;    0.000
248.017;  349.875;    0.000;    0.000
248.086;  347.875;    0.000;    0.000
248.154;  332.875;    0.000;    0.000
248.223;  326.875;    0.000;    0.000
248.292;  297.875;    0.000;    0.000
248.360;  351.875;    0.000;    0.000
248.429;  346.875;    0.000;    0.000
248.498;  312.875;    0.000;    0.000
248.567;  301.875;    0.000;    0.000
248.635;  339.875;    0.000;    0.000
248.704;  340.875;    0.000;    0.000
248.773;  281.875;    0.000;    0.000
248.841;  338.875;    0.000;    0.000
248.910;  317.875;    0.000;    0.000
248.979;  314.875;    0.000;    0.000
249.047;  290.875;    0.000;    0.000
249.116;  291.875;    0.000;    0.000
249.185;  295.875;    0.000;    0.000
249.253;  269.875;    0.000;    0.000
249.322;  301.875;    0.000;    0.000
249.390;  293.875;    0.000;    0.000
249.459;  320.875;    0.000;    0.000
249.528;  278.875;    0.000;    0.000
249.596;  303.875;    0.000;    0.000
249.665;  273.875;    0.000;    0.000
249.733;  315.875;    0.000;    0.000
249.802;  318.875;    0.000;    0.000
249.871;  299.875;    0.000;    0.000
249.939;  268.875;    0.000;    0.000
250.008;  305.875;    0.000;    0.000
250.076;  282.875;    0.000;    0.000
250.145;  281.875;    0.000;    0.000
250.213;  272.875;    0.000;    0.000
250.282;  276.875;    0.000;    0.000
250.350;  241.875;    0.000;    0.000
250.419;  305.875;    0.000;    0.000
250.487;  291.875;    0.000;    0.000
250.556;  316.875;    0.000;    0.000
250.624;  258.875;    0.000;    0.000
250.693;  257.875;    0.000;    0.000
250.761;  283.875;    0.000;    0.000
250.830;  282.875;    0.000;    0.000
250.898;  262.875;    0.000;    0.000
250.967;  253.875;    0.000;    0.000
251.035;  231.875;    0.000;    0.000
251.104;  262.875;    0.000;    0.000
251.172;  249.875;    0.000;    0.000
251.241;  233.875;    0.000;    0.000
251.309;  265.875;    0.000;    0.000
251.378;  242.875;    0.000;    0.000
251.446;  207.875;    0.000;    0.000
251.514;  223.875;    0.000;    0.000
251.583;  237.875;    0.000;    0.000
251.651;  241.875;    0.000;    0.000
251.720;  225.875;    0.000;    0.000
251.788;  278.875;    0.000;    0.000
251.856;  216.875;    0.000;    0.000
251.925;  225.875;    0.000;    0.000
251.993;  247.875;    0.000;    0.000
252.062;  285.875;    0.000;    0.000
252.130;  235.875;    0.000;    0.000
252.198;  254.875;    0.000;    0.000
252.267;  215.875;    0.000;    0.000
252.335;  212.875;    0.000;    0.000
252.403;  215.875;    0.000;    0.000
252.472;  226.875;    0.000;    0.000
252.540;  225.875;    0.000;    0.000
252.608;  248.875;    0.000;    0.000
252.677;  212.875;    0.000;    0.000
252.745;  262.875;    0.000;    0.000
252.813;  267.875;    0.000;    0.000
252.881;  195.875;    0.000;    0.000
252.950;  238.875;    0.000;    0.000
253.018;  262.875;    0.000;    0.000
253.086;  227.875;    0.000;    0.000
253.155;  242.875;    0.000;    0.000
253.223;  214.875;    0.000;    0.000
253.291;  255.875;    0.000;    0.000
253.359;  249.875;    0.000;    0.000
253.427;  260.875;    0.000;    0.000
253.496;  201.875;    0.000;    0.000
253.564;  213.875;    0.000;    0.000
253.632;  198.875;    0.000;    0.000
253.700;  221.875;    0.000;    0.000
253.769;  218.875;    0.000;    0.000
253.837;  235.875;    0.000;    0.000
253.905;  237.875;    0.000;    0.000
253.973;  221.875;    0.000;    0.000
254.041;  217.875;    0.000;    0.000
254.110;  199.875;    0.000;    0.000
254.178;  222.875;    0.000;    0.000
254.246;  247.875;    0.000;    0.000
254.314;  219.875;    0.000;    0.000
254.382;  215.875;    0.000;    0.000
254.450;  228.875;    0.000;    0.000
254.518;  221.875;    0.000;    0.000
254.587;  184.875;    0.000;    0.000
254.655;  260.875;    0.000;    0.000
254.723;  216.875;    0.000;    0.000
254.791;  232.875;    0.000;    0.000
254.859;  215.875;    0.000;    0.000
254.927;  246.875;    0.000;    0.000
254.995;  194.875;    0.000;    0.000
255.063;  236.875;    0.000;    0.000
255.131;  210.875;    0.000;    0.000
255.199;  200.875;    0.000;    0.000
255.267;  239.875;    0.000;    0.000
255.336;  225.875;    0.000;    0.000
255.404;  184.875;    0.000;    0.000
255.472;  223.875;    0.000;    0.000
255.540;  210.875;    0.000;    0.000
255.608;  254.875;    0.000;    0.000
255.676;  187.875;    0.000;    0.000
255.744;  270.875;    0.000;    0.000
255.812;  204.875;    0.000;    0.000
255.880;  281.875;    0.000;    0.000
255.948;  223.875;    0.000;    0.000
256.016;  230.875;    0.000;    0.000
256.084;  231.875;    0.000;    0.000
256.152;  228.875;    0.000;    0.000
256.220;  229.875;    0.000;    0.000
256.288;  208.875;    0.000;    0.000
256.356;  199.875;    0.000;    0.000
256.424;  218.875;    0.000;    0.000
256.491;  198.875;    0.000;    0.000
256.559;  227.875;    0.000;    0.000
256.627;  264.875;    0.000;    0.000
256.695;  178.875;    0.000;    0.000
256.763;  231.875;    0.000;    0.000
256.831;  223.875;    0.000;    0.000
256.899;  244.875;    0.000;    0.000
256.967;  240.875;    0.000;    0.000
257.035;  263.875;    0.000;    0.000
257.103;  266.875;    0.000;    0.000
257.171;  204.875;    0.000;    0.000
257.238;  196.875;    0.000;    0.000
257.306;  238.875;    0.000;    0.000
257.374;  178.875;    0.000;    0.000
257.442;  217.875;    0.000;    0.000
257.510;  246.875;    0.000;    0.000
257.578;  198.875;    0.000;    0.000
257.646;  243.875;    0.000;    0.000
257.713;  183.875;    0.000;    0.000
257.781;  215.875;    0.000;    0.000
257.849;  247.875;    0.000;    0.000
257.917;  223.875;    0.000;    0.000
257.985;  206.875;    0.000;    0.000
258.052;  280.875;    0.000;    0.000
258.120;  190.875;    0.000;    0.000
258.188;  232.875;    0.000;    0.000
258.256;  212.875;    0.000;    0.000
258.324;  239.875;    0.000;    0.000
258.391;  222.875;    0.000;    0.000
258.459;  235.875;    0.000;    0.000
258.527;  256.875;    0.000;    0.000
258.595;  238.875;    0.000;    0.000
258.662;  184.875;    0.000;    0.000
258.730;  215.875;    0.000;    0.000
258.798;  260.875;    0.000;    0.000
258.865;  234.875;    0.000;    0.000
258.933;  233.875;    0.000;    0.000
259.001;  252.875;    0.000;    0.000
259.069;  220.875;    0.000;    0.000
259.136;  230.875;    0.000;    0.000
259.204;  273.875;    0.000;    0.000
259.272;  281.875;    0.000;    0.000
259.339;  236.875;    0.000;    0.000
259.407;  288.875;    0.000;    0.000
259.475;  261.875;    0.000;    0.000
259.542;  219.875;    0.000;    0.000
259.610;  285.875;    0.000;    0.000
259.677;  274.875;    0.000;    0.000
259.745;  236.875;    0.000;    0.000
259.813;  293.875;    0.000;    0.000
259.880;  274.875;    0.000;    0.000
259.948;  303.875;    0.000;    0.000
260.016;  255.875;    0.000;    0.000
260.083;  284.875;    0.000;    0.000
260.151;  279.875;    0.000;    0.000
260.218;  231.875;    0.000;    0.000
260.286;  278.875;    0.000;    0.000
260.353;  306.875;    0.000;    0.000
260.421;  254.875;    0.000;    0.000
260.489;  268.875;    0.000;    0.000
260.556;  290.875;    0.000;    0.000
260.624;  299.875;    0.000;    0.000
260.691;  321.875;    0.000;    0.000
260.759;  305.875;    0.000;    0.000
260.826;  250.875;    0.000;    0.000
260.894;  269.875;    0.000;    0.000
260.961;  304.875;    0.000;    0.000
261.029;  351.875;    0.000;    0.000
261.096;  289.875;    0.000;    0.000
261.164;  295.875;    0.000;    0.000
261.231;  295.875;    0.000;    0.000
261.299;  268.875;    0.000;    0.000
261.366;  316.875;    0.000;    0.000
261.434;  307.875;    0.000;    0.000
261.501;  302.875;    0.000;    0.000
261.568;  318.875;    0.000;    0.000
261.636;  344.875;    0.000;    0.000
261.703;  372.875;    0.000;    0.000
261.771;  322.875;    0.000;    0.000
261.838;  353.875;    0.000;    0.000
261.906;  265.875;    0.000;    0.000
261.973;  338.875;    0.000;    0.000
262.040;  328.875;    0.000;    0.000
262.108;  333.875;    0.000;    0.000
262.175;  345.875;    0.000;    0.000
262.243;  379.875;    0.000;    0.000
262.310;  293.875;    0.000;    0.000
262.377;  312.875;    0.000;    0.000
262.445;  341.875;    0.000;    0.000
262.512;  345.875;    0.000;    0.000
262.579;  300.875;    0.000;    0.000
262.647;  375.875;    0.000;    0.000
262.714;  376.875;    0.000;    0.000
262.781;  301.875;    0.000;    0.000
262.849;  331.875;    0.000;    0.000
262.916;  344.875;    0.000;    0.000
262.983;  354.875;    0.000;    0.000
263.051;  318.875;    0.000;    0.000
263.118;  359.875;    0.000;    0.000
263.185;  354.875;    0.000;    0.000
263.252;  352.875;    0.000;    0.000
263.320;  381.875;    0.000;    0.000
263.387;  385.875;    0.000;    0.000
263.454;  340.875;    0.000;    0.000
263.522;  317.875;    0.000;    0.000
263.589;  380.875;    0.000;    0.000
263.656;  387.875;    0.000;    0.000
263.723;  363.875;    0.000;    0.000
263.790;  352.875;    0.000;    0.000
263.858;  337.875;    0.000;    0.000
263.925;  386.875;    0.000;    0.000
263.992;  368.875;    0.000;    0.000
264.059;  396.875;    0.000;    0.000
264.126;  366.875;    0.000;    0.000
264.194;  373.875;    0.000;    0.000
264.261;  405.875;    0.000;    0.000
264.328;  392.875;    0.000;    0.000
264.395;  396.875;    0.000;    0.000
264.462;  415.875;    0.000;    0.000
264.529;  417.875;    0.000;    0.000
264.597;  411.875;    0.000;    0.000
264.664;  412.875;    0.000;    0.000
264.731;  430.875;    0.000;    0.000
264.798;  402.875;    0.000;    0.000
264.865;  431.875;    0.000;    0.000
264.932;  408.875;    0.000;    0.000
264.999;  404.875;    0.000;    0.000
265.066;  385.875;    0.000;    0.000
265.133;  427.875;    0.000;    0.000
265.201;  418.875;    0.000;    0.000
265.268;  396.875;    0.000;    0.000
265.335;  394.875;    0.000;    0.000
265.402;  397.875;    0.000;    0.000
265.469;  392.875;    0.000;    0.000
265.536;  429.875;    0.000;    0.000
265.603;  436.875;    0.000;    0.000
265.670;  401.875;    0.000;    0.000
265.737;  429.875;    0.000;    0.000
265.804;  410.875;    0.000;    0.000
265.871;  441.875;    0.000;    0.000
265.938;  426.875;    0.000;    0.000
266.005;  433.875;    0.000;    0.000
266.072;  431.875;    0.000;    0.000
266.139;  463.875;    0.000;    0.000
266.206;  415.875;    0.000;    0.000
266.273;  477.875;    0.000;    0.000
266.340;  387.875;    0.000;    0.000
266.407;  394.875;    0.000;    0.000
266.474;  430.875;    0.000;    0.000
266.541;  442.875;    0.000;    0.000
266.608;  455.875;    0.000;    0.000
266.675;  470.875;    0.000;    0.000
266.742;  469.875;    0.000;    0.000
266.808;  445.875;    0.000;    0.000
266.875;  507.875;    0.000;    0.000
266.942;  432.875;    0.000;    0.000
267.009;  451.875;    0.000;    0.000
267.076;  465.875;    0.000;    0.000
267.143;  457.875;    0.000;    0.000
267.210;  452.875;    0.000;    0.000
267.277;  442.875;    0.000;    0.000
267.344;  464.875;    0.000;    0.000
267.410;  471.875;    0.000;    0.000
267.477;  507.875;    0.000;    0.000
267.544;  438.875;    0.000;    0.000
267.611;  481.875;    0.000;    0.000
267.678;  438.875;    0.000;    0.000
267.745;  478.875;    0.000;    0.000
267.811;  448.875;    0.000;    0.000
267.878;  437.875;    0.000;    0.000
267.945;  463.875;    0.000;    0.000
268.012;  493.875;    0.000;    0.000
268.079;  493.875;    0.000;    0.000
268.145;  488.875;    0.000;    0.000
268.212;  479.875;    0.000;    0.000
268.279;  430.875;    0.000;    0.000
268.346;  481.875;    0.000;    0.000
268.412;  469.875;    0.000;    0.000
268.479;  482.875;    0.000;    0.000
268.546;  482.875;    0.000;    0.000
268.613;  517.875;    0.000;    0.000
268.679;  479.875;    0.000;    0.000
268.746;  519.875;    0.000;    0.000
268.813;  461.875;    0.000;    0.000
268.879;  475.875;    0.000;    0.000
268.946;  477.875;    0.000;    0.000
269.013;  450.875;    0.000;    0.000
269.079;  446.875;    0.000;    0.000
269.146;  477.875;    0.000;    0.000
269.213;  480.875;    0.000;    0.000
269.279;  481.875;    0.000;    0.000
269.346;  455.875;    0.000;    0.000
269.413;  481.875;    0.000;    0.000
269.479;  477.875;    0.000;    0.000
269.546;  460.875;    0.000;    0.000
269.613;  447.875;    0.000;    0.000
269.679;  506.875;    0.000;    0.000
269.746;  415.875;    0.000;    0.000
269.813;  437.875;    0.000;    0.000
269.879;  474.875;    0.000;    0.000
269.946;  484.875;    0.000;    0.000
270.012;  423.875;    0.000;    0.000
270.079;  404.875;    0.000;    0.000
270.145;  461.875;    0.000;    0.000
270.212;  493.875;    0.000;    0.000
270.279;  500.875;    0.000;    0.000
270.345;  436.875;    0.000;    0.000
270.412;  442.875;    0.000;    0.000
270.478;  455.875;    0.000;    0.000
270.545;  461.875;    0.000;    0.000
270.611;  484.875;    0.000;    0.000
270.678;  434.875;    0.000;    0.000
270.744;  471.875;    0.000;    0.000
270.811;  442.875;    0.000;    0.000
270.877;  429.875;    0.000;    0.000
270.944;  472.875;    0.000;    0.000
271.010;  435.875;    0.000;    0.000
271.077;  438.875;    0.000;    0.000
271.143;  435.875;    0.000;    0.000
271.210;  427.875;    0.000;    0.000
271.276;  406.875;    0.000;    0.000
271.343;  496.875;    0.000;    0.000
271.409;  423.875;    0.000;    0.000
271.475;  442.875;    0.000;    0.000
271.542;  430.875;    0.000;    0.000
271.608;  453.875;    0.000;    0.000
271.675;  442.875;    0.000;    0.000
271.741;  492.875;    0.000;    0.000
271.807;  465.875;    0.000;    0.000
271.874;  455.875;    0.000;    0.000
271.940;  443.875;    0.000;    0.000
272.007;  453.875;    0.000;    0.000
272.073;  402.875;    0.000;    0.000
272.139;  453.875;    0.000;    0.000
272.206;  466.875;    0.000;    0.000
272.272;  446.875;    0.000;    0.000
272.338;  503.875;    0.000;    0.000
272.405;  495.875;    0.000;    0.000
272.471;  433.875;    0.000;    0.000
272.537;  435.875;    0.000;    0.000
272.604;  399.875;    0.000;    0.000
272.670;  412.875;    0.000;    0.000
272.736;  400.875;    0.000;    0.000
272.803;  467.875;    0.000;    0.000
272.869;  444.875;    0.000;    0.000
272.935;  416.875;    0.000;    0.000
273.001;  418.875;    0.000;    0.000
273.068;  450.875;    0.000;    0.000
273.134;  452.875;    0.000;    0.000
273.200;  470.875;    0.000;    0.000
273.266;  436.875;    0.000;    0.000
273.333;  457.875;    0.000;    0.000
273.399;  383.875;    0.000;    0.000
273.465;  468.875;    0.000;    0.000
273.531;  381.875;    0.000;    0.000
273.597;  454.875;    0.000;    0.000
273.664;  487.875;    0.000;    0.000
273.730;  400.875;    0.000;    0.000
273.796;  430.875;    0.000;    0.000
273.862;  437.875;    0.000;    0.000
273.928;  487.875;    0.000;    0.000
273.994;  528.875;    0.000;    0.000
274.061;  452.875;    0.000;    0.000
274.127;  437.875;    0.000;    0.000
274.193;  419.875;    0.000;    0.000
274.259;  456.875;    0.000;    0.000
274.325;  412.875;    0.000;    0.000
274.391;  440.875;    0.000;    0.000
274.457;  465.875;    0.000;    0.000
274.524;  486.875;    0.000;    0.000
274.590;  432.875;    0.000;    0.000
274.656;  424.875;    0.000;    0.000
274.722;  446.875;    0.000;    0.000
274.788;  441.875;    0.000;    0.000
274.854;  461.875;    0.000;    0.000
274.920;  440.875;    0.000;    0.000
274.986;  460.875;    0.000;    0.000
275.052;  433.875;    0.000;    0.000
275.118;  479.875;    0.000;    0.000
275.184;  425.875;    0.000;    0.000
275.250;  504.875;    0.000;    0.000
275.316;  402.875;    0.000;    0.000
275.382;  447.875;    0.000;    0.000
275.448;  454.875;    0.000;    0.000
275.514;  449.875;    0.000;    0.000
275.580;  478.875;    0.000;    0.000
275.646;  483.875;    0.000;    0.000
275.712;  416.875;    0.000;    0.000
275.778;  421.875;    0.000;    0.000
275.844;  427.875;    0.000;    0.000
275.910;  457.875;    0.000;    0.000
275.976;  446.875;    0.000;    0.000
276.042;  444.875;    0.000;    0.000
276.108;  481.875;    0.000;    0.000
276.174;  396.875;    0.000;    0.000
276.240;  449.875;    0.000;    0.000
276.306;  437.875;    0.000;    0.000
276.372;  418.875;    0.000;    0.000
276.437;  441.875;    0.000;    0.000
276.503;  448.875;    0.000;    0.000
276.569;  439.875;    0.000;    0.000
276.635;  465.875;    0.000;    0.000
276.701;  449.875;    0.000;    0.000
276.767;  449.875;    0.000;    0.000
276.833;  414.875;    0.000;    0.000
276.899;  478.875;    0.000;    0.000
276.964;  451.875;    0.000;    0.000
277.030;  477.875;    0.000;    0.000
277.096;  453.875;    0.000;    0.000
277.162;  501.875;    0.000;    0.000
277.228;  423.875;    0.000;    0.000
277.293;  472.875;    0.000;    0.000
277.359;  445.875;    0.000;    0.000
277.425;  511.875;    0.000;    0.000
277.491;  515.875;    0.000;    0.000
277.557;  464.875;    0.000;    0.000
277.622;  442.875;    0.000;    0.000
277.688;  485.875;    0.000;    0.000
277.754;  460.875;    0.000;    0.000
277.820;  450.875;    0.000;    0.000
277.885;  488.875;    0.000;    0.000
277.951;  501.875;    0.000;    0.000
278.017;  449.875;    0.000;    0.000
278.083;  460.875;    0.000;    0.000
278.148;  461.875;    0.000;    0.000
278.214;  494.875;    0.000;    0.000
278.280;  451.875;    0.000;    0.000
278.345;  507.875;    0.000;    0.000
278.411;  494.875;    0.000;    0.000
278.477;  499.875;    0.000;    0.000
278.542;  451.875;    0.000;    0.000
278.608;  466.875;    0.000;    0.000
278.674;  506.875;    0.000;    0.000
278.739;  493.875;    0.000;    0.000
278.805;  472.875;    0.000;    0.000
278.871;  532.875;    0.000;    0.000
278.936;  451.875;    0.000;    0.000
279.002;  501.875;    0.000;    0.000
279.067;  481.875;    0.000;    0.000
279.133;  538.875;    0.000;    0.000
279.199;  500.875;    0.000;    0.000
279.264;  484.875;    0.000;    0.000
279.330;  533.875;    0.000;    0.000
279.395;  525.875;    0.000;    0.000
279.461;  575.875;    0.000;    0.000
279.527;  872.875;    0.000;    0.000
279.592;  780.875;    0.000;    0.000
279.658;  523.875;    0.000;    0.000
279.723;  535.875;    0.000;    0.000
279.789;  550.875;    0.000;    0.000
279.854;  512.875;    0.000;    0.000
279.920;  500.875;    0.000;    0.000
279.985;  532.875;    0.000;    0.000
280.051;  500.875;    0.000;    0.000
280.116;  501.875;    0.000;    0.000
280.182;  606.875;    0.000;    0.000
280.247;  706.875;    0.000;    0.000
280.313;  658.875;    0.000;    0.000
280.378;  538.875;    0.000;    0.000
280.444;  505.875;    0.000;    0.000
280.509;  541.875;    0.000;    0.000
280.574;  505.875;    0.000;    0.000
280.640;  493.875;    0.000;    0.000
280.705;  509.875;    0.000;    0.000
280.771;  535.875;    0.000;    0.000
280.836;  509.875;    0.000;    0.000
280.902;  499.875;    0.000;    0.000
280.967;  473.875;    0.000;    0.000
281.032;  549.875;    0.000;    0.000
281.098;  488.875;    0.000;    0.000
281.163;  519.875;    0.000;    0.000
281.229;  542.875;    0.000;    0.000
281.294;  543.875;    0.000;    0.000
281.359;  543.875;    0.000;    0.000
281.425;  594.875;    0.000;    0.000
281.490;  480.875;    0.000;    0.000
281.555;  529.875;    0.000;    0.000
281.621;  570.875;    0.000;    0.000
281.686;  538.875;    0.000;    0.000
281.751;  539.875;    0.000;    0.000
281.817;  492.875;    0.000;    0.000
281.882;  515.875;    0.000;    0.000
281.947;  531.875;    0.000;    0.000
282.012;  511.875;    0.000;    0.000
282.078;  548.875;    0.000;    0.000
282.143;  516.875;    0.000;    0.000
282.208;  578.875;    0.000;    0.000
282.273;  516.875;    0.000;    0.000
282.339;  530.875;    0.000;    0.000
282.404;  554.875;    0.000;    0.000
282.469;  524.875;    0.000;    0.000
282.534;  531.875;    0.000;    0.000
282.600;  578.875;    0.000;    0.000
282.665;  519.875;    0.000;    0.000
282.730;  555.875;    0.000;    0.000
282.795;  584.875;    0.000;    0.000
282.860;  540.875;    0.000;    0.000
282.926;  571.875;    0.000;    0.000
282.991;  558.875;    0.000;    0.000
283.056;  480.875;    0.000;    0.000
283.121;  542.875;    0.000;    0.000
283.186;  598.875;    0.000;    0.000
283.251;  586.875;    0.000;    0.000
283.316;  569.875;    0.000;    0.000
283.382;  568.875;    0.000;    0.000
283.447;  615.875;    0.000;    0.000
283.512;  535.875;    0.000;    0.000
283.577;  547.875;    0.000;    0.000
283.642;  585.875;    0.000;    0.000
283.707;  524.875;    0.000;    0.000
283.772;  586.875;    0.000;    0.000
283.837;  548.875;    0.000;    0.000
283.902;  560.875;    0.000;    0.000
283.967;  533.875;    0.000;    0.000
284.032;  572.875;    0.000;    0.000
284.097;  647.875;    0.000;    0.000
284.163;  576.875;    0.000;    0.000
284.228;  574.875;    0.000;    0.000
284.293;  539.875;    0.000;    0.000
284.358;  560.875;    0.000;    0.000
284.423;  566.875;    0.000;    0.000
284.488;  580.875;    0.000;    0.000
284.553;  565.875;    0.000;    0.000
284.618;  556.875;    0.000;    0.000
284.683;  562.875;    0.000;    0.000
284.748;  547.875;    0.000;    0.000
284.812;  530.875;    0.000;    0.000
284.877;  541.875;    0.000;    0.000
284.942;  586.875;    0.000;    0.000
285.007;  603.875;    0.000;    0.000
285.072;  598.875;    0.000;    0.000
285.137;  631.875;    0.000;    0.000
285.202;  625.875;    0.000;    0.000
285.267;  637.875;    0.000;    0.000
285.332;  560.875;    0.000;    0.000
285.397;  559.875;    0.000;    0.000
285.462;  548.875;    0.000;    0.000
285.527;  551.875;    0.000;    0.000
285.591;  645.875;    0.000;    0.000
285.656;  550.875;    0.000;    0.000
285.721;  616.875;    0.000;    0.000
285.786;  668.875;    0.000;    0.000
285.851;  524.875;    0.000;    0.000
285.916;  667.875;    0.000;    0.000
285.981;  537.875;    0.000;    0.000
286.045;  610.875;    0.000;    0.000
286.110;  646.875;    0.000;    0.000
286.175;  618.875;    0.000;    0.000
286.240;  590.875;    0.000;    0.000
286.305;  643.875;    0.000;    0.000
286.369;  613.875;    0.000;    0.000
286.434;  625.875;    0.000;    0.000
286.499;  587.875;    0.000;    0.000
286.564;  665.875;    0.000;    0.000
286.628;  610.875;    0.000;    0.000
286.693;  635.875;    0.000;    0.000
286.758;  563.875;    0.000;    0.000
286.823;  638.875;    0.000;    0.000
286.887;  621.875;    0.000;    0.000
286.952;  659.875;    0.000;    0.000
287.017;  686.875;    0.000;    0.000
287.082;  646.875;    0.000;    0.000
287.146;  619.875;    0.000;    0.000
287.211;  661.875;    0.000;    0.000
287.276;  578.875;    0.000;    0.000
287.340;  639.875;    0.000;    0.000
287.405;  641.875;    0.000;    0.000
287.470;  630.875;    0.000;    0.000
287.534;  641.875;    0.000;    0.000
287.599;  663.875;    0.000;    0.000
287.663;  636.875;    0.000;    0.000
287.728;  621.875;    0.000;    0.000
287.793;  687.875;    0.000;    0.000
287.857;  687.875;    0.000;    0.000
287.922;  640.875;    0.000;    0.000
287.987;  664.875;    0.000;    0.000
288.051;  651.875;    0.000;    0.000
288.116;  696.875;    0.000;    0.000
288.180;  642.875;    0.000;    0.000
288.245;  672.875;    0.000;    0.000
288.309;  642.875;    0.000;    0.000
288.374;  668.875;    0.000;    0.000
288.439;  696.875;    0.000;    0.000
288.503;  619.875;    0.000;    0.000
288.568;  668.875;    0.000;    0.000
288.632;  651.875;    0.000;    0.000
288.697;  652.875;    0.000;    0.000
288.761;  632.875;    0.000;    0.000
288.826;  648.875;    0.000;    0.000
288.890;  644.875;    0.000;    0.000
288.955;  634.875;    0.000;    0.000
289.019;  690.875;    0.000;    0.000
289.084;  670.875;    0.000;    0.000
289.148;  672.875;    0.000;    0.000
289.212;  684.875;    0.000;    0.000
289.277;  703.875;    0.000;    0.000
289.341;  693.875;    0.000;    0.000
289.406;  619.875;    0.000;    0.000
289.470;  688.875;    0.000;    0.000
289.535;  740.875;    0.000;    0.000
289.599;  674.875;    0.000;    0.000
289.663;  711.875;    0.000;    0.000
289.728;  678.875;    0.000;    0.000
289.792;  686.875;    0.000;    0.000
289.857;  720.875;    0.000;    0.000
289.921;  693.875;    0.000;    0.000
289.985;  644.875;    0.000;    0.000
290.050;  659.875;    0.000;    0.000
290.114;  695.875;    0.000;    0.000
290.178;  664.875;    0.000;    0.000
290.243;  679.875;    0.000;    0.000
290.307;  740.875;    0.000;    0.000
290.371;  714.875;    0.000;    0.000
290.436;  674.875;    0.000;    0.000
290.500;  694.875;    0.000;    0.000
290.564;  670.875;    0.000;    0.000
290.629;  654.875;    0.000;    0.000
290.693;  689.875;    0.000;    0.000
290.757;  681.875;    0.000;    0.000
290.821;  691.875;    0.000;    0.000
290.886;  671.875;    0.000;    0.000
290.950;  717.875;    0.000;    0.000
291.014;  653.875;    0.000;    0.000
291.078;  671.875;    0.000;    0.000
291.143;  686.875;    0.000;    0.000
291.207;  684.875;    0.000;    0.000
291.271;  715.875;    0.000;    0.000
291.335;  659.875;    0.000;    0.000
291.399;  674.875;    0.000;    0.000
291.464;  639.875;    0.000;    0.000
291.528;  702.875;    0.000;    0.000
291.592;  724.875;    0.000;    0.000
291.656;  712.875;    0.000;    0.000
291.720;  711.875;    0.000;    0.000
291.784;  674.875;    0.000;    0.000
291.849;  717.875;    0.000;    0.000
291.913;  630.875;    0.000;    0.000
291.977;  680.875;    0.000;    0.000
292.041;  708.875;    0.000;    0.000
292.105;  719.875;    0.000;    0.000
292.169;  755.875;    0.000;    0.000
292.233;  753.875;    0.000;    0.000
292.297;  754.875;    0.000;    0.000
292.361;  752.875;    0.000;    0.000
292.425;  722.875;    0.000;    0.000
292.490;  752.875;    0.000;    0.000
292.554;  743.875;    0.000;    0.000
292.618;  745.875;    0.000;    0.000
292.682;  780.875;    0.000;    0.000
292.746;  733.875;    0.000;    0.000
292.810;  774.875;    0.000;    0.000
292.874;  784.875;    0.000;    0.000
292.938;  785.875;    0.000;    0.000
293.002;  754.875;    0.000;    0.000
293.066;  727.875;    0.000;    0.000
293.130;  693.875;    0.000;    0.000
293.194;  710.875;    0.000;    0.000
293.258;  797.875;    0.000;    0.000
293.322;  733.875;    0.000;    0.000
293.386;  730.875;    0.000;    0.000
293.450;  801.875;    0.000;    0.000
293.514;  753.875;    0.000;    0.000
293.577;  775.875;    0.000;    0.000
293.641;  737.875;    0.000;    0.000
293.705;  777.875;    0.000;    0.000
293.769;  763.875;    0.000;    0.000
293.833;  759.875;    0.000;    0.000
293.897;  778.875;    0.000;    0.000
293.961;  735.875;    0.000;    0.000
294.025;  735.875;    0.000;    0.000
294.089;  772.875;    0.000;    0.000
294.153;  722.875;    0.000;    0.000
294.216;  771.875;    0.000;    0.000
294.280;  772.875;    0.000;    0.000
294.344;  704.875;    0.000;    0.000
294.408;  728.875;    0.000;    0.000
294.472;  739.875;    0.000;    0.000
294.536;  760.875;    0.000;    0.000
294.599;  788.875;    0.000;    0.000
294.663;  790.875;    0.000;    0.000
294.727;  792.875;    0.000;    0.000
294.791;  748.875;    0.000;    0.000
294.855;  796.875;    0.000;    0.000
294.918;  796.875;    0.000;    0.000
294.982;  717.875;    0.000;    0.000
295.046;  788.875;    0.000;    0.000
295.110;  756.875;    0.000;    0.000
295.173;  752.875;    0.000;    0.000
295.237;  794.875;    0.000;    0.000
295.301;  755.875;    0.000;    0.000
295.364;  792.875;    0.000;    0.000
295.428;  788.875;    0.000;    0.000
295.492;  746.875;    0.000;    0.000
295.556;  825.875;    0.000;    0.000
295.619;  812.875;    0.000;    0.000
295.683;  792.875;    0.000;    0.000
295.747;  834.875;    0.000;    0.000
295.810;  747.875;    0.000;    0.000
295.874;  839.875;    0.000;    0.000
295.938;  760.875;    0.000;    0.000
296.001;  824.875;    0.000;    0.000
296.065;  769.875;    0.000;    0.000
296.128;  796.875;    0.000;    0.000
296.192;  792.875;    0.000;    0.000
296.256;  754.875;    0.000;    0.000
296.319;  788.875;    0.000;    0.000
296.383;  741.875;    0.000;    0.000
296.446;  764.875;    0.000;    0.000
296.510;  772.875;    0.000;    0.000
296.574;  809.875;    0.000;    0.000
296.637;  770.875;    0.000;    0.000
296.701;  827.875;    0.000;    0.000
296.764;  760.875;    0.000;    0.000
296.828;  774.875;    0.000;    0.000
296.891;  733.875;    0.000;    0.000
296.955;  821.875;    0.000;    0.000
297.018;  808.875;    0.000;    0.000
297.082;  846.875;    0.000;    0.000
297.145;  819.875;    0.000;    0.000
297.209;  839.875;    0.000;    0.000
297.272;  839.875;    0.000;    0.000
297.336;  826.875;    0.000;    0.000
297.399;  799.875;    0.000;    0.000
297.463;  766.875;    0.000;    0.000
297.526;  820.875;    0.000;    0.000
297.590;  840.875;    0.000;    0.000
297.653;  803.875;    0.000;    0.000
297.717;  824.875;    0.000;    0.000
297.780;  781.875;    0.000;    0.000
297.843;  862.875;    0.000;    0.000
297.907;  816.875;    0.000;    0.000
297.970;  784.875;    0.000;    0.000
298.034;  838.875;    0.000;    0.000
298.097;  895.875;    0.000;    0.000
298.160;  869.875;    0.000;    0.000
298.224;  896.875;    0.000;    0.000
298.287;  818.875;    0.000;    0.000
298.350;  869.875;    0.000;    0.000
298.414;  838.875;    0.000;    0.000
298.477;  803.875;    0.000;    0.000
298.540;  826.875;    0.000;    0.000
298.604;  827.875;    0.000;    0.000
298.667;  857.875;    0.000;    0.000
298.730;  841.875;    0.000;    0.000
298.794;  736.875;    0.000;    0.000
298.857;  809.875;    0.000;    0.000
298.920;  766.875;    0.000;    0.000
298.984;  895.875;    0.000;    0.000
299.047;  817.875;    0.000;    0.000
299.110;  852.875;    0.000;    0.000
299.173;  761.875;    0.000;    0.000
299.237;  841.875;    0.000;    0.000
299.300;  800.875;    0.000;    0.000
299.363;  837.875;    0.000;    0.000
299.426;  836.875;    0.000;    0.000
299.489;  919.875;    0.000;    0.000
299.553;  961.875;    0.000;    0.000
299.616;  906.875;    0.000;    0.000
299.679;  905.875;    0.000;    0.000
299.742;  968.875;    0.000;    0.000
299.805;  846.875;    0.000;    0.000
299.868;  881.875;    0.000;    0.000
299.932;  951.875;    0.000;    0.000
299.995; 1017.875;    0.000;    0.000
300.058;  942.875;    0.000;    0.000
300.121;  923.875;    0.000;    0.000
300.184;  879.875;    0.000;    0.000
300.247;  828.875;    0.000;    0.000
300.310;  883.875;    0.000;    0.000
300.374;  803.875;    0.000;    0.000
300.437;  804.875;    0.000;    0.000
300.500;  874.875;    0.000;    0.000
300.563;  866.875;    0.000;    0.000
300.626; 1160.875;    0.000;    0.000
300.689; 1216.875;    0.000;    0.000
300.752;  988.875;    0.000;    0.000
300.815;  925.875;    0.000;    0.000
300.878; 1035.875;    0.000;    0.000
300.941;  960.875;    0.000;    0.000
301.004;  834.875;    0.000;    0.000
301.067;  830.875;    0.000;    0.000
301.130;  833.875;    0.000;    0.000
301.193;  796.875;    0.000;    0.000
301.256;  856.875;    0.000;    0.000
301.319;  875.875;    0.000;    0.000
301.382;  875.875;    0.000;    0.000
301.445;  843.875;    0.000;    0.000
301.508;  828.875;    0.000;    0.000
301.571;  806.875;    0.000;    0.000
301.634;  858.875;    0.000;    0.000
301.697;  840.875;    0.000;    0.000
301.760;  848.875;    0.000;    0.000
301.823;  784.875;    0.000;    0.000
301.885;  817.875;    0.000;    0.000
301.948;  797.875;    0.000;    0.000
302.011;  824.875;    0.000;    0.000
302.074;  854.875;    0.000;    0.000
302.137;  814.875;    0.000;    0.000
302.200;  865.875;    0.000;    0.000
302.263;  855.875;    0.000;    0.000
302.326;  812.875;    0.000;    0.000
302.388;  895.875;    0.000;    0.000
302.451;  809.875;    0.000;    0.000
302.514;  825.875;    0.000;    0.000
302.577;  870.875;    0.000;    0.000
302.640;  810.875;    0.000;    0.000
302.703;  826.875;    0.000;    0.000
302.765;  847.875;    0.000;    0.000
302.828;  863.875;    0.000;    0.000
302.891;  843.875;    0.000;    0.000
302.954;  809.875;    0.000;    0.000
303.016;  797.875;    0.000;    0.000
303.079;  832.875;    0.000;    0.000
303.142;  854.875;    0.000;    0.000
303.205;  830.875;    0.000;    0.000
303.267;  849.875;    0.000;    0.000
303.330;  861.875;    0.000;    0.000
303.393;  816.875;    0.000;    0.000
303.456;  847.875;    0.000;    0.000
303.518;  863.875;    0.000;    0.000
303.581;  805.875;    0.000;    0.000
303.644;  829.875;    0.000;    0.000
303.706;  870.875;    0.000;    0.000
303.769;  906.875;    0.000;    0.000
303.832;  874.875;    0.000;    0.000
303.894;  881.875;    0.000;    0.000
303.957;  829.875;    0.000;    0.000
304.020;  847.875;    0.000;    0.000
304.082;  843.875;    0.000;    0.000
304.145;  837.875;    0.000;    0.000
304.207;  857.875;    0.000;    0.000
304.270;  853.875;    0.000;    0.000
304.333;  846.875;    0.000;    0.000
304.395;  886.875;    0.000;    0.000
304.458;  819.875;    0.000;    0.000
304.520;  871.875;    0.000;    0.000
304.583;  847.875;    0.000;    0.000
304.646;  857.875;    0.000;    0.000
304.708;  811.875;    0.000;    0.000
304.771;  842.875;    0.000;    0.000
304.833;  846.875;    0.000;    0.000
304.896;  906.875;    0.000;    0.000
304.958;  829.875;    0.000;    0.000
305.021;  862.875;    0.000;    0.000
305.083;  817.875;    0.000;    0.000
305.146;  851.875;    0.000;    0.000
305.208;  871.875;    0.000;    0.000
305.271;  803.875;    0.000;    0.000
305.333;  887.875;    0.000;    0.000
305.396;  865.875;    0.000;    0.000
305.458;  878.875;    0.000;    0.000
305.520;  820.875;    0.000;    0.000
305.583;  810.875;    0.000;    0.000
305.645;  886.875;    0.000;    0.000
305.708;  815.875;    0.000;    0.000
305.770;  839.875;    0.000;    0.000
305.833;  842.875;    0.000;    0.000
305.895;  905.875;    0.000;    0.000
305.957;  829.875;    0.000;    0.000
306.020;  886.875;    0.000;    0.000
306.082;  888.875;    0.000;    0.000
306.144;  945.875;    0.000;    0.000
306.207;  835.875;    0.000;    0.000
306.269;  881.875;    0.000;    0.000
306.331;  803.875;    0.000;    0.000
306.394;  880.875;    0.000;    0.000
306.456;  871.875;    0.000;    0.000
306.518;  894.875;    0.000;    0.000
306.581;  829.875;    0.000;    0.000
306.643;  878.875;    0.000;    0.000
306.705;  872.875;    0.000;    0.000
306.768;  882.875;    0.000;    0.000
306.830;  893.875;    0.000;    0.000
306.892;  907.875;    0.000;    0.000
306.954;  943.875;    0.000;    0.000
307.017;  960.875;    0.000;    0.000
307.079;  927.875;    0.000;    0.000
307.141;  897.875;    0.000;    0.000
307.203;  916.875;    0.000;    0.000
307.266;  914.875;    0.000;    0.000
307.328;  926.875;    0.000;    0.000
307.390;  972.875;    0.000;    0.000
307.452;  937.875;    0.000;    0.000
307.514;  960.875;    0.000;    0.000
307.577;  889.875;    0.000;    0.000
307.639;  949.875;    0.000;    0.000
307.701;  946.875;    0.000;    0.000
307.763;  915.875;    0.000;    0.000
307.825;  958.875;    0.000;    0.000
307.887;  977.875;    0.000;    0.000
307.949;  917.875;    0.000;    0.000
308.011;  949.875;    0.000;    0.000
308.074;  986.875;    0.000;    0.000
308.136;  975.875;    0.000;    0.000
308.198;  943.875;    0.000;    0.000
308.260; 1011.875;    0.000;    0.000
308.322;  981.875;    0.000;    0.000
308.384;  989.875;    0.000;    0.000
308.446;  932.875;    0.000;    0.000
308.508;  946.875;    0.000;    0.000
308.570;  940.875;    0.000;    0.000
308.632; 1001.875;    0.000;    0.000
308.694;  959.875;    0.000;    0.000
308.756; 1008.875;    0.000;    0.000
308.818; 1011.875;    0.000;    0.000
308.880;  950.875;    0.000;    0.000
308.942; 1033.875;    0.000;    0.000
309.004; 1000.875;    0.000;    0.000
309.066;  978.875;    0.000;    0.000
309.128;  966.875;    0.000;    0.000
309.190; 1007.875;    0.000;    0.000
309.252; 1035.875;    0.000;    0.000
309.314; 1002.875;    0.000;    0.000
309.376; 1079.875;    0.000;    0.000
309.438; 1019.875;    0.000;    0.000
309.500;  998.875;    0.000;    0.000
309.562;  994.875;    0.000;    0.000
309.624;  997.875;    0.000;    0.000
309.686; 1062.875;    0.000;    0.000
309.747;  978.875;    0.000;    0.000
309.809; 1091.875;    0.000;    0.000
309.871; 1019.875;    0.000;    0.000
309.933; 1037.875;    0.000;    0.000
309.995; 1033.875;    0.000;    0.000
310.057;  981.875;    0.000;    0.000
310.119; 1008.875;    0.000;    0.000
310.180; 1042.875;    0.000;    0.000
310.242; 1021.875;    0.000;    0.000
310.304; 1049.875;    0.000;    0.000
310.366; 1019.875;    0.000;    0.000
310.428;  976.875;    0.000;    0.000
310.489; 1047.875;    0.000;    0.000
310.551;  999.875;    0.000;    0.000
310.613; 1041.875;    0.000;    0.000
310.675; 1100.875;    0.000;    0.000
310.737; 1104.875;    0.000;    0.000
310.798; 1084.875;    0.000;    0.000
310.860; 1108.875;    0.000;    0.000
310.922; 1117.875;    0.000;    0.000
310.983; 1090.875;    0.000;    0.000
311.045; 1124.875;    0.000;    0.000
311.107; 1072.875;    0.000;    0.000
311.169; 1122.875;    0.000;    0.000
311.230; 1049.875;    0.000;    0.000
311.292; 1167.875;    0.000;    0.000
311.354; 1078.875;    0.000;    0.000
311.415; 1114.875;    0.000;    0.000
311.477; 1137.875;    0.000;    0.000
311.539; 1143.875;    0.000;    0.000
311.600; 1144.875;    0.000;    0.000
311.662; 1169.875;    0.000;    0.000
311.724; 1137.875;    0.000;    0.000
311.785; 1145.875;    0.000;    0.000
311.847; 1130.875;    0.000;    0.000
311.908; 1184.875;    0.000;    0.000
311.970; 1201.875;    0.000;    0.000
312.032; 1171.875;    0.000;    0.000
312.093; 1187.875;    0.000;    0.000
312.155; 1165.875;    0.000;    0.000
312.216; 1152.875;    0.000;    0.000
312.278; 1157.875;    0.000;    0.000
312.339; 1186.875;    0.000;    0.000
312.401; 1208.875;    0.000;    0.000
312.462; 1189.875;    0.000;    0.000
312.524; 1228.875;    0.000;    0.000
312.585; 1261.875;    0.000;    0.000
312.647; 1219.875;    0.000;    0.000
312.708; 1224.875;    0.000;    0.000
312.770; 1263.875;    0.000;    0.000
312.831; 1210.875;    0.000;    0.000
312.893; 1289.875;    0.000;    0.000
312.954; 1250.875;    0.000;    0.000
313.016; 1276.875;    0.000;    0.000
313.077; 1322.875;    0.000;    0.000
313.139; 1321.875;    0.000;    0.000
313.200; 1275.875;    0.000;    0.000
313.261; 1341.875;    0.000;    0.000
313.323; 1352.875;    0.000;    0.000
313.384; 1369.875;    0.000;    0.000
313.446; 1395.875;    0.000;    0.000
313.507; 1380.875;    0.000;    0.000
313.568; 1423.875;    0.000;    0.000
313.630; 1386.875;    0.000;    0.000
313.691; 1415.875;    0.000;    0.000
313.752; 1420.875;    0.000;    0.000
313.814; 1456.875;    0.000;    0.000
313.875; 1486.875;    0.000;    0.000
313.936; 1513.875;    0.000;    0.000
313.998; 1502.875;    0.000;    0.000
314.059; 1544.875;    0.000;    0.000
314.120; 1522.875;    0.000;    0.000
314.182; 1565.875;    0.000;    0.000
314.243; 1581.875;    0.000;    0.000
314.304; 1665.875;    0.000;    0.000
314.365; 1674.875;    0.000;    0.000
314.427; 1683.875;    0.000;    0.000
314.488; 1767.875;    0.000;    0.000
314.549; 1811.875;    0.000;    0.000
314.610; 1759.875;    0.000;    0.000
314.672; 1869.875;    0.000;    0.000
314.733; 1906.875;    0.000;    0.000
314.794; 1986.875;    0.000;    0.000
314.855; 2004.875;    0.000;    0.000
314.916; 2106.875;    0.000;    0.000
314.978; 2145.875;    0.000;    0.000
315.039; 2287.875;    0.000;    0.000
315.100; 2395.875;    0.000;    0.000
315.161; 2566.875;    0.000;    0.000
315.222; 2681.875;    0.000;    0.000
315.283; 2769.875;    0.000;    0.000
315.345; 3026.875;    0.000;    0.000
315.406; 3370.875;    0.000;    0.000
315.467; 3467.875;    0.000;    0.000
315.528; 4131.875;    0.000;    0.000
315.589; 4753.875;    0.000;    0.000
315.650; 5563.875;    0.000;    0.000
315.711; 7015.875;    0.000;    0.000
315.772; 9798.875;    0.000;    0.000
315.833;15986.875;    0.000;    0.000
315.894;21729.875;    0.000;    0.000
315.955;20836.875;    0.000;    0.000
316.016;16674.875;    0.000;    0.000
316.078;13629.875;    0.000;    0.000
316.139;11549.875;    0.000;    0.000
316.200; 9629.875;    0.000;    0.000
316.261; 8524.875;    0.000;    0.000
316.322; 7655.875;    0.000;    0.000
316.383; 6803.875;    0.000;    0.000
316.444; 6157.875;    0.000;    0.000
316.504; 5887.875;    0.000;    0.000
316.565; 5462.875;    0.000;    0.000
316.626; 5118.875;    0.000;    0.000
316.687; 4948.875;    0.000;    0.000
316.748; 4655.875;    0.000;    0.000
316.809; 4530.875;    0.000;    0.000
316.870; 4537.875;    0.000;    0.000
316.931; 4559.875;    0.000;    0.000
316.992; 4536.875;    0.000;    0.000
317.053; 4420.875;    0.000;    0.000
317.114; 4463.875;    0.000;    0.000
317.175; 4585.875;    0.000;    0.000
317.235; 4678.875;    0.000;    0.000
317.296; 4894.875;    0.000;    0.000
317.357; 5152.875;    0.000;    0.000
317.418; 5248.875;    0.000;    0.000
317.479; 5877.875;    0.000;    0.000
317.540; 6363.875;    0.000;    0.000
317.601; 7241.875;    0.000;    0.000
317.661; 8406.875;    0.000;    0.000
317.722;10150.875;    0.000;    0.000
317.783;13117.875;    0.000;    0.000
317.844;18604.875;    0.000;    0.000
317.904;27089.875;    0.000;    0.000
317.965;30803.875;    0.000;    0.000
318.026;28207.875;    0.000;    0.000
318.087;25113.875;    0.000;    0.000
318.148;22616.875;    0.000;    0.000
318.208;19545.875;    0.000;    0.000
318.269;15980.875;    0.000;    0.000
318.330;13906.875;    0.000;    0.000
318.390;12105.875;    0.000;    0.000
318.451;10808.875;    0.000;    0.000
318.512; 9729.875;    0.000;    0.000
318.572; 8770.875;    0.000;    0.000
318.633; 8145.875;    0.000;    0.000
318.694; 7389.875;    0.000;    0.000
318.754; 6846.875;    0.000;    0.000
318.815; 6331.875;    0.000;    0.000
318.876; 5811.875;    0.000;    0.000
318.936; 5569.875;    0.000;    0.000
318.997; 5283.875;    0.000;    0.000
319.058; 5053.875;    0.000;    0.000
319.118; 4784.875;    0.000;    0.000
319.179; 4426.875;    0.000;    0.000
319.239; 4311.875;    0.000;    0.000
319.300; 3974.875;    0.000;    0.000
319.361; 3851.875;    0.000;    0.000
319.421; 3756.875;    0.000;    0.000
319.482; 3603.875;    0.000;    0.000
319.542; 3482.875;    0.000;    0.000
319.603; 3361.875;    0.000;    0.000
319.663; 3198.875;    0.000;    0.000
319.724; 3148.875;    0.000;    0.000
319.784; 3044.875;    0.000;    0.000
319.845; 2987.875;    0.000;    0.000
319.905; 2935.875;    0.000;    0.000
319.966; 2793.875;    0.000;    0.000
320.026; 2740.875;    0.000;    0.000
320.087; 2700.875;    0.000;    0.000
320.147; 2578.875;    0.000;    0.000
320.208; 2526.875;    0.000;    0.000
320.268; 2515.875;    0.000;    0.000
320.329; 2580.875;    0.000;    0.000
320.389; 2398.875;    0.000;    0.000
320.449; 2437.875;    0.000;    0.000
320.510; 2325.875;    0.000;    0.000
320.570; 2242.875;    0.000;    0.000
320.631; 2226.875;    0.000;    0.000
320.691; 2165.875;    0.000;    0.000
320.751; 2175.875;    0.000;    0.000
320.812; 2149.875;    0.000;    0.000
320.872; 2173.875;    0.000;    0.000
320.932; 2065.875;    0.000;    0.000
320.993; 2057.875;    0.000;    0.000
321.053; 1978.875;    0.000;    0.000
321.113; 1997.875;    0.000;    0.000
321.174; 2073.875;    0.000;    0.000
321.234; 2031.875;    0.000;    0.000
321.294; 1953.875;    0.000;    0.000
321.355; 1915.875;    0.000;    0.000
321.415; 1959.875;    0.000;    0.000
321.475; 1867.875;    0.000;    0.000
321.535; 1930.875;    0.000;    0.000
321.596; 1875.875;    0.000;    0.000
321.656; 1858.875;    0.000;    0.000
321.716; 1852.875;    0.000;    0.000
321.776; 1850.875;    0.000;    0.000
321.837; 1853.875;    0.000;    0.000
321.897; 1752.875;    0.000;    0.000
321.957; 1715.875;    0.000;    0.000
322.017; 1716.875;    0.000;    0.000
322.077; 1721.875;    0.000;    0.000
322.138; 1739.875;    0.000;    0.000
322.198; 1688.875;    0.000;    0.000
322.258; 1758.875;    0.000;    0.000
322.318; 1708.875;    0.000;    0.000
322.378; 1747.875;    0.000;    0.000
322.438; 1636.875;    0.000;    0.000
322.499; 1692.875;    0.000;    0.000
322.559; 1657.875;    0.000;    0.000
322.619; 1636.875;    0.000;    0.000
322.679; 1654.875;    0.000;    0.000
322.739; 1636.875;    0.000;    0.000
322.799; 1630.875;    0.000;    0.000
322.859; 1593.875;    0.000;    0.000
322.919; 1564.875;    0.000;    0.000
322.979; 1625.875;    0.000;    0.000
323.039; 1570.875;    0.000;    0.000
323.099; 1625.875;    0.000;    0.000
323.159; 1599.875;    0.000;    0.000
323.219; 1528.875;    0.000;    0.000
323.279; 1525.875;    0.000;    0.000
323.339; 1561.875;    0.000;    0.000
323.399; 1505.875;    0.000;    0.000
323.459; 1604.875;    0.000;    0.000
323.519; 1520.875;    0.000;    0.000
323.579; 1551.875;    0.000;    0.000
323.639; 1551.875;    0.000;    0.000
323.699; 1463.875;    0.000;    0.000
323.759; 1570.875;    0.000;    0.000
323.819; 1552.875;    0.000;    0.000
323.879; 1558.875;    0.000;    0.000
323.939; 1492.875;    0.000;    0.000
323.999; 1490.875;    0.000;    0.000
324.059; 1481.875;    0.000;    0.000
324.119; 1462.875;    0.000;    0.000
324.179; 1451.875;    0.000;    0.000
324.238; 1376.875;    0.000;    0.000
324.298; 1367.875;    0.000;    0.000
324.358; 1415.875;    0.000;    0.000
324.418; 1465.875;    0.000;    0.000
324.478; 1414.875;    0.000;    0.000
324.538; 1402.875;    0.000;    0.000
324.597; 1368.875;    0.000;    0.000
324.657; 1418.875;    0.000;    0.000
324.717; 1417.875;    0.000;    0.000
324.777; 1493.875;    0.000;    0.000
324.837; 1385.875;    0.000;    0.000
324.896; 1394.875;    0.000;    0.000
324.956; 1415.875;    0.000;    0.000
325.016; 1391.875;    0.000;    0.000
325.076; 1365.875;    0.000;    0.000
325.135; 1343.875;    0.000;    0.000
325.195; 1341.875;    0.000;    0.000
325.255; 1354.875;    0.000;    0.000
325.315; 1442.875;    0.000;    0.000
325.374; 1391.875;    0.000;    0.000
325.434; 1378.875;    0.000;    0.000
325.494; 1349.875;    0.000;    0.000
325.553; 1365.875;    0.000;    0.000
325.613; 1429.875;    0.000;    0.000
325.673; 1364.875;    0.000;    0.000
325.732; 1369.875;    0.000;    0.000
325.792; 1329.875;    0.000;    0.000
325.852; 1281.875;    0.000;    0.000
325.911; 1369.875;    0.000;    0.000
325.971; 1364.875;    0.000;    0.000
326.031; 1323.875;    0.000;    0.000
326.090; 1301.875;    0.000;    0.000
326.150; 1303.875;    0.000;    0.000
326.209; 1319.875;    0.000;    0.000
326.269; 1382.875;    0.000;    0.000
326.328; 1306.875;    0.000;    0.000
326.388; 1299.875;    0.000;    0.000
326.448; 1404.875;    0.000;    0.000
326.507; 1362.875;    0.000;    0.000
326.567; 1231.875;    0.000;    0.000
326.626; 1345.875;    0.000;    0.000
326.686; 1290.875;    0.000;    0.000
326.745; 1352.875;    0.000;    0.000
326.805; 1311.875;    0.000;    0.000
326.864; 1350.875;    0.000;    0.000
326.924; 1331.875;    0.000;    0.000
326.983; 1337.875;    0.000;    0.000
327.043; 1376.875;    0.000;    0.000
327.102; 1220.875;    0.000;    0.000
327.161; 1305.875;    0.000;    0.000
327.221; 1324.875;    0.000;    0.000
327.280; 1305.875;    0.000;    0.000
327.340; 1322.875;    0.000;    0.000
327.399; 1344.875;    0.000;    0.000
327.459; 1287.875;    0.000;    0.000
327.518; 1284.875;    0.000;    0.000
327.577; 1243.875;    0.000;    0.000
327.637; 1301.875;    0.000;    0.000
327.696; 1264.875;    0.000;    0.000
327.755; 1330.875;    0.000;    0.000
327.815; 1304.875;    0.000;    0.000
327.874; 1412.875;    0.000;    0.000
327.933; 1305.875;    0.000;    0.000
327.993; 1220.875;    0.000;    0.000
328.052; 1231.875;    0.000;    0.000
328.111; 1294.875;    0.000;    0.000
328.171; 1312.875;    0.000;    0.000
328.230; 1275.875;    0.000;    0.000
328.289; 1294.875;    0.000;    0.000
328.349; 1322.875;    0.000;    0.000
328.408; 1275.875;    0.000;    0.000
328.467; 1260.875;    0.000;    0.000
328.526; 1244.875;    0.000;    0.000
328.586; 1301.875;    0.000;    0.000
328.645; 1259.875;    0.000;    0.000
328.704; 1240.875;    0.000;    0.000
328.763; 1282.875;    0.000;    0.000
328.822; 1234.875;    0.000;    0.000
328.882; 1227.875;    0.000;    0.000
328.941; 1226.875;    0.000;    0.000
329.000; 1224.875;    0.000;    0.000
329.059; 1273.875;    0.000;    0.000
329.118; 1317.875;    0.000;    0.000
329.177; 1292.875;    0.000;    0.000
329.237; 1299.875;    0.000;    0.000
329.296; 1272.875;    0.000;    0.000
329.355; 1279.875;    0.000;    0.000
329.414; 1263.875;    0.000;    0.000
329.473; 1324.875;    0.000;    0.000
329.532; 1296.875;    0.000;    0.000
329.591; 1228.875;    0.000;    0.000
329.650; 1270.875;    0.000;    0.000
329.709; 1260.875;    0.000;    0.000
329.768; 1274.875;    0.000;    0.000
329.827; 1306.875;    0.000;    0.000
329.886; 1314.875;    0.000;    0.000
329.945; 1339.875;    0.000;    0.000
330.004; 1304.875;    0.000;    0.000
330.063; 1247.875;    0.000;    0.000
330.122; 1309.875;    0.000;    0.000
330.181; 1295.875;    0.000;    0.000
330.240; 1208.875;    0.000;    0.000
330.299; 1262.875;    0.000;    0.000
330.358; 1222.875;    0.000;    0.000
330.417; 1267.875;    0.000;    0.000
330.476; 1236.875;    0.000;    0.000
330.535; 1266.875;    0.000;    0.000
330.594; 1245.875;    0.000;    0.000
330.653; 1187.875;    0.000;    0.000
330.712; 1292.875;    0.000;    0.000
330.771; 1260.875;    0.000;    0.000
330.830; 1231.875;    0.000;    0.000
330.889; 1227.875;    0.000;    0.000
330.948; 1294.875;    0.000;    0.000
331.006; 1252.875;    0.000;    0.000
331.065; 1246.875;    0.000;    0.000
331.124; 1272.875;    0.000;    0.000
331.183; 1258.875;    0.000;    0.000
331.242; 1241.875;    0.000;    0.000
331.301; 1250.875;    0.000;    0.000
331.359; 1229.875;    0.000;    0.000
331.418; 1178.875;    0.000;    0.000
331.477; 1311.875;    0.000;    0.000
331.536; 1227.875;    0.000;    0.000
331.595; 1247.875;    0.000;    0.000
331.653; 1185.875;    0.000;    0.000
331.712; 1187.875;    0.000;    0.000
331.771; 1254.875;    0.000;    0.000
331.830; 1248.875;    0.000;    0.000
331.888; 1178.875;    0.000;    0.000
331.947; 1239.875;    0.000;    0.000
332.006; 1226.875;    0.000;    0.000
332.065; 1193.875;    0.000;    0.000
332.123; 1196.875;    0.000;    0.000
332.182; 1227.875;    0.000;    0.000
332.241; 1190.875;    0.000;    0.000
332.299; 1243.875;    0.000;    0.000
332.358; 1285.875;    0.000;    0.000
332.417; 1218.875;    0.000;    0.000
332.475; 1282.875;    0.000;    0.000
332.534; 1271.875;    0.000;    0.000
332.592; 1266.875;    0.000;    0.000
332.651; 1307.875;    0.000;    0.000
332.710; 1267.875;    0.000;    0.000
332.768; 1289.875;    0.000;    0.000
332.827; 1222.875;    0.000;    0.000
332.885; 1285.875;    0.000;    0.000
332.944; 1166.875;    0.000;    0.000
333.003; 1240.875;    0.000;    0.000
333.061; 1277.875;    0.000;    0.000
333.120; 1265.875;    0.000;    0.000
333.178; 1265.875;    0.000;    0.000
333.237; 1317.875;    0.000;    0.000
333.295; 1358.875;    0.000;    0.000
333.354; 1295.875;    0.000;    0.000
333.412; 1267.875;    0.000;    0.000
333.471; 1349.875;    0.000;    0.000
333.529; 1323.875;    0.000;    0.000
333.588; 1359.875;    0.000;    0.000
333.646; 1346.875;    0.000;    0.000
333.705; 1392.875;    0.000;    0.000
333.763; 1329.875;    0.000;    0.000
333.822; 1286.875;    0.000;    0.000
333.880; 1328.875;    0.000;    0.000
333.938; 1341.875;    0.000;    0.000
333.997; 1376.875;    0.000;    0.000
334.055; 1375.875;    0.000;    0.000
334.114; 1401.875;    0.000;    0.000
334.172; 1338.875;    0.000;    0.000
334.230; 1299.875;    0.000;    0.000
334.289; 1358.875;    0.000;    0.000
334.347; 1368.875;    0.000;    0.000
334.405; 1391.875;    0.000;    0.000
334.464; 1349.875;    0.000;    0.000
334.522; 1360.875;    0.000;    0.000
334.580; 1291.875;    0.000;    0.000
334.639; 1306.875;    0.000;    0.000
334.697; 1274.875;    0.000;    0.000
334.755; 1395.875;    0.000;    0.000
334.814; 1400.875;    0.000;    0.000
334.872; 1336.875;    0.000;    0.000
334.930; 1395.875;    0.000;    0.000
334.988; 1399.875;    0.000;    0.000
335.047; 1334.875;    0.000;    0.000
335.105; 1340.875;    0.000;    0.000
335.163; 1324.875;    0.000;    0.000
335.221; 1356.875;    0.000;    0.000
335.280; 1330.875;    0.000;    0.000
335.338; 1359.875;    0.000;    0.000
335.396; 1388.875;    0.000;    0.000
335.454; 1286.875;    0.000;    0.000
335.512; 1332.875;    0.000;    0.000
335.570; 1319.875;    0.000;    0.000
335.629; 1382.875;    0.000;    0.000
335.687; 1396.875;    0.000;    0.000
335.745; 1367.875;    0.000;    0.000
335.803; 1324.875;    0.000;    0.000
335.861; 1376.875;    0.000;    0.000
335.919; 1415.875;    0.000;    0.000
335.977; 1378.875;    0.000;    0.000
336.035; 1476.875;    0.000;    0.000
336.094; 1454.875;    0.000;    0.000
336.152; 1442.875;    0.000;    0.000
336.210; 1464.875;    0.000;    0.000
336.268; 1435.875;    0.000;    0.000
336.326; 1442.875;    0.000;    0.000
336.384; 1419.875;    0.000;    0.000
336.442; 1347.875;    0.000;    0.000
336.500; 1318.875;    0.000;    0.000
336.558; 1318.875;    0.000;    0.000
336.616; 1339.875;    0.000;    0.000
336.674; 1276.875;    0.000;    0.000
336.732; 1364.875;    0.000;    0.000
336.790; 1283.875;    0.000;    0.000
336.848; 1319.875;    0.000;    0.000
336.906; 1364.875;    0.000;    0.000
336.964; 1364.875;    0.000;    0.000
337.022; 1372.875;    0.000;    0.000
337.080; 1454.875;    0.000;    0.000
337.138; 1324.875;    0.000;    0.000
337.195; 1372.875;    0.000;    0.000
337.253; 1366.875;    0.000;    0.000
337.311; 1324.875;    0.000;    0.000
337.369; 1365.875;    0.000;    0.000
337.427; 1280.875;    0.000;    0.000
337.485; 1292.875;    0.000;    0.000
337.543; 1341.875;    0.000;    0.000
337.601; 1312.875;    0.000;    0.000
337.658; 1335.875;    0.000;    0.000
337.716; 1368.875;    0.000;    0.000
337.774; 1380.875;    0.000;    0.000
337.832; 1337.875;    0.000;    0.000
337.890; 1296.875;    0.000;    0.000
337.947; 1302.875;    0.000;    0.000
338.005; 1354.875;    0.000;    0.000
338.063; 1252.875;    0.000;    0.000
338.121; 1299.875;    0.000;    0.000
338.178; 1308.875;    0.000;    0.000
338.236; 1327.875;    0.000;    0.000
338.294; 1359.875;    0.000;    0.000
338.352; 1282.875;    0.000;    0.000
338.409; 1308.875;    0.000;    0.000
338.467; 1328.875;    0.000;    0.000
338.525; 1260.875;    0.000;    0.000
338.583; 1304.875;    0.000;    0.000
338.640; 1265.875;    0.000;    0.000
338.698; 1238.875;    0.000;    0.000
338.756; 1284.875;    0.000;    0.000
338.813; 1320.875;    0.000;    0.000
338.871; 1384.875;    0.000;    0.000
338.928; 1335.875;    0.000;    0.000
338.986; 1353.875;    0.000;    0.000
339.044; 1432.875;    0.000;    0.000
339.101; 1318.875;    0.000;    0.000
339.159; 1276.875;    0.000;    0.000
339.217; 1302.875;    0.000;    0.000
339.274; 1307.875;    0.000;    0.000
339.332; 1304.875;    0.000;    0.000
339.389; 1389.875;    0.000;    0.000
339.447; 1302.875;    0.000;    0.000
339.504; 1335.875;    0.000;    0.000
339.562; 1320.875;    0.000;    0.000
339.619; 1310.875;    0.000;    0.000
339.677; 1355.875;    0.000;    0.000
339.734; 1279.875;    0.000;    0.000
339.792; 1282.875;    0.000;    0.000
339.849; 1304.875;    0.000;    0.000
339.907; 1357.875;    0.000;    0.000
339.964; 1286.875;    0.000;    0.000
340.022; 1296.875;    0.000;    0.000
340.079; 1357.875;    0.000;    0.000
340.137; 1306.875;    0.000;    0.000
340.194; 1311.875;    0.000;    0.000
340.252; 1289.875;    0.000;    0.000
340.309; 1252.875;    0.000;    0.000
340.366; 1261.875;    0.000;    0.000
340.424; 1261.875;    0.000;    0.000
340.481; 1262.875;    0.000;    0.000
340.538; 1249.875;    0.000;    0.000
340.596; 1300.875;    0.000;    0.000
340.653; 1307.875;    0.000;    0.000
340.711; 1373.875;    0.000;    0.000
340.768; 1335.875;    0.000;    0.000
340.825; 1357.875;    0.000;    0.000
340.883; 1264.875;    0.000;    0.000
340.940; 1336.875;    0.000;    0.000
340.997; 1239.875;    0.000;    0.000
341.054; 1312.875;    0.000;    0.000
341.112; 1355.875;    0.000;    0.000
341.169; 1390.875;    0.000;    0.000
341.226; 1336.875;    0.000;    0.000
341.284; 1368.875;    0.000;    0.000
341.341; 1296.875;    0.000;    0.000
341.398; 1292.875;    0.000;    0.000
341.455; 1311.875;    0.000;    0.000
341.512; 1364.875;    0.000;    0.000
341.570; 1262.875;    0.000;    0.000
341.627; 1370.875;    0.000;    0.000
341.684; 1348.875;    0.000;    0.000
341.741; 1358.875;    0.000;    0.000
341.798; 1300.875;    0.000;    0.000
341.856; 1333.875;    0.000;    0.000
341.913; 1301.875;    0.000;    0.000
341.970; 1288.875;    0.000;    0.000
342.027; 1351.875;    0.000;    0.000
342.084; 1354.875;    0.000;    0.000
342.141; 1345.875;    0.000;    0.000
342.198; 1355.875;    0.000;    0.000
342.255; 1322.875;    0.000;    0.000
342.313; 1364.875;    0.000;    0.000
342.370; 1303.875;    0.000;    0.000
342.427; 1329.875;    0.000;    0.000
342.484; 1336.875;    0.000;    0.000
342.541; 1239.875;    0.000;    0.000
342.598; 1338.875;    0.000;    0.000
342.655; 1296.875;    0.000;    0.000
342.712; 1319.875;    0.000;    0.000
342.769; 1320.875;    0.000;    0.000
342.826; 1294.875;    0.000;    0.000
342.883; 1325.875;    0.000;    0.000
342.940; 1276.875;    0.000;    0.000
342.997; 1308.875;    0.000;    0.000
343.054; 1370.875;    0.000;    0.000
343.111; 1281.875;    0.000;    0.000
343.168; 1307.875;    0.000;    0.000
343.225; 1312.875;    0.000;    0.000
343.282; 1354.875;    0.000;    0.000
343.339; 1367.875;    0.000;    0.000
343.395; 1389.875;    0.000;    0.000
343.452; 1368.875;    0.000;    0.000
343.509; 1360.875;    0.000;    0.000
343.566; 1445.875;    0.000;    0.000
343.623; 1404.875;    0.000;    0.000
343.680; 1375.875;    0.000;    0.000
343.737; 1320.875;    0.000;    0.000
343.794; 1380.875;    0.000;    0.000
343.850; 1383.875;    0.000;    0.000
343.907; 1412.875;    0.000;    0.000
343.964; 1456.875;    0.000;    0.000
344.021; 1418.875;    0.000;    0.000
344.078; 1446.875;    0.000;    0.000
344.134; 1410.875;    0.000;    0.000
344.191; 1432.875;    0.000;    0.000
344.248; 1414.875;    0.000;    0.000
344.305; 1383.875;    0.000;    0.000
344.361; 1385.875;    0.000;    0.000
344.418; 1435.875;    0.000;    0.000
344.475; 1394.875;    0.000;    0.000
344.532; 1435.875;    0.000;    0.000
344.588; 1428.875;    0.000;    0.000
344.645; 1429.875;    0.000;    0.000
344.702; 1386.875;    0.000;    0.000
344.758; 1403.875;    0.000;    0.000
344.815; 1424.875;    0.000;    0.000
344.872; 1436.875;    0.000;    0.000
344.928; 1475.875;    0.000;    0.000
344.985; 1425.875;    0.000;    0.000
345.042; 1424.875;    0.000;    0.000
345.098; 1392.875;    0.000;    0.000
345.155; 1460.875;    0.000;    0.000
345.212; 1364.875;    0.000;    0.000
345.268; 1385.875;    0.000;    0.000
345.325; 1330.875;    0.000;    0.000
345.381; 1386.875;    0.000;    0.000
345.438; 1378.875;    0.000;    0.000
345.495; 1404.875;    0.000;    0.000
345.551; 1457.875;    0.000;    0.000
345.608; 1317.875;    0.000;    0.000
345.664; 1373.875;    0.000;    0.000
345.721; 1389.875;    0.000;    0.000
345.777; 1366.875;    0.000;    0.000
345.834; 1363.875;    0.000;    0.000
345.890; 1299.875;    0.000;    0.000
345.947; 1389.875;    0.000;    0.000
346.003; 1383.875;    0.000;    0.000
346.060; 1361.875;    0.000;    0.000
346.116; 1414.875;    0.000;    0.000
346.173; 1352.875;    0.000;    0.000
346.229; 1377.875;    0.000;    0.000
346.285; 1396.875;    0.000;    0.000
346.342; 1407.875;    0.000;    0.000
346.398; 1405.875;    0.000;    0.000
346.455; 1452.875;    0.000;    0.000
346.511; 1453.875;    0.000;    0.000
346.567; 1414.875;    0.000;    0.000
346.624; 1426.875;    0.000;    0.000
346.680; 1459.875;    0.000;    0.000
346.737; 1454.875;    0.000;    0.000
346.793; 1451.875;    0.000;    0.000
346.849; 1523.875;    0.000;    0.000
346.906; 1473.875;    0.000;    0.000
346.962; 1440.875;    0.000;    0.000
347.018; 1403.875;    0.000;    0.000
347.074; 1438.875;    0.000;    0.000
347.131; 1418.875;    0.000;    0.000
347.187; 1375.875;    0.000;    0.000
347.243; 1412.875;    0.000;    0.000
347.300; 1430.875;    0.000;    0.000
347.356; 1451.875;    0.000;    0.000
347.412; 1419.875;    0.000;    0.000
347.468; 1460.875;    0.000;    0.000
347.524; 1386.875;    0.000;    0.000
347.581; 1395.875;    0.000;    0.000
347.637; 1412.875;    0.000;    0.000
347.693; 1476.875;    0.000;    0.000
347.749; 1422.875;    0.000;    0.000
347.805; 1343.875;    0.000;    0.000
347.862; 1418.875;    0.000;    0.000
347.918; 1482.875;    0.000;    0.000
347.974; 1480.875;    0.000;    0.000
348.030; 1397.875;    0.000;    0.000
348.086; 1444.875;    0.000;    0.000
348.142; 1423.875;    0.000;    0.000
348.198; 1479.875;    0.000;    0.000
348.254; 1496.875;    0.000;    0.000
348.311; 1447.875;    0.000;    0.000
348.367; 1438.875;    0.000;    0.000
348.423; 1456.875;    0.000;    0.000
348.479; 1434.875;    0.000;    0.000
348.535; 1372.875;    0.000;    0.000
348.591; 1416.875;    0.000;    0.000
348.647; 1463.875;    0.000;    0.000
348.703; 1474.875;    0.000;    0.000
348.759; 1497.875;    0.000;    0.000
348.815; 1512.875;    0.000;    0.000
348.871; 1428.875;    0.000;    0.000
348.927; 1474.875;    0.000;    0.000
348.983; 1521.875;    0.000;    0.000
349.039; 1483.875;    0.000;    0.000
349.095; 1442.875;    0.000;    0.000
349.151; 1472.875;    0.000;    0.000
349.207; 1427.875;    0.000;    0.000
349.263; 1447.875;    0.000;    0.000
349.319; 1446.875;    0.000;    0.000
349.374; 1427.875;    0.000;    0.000
349.430; 1482.875;    0.000;    0.000
349.486; 1476.875;    0.000;    0.000
349.542; 1500.875;    0.000;    0.000
349.598; 1485.875;    0.000;    0.000
349.654; 1472.875;    0.000;    0.000
349.710; 1473.875;    0.000;    0.000
349.766; 1414.875;    0.000;    0.000
349.821; 1476.875;    0.000;    0.000
349.877; 1469.875;    0.000;    0.000
349.933; 1462.875;    0.000;    0.000
349.989; 1477.875;    0.000;    0.000
350.045; 1459.875;    0.000;    0.000
350.100; 1442.875;    0.000;    0.000
350.156; 1455.875;    0.000;    0.000
350.212; 1429.875;    0.000;    0.000
350.268; 1423.875;    0.000;    0.000
350.323; 1420.875;    0.000;    0.000
350.379; 1441.875;    0.000;    0.000
350.435; 1448.875;    0.000;    0.000
350.491; 1361.875;    0.000;    0.000
350.546; 1470.875;    0.000;    0.000
350.602; 1440.875;    0.000;    0.000
350.658; 1493.875;    0.000;    0.000
350.713; 1462.875;    0.000;    0.000
350.769; 1387.875;    0.000;    0.000
350.825; 1383.875;    0.000;    0.000
350.880; 1408.875;    0.000;    0.000
350.936; 1529.875;    0.000;    0.000
350.992; 1467.875;    0.000;    0.000
351.047; 1420.875;    0.000;    0.000
351.103; 1460.875;    0.000;    0.000
351.158; 1464.875;    0.000;    0.000
351.214; 1441.875;    0.000;    0.000
351.270; 1422.875;    0.000;    0.000
351.325; 1412.875;    0.000;    0.000
351.381; 1382.875;    0.000;    0.000
351.436; 1426.875;    0.000;    0.000
351.492; 1413.875;    0.000;    0.000
351.547; 1551.875;    0.000;    0.000
351.603; 1424.875;    0.000;    0.000
351.658; 1431.875;    0.000;    0.000
351.714; 1529.875;    0.000;    0.000
351.769; 1455.875;    0.000;    0.000
351.825; 1440.875;    0.000;    0.000
351.880; 1432.875;    0.000;    0.000
351.936; 1484.875;    0.000;    0.000
351.991; 1511.875;    0.000;    0.000
352.047; 1586.875;    0.000;    0.000
352.102; 1446.875;    0.000;    0.000
352.157; 1442.875;    0.000;    0.000
352.213; 1460.875;    0.000;    0.000
352.268; 1448.875;    0.000;    0.000
352.324; 1453.875;    0.000;    0.000
352.379; 1523.875;    0.000;    0.000
352.434; 1509.875;    0.000;    0.000
352.490; 1474.875;    0.000;    0.000
352.545; 1464.875;    0.000;    0.000
352.601; 1483.875;    0.000;    0.000
352.656; 1396.875;    0.000;    0.000
352.711; 1361.875;    0.000;    0.000
352.767; 1361.875;    0.000;    0.000
352.822; 1462.875;    0.000;    0.000
352.877; 1422.875;    0.000;    0.000
352.932; 1454.875;    0.000;    0.000
352.988; 1503.875;    0.000;    0.000
353.043; 1435.875;    0.000;    0.000
353.098; 1417.875;    0.000;    0.000
353.153; 1495.875;    0.000;    0.000
353.209; 1483.875;    0.000;    0.000
353.264; 1494.875;    0.000;    0.000
353.319; 1458.875;    0.000;    0.000
353.374; 1425.875;    0.000;    0.000
353.430; 1490.875;    0.000;    0.000
353.485; 1466.875;    0.000;    0.000
353.540; 1439.875;    0.000;    0.000
353.595; 1495.875;    0.000;    0.000
353.650; 1481.875;    0.000;    0.000
353.705; 1491.875;    0.000;    0.000
353.761; 1459.875;    0.000;    0.000
353.816; 1462.875;    0.000;    0.000
353.871; 1486.875;    0.000;    0.000
353.926; 1469.875;    0.000;    0.000
353.981; 1482.875;    0.000;    0.000
354.036; 1522.875;    0.000;    0.000
354.091; 1467.875;    0.000;    0.000
354.146; 1499.875;    0.000;    0.000
354.201; 1445.875;    0.000;    0.000
354.256; 1465.875;    0.000;    0.000
354.311; 1495.875;    0.000;    0.000
354.367; 1508.875;    0.000;    0.000
354.422; 1432.875;    0.000;    0.000
354.477; 1455.875;    0.000;    0.000
354.532; 1413.875;    0.000;    0.000
354.587; 1498.875;    0.000;    0.000
354.642; 1496.875;    0.000;    0.000
354.697; 1524.875;    0.000;    0.000
354.752; 1558.875;    0.000;    0.000
354.806; 1489.875;    0.000;    0.000
354.861; 1511.875;    0.000;    0.000
354.916; 1504.875;    0.000;    0.000
354.971; 1448.875;    0.000;    0.000
355.026; 1499.875;    0.000;    0.000
355.081; 1485.875;    0.000;    0.000
355.136; 1470.875;    0.000;    0.000
355.191; 1532.875;    0.000;    0.000
355.246; 1464.875;    0.000;    0.000
355.301; 1542.875;    0.000;    0.000
355.356; 1481.875;    0.000;    0.000
355.410; 1519.875;    0.000;    0.000
355.465; 1494.875;    0.000;    0.000
355.520; 1472.875;    0.000;    0.000
355.575; 1489.875;    0.000;    0.000
355.630; 1457.875;    0.000;    0.000
355.684; 1468.875;    0.000;    0.000
355.739; 1493.875;    0.000;    0.000
355.794; 1514.875;    0.000;    0.000
355.849; 1503.875;    0.000;    0.000
355.904; 1489.875;    0.000;    0.000
355.958; 1448.875;    0.000;    0.000
356.013; 1441.875;    0.000;    0.000
356.068; 1475.875;    0.000;    0.000
356.123; 1454.875;    0.000;    0.000
356.177; 1509.875;    0.000;    0.000
356.232; 1436.875;    0.000;    0.000
356.287; 1509.875;    0.000;    0.000
356.341; 1482.875;    0.000;    0.000
356.396; 1475.875;    0.000;    0.000
356.451; 1593.875;    0.000;    0.000
356.505; 1472.875;    0.000;    0.000
356.560; 1525.875;    0.000;    0.000
356.615; 1487.875;    0.000;    0.000
356.669; 1508.875;    0.000;    0.000
356.724; 1497.875;    0.000;    0.000
356.778; 1522.875;    0.000;    0.000
356.833; 1471.875;    0.000;    0.000
356.888; 1488.875;    0.000;    0.000
356.942; 1408.875;    0.000;    0.000
356.997; 1463.875;    0.000;    0.000
357.051; 1543.875;    0.000;    0.000
357.106; 1448.875;    0.000;    0.000
357.160; 1450.875;    0.000;    0.000
357.215; 1482.875;    0.000;    0.000
357.269; 1542.875;    0.000;    0.000
357.324; 1482.875;    0.000;    0.000
357.378; 1484.875;    0.000;    0.000
357.433; 1523.875;    0.000;    0.000
357.487; 1471.875;    0.000;    0.000
357.542; 1535.875;    0.000;    0.000
357.596; 1583.875;    0.000;    0.000
357.651; 1540.875;    0.000;    0.000
357.705; 1478.875;    0.000;    0.000
357.760; 1414.875;    0.000;    0.000
357.814; 1494.875;    0.000;    0.000
357.868; 1496.875;    0.000;    0.000
357.923; 1532.875;    0.000;    0.000
357.977; 1501.875;    0.000;    0.000
358.032; 1511.875;    0.000;    0.000
358.086; 1485.875;    0.000;    0.000
358.140; 1530.875;    0.000;    0.000
358.195; 1536.875;    0.000;    0.000
358.249; 1487.875;    0.000;    0.000
358.303; 1544.875;    0.000;    0.000
358.358; 1453.875;    0.000;    0.000
358.412; 1485.875;    0.000;    0.000
358.466; 1482.875;    0.000;    0.000
358.521; 1472.875;    0.000;    0.000
358.575; 1502.875;    0.000;    0.000
358.629; 1477.875;    0.000;    0.000
358.683; 1409.875;    0.000;    0.000
358.738; 1475.875;    0.000;    0.000
358.792; 1448.875;    0.000;    0.000
358.846; 1603.875;    0.000;    0.000
358.900; 1461.875;    0.000;    0.000
358.954; 1525.875;    0.000;    0.000
359.009; 1510.875;    0.000;    0.000
359.063; 1518.875;    0.000;    0.000
359.117; 1462.875;    0.000;    0.000
359.171; 1491.875;    0.000;    0.000
359.225; 1443.875;    0.000;    0.000
359.280; 1513.875;    0.000;    0.000
359.334; 1531.875;    0.000;    0.000
359.388; 1575.875;    0.000;    0.000
359.442; 1514.875;    0.000;    0.000
359.496; 1458.875;    0.000;    0.000
359.550; 1501.875;    0.000;    0.000
359.604; 1466.875;    0.000;    0.000
359.658; 1514.875;    0.000;    0.000
359.712; 1521.875;    0.000;    0.000
359.766; 1463.875;    0.000;    0.000
359.820; 1459.875;    0.000;    0.000
359.875; 1545.875;    0.000;    0.000
359.929; 1537.875;    0.000;    0.000
359.983; 1481.875;    0.000;    0.000
360.037; 1498.875;    0.000;    0.000
360.091; 1494.875;    0.000;    0.000
360.145; 1509.875;    0.000;    0.000
360.199; 1469.875;    0.000;    0.000
360.253; 1491.875;    0.000;    0.000
360.306; 1515.875;    0.000;    0.000
360.360; 1501.875;    0.000;    0.000
360.414; 1513.875;    0.000;    0.000
360.468; 1523.875;    0.000;    0.000
360.522; 1508.875;    0.000;    0.000
360.576; 1552.875;    0.000;    0.000
360.630; 1551.875;    0.000;    0.000
360.684; 1505.875;    0.000;    0.000
360.738; 1538.875;    0.000;    0.000
360.792; 1512.875;    0.000;    0.000
360.846; 1496.875;    0.000;    0.000
360.899; 1508.875;    0.000;    0.000
360.953; 1481.875;    0.000;    0.000
361.007; 1533.875;    0.000;    0.000
361.061; 1480.875;    0.000;    0.000
361.115; 1526.875;    0.000;    0.000
361.168; 1566.875;    0.000;    0.000
361.222; 1487.875;    0.000;    0.000
361.276; 1519.875;    0.000;    0.000
361.330; 1536.875;    0.000;    0.000
361.384; 1531.875;    0.000;    0.000
361.437; 1589.875;    0.000;    0.000
361.491; 1510.875;    0.000;    0.000
361.545; 1524.875;    0.000;    0.000
361.599; 1558.875;    0.000;    0.000
361.652; 1536.875;    0.000;    0.000
361.706; 1513.875;    0.000;    0.000
361.760; 1549.875;    0.000;    0.000
361.813; 1628.875;    0.000;    0.000
361.867; 1581.875;    0.000;    0.000
361.921; 1546.875;    0.000;    0.000
361.974; 1511.875;    0.000;    0.000
362.028; 1577.875;    0.000;    0.000
362.082; 1598.875;    0.000;    0.000
362.135; 1549.875;    0.000;    0.000
362.189; 1589.875;    0.000;    0.000
362.242; 1636.875;    0.000;    0.000
362.296; 1663.875;    0.000;    0.000
362.350; 1751.875;    0.000;    0.000
362.403; 1743.875;    0.000;    0.000
362.457; 1653.875;    0.000;    0.000
362.510; 1562.875;    0.000;    0.000
362.564; 1476.875;    0.000;    0.000
362.617; 1578.875;    0.000;    0.000
362.671; 1626.875;    0.000;    0.000
362.724; 1607.875;    0.000;    0.000
362.778; 1615.875;    0.000;    0.000
362.831; 1694.875;    0.000;    0.000
362.885; 1745.875;    0.000;    0.000
362.938; 1739.875;    0.000;    0.000
362.992;  332.875;    0.000;    0.000
363.045;  292.875;    0.000;    0.000
363.099;  295.875;    0.000;    0.000
363.152;  283.875;    0.000;    0.000
363.205;  308.875;    0.000;    0.000
363.259;  276.875;    0.000;    0.000
363.312;  282.875;    0.000;    0.000
363.366;  328.875;    0.000;    0.000
363.419;  298.875;    0.000;    0.000
363.472;  318.875;    0.000;    0.000
363.526;  306.875;    0.000;    0.000
363.579;  295.875;    0.000;    0.000
363.632;  294.875;    0.000;    0.000
363.686;  293.875;    0.000;    0.000
363.739;  287.875;    0.000;    0.000
363.792;  311.875;    0.000;    0.000

