Yeso_posicion2_Burst5-n5
Integration time [ms]:   1.000
Averaging Nr. [scans]: 1
Smoothing Nr. [pixels]: 0
Data measured with spectrometer [name]: UV2
Wave   ;Sample   ;Dark     ;Reference
[nm]   ;[counts] ;[counts] ;[counts] 

353.533;  224.175;    0.000;    0.000
353.597;  260.175;    0.000;    0.000
353.660;  250.175;    0.000;    0.000
353.723;  186.175;    0.000;    0.000
353.786;  188.175;    0.000;    0.000
353.850;  230.175;    0.000;    0.000
353.913;  188.175;    0.000;    0.000
353.976;  199.175;    0.000;    0.000
354.039;  179.175;    0.000;    0.000
354.102;  208.175;    0.000;    0.000
354.166;  215.175;    0.000;    0.000
354.229;  226.175;    0.000;    0.000
354.292;  192.175;    0.000;    0.000
354.355;  196.175;    0.000;    0.000
354.418;  212.175;    0.000;    0.000
354.481;  216.175;    0.000;    0.000
354.545;  351.175;    0.000;    0.000
354.608;  384.175;    0.000;    0.000
354.671;  376.175;    0.000;    0.000
354.734;  380.175;    0.000;    0.000
354.797;  400.175;    0.000;    0.000
354.860;  424.175;    0.000;    0.000
354.923;  384.175;    0.000;    0.000
354.986;  380.175;    0.000;    0.000
355.050;  414.175;    0.000;    0.000
355.113;  386.175;    0.000;    0.000
355.176;  424.175;    0.000;    0.000
355.239;  416.175;    0.000;    0.000
355.302;  362.175;    0.000;    0.000
355.365;  403.175;    0.000;    0.000
355.428;  401.175;    0.000;    0.000
355.491;  484.175;    0.000;    0.000
355.554;  388.175;    0.000;    0.000
355.617;  437.175;    0.000;    0.000
355.680;  428.175;    0.000;    0.000
355.743;  379.175;    0.000;    0.000
355.806;  386.175;    0.000;    0.000
355.869;  484.175;    0.000;    0.000
355.932;  399.175;    0.000;    0.000
355.995;  468.175;    0.000;    0.000
356.058;  424.175;    0.000;    0.000
356.121;  487.175;    0.000;    0.000
356.184;  464.175;    0.000;    0.000
356.247;  428.175;    0.000;    0.000
356.310;  396.175;    0.000;    0.000
356.373;  468.175;    0.000;    0.000
356.436;  430.175;    0.000;    0.000
356.498;  486.175;    0.000;    0.000
356.561;  396.175;    0.000;    0.000
356.624;  474.175;    0.000;    0.000
356.687;  436.175;    0.000;    0.000
356.750;  459.175;    0.000;    0.000
356.813;  401.175;    0.000;    0.000
356.876;  422.175;    0.000;    0.000
356.939;  443.175;    0.000;    0.000
357.001;  512.175;    0.000;    0.000
357.064;  444.175;    0.000;    0.000
357.127;  451.175;    0.000;    0.000
357.190;  415.175;    0.000;    0.000
357.253;  460.175;    0.000;    0.000
357.316;  452.175;    0.000;    0.000
357.378;  450.175;    0.000;    0.000
357.441;  468.175;    0.000;    0.000
357.504;  488.175;    0.000;    0.000
357.567;  404.175;    0.000;    0.000
357.629;  460.175;    0.000;    0.000
357.692;  415.175;    0.000;    0.000
357.755;  452.175;    0.000;    0.000
357.818;  438.175;    0.000;    0.000
357.880;  466.175;    0.000;    0.000
357.943;  456.175;    0.000;    0.000
358.006;  448.175;    0.000;    0.000
358.069;  470.175;    0.000;    0.000
358.131;  455.175;    0.000;    0.000
358.194;  455.175;    0.000;    0.000
358.257;  478.175;    0.000;    0.000
358.319;  416.175;    0.000;    0.000
358.382;  425.175;    0.000;    0.000
358.445;  470.175;    0.000;    0.000
358.507;  500.175;    0.000;    0.000
358.570;  455.175;    0.000;    0.000
358.633;  480.175;    0.000;    0.000
358.695;  495.175;    0.000;    0.000
358.758;  469.175;    0.000;    0.000
358.821;  468.175;    0.000;    0.000
358.883;  448.175;    0.000;    0.000
358.946;  458.175;    0.000;    0.000
359.008;  484.175;    0.000;    0.000
359.071;  483.175;    0.000;    0.000
359.134;  424.175;    0.000;    0.000
359.196;  446.175;    0.000;    0.000
359.259;  457.175;    0.000;    0.000
359.321;  440.175;    0.000;    0.000
359.384;  498.175;    0.000;    0.000
359.446;  488.175;    0.000;    0.000
359.509;  467.175;    0.000;    0.000
359.571;  479.175;    0.000;    0.000
359.634;  468.175;    0.000;    0.000
359.696;  483.175;    0.000;    0.000
359.759;  518.175;    0.000;    0.000
359.821;  464.175;    0.000;    0.000
359.884;  464.175;    0.000;    0.000
359.946;  486.175;    0.000;    0.000
360.009;  498.175;    0.000;    0.000
360.071;  471.175;    0.000;    0.000
360.134;  494.175;    0.000;    0.000
360.196;  480.175;    0.000;    0.000
360.259;  539.175;    0.000;    0.000
360.321;  455.175;    0.000;    0.000
360.384;  480.175;    0.000;    0.000
360.446;  467.175;    0.000;    0.000
360.508;  470.175;    0.000;    0.000
360.571;  498.175;    0.000;    0.000
360.633;  502.175;    0.000;    0.000
360.696;  496.175;    0.000;    0.000
360.758;  492.175;    0.000;    0.000
360.820;  497.175;    0.000;    0.000
360.883;  539.175;    0.000;    0.000
360.945;  517.175;    0.000;    0.000
361.007;  472.175;    0.000;    0.000
361.070;  472.175;    0.000;    0.000
361.132;  533.175;    0.000;    0.000
361.194;  508.175;    0.000;    0.000
361.257;  531.175;    0.000;    0.000
361.319;  536.175;    0.000;    0.000
361.381;  522.175;    0.000;    0.000
361.443;  475.175;    0.000;    0.000
361.506;  536.175;    0.000;    0.000
361.568;  506.175;    0.000;    0.000
361.630;  516.175;    0.000;    0.000
361.693;  529.175;    0.000;    0.000
361.755;  524.175;    0.000;    0.000
361.817;  548.175;    0.000;    0.000
361.879;  545.175;    0.000;    0.000
361.941;  506.175;    0.000;    0.000
362.004;  557.175;    0.000;    0.000
362.066;  538.175;    0.000;    0.000
362.128;  498.175;    0.000;    0.000
362.190;  567.175;    0.000;    0.000
362.252;  543.175;    0.000;    0.000
362.315;  537.175;    0.000;    0.000
362.377;  589.175;    0.000;    0.000
362.439;  567.175;    0.000;    0.000
362.501;  540.175;    0.000;    0.000
362.563;  532.175;    0.000;    0.000
362.625;  559.175;    0.000;    0.000
362.688;  553.175;    0.000;    0.000
362.750;  594.175;    0.000;    0.000
362.812;  556.175;    0.000;    0.000
362.874;  564.175;    0.000;    0.000
362.936;  596.175;    0.000;    0.000
362.998;  611.175;    0.000;    0.000
363.060;  657.175;    0.000;    0.000
363.122;  574.175;    0.000;    0.000
363.184;  580.175;    0.000;    0.000
363.246;  572.175;    0.000;    0.000
363.308;  538.175;    0.000;    0.000
363.370;  573.175;    0.000;    0.000
363.432;  547.175;    0.000;    0.000
363.494;  560.175;    0.000;    0.000
363.556;  506.175;    0.000;    0.000
363.618;  569.175;    0.000;    0.000
363.680;  611.175;    0.000;    0.000
363.742;  566.175;    0.000;    0.000
363.804;  568.175;    0.000;    0.000
363.866;  645.175;    0.000;    0.000
363.928;  537.175;    0.000;    0.000
363.990;  600.175;    0.000;    0.000
364.052;  557.175;    0.000;    0.000
364.114;  586.175;    0.000;    0.000
364.176;  651.175;    0.000;    0.000
364.238;  629.175;    0.000;    0.000
364.300;  610.175;    0.000;    0.000
364.362;  711.175;    0.000;    0.000
364.424;  645.175;    0.000;    0.000
364.486;  706.175;    0.000;    0.000
364.548;  603.175;    0.000;    0.000
364.609;  601.175;    0.000;    0.000
364.671;  660.175;    0.000;    0.000
364.733;  565.175;    0.000;    0.000
364.795;  619.175;    0.000;    0.000
364.857;  582.175;    0.000;    0.000
364.919;  579.175;    0.000;    0.000
364.981;  582.175;    0.000;    0.000
365.042;  627.175;    0.000;    0.000
365.104;  628.175;    0.000;    0.000
365.166;  553.175;    0.000;    0.000
365.228;  630.175;    0.000;    0.000
365.290;  587.175;    0.000;    0.000
365.351;  612.175;    0.000;    0.000
365.413;  588.175;    0.000;    0.000
365.475;  627.175;    0.000;    0.000
365.537;  615.175;    0.000;    0.000
365.598;  612.175;    0.000;    0.000
365.660;  580.175;    0.000;    0.000
365.722;  664.175;    0.000;    0.000
365.784;  652.175;    0.000;    0.000
365.845;  592.175;    0.000;    0.000
365.907;  580.175;    0.000;    0.000
365.969;  644.175;    0.000;    0.000
366.030;  646.175;    0.000;    0.000
366.092;  634.175;    0.000;    0.000
366.154;  654.175;    0.000;    0.000
366.215;  634.175;    0.000;    0.000
366.277;  638.175;    0.000;    0.000
366.339;  673.175;    0.000;    0.000
366.400;  601.175;    0.000;    0.000
366.462;  631.175;    0.000;    0.000
366.524;  639.175;    0.000;    0.000
366.585;  609.175;    0.000;    0.000
366.647;  647.175;    0.000;    0.000
366.708;  629.175;    0.000;    0.000
366.770;  642.175;    0.000;    0.000
366.832;  660.175;    0.000;    0.000
366.893;  683.175;    0.000;    0.000
366.955;  700.175;    0.000;    0.000
367.016;  699.175;    0.000;    0.000
367.078;  663.175;    0.000;    0.000
367.139;  644.175;    0.000;    0.000
367.201;  640.175;    0.000;    0.000
367.262;  720.175;    0.000;    0.000
367.324;  640.175;    0.000;    0.000
367.385;  638.175;    0.000;    0.000
367.447;  714.175;    0.000;    0.000
367.508;  690.175;    0.000;    0.000
367.570;  668.175;    0.000;    0.000
367.631;  640.175;    0.000;    0.000
367.693;  675.175;    0.000;    0.000
367.754;  655.175;    0.000;    0.000
367.816;  693.175;    0.000;    0.000
367.877;  738.175;    0.000;    0.000
367.939;  736.175;    0.000;    0.000
368.000;  680.175;    0.000;    0.000
368.062;  714.175;    0.000;    0.000
368.123;  683.175;    0.000;    0.000
368.184;  687.175;    0.000;    0.000
368.246;  690.175;    0.000;    0.000
368.307;  706.175;    0.000;    0.000
368.369;  731.175;    0.000;    0.000
368.430;  724.175;    0.000;    0.000
368.491;  716.175;    0.000;    0.000
368.553;  727.175;    0.000;    0.000
368.614;  723.175;    0.000;    0.000
368.675;  712.175;    0.000;    0.000
368.737;  742.175;    0.000;    0.000
368.798;  738.175;    0.000;    0.000
368.859;  794.175;    0.000;    0.000
368.921;  758.175;    0.000;    0.000
368.982;  706.175;    0.000;    0.000
369.043;  789.175;    0.000;    0.000
369.104;  767.175;    0.000;    0.000
369.166;  773.175;    0.000;    0.000
369.227;  781.175;    0.000;    0.000
369.288;  839.175;    0.000;    0.000
369.349;  825.175;    0.000;    0.000
369.411;  848.175;    0.000;    0.000
369.472;  815.175;    0.000;    0.000
369.533;  843.175;    0.000;    0.000
369.594;  800.175;    0.000;    0.000
369.656;  869.175;    0.000;    0.000
369.717;  748.175;    0.000;    0.000
369.778;  862.175;    0.000;    0.000
369.839;  874.175;    0.000;    0.000
369.900;  900.175;    0.000;    0.000
369.961;  847.175;    0.000;    0.000
370.023;  900.175;    0.000;    0.000
370.084;  933.175;    0.000;    0.000
370.145;  949.175;    0.000;    0.000
370.206;  906.175;    0.000;    0.000
370.267;  964.175;    0.000;    0.000
370.328; 1016.175;    0.000;    0.000
370.389; 1155.175;    0.000;    0.000
370.451; 1237.175;    0.000;    0.000
370.512; 1679.175;    0.000;    0.000
370.573; 2248.175;    0.000;    0.000
370.634; 2568.175;    0.000;    0.000
370.695; 2352.175;    0.000;    0.000
370.756; 1965.175;    0.000;    0.000
370.817; 1744.175;    0.000;    0.000
370.878; 1662.175;    0.000;    0.000
370.939; 1432.175;    0.000;    0.000
371.000; 1354.175;    0.000;    0.000
371.061; 1331.175;    0.000;    0.000
371.122; 1230.175;    0.000;    0.000
371.183; 1139.175;    0.000;    0.000
371.244; 1164.175;    0.000;    0.000
371.305; 1117.175;    0.000;    0.000
371.366; 1178.175;    0.000;    0.000
371.427; 1013.175;    0.000;    0.000
371.488; 1106.175;    0.000;    0.000
371.549; 1026.175;    0.000;    0.000
371.610; 1037.175;    0.000;    0.000
371.671; 1009.175;    0.000;    0.000
371.732;  985.175;    0.000;    0.000
371.793; 1065.175;    0.000;    0.000
371.853; 1011.175;    0.000;    0.000
371.914;  975.175;    0.000;    0.000
371.975;  933.175;    0.000;    0.000
372.036; 1003.175;    0.000;    0.000
372.097;  941.175;    0.000;    0.000
372.158;  968.175;    0.000;    0.000
372.219;  990.175;    0.000;    0.000
372.280;  981.175;    0.000;    0.000
372.340;  962.175;    0.000;    0.000
372.401; 1005.175;    0.000;    0.000
372.462;  990.175;    0.000;    0.000
372.523;  941.175;    0.000;    0.000
372.584;  991.175;    0.000;    0.000
372.645;  999.175;    0.000;    0.000
372.705; 1049.175;    0.000;    0.000
372.766;  985.175;    0.000;    0.000
372.827;  963.175;    0.000;    0.000
372.888; 1020.175;    0.000;    0.000
372.948;  996.175;    0.000;    0.000
373.009; 1079.175;    0.000;    0.000
373.070; 1083.175;    0.000;    0.000
373.131; 1076.175;    0.000;    0.000
373.191; 1218.175;    0.000;    0.000
373.252; 1186.175;    0.000;    0.000
373.313; 1268.175;    0.000;    0.000
373.373; 1352.175;    0.000;    0.000
373.434; 1614.175;    0.000;    0.000
373.495; 1653.175;    0.000;    0.000
373.555; 2045.175;    0.000;    0.000
373.616; 2792.175;    0.000;    0.000
373.677; 3794.175;    0.000;    0.000
373.737; 4211.175;    0.000;    0.000
373.798; 3555.175;    0.000;    0.000
373.859; 3079.175;    0.000;    0.000
373.919; 2602.175;    0.000;    0.000
373.980; 2345.175;    0.000;    0.000
374.041; 2116.175;    0.000;    0.000
374.101; 1930.175;    0.000;    0.000
374.162; 1800.175;    0.000;    0.000
374.222; 1753.175;    0.000;    0.000
374.283; 1673.175;    0.000;    0.000
374.343; 1548.175;    0.000;    0.000
374.404; 1499.175;    0.000;    0.000
374.465; 1420.175;    0.000;    0.000
374.525; 1377.175;    0.000;    0.000
374.586; 1393.175;    0.000;    0.000
374.646; 1340.175;    0.000;    0.000
374.707; 1302.175;    0.000;    0.000
374.767; 1252.175;    0.000;    0.000
374.828; 1217.175;    0.000;    0.000
374.888; 1233.175;    0.000;    0.000
374.949; 1174.175;    0.000;    0.000
375.009; 1187.175;    0.000;    0.000
375.070; 1194.175;    0.000;    0.000
375.130; 1067.175;    0.000;    0.000
375.190; 1177.175;    0.000;    0.000
375.251; 1129.175;    0.000;    0.000
375.311; 1098.175;    0.000;    0.000
375.372; 1067.175;    0.000;    0.000
375.432; 1036.175;    0.000;    0.000
375.493; 1057.175;    0.000;    0.000
375.553; 1025.175;    0.000;    0.000
375.613;  999.175;    0.000;    0.000
375.674; 1044.175;    0.000;    0.000
375.734; 1038.175;    0.000;    0.000
375.794; 1001.175;    0.000;    0.000
375.855;  993.175;    0.000;    0.000
375.915; 1042.175;    0.000;    0.000
375.975; 1004.175;    0.000;    0.000
376.036;  975.175;    0.000;    0.000
376.096; 1029.175;    0.000;    0.000
376.156;  989.175;    0.000;    0.000
376.217;  983.175;    0.000;    0.000
376.277;  990.175;    0.000;    0.000
376.337; 1018.175;    0.000;    0.000
376.398;  939.175;    0.000;    0.000
376.458;  993.175;    0.000;    0.000
376.518;  962.175;    0.000;    0.000
376.578;  935.175;    0.000;    0.000
376.639;  969.175;    0.000;    0.000
376.699;  958.175;    0.000;    0.000
376.759;  989.175;    0.000;    0.000
376.819;  899.175;    0.000;    0.000
376.880;  910.175;    0.000;    0.000
376.940;  959.175;    0.000;    0.000
377.000;  949.175;    0.000;    0.000
377.060;  971.175;    0.000;    0.000
377.120;  958.175;    0.000;    0.000
377.180;  941.175;    0.000;    0.000
377.241;  952.175;    0.000;    0.000
377.301;  969.175;    0.000;    0.000
377.361;  914.175;    0.000;    0.000
377.421;  931.175;    0.000;    0.000
377.481;  921.175;    0.000;    0.000
377.541;  884.175;    0.000;    0.000
377.601;  863.175;    0.000;    0.000
377.661;  979.175;    0.000;    0.000
377.722;  992.175;    0.000;    0.000
377.782;  963.175;    0.000;    0.000
377.842;  920.175;    0.000;    0.000
377.902;  904.175;    0.000;    0.000
377.962;  912.175;    0.000;    0.000
378.022;  940.175;    0.000;    0.000
378.082;  930.175;    0.000;    0.000
378.142;  934.175;    0.000;    0.000
378.202;  904.175;    0.000;    0.000
378.262;  962.175;    0.000;    0.000
378.322;  886.175;    0.000;    0.000
378.382;  897.175;    0.000;    0.000
378.442;  909.175;    0.000;    0.000
378.502;  856.175;    0.000;    0.000
378.562;  875.175;    0.000;    0.000
378.622;  903.175;    0.000;    0.000
378.682;  911.175;    0.000;    0.000
378.742;  851.175;    0.000;    0.000
378.802;  860.175;    0.000;    0.000
378.862;  966.175;    0.000;    0.000
378.921;  892.175;    0.000;    0.000
378.981;  890.175;    0.000;    0.000
379.041;  848.175;    0.000;    0.000
379.101;  876.175;    0.000;    0.000
379.161;  871.175;    0.000;    0.000
379.221;  956.175;    0.000;    0.000
379.281;  919.175;    0.000;    0.000
379.341;  884.175;    0.000;    0.000
379.401;  858.175;    0.000;    0.000
379.460;  882.175;    0.000;    0.000
379.520;  828.175;    0.000;    0.000
379.580;  840.175;    0.000;    0.000
379.640;  888.175;    0.000;    0.000
379.700;  821.175;    0.000;    0.000
379.759;  903.175;    0.000;    0.000
379.819;  834.175;    0.000;    0.000
379.879;  822.175;    0.000;    0.000
379.939;  870.175;    0.000;    0.000
379.999;  831.175;    0.000;    0.000
380.058;  888.175;    0.000;    0.000
380.118;  859.175;    0.000;    0.000
380.178;  865.175;    0.000;    0.000
380.237;  895.175;    0.000;    0.000
380.297;  858.175;    0.000;    0.000
380.357;  878.175;    0.000;    0.000
380.417;  832.175;    0.000;    0.000
380.476;  929.175;    0.000;    0.000
380.536;  900.175;    0.000;    0.000
380.596;  883.175;    0.000;    0.000
380.655;  847.175;    0.000;    0.000
380.715;  850.175;    0.000;    0.000
380.775;  901.175;    0.000;    0.000
380.834;  896.175;    0.000;    0.000
380.894;  882.175;    0.000;    0.000
380.954;  818.175;    0.000;    0.000
381.013;  873.175;    0.000;    0.000
381.073;  879.175;    0.000;    0.000
381.132;  922.175;    0.000;    0.000
381.192;  827.175;    0.000;    0.000
381.252;  941.175;    0.000;    0.000
381.311;  897.175;    0.000;    0.000
381.371;  902.175;    0.000;    0.000
381.430;  793.175;    0.000;    0.000
381.490;  918.175;    0.000;    0.000
381.549;  859.175;    0.000;    0.000
381.609;  925.175;    0.000;    0.000
381.668;  899.175;    0.000;    0.000
381.728;  911.175;    0.000;    0.000
381.787;  891.175;    0.000;    0.000
381.847;  922.175;    0.000;    0.000
381.906;  879.175;    0.000;    0.000
381.966;  850.175;    0.000;    0.000
382.025;  914.175;    0.000;    0.000
382.085;  882.175;    0.000;    0.000
382.144;  923.175;    0.000;    0.000
382.204;  944.175;    0.000;    0.000
382.263;  903.175;    0.000;    0.000
382.322;  901.175;    0.000;    0.000
382.382;  929.175;    0.000;    0.000
382.441;  864.175;    0.000;    0.000
382.501;  862.175;    0.000;    0.000
382.560;  894.175;    0.000;    0.000
382.619;  871.175;    0.000;    0.000
382.679;  941.175;    0.000;    0.000
382.738;  940.175;    0.000;    0.000
382.798;  947.175;    0.000;    0.000
382.857;  905.175;    0.000;    0.000
382.916;  908.175;    0.000;    0.000
382.976;  917.175;    0.000;    0.000
383.035;  956.175;    0.000;    0.000
383.094;  898.175;    0.000;    0.000
383.154;  929.175;    0.000;    0.000
383.213;  964.175;    0.000;    0.000
383.272;  909.175;    0.000;    0.000
383.331;  912.175;    0.000;    0.000
383.391;  977.175;    0.000;    0.000
383.450;  965.175;    0.000;    0.000
383.509;  918.175;    0.000;    0.000
383.568;  953.175;    0.000;    0.000
383.628;  990.175;    0.000;    0.000
383.687;  937.175;    0.000;    0.000
383.746;  951.175;    0.000;    0.000
383.805;  947.175;    0.000;    0.000
383.864;  955.175;    0.000;    0.000
383.924; 1019.175;    0.000;    0.000
383.983;  931.175;    0.000;    0.000
384.042;  974.175;    0.000;    0.000
384.101; 1024.175;    0.000;    0.000
384.160;  976.175;    0.000;    0.000
384.219;  988.175;    0.000;    0.000
384.279;  990.175;    0.000;    0.000
384.338;  973.175;    0.000;    0.000
384.397;  954.175;    0.000;    0.000
384.456; 1040.175;    0.000;    0.000
384.515; 1028.175;    0.000;    0.000
384.574; 1071.175;    0.000;    0.000
384.633; 1085.175;    0.000;    0.000
384.692; 1045.175;    0.000;    0.000
384.751; 1108.175;    0.000;    0.000
384.810; 1094.175;    0.000;    0.000
384.869;  976.175;    0.000;    0.000
384.929; 1007.175;    0.000;    0.000
384.988; 1035.175;    0.000;    0.000
385.047; 1030.175;    0.000;    0.000
385.106; 1121.175;    0.000;    0.000
385.165; 1026.175;    0.000;    0.000
385.224; 1108.175;    0.000;    0.000
385.283; 1076.175;    0.000;    0.000
385.342; 1109.175;    0.000;    0.000
385.401; 1147.175;    0.000;    0.000
385.459; 1067.175;    0.000;    0.000
385.518; 1078.175;    0.000;    0.000
385.577; 1094.175;    0.000;    0.000
385.636; 1153.175;    0.000;    0.000
385.695; 1102.175;    0.000;    0.000
385.754; 1070.175;    0.000;    0.000
385.813; 1121.175;    0.000;    0.000
385.872; 1073.175;    0.000;    0.000
385.931; 1177.175;    0.000;    0.000
385.990; 1177.175;    0.000;    0.000
386.049; 1211.175;    0.000;    0.000
386.107; 1159.175;    0.000;    0.000
386.166; 1189.175;    0.000;    0.000
386.225; 1219.175;    0.000;    0.000
386.284; 1189.175;    0.000;    0.000
386.343; 1254.175;    0.000;    0.000
386.402; 1238.175;    0.000;    0.000
386.460; 1321.175;    0.000;    0.000
386.519; 1202.175;    0.000;    0.000
386.578; 1257.175;    0.000;    0.000
386.637; 1291.175;    0.000;    0.000
386.696; 1263.175;    0.000;    0.000
386.754; 1259.175;    0.000;    0.000
386.813; 1331.175;    0.000;    0.000
386.872; 1305.175;    0.000;    0.000
386.931; 1326.175;    0.000;    0.000
386.989; 1412.175;    0.000;    0.000
387.048; 1364.175;    0.000;    0.000
387.107; 1440.175;    0.000;    0.000
387.165; 1459.175;    0.000;    0.000
387.224; 1379.175;    0.000;    0.000
387.283; 1456.175;    0.000;    0.000
387.342; 1518.175;    0.000;    0.000
387.400; 1474.175;    0.000;    0.000
387.459; 1428.175;    0.000;    0.000
387.517; 1552.175;    0.000;    0.000
387.576; 1538.175;    0.000;    0.000
387.635; 1527.175;    0.000;    0.000
387.693; 1581.175;    0.000;    0.000
387.752; 1640.175;    0.000;    0.000
387.811; 1552.175;    0.000;    0.000
387.869; 1639.175;    0.000;    0.000
387.928; 1638.175;    0.000;    0.000
387.986; 1677.175;    0.000;    0.000
388.045; 1698.175;    0.000;    0.000
388.103; 1668.175;    0.000;    0.000
388.162; 1662.175;    0.000;    0.000
388.221; 1633.175;    0.000;    0.000
388.279; 1759.175;    0.000;    0.000
388.338; 1821.175;    0.000;    0.000
388.396; 1770.175;    0.000;    0.000
388.455; 1767.175;    0.000;    0.000
388.513; 1803.175;    0.000;    0.000
388.572; 1868.175;    0.000;    0.000
388.630; 1837.175;    0.000;    0.000
388.689; 1877.175;    0.000;    0.000
388.747; 1892.175;    0.000;    0.000
388.806; 1834.175;    0.000;    0.000
388.864; 1976.175;    0.000;    0.000
388.922; 2011.175;    0.000;    0.000
388.981; 2005.175;    0.000;    0.000
389.039; 1998.175;    0.000;    0.000
389.098; 2099.175;    0.000;    0.000
389.156; 2042.175;    0.000;    0.000
389.214; 2142.175;    0.000;    0.000
389.273; 2093.175;    0.000;    0.000
389.331; 2177.175;    0.000;    0.000
389.390; 2142.175;    0.000;    0.000
389.448; 2131.175;    0.000;    0.000
389.506; 2131.175;    0.000;    0.000
389.565; 2191.175;    0.000;    0.000
389.623; 2183.175;    0.000;    0.000
389.681; 2211.175;    0.000;    0.000
389.740; 2288.175;    0.000;    0.000
389.798; 2190.175;    0.000;    0.000
389.856; 2378.175;    0.000;    0.000
389.914; 2310.175;    0.000;    0.000
389.973; 2290.175;    0.000;    0.000
390.031; 2300.175;    0.000;    0.000
390.089; 2283.175;    0.000;    0.000
390.147; 2273.175;    0.000;    0.000
390.206; 2351.175;    0.000;    0.000
390.264; 2331.175;    0.000;    0.000
390.322; 2378.175;    0.000;    0.000
390.380; 2424.175;    0.000;    0.000
390.439; 2483.175;    0.000;    0.000
390.497; 2484.175;    0.000;    0.000
390.555; 2490.175;    0.000;    0.000
390.613; 2455.175;    0.000;    0.000
390.671; 2488.175;    0.000;    0.000
390.729; 2482.175;    0.000;    0.000
390.788; 2590.175;    0.000;    0.000
390.846; 2561.175;    0.000;    0.000
390.904; 2612.175;    0.000;    0.000
390.962; 2600.175;    0.000;    0.000
391.020; 2499.175;    0.000;    0.000
391.078; 2657.175;    0.000;    0.000
391.136; 2721.175;    0.000;    0.000
391.194; 2774.175;    0.000;    0.000
391.252; 2752.175;    0.000;    0.000
391.311; 2746.175;    0.000;    0.000
391.369; 2881.175;    0.000;    0.000
391.427; 2971.175;    0.000;    0.000
391.485; 2991.175;    0.000;    0.000
391.543; 3064.175;    0.000;    0.000
391.601; 3107.175;    0.000;    0.000
391.659; 3111.175;    0.000;    0.000
391.717; 3156.175;    0.000;    0.000
391.775; 3194.175;    0.000;    0.000
391.833; 3270.175;    0.000;    0.000
391.891; 3336.175;    0.000;    0.000
391.949; 3484.175;    0.000;    0.000
392.007; 3564.175;    0.000;    0.000
392.065; 3773.175;    0.000;    0.000
392.123; 3913.175;    0.000;    0.000
392.180; 3946.175;    0.000;    0.000
392.238; 4002.175;    0.000;    0.000
392.296; 4250.175;    0.000;    0.000
392.354; 4501.175;    0.000;    0.000
392.412; 4705.175;    0.000;    0.000
392.470; 4829.175;    0.000;    0.000
392.528; 5077.175;    0.000;    0.000
392.586; 5471.175;    0.000;    0.000
392.644; 5863.175;    0.000;    0.000
392.701; 6315.175;    0.000;    0.000
392.759; 6889.175;    0.000;    0.000
392.817; 7701.175;    0.000;    0.000
392.875; 8592.175;    0.000;    0.000
392.933; 9608.175;    0.000;    0.000
392.991;10916.175;    0.000;    0.000
393.048;12425.175;    0.000;    0.000
393.106;14685.175;    0.000;    0.000
393.164;17276.175;    0.000;    0.000
393.222;20042.175;    0.000;    0.000
393.279;21706.175;    0.000;    0.000
393.337;22117.175;    0.000;    0.000
393.395;20905.175;    0.000;    0.000
393.453;19206.175;    0.000;    0.000
393.510;16227.175;    0.000;    0.000
393.568;13359.175;    0.000;    0.000
393.626;11183.175;    0.000;    0.000
393.684; 9531.175;    0.000;    0.000
393.741; 8631.175;    0.000;    0.000
393.799; 7632.175;    0.000;    0.000
393.857; 6950.175;    0.000;    0.000
393.914; 6326.175;    0.000;    0.000
393.972; 5814.175;    0.000;    0.000
394.030; 5554.175;    0.000;    0.000
394.087; 5234.175;    0.000;    0.000
394.145; 4963.175;    0.000;    0.000
394.202; 4837.175;    0.000;    0.000
394.260; 4541.175;    0.000;    0.000
394.318; 4417.175;    0.000;    0.000
394.375; 4253.175;    0.000;    0.000
394.433; 4180.175;    0.000;    0.000
394.490; 3967.175;    0.000;    0.000
394.548; 3947.175;    0.000;    0.000
394.605; 3985.175;    0.000;    0.000
394.663; 3891.175;    0.000;    0.000
394.720; 3760.175;    0.000;    0.000
394.778; 3774.175;    0.000;    0.000
394.836; 3562.175;    0.000;    0.000
394.893; 3673.175;    0.000;    0.000
394.951; 3668.175;    0.000;    0.000
395.008; 3672.175;    0.000;    0.000
395.065; 3555.175;    0.000;    0.000
395.123; 3609.175;    0.000;    0.000
395.180; 3621.175;    0.000;    0.000
395.238; 3618.175;    0.000;    0.000
395.295; 3552.175;    0.000;    0.000
395.353; 3620.175;    0.000;    0.000
395.410; 3625.175;    0.000;    0.000
395.468; 3639.175;    0.000;    0.000
395.525; 3731.175;    0.000;    0.000
395.582; 3830.175;    0.000;    0.000
395.640; 3912.175;    0.000;    0.000
395.697; 3953.175;    0.000;    0.000
395.754; 3874.175;    0.000;    0.000
395.812; 4138.175;    0.000;    0.000
395.869; 4197.175;    0.000;    0.000
395.927; 4268.175;    0.000;    0.000
395.984; 4419.175;    0.000;    0.000
396.041; 4551.175;    0.000;    0.000
396.098; 4745.175;    0.000;    0.000
396.156; 5105.175;    0.000;    0.000
396.213; 5382.175;    0.000;    0.000
396.270; 5658.175;    0.000;    0.000
396.328; 6290.175;    0.000;    0.000
396.385; 7013.175;    0.000;    0.000
396.442; 7873.175;    0.000;    0.000
396.499; 9057.175;    0.000;    0.000
396.557;10945.175;    0.000;    0.000
396.614;12917.175;    0.000;    0.000
396.671;16003.175;    0.000;    0.000
396.728;19783.175;    0.000;    0.000
396.785;21783.175;    0.000;    0.000
396.843;21839.175;    0.000;    0.000
396.900;19123.175;    0.000;    0.000
396.957;15334.175;    0.000;    0.000
397.014;11944.175;    0.000;    0.000
397.071; 9702.175;    0.000;    0.000
397.128; 8220.175;    0.000;    0.000
397.186; 7262.175;    0.000;    0.000
397.243; 6421.175;    0.000;    0.000
397.300; 5894.175;    0.000;    0.000
397.357; 5477.175;    0.000;    0.000
397.414; 5062.175;    0.000;    0.000
397.471; 4769.175;    0.000;    0.000
397.528; 4535.175;    0.000;    0.000
397.585; 4311.175;    0.000;    0.000
397.642; 4219.175;    0.000;    0.000
397.699; 3999.175;    0.000;    0.000
397.756; 3859.175;    0.000;    0.000
397.813; 3760.175;    0.000;    0.000
397.871; 3680.175;    0.000;    0.000
397.928; 3538.175;    0.000;    0.000
397.985; 3514.175;    0.000;    0.000
398.042; 3450.175;    0.000;    0.000
398.099; 3316.175;    0.000;    0.000
398.156; 3264.175;    0.000;    0.000
398.212; 3177.175;    0.000;    0.000
398.269; 3131.175;    0.000;    0.000
398.326; 3053.175;    0.000;    0.000
398.383; 3146.175;    0.000;    0.000
398.440; 3006.175;    0.000;    0.000
398.497; 2955.175;    0.000;    0.000
398.554; 2946.175;    0.000;    0.000
398.611; 2879.175;    0.000;    0.000
398.668; 2879.175;    0.000;    0.000
398.725; 2823.175;    0.000;    0.000
398.782; 2874.175;    0.000;    0.000
398.839; 2769.175;    0.000;    0.000
398.895; 2718.175;    0.000;    0.000
398.952; 2736.175;    0.000;    0.000
399.009; 2652.175;    0.000;    0.000
399.066; 2675.175;    0.000;    0.000
399.123; 2707.175;    0.000;    0.000
399.180; 2657.175;    0.000;    0.000
399.236; 2682.175;    0.000;    0.000
399.293; 2718.175;    0.000;    0.000
399.350; 2638.175;    0.000;    0.000
399.407; 2622.175;    0.000;    0.000
399.463; 2591.175;    0.000;    0.000
399.520; 2663.175;    0.000;    0.000
399.577; 2665.175;    0.000;    0.000
399.634; 2651.175;    0.000;    0.000
399.690; 2665.175;    0.000;    0.000
399.747; 2610.175;    0.000;    0.000
399.804; 2536.175;    0.000;    0.000
399.861; 2553.175;    0.000;    0.000
399.917; 2576.175;    0.000;    0.000
399.974; 2509.175;    0.000;    0.000
400.031; 2585.175;    0.000;    0.000
400.087; 2498.175;    0.000;    0.000
400.144; 2457.175;    0.000;    0.000
400.201; 2442.175;    0.000;    0.000
400.257; 2421.175;    0.000;    0.000
400.314; 2413.175;    0.000;    0.000
400.370; 2435.175;    0.000;    0.000
400.427; 2429.175;    0.000;    0.000
400.484; 2297.175;    0.000;    0.000
400.540; 2337.175;    0.000;    0.000
400.597; 2335.175;    0.000;    0.000
400.653; 2276.175;    0.000;    0.000
400.710; 2317.175;    0.000;    0.000
400.766; 2245.175;    0.000;    0.000
400.823; 2247.175;    0.000;    0.000
400.879; 2272.175;    0.000;    0.000
400.936; 2194.175;    0.000;    0.000
400.993; 2159.175;    0.000;    0.000
401.049; 2307.175;    0.000;    0.000
401.106; 2172.175;    0.000;    0.000
401.162; 2206.175;    0.000;    0.000
401.218; 2113.175;    0.000;    0.000
401.275; 2100.175;    0.000;    0.000
401.331; 2110.175;    0.000;    0.000
401.388; 2032.175;    0.000;    0.000
401.444; 2127.175;    0.000;    0.000
401.501; 2083.175;    0.000;    0.000
401.557; 2012.175;    0.000;    0.000
401.614; 2045.175;    0.000;    0.000
401.670; 2056.175;    0.000;    0.000
401.726; 2036.175;    0.000;    0.000
401.783; 1986.175;    0.000;    0.000
401.839; 1994.175;    0.000;    0.000
401.895; 1929.175;    0.000;    0.000
401.952; 1928.175;    0.000;    0.000
402.008; 1826.175;    0.000;    0.000
402.064; 1859.175;    0.000;    0.000
402.121; 1925.175;    0.000;    0.000
402.177; 1847.175;    0.000;    0.000
402.233; 1804.175;    0.000;    0.000
402.290; 1843.175;    0.000;    0.000
402.346; 1838.175;    0.000;    0.000
402.402; 1777.175;    0.000;    0.000
402.459; 1802.175;    0.000;    0.000
402.515; 1860.175;    0.000;    0.000
402.571; 1800.175;    0.000;    0.000
402.627; 1729.175;    0.000;    0.000
402.683; 1867.175;    0.000;    0.000
402.740; 1737.175;    0.000;    0.000
402.796; 1776.175;    0.000;    0.000
402.852; 1702.175;    0.000;    0.000
402.908; 1747.175;    0.000;    0.000
402.964; 1736.175;    0.000;    0.000
403.021; 1663.175;    0.000;    0.000
403.077; 1670.175;    0.000;    0.000
403.133; 1637.175;    0.000;    0.000
403.189; 1698.175;    0.000;    0.000
403.245; 1716.175;    0.000;    0.000
403.301; 1698.175;    0.000;    0.000
403.357; 1669.175;    0.000;    0.000
403.414; 1689.175;    0.000;    0.000
403.470; 1671.175;    0.000;    0.000
403.526; 1714.175;    0.000;    0.000
403.582; 1609.175;    0.000;    0.000
403.638; 1633.175;    0.000;    0.000
403.694; 1653.175;    0.000;    0.000
403.750; 1582.175;    0.000;    0.000
403.806; 1649.175;    0.000;    0.000
403.862; 1623.175;    0.000;    0.000
403.918; 1655.175;    0.000;    0.000
403.974; 1641.175;    0.000;    0.000
404.030; 1569.175;    0.000;    0.000
404.086; 1509.175;    0.000;    0.000
404.142; 1562.175;    0.000;    0.000
404.198; 1624.175;    0.000;    0.000
404.254; 1613.175;    0.000;    0.000
404.310; 1545.175;    0.000;    0.000
404.366; 1601.175;    0.000;    0.000
404.422; 1581.175;    0.000;    0.000
404.478; 1558.175;    0.000;    0.000
404.534; 1479.175;    0.000;    0.000
404.590; 1499.175;    0.000;    0.000
404.646; 1557.175;    0.000;    0.000
404.701; 1553.175;    0.000;    0.000
404.757; 1567.175;    0.000;    0.000
404.813; 1484.175;    0.000;    0.000
404.869; 1554.175;    0.000;    0.000
404.925; 1531.175;    0.000;    0.000
404.981; 1531.175;    0.000;    0.000
405.037; 1536.175;    0.000;    0.000
405.092; 1486.175;    0.000;    0.000
405.148; 1525.175;    0.000;    0.000
405.204; 1480.175;    0.000;    0.000
405.260; 1526.175;    0.000;    0.000
405.316; 1470.175;    0.000;    0.000
405.371; 1479.175;    0.000;    0.000
405.427; 1469.175;    0.000;    0.000
405.483; 1512.175;    0.000;    0.000
405.539; 1519.175;    0.000;    0.000
405.594; 1413.175;    0.000;    0.000
405.650; 1544.175;    0.000;    0.000
405.706; 1531.175;    0.000;    0.000
405.761; 1518.175;    0.000;    0.000
405.817; 1482.175;    0.000;    0.000
405.873; 1479.175;    0.000;    0.000
405.928; 1454.175;    0.000;    0.000
405.984; 1484.175;    0.000;    0.000
406.040; 1445.175;    0.000;    0.000
406.095; 1499.175;    0.000;    0.000
406.151; 1448.175;    0.000;    0.000
406.207; 1495.175;    0.000;    0.000
406.262; 1430.175;    0.000;    0.000
406.318; 1493.175;    0.000;    0.000
406.374; 1498.175;    0.000;    0.000
406.429; 1472.175;    0.000;    0.000
406.485; 1568.175;    0.000;    0.000
406.540; 1503.175;    0.000;    0.000
406.596; 1471.175;    0.000;    0.000
406.651; 1511.175;    0.000;    0.000
406.707; 1462.175;    0.000;    0.000
406.763; 1484.175;    0.000;    0.000
406.818; 1484.175;    0.000;    0.000
406.874; 1488.175;    0.000;    0.000
406.929; 1576.175;    0.000;    0.000
406.985; 1515.175;    0.000;    0.000
407.040; 1626.175;    0.000;    0.000
407.095; 1580.175;    0.000;    0.000
407.151; 1608.175;    0.000;    0.000
407.206; 1590.175;    0.000;    0.000
407.262; 1546.175;    0.000;    0.000
407.317; 1609.175;    0.000;    0.000
407.373; 1568.175;    0.000;    0.000
407.428; 1610.175;    0.000;    0.000
407.484; 1605.175;    0.000;    0.000
407.539; 1637.175;    0.000;    0.000
407.594; 1697.175;    0.000;    0.000
407.650; 1718.175;    0.000;    0.000
407.705; 2005.175;    0.000;    0.000
407.760; 2105.175;    0.000;    0.000
407.816; 1887.175;    0.000;    0.000
407.871; 1667.175;    0.000;    0.000
407.926; 1669.175;    0.000;    0.000
407.982; 1551.175;    0.000;    0.000
408.037; 1563.175;    0.000;    0.000
408.092; 1530.175;    0.000;    0.000
408.148; 1656.175;    0.000;    0.000
408.203; 1527.175;    0.000;    0.000
408.258; 1554.175;    0.000;    0.000
408.314; 1544.175;    0.000;    0.000
408.369; 1531.175;    0.000;    0.000
408.424; 1604.175;    0.000;    0.000
408.479; 1526.175;    0.000;    0.000
408.534; 1557.175;    0.000;    0.000
408.590; 1442.175;    0.000;    0.000
408.645; 1532.175;    0.000;    0.000
408.700; 1588.175;    0.000;    0.000
408.755; 1537.175;    0.000;    0.000
408.810; 1467.175;    0.000;    0.000
408.866; 1447.175;    0.000;    0.000
408.921; 1520.175;    0.000;    0.000
408.976; 1504.175;    0.000;    0.000
409.031; 1493.175;    0.000;    0.000
409.086; 1490.175;    0.000;    0.000
409.141; 1492.175;    0.000;    0.000
409.196; 1504.175;    0.000;    0.000
409.252; 1448.175;    0.000;    0.000
409.307; 1487.175;    0.000;    0.000
409.362; 1467.175;    0.000;    0.000
409.417; 1556.175;    0.000;    0.000
409.472; 1588.175;    0.000;    0.000
409.527; 1588.175;    0.000;    0.000
409.582; 1560.175;    0.000;    0.000
409.637; 1570.175;    0.000;    0.000
409.692; 1530.175;    0.000;    0.000
409.747; 1486.175;    0.000;    0.000
409.802; 1578.175;    0.000;    0.000
409.857; 1570.175;    0.000;    0.000
409.912; 1545.175;    0.000;    0.000
409.967; 1547.175;    0.000;    0.000
410.022; 1551.175;    0.000;    0.000
410.077; 1515.175;    0.000;    0.000
410.132; 1565.175;    0.000;    0.000
410.187; 1491.175;    0.000;    0.000
410.242; 1498.175;    0.000;    0.000
410.297; 1518.175;    0.000;    0.000
410.351; 1504.175;    0.000;    0.000
410.406; 1589.175;    0.000;    0.000
410.461; 1478.175;    0.000;    0.000
410.516; 1511.175;    0.000;    0.000
410.571; 1483.175;    0.000;    0.000
410.626; 1516.175;    0.000;    0.000
410.681; 1515.175;    0.000;    0.000
410.736; 1459.175;    0.000;    0.000
410.790; 1484.175;    0.000;    0.000
410.845; 1510.175;    0.000;    0.000
410.900; 1498.175;    0.000;    0.000
410.955; 1470.175;    0.000;    0.000
411.010; 1488.175;    0.000;    0.000
411.064; 1484.175;    0.000;    0.000
411.119; 1519.175;    0.000;    0.000
411.174; 1565.175;    0.000;    0.000
411.229; 1473.175;    0.000;    0.000
411.283; 1510.175;    0.000;    0.000
411.338; 1534.175;    0.000;    0.000
411.393; 1500.175;    0.000;    0.000
411.447; 1525.175;    0.000;    0.000
411.502; 1495.175;    0.000;    0.000
411.557; 1447.175;    0.000;    0.000
411.612; 1479.175;    0.000;    0.000
411.666; 1552.175;    0.000;    0.000
411.721; 1431.175;    0.000;    0.000
411.776; 1562.175;    0.000;    0.000
411.830; 1490.175;    0.000;    0.000
411.885; 1484.175;    0.000;    0.000
411.939; 1512.175;    0.000;    0.000
411.994; 1456.175;    0.000;    0.000
412.049; 1497.175;    0.000;    0.000
412.103; 1529.175;    0.000;    0.000
412.158; 1526.175;    0.000;    0.000
412.212; 1498.175;    0.000;    0.000
412.267; 1518.175;    0.000;    0.000
412.322; 1585.175;    0.000;    0.000
412.376; 1481.175;    0.000;    0.000
412.431; 1593.175;    0.000;    0.000
412.485; 1465.175;    0.000;    0.000
412.540; 1463.175;    0.000;    0.000
412.594; 1549.175;    0.000;    0.000
412.649; 1535.175;    0.000;    0.000
412.703; 1485.175;    0.000;    0.000
412.758; 1471.175;    0.000;    0.000
412.812; 1482.175;    0.000;    0.000
412.866; 1499.175;    0.000;    0.000
412.921; 1440.175;    0.000;    0.000
412.975; 1469.175;    0.000;    0.000
413.030; 1498.175;    0.000;    0.000
413.084; 1499.175;    0.000;    0.000
413.139; 1486.175;    0.000;    0.000
413.193; 1430.175;    0.000;    0.000
413.247; 1513.175;    0.000;    0.000
413.302; 1445.175;    0.000;    0.000
413.356; 1486.175;    0.000;    0.000
413.410; 1423.175;    0.000;    0.000
413.465; 1467.175;    0.000;    0.000
413.519; 1399.175;    0.000;    0.000
413.573; 1467.175;    0.000;    0.000
413.628; 1483.175;    0.000;    0.000
413.682; 1516.175;    0.000;    0.000
413.736; 1482.175;    0.000;    0.000
413.791; 1492.175;    0.000;    0.000
413.845; 1494.175;    0.000;    0.000
413.899; 1518.175;    0.000;    0.000
413.953; 1450.175;    0.000;    0.000
414.008; 1457.175;    0.000;    0.000
414.062; 1470.175;    0.000;    0.000
414.116; 1483.175;    0.000;    0.000
414.170; 1503.175;    0.000;    0.000
414.225; 1469.175;    0.000;    0.000
414.279; 1491.175;    0.000;    0.000
414.333; 1539.175;    0.000;    0.000
414.387; 1432.175;    0.000;    0.000
414.441; 1518.175;    0.000;    0.000
414.496; 1551.175;    0.000;    0.000
414.550; 1488.175;    0.000;    0.000
414.604; 1482.175;    0.000;    0.000
414.658; 1498.175;    0.000;    0.000
414.712; 1473.175;    0.000;    0.000
414.766; 1492.175;    0.000;    0.000
414.820; 1488.175;    0.000;    0.000
414.874; 1567.175;    0.000;    0.000
414.928; 1441.175;    0.000;    0.000
414.982; 1455.175;    0.000;    0.000
415.037; 1522.175;    0.000;    0.000
415.091; 1500.175;    0.000;    0.000
415.145; 1458.175;    0.000;    0.000
415.199; 1411.175;    0.000;    0.000
415.253; 1504.175;    0.000;    0.000
415.307; 1421.175;    0.000;    0.000
415.361; 1450.175;    0.000;    0.000
415.415; 1459.175;    0.000;    0.000
415.469; 1464.175;    0.000;    0.000
415.523; 1452.175;    0.000;    0.000
415.577; 1477.175;    0.000;    0.000
415.631; 1465.175;    0.000;    0.000
415.684; 1456.175;    0.000;    0.000
415.738; 1492.175;    0.000;    0.000
415.792; 1504.175;    0.000;    0.000
415.846; 1481.175;    0.000;    0.000
415.900; 1517.175;    0.000;    0.000
415.954; 1466.175;    0.000;    0.000
416.008; 1590.175;    0.000;    0.000
416.062; 1458.175;    0.000;    0.000
416.116; 1485.175;    0.000;    0.000
416.169; 1543.175;    0.000;    0.000
416.223; 1525.175;    0.000;    0.000
416.277; 1429.175;    0.000;    0.000
416.331; 1549.175;    0.000;    0.000
416.385; 1449.175;    0.000;    0.000
416.439; 1616.175;    0.000;    0.000
416.492; 1603.175;    0.000;    0.000
416.546; 1585.175;    0.000;    0.000
416.600; 1479.175;    0.000;    0.000
416.654; 1573.175;    0.000;    0.000
416.707; 1530.175;    0.000;    0.000
416.761; 1482.175;    0.000;    0.000
416.815; 1441.175;    0.000;    0.000
416.869; 1552.175;    0.000;    0.000
416.922; 1517.175;    0.000;    0.000
416.976; 1457.175;    0.000;    0.000
417.030; 1493.175;    0.000;    0.000
417.083; 1481.175;    0.000;    0.000
417.137; 1542.175;    0.000;    0.000
417.191; 1435.175;    0.000;    0.000
417.244; 1527.175;    0.000;    0.000
417.298; 1515.175;    0.000;    0.000
417.352; 1565.175;    0.000;    0.000
417.405; 1491.175;    0.000;    0.000
417.459; 1464.175;    0.000;    0.000
417.512; 1510.175;    0.000;    0.000
417.566; 1560.175;    0.000;    0.000
417.620; 1569.175;    0.000;    0.000
417.673; 1498.175;    0.000;    0.000
417.727; 1528.175;    0.000;    0.000
417.780; 1507.175;    0.000;    0.000
417.834; 1550.175;    0.000;    0.000
417.887; 1543.175;    0.000;    0.000
417.941; 1597.175;    0.000;    0.000
417.994; 1548.175;    0.000;    0.000
418.048; 1530.175;    0.000;    0.000
418.101; 1579.175;    0.000;    0.000
418.155; 1620.175;    0.000;    0.000
418.208; 1617.175;    0.000;    0.000
418.262; 1624.175;    0.000;    0.000
418.315; 1487.175;    0.000;    0.000
418.369; 1590.175;    0.000;    0.000
418.422; 1542.175;    0.000;    0.000
418.476; 1581.175;    0.000;    0.000
418.529; 1610.175;    0.000;    0.000
418.582; 1584.175;    0.000;    0.000
418.636; 1543.175;    0.000;    0.000
418.689; 1567.175;    0.000;    0.000
418.743; 1535.175;    0.000;    0.000
418.796; 1549.175;    0.000;    0.000
418.849; 1524.175;    0.000;    0.000
418.903; 1612.175;    0.000;    0.000
418.956; 1562.175;    0.000;    0.000
419.009; 1596.175;    0.000;    0.000
419.063; 1523.175;    0.000;    0.000
419.116; 1570.175;    0.000;    0.000
419.169; 1606.175;    0.000;    0.000
419.222; 1565.175;    0.000;    0.000
419.276; 1562.175;    0.000;    0.000
419.329; 1544.175;    0.000;    0.000
419.382; 1475.175;    0.000;    0.000
419.435; 1539.175;    0.000;    0.000
419.489; 1587.175;    0.000;    0.000
419.542; 1475.175;    0.000;    0.000
419.595; 1618.175;    0.000;    0.000
419.648; 1450.175;    0.000;    0.000
419.701; 1564.175;    0.000;    0.000
419.755; 1518.175;    0.000;    0.000
419.808; 1490.175;    0.000;    0.000
419.861; 1497.175;    0.000;    0.000
419.914; 1559.175;    0.000;    0.000
419.967; 1554.175;    0.000;    0.000
420.020; 1527.175;    0.000;    0.000
420.073; 1447.175;    0.000;    0.000
420.127; 1523.175;    0.000;    0.000
420.180; 1560.175;    0.000;    0.000
420.233; 1475.175;    0.000;    0.000
420.286; 1476.175;    0.000;    0.000
420.339; 1530.175;    0.000;    0.000
420.392; 1546.175;    0.000;    0.000
420.445; 1444.175;    0.000;    0.000
420.498; 1454.175;    0.000;    0.000
420.551; 1486.175;    0.000;    0.000
420.604; 1505.175;    0.000;    0.000
420.657; 1551.175;    0.000;    0.000
420.710; 1548.175;    0.000;    0.000
420.763; 1509.175;    0.000;    0.000
420.816; 1485.175;    0.000;    0.000
420.869; 1543.175;    0.000;    0.000
420.922; 1488.175;    0.000;    0.000
420.975; 1528.175;    0.000;    0.000
421.028; 1525.175;    0.000;    0.000
421.081; 1497.175;    0.000;    0.000
421.134; 1512.175;    0.000;    0.000
421.187; 1570.175;    0.000;    0.000
421.239; 1496.175;    0.000;    0.000
421.292; 1609.175;    0.000;    0.000
421.345; 1611.175;    0.000;    0.000
421.398; 1620.175;    0.000;    0.000
421.451; 1791.175;    0.000;    0.000
421.504; 1830.175;    0.000;    0.000
421.557; 1841.175;    0.000;    0.000
421.609; 1688.175;    0.000;    0.000
421.662; 1660.175;    0.000;    0.000
421.715; 1572.175;    0.000;    0.000
421.768; 1597.175;    0.000;    0.000
421.821; 1641.175;    0.000;    0.000
421.873; 1650.175;    0.000;    0.000
421.926; 1672.175;    0.000;    0.000
421.979; 1746.175;    0.000;    0.000
422.032; 1711.175;    0.000;    0.000
422.084; 1797.175;    0.000;    0.000
422.137; 1841.175;    0.000;    0.000
422.190; 1966.175;    0.000;    0.000
422.243; 1981.175;    0.000;    0.000
422.295; 2104.175;    0.000;    0.000
422.348; 2319.175;    0.000;    0.000
422.401; 2585.175;    0.000;    0.000
422.453; 3029.175;    0.000;    0.000
422.506; 3741.175;    0.000;    0.000
422.558; 5080.175;    0.000;    0.000
422.611; 7026.175;    0.000;    0.000
422.664; 8057.175;    0.000;    0.000
422.716; 7221.175;    0.000;    0.000
422.769; 5103.175;    0.000;    0.000
422.822; 3690.175;    0.000;    0.000
422.874; 3089.175;    0.000;    0.000
422.927; 2641.175;    0.000;    0.000
422.979; 2409.175;    0.000;    0.000
423.032; 2226.175;    0.000;    0.000
423.084; 2121.175;    0.000;    0.000
423.137; 1959.175;    0.000;    0.000
423.189; 1873.175;    0.000;    0.000
423.242; 1829.175;    0.000;    0.000
423.294; 1799.175;    0.000;    0.000
423.347; 1733.175;    0.000;    0.000
423.399; 1736.175;    0.000;    0.000
423.452; 1637.175;    0.000;    0.000
423.504; 1657.175;    0.000;    0.000
423.557; 1664.175;    0.000;    0.000
423.609; 1589.175;    0.000;    0.000
423.662; 1758.175;    0.000;    0.000
423.714; 1573.175;    0.000;    0.000
423.766; 1683.175;    0.000;    0.000
423.819; 1584.175;    0.000;    0.000
423.871; 1537.175;    0.000;    0.000
423.923; 1597.175;    0.000;    0.000
423.976; 1635.175;    0.000;    0.000
424.028; 1548.175;    0.000;    0.000
424.081; 1562.175;    0.000;    0.000
424.133; 1551.175;    0.000;    0.000
424.185; 1587.175;    0.000;    0.000
424.238; 1556.175;    0.000;    0.000
424.290; 1522.175;    0.000;    0.000
424.342; 1515.175;    0.000;    0.000
424.394; 1508.175;    0.000;    0.000
424.447; 1516.175;    0.000;    0.000
424.499; 1584.175;    0.000;    0.000
424.551; 1509.175;    0.000;    0.000
424.603; 1522.175;    0.000;    0.000
424.656; 1496.175;    0.000;    0.000
424.708; 1496.175;    0.000;    0.000
424.760; 1512.175;    0.000;    0.000
424.812; 1567.175;    0.000;    0.000
424.864; 1489.175;    0.000;    0.000
424.917; 1490.175;    0.000;    0.000
424.969; 1574.175;    0.000;    0.000
425.021; 1460.175;    0.000;    0.000
425.073; 1454.175;    0.000;    0.000
425.125; 1543.175;    0.000;    0.000
425.177; 1433.175;    0.000;    0.000
425.229; 1499.175;    0.000;    0.000
425.282; 1492.175;    0.000;    0.000
425.334; 1471.175;    0.000;    0.000
425.386; 1442.175;    0.000;    0.000
425.438; 1517.175;    0.000;    0.000
425.490; 1456.175;    0.000;    0.000
425.542; 1516.175;    0.000;    0.000
425.594; 1522.175;    0.000;    0.000
425.646; 1511.175;    0.000;    0.000
425.698; 1461.175;    0.000;    0.000
425.750; 1466.175;    0.000;    0.000
425.802; 1528.175;    0.000;    0.000
425.854; 1453.175;    0.000;    0.000
425.906; 1506.175;    0.000;    0.000
425.958; 1479.175;    0.000;    0.000
426.010; 1481.175;    0.000;    0.000
426.062; 1514.175;    0.000;    0.000
426.114; 1525.175;    0.000;    0.000
426.166; 1477.175;    0.000;    0.000
426.218; 1488.175;    0.000;    0.000
426.270; 1537.175;    0.000;    0.000
426.321; 1405.175;    0.000;    0.000
426.373; 1461.175;    0.000;    0.000
426.425; 1459.175;    0.000;    0.000
426.477; 1422.175;    0.000;    0.000
426.529; 1445.175;    0.000;    0.000
426.581; 1421.175;    0.000;    0.000
426.633; 1455.175;    0.000;    0.000
426.684; 1422.175;    0.000;    0.000
426.736; 1439.175;    0.000;    0.000
426.788; 1467.175;    0.000;    0.000
426.840; 1401.175;    0.000;    0.000
426.892; 1432.175;    0.000;    0.000
426.943; 1443.175;    0.000;    0.000
426.995; 1444.175;    0.000;    0.000
427.047; 1396.175;    0.000;    0.000
427.099; 1443.175;    0.000;    0.000
427.150; 1448.175;    0.000;    0.000
427.202; 1388.175;    0.000;    0.000
427.254; 1446.175;    0.000;    0.000
427.306; 1408.175;    0.000;    0.000
427.357; 1402.175;    0.000;    0.000
427.409; 1468.175;    0.000;    0.000
427.461; 1440.175;    0.000;    0.000
427.512; 1401.175;    0.000;    0.000
427.564; 1446.175;    0.000;    0.000
427.616; 1455.175;    0.000;    0.000
427.667; 1480.175;    0.000;    0.000
427.719; 1454.175;    0.000;    0.000
427.770; 1425.175;    0.000;    0.000
427.822; 1495.175;    0.000;    0.000
427.874; 1382.175;    0.000;    0.000
427.925; 1496.175;    0.000;    0.000
427.977; 1503.175;    0.000;    0.000
428.028; 1499.175;    0.000;    0.000
428.080; 1576.175;    0.000;    0.000
428.131; 1669.175;    0.000;    0.000
428.183; 1944.175;    0.000;    0.000
428.234; 2508.175;    0.000;    0.000
428.286; 2720.175;    0.000;    0.000
428.337; 2392.175;    0.000;    0.000
428.389; 1741.175;    0.000;    0.000
428.440; 1544.175;    0.000;    0.000
428.492; 1502.175;    0.000;    0.000
428.543; 1446.175;    0.000;    0.000
428.595; 1460.175;    0.000;    0.000
428.646; 1511.175;    0.000;    0.000
428.697; 1534.175;    0.000;    0.000
428.749; 1647.175;    0.000;    0.000
428.800; 1805.175;    0.000;    0.000
428.852; 2152.175;    0.000;    0.000
428.903; 2442.175;    0.000;    0.000
428.954; 2339.175;    0.000;    0.000
429.006; 1792.175;    0.000;    0.000
429.057; 1553.175;    0.000;    0.000
429.108; 1436.175;    0.000;    0.000
429.160; 1413.175;    0.000;    0.000
429.211; 1424.175;    0.000;    0.000
429.262; 1398.175;    0.000;    0.000
429.314; 1375.175;    0.000;    0.000
429.365; 1400.175;    0.000;    0.000
429.416; 1445.175;    0.000;    0.000
429.467; 1408.175;    0.000;    0.000
429.519; 1397.175;    0.000;    0.000
429.570; 1432.175;    0.000;    0.000
429.621; 1470.175;    0.000;    0.000
429.672; 1463.175;    0.000;    0.000
429.724; 1624.175;    0.000;    0.000
429.775; 1645.175;    0.000;    0.000
429.826; 2104.175;    0.000;    0.000
429.877; 2387.175;    0.000;    0.000
429.928; 2202.175;    0.000;    0.000
429.980; 1830.175;    0.000;    0.000
430.031; 1765.175;    0.000;    0.000
430.082; 1994.175;    0.000;    0.000
430.133; 2460.175;    0.000;    0.000
430.184; 3403.175;    0.000;    0.000
430.235; 3699.175;    0.000;    0.000
430.286; 3201.175;    0.000;    0.000
430.337; 2133.175;    0.000;    0.000
430.388; 1634.175;    0.000;    0.000
430.439; 1618.175;    0.000;    0.000
430.490; 1564.175;    0.000;    0.000
430.542; 1519.175;    0.000;    0.000
430.593; 1563.175;    0.000;    0.000
430.644; 1709.175;    0.000;    0.000
430.695; 2201.175;    0.000;    0.000
430.746; 2486.175;    0.000;    0.000
430.797; 2286.175;    0.000;    0.000
430.848; 1768.175;    0.000;    0.000
430.899; 1431.175;    0.000;    0.000
430.949; 1387.175;    0.000;    0.000
431.000; 1391.175;    0.000;    0.000
431.051; 1359.175;    0.000;    0.000
431.102; 1330.175;    0.000;    0.000
431.153; 1358.175;    0.000;    0.000
431.204; 1400.175;    0.000;    0.000
431.255; 1326.175;    0.000;    0.000
431.306; 1358.175;    0.000;    0.000
431.357; 1337.175;    0.000;    0.000
431.408; 1309.175;    0.000;    0.000
431.458; 1322.175;    0.000;    0.000
431.509; 1337.175;    0.000;    0.000
431.560; 1459.175;    0.000;    0.000
431.611; 1381.175;    0.000;    0.000
431.662; 1505.175;    0.000;    0.000
431.713; 1641.175;    0.000;    0.000
431.763; 1977.175;    0.000;    0.000
431.814; 2558.175;    0.000;    0.000
431.865; 2417.175;    0.000;    0.000
431.916; 1955.175;    0.000;    0.000
431.966; 1465.175;    0.000;    0.000
432.017; 1377.175;    0.000;    0.000
432.068; 1349.175;    0.000;    0.000
432.118; 1347.175;    0.000;    0.000
432.169; 1296.175;    0.000;    0.000
432.220; 1377.175;    0.000;    0.000
432.271; 1237.175;    0.000;    0.000
432.321; 1287.175;    0.000;    0.000
432.372; 1300.175;    0.000;    0.000
432.423; 1296.175;    0.000;    0.000
432.473; 1261.175;    0.000;    0.000
432.524; 1255.175;    0.000;    0.000
432.574; 1260.175;    0.000;    0.000
432.625; 1288.175;    0.000;    0.000
432.676; 1318.175;    0.000;    0.000
432.726; 1287.175;    0.000;    0.000
432.777; 1288.175;    0.000;    0.000
432.827; 1286.175;    0.000;    0.000
432.878; 1296.175;    0.000;    0.000
432.928; 1251.175;    0.000;    0.000
432.979; 1288.175;    0.000;    0.000
433.029; 1262.175;    0.000;    0.000
433.080; 1199.175;    0.000;    0.000
433.130; 1212.175;    0.000;    0.000
433.181; 1322.175;    0.000;    0.000
433.231; 1330.175;    0.000;    0.000
433.282; 1317.175;    0.000;    0.000
433.332; 1248.175;    0.000;    0.000
433.383; 1302.175;    0.000;    0.000
433.433; 1299.175;    0.000;    0.000
433.484; 1313.175;    0.000;    0.000
433.534; 1225.175;    0.000;    0.000
433.585; 1298.175;    0.000;    0.000
433.635; 1307.175;    0.000;    0.000
433.685; 1272.175;    0.000;    0.000
433.736; 1285.175;    0.000;    0.000
433.786; 1313.175;    0.000;    0.000
433.836; 1243.175;    0.000;    0.000
433.887; 1296.175;    0.000;    0.000
433.937; 1308.175;    0.000;    0.000
433.987; 1267.175;    0.000;    0.000
434.038; 1255.175;    0.000;    0.000
434.088; 1326.175;    0.000;    0.000
434.138; 1278.175;    0.000;    0.000
434.188; 1304.175;    0.000;    0.000
434.239; 1268.175;    0.000;    0.000
434.289; 1324.175;    0.000;    0.000
434.339; 1297.175;    0.000;    0.000
434.389; 1261.175;    0.000;    0.000
434.440; 1374.175;    0.000;    0.000
434.490; 1312.175;    0.000;    0.000
434.540; 1350.175;    0.000;    0.000
434.590; 1305.175;    0.000;    0.000
434.640; 1267.175;    0.000;    0.000
434.691; 1229.175;    0.000;    0.000
434.741; 1334.175;    0.000;    0.000
434.791; 1329.175;    0.000;    0.000
434.841; 1299.175;    0.000;    0.000
434.891; 1366.175;    0.000;    0.000
434.941; 1343.175;    0.000;    0.000
434.991; 1273.175;    0.000;    0.000
435.042; 1337.175;    0.000;    0.000
435.092; 1336.175;    0.000;    0.000
435.142; 1311.175;    0.000;    0.000
435.192; 1278.175;    0.000;    0.000
435.242; 1281.175;    0.000;    0.000
435.292; 1239.175;    0.000;    0.000
435.342; 1230.175;    0.000;    0.000
435.392; 1306.175;    0.000;    0.000
435.442; 1329.175;    0.000;    0.000
435.492; 1333.175;    0.000;    0.000
435.542; 1274.175;    0.000;    0.000
435.592; 1269.175;    0.000;    0.000
435.642; 1335.175;    0.000;    0.000
435.692; 1227.175;    0.000;    0.000
435.742; 1283.175;    0.000;    0.000
435.792; 1255.175;    0.000;    0.000
435.842; 1219.175;    0.000;    0.000
435.891; 1190.175;    0.000;    0.000
435.941; 1274.175;    0.000;    0.000
435.991; 1240.175;    0.000;    0.000
436.041; 1234.175;    0.000;    0.000
436.091; 1198.175;    0.000;    0.000
436.141; 1227.175;    0.000;    0.000
436.191; 1223.175;    0.000;    0.000
436.241; 1282.175;    0.000;    0.000
436.290; 1219.175;    0.000;    0.000
436.340; 1205.175;    0.000;    0.000
436.390; 1168.175;    0.000;    0.000
436.440; 1192.175;    0.000;    0.000
436.490; 1179.175;    0.000;    0.000
436.539; 1210.175;    0.000;    0.000
436.589; 1159.175;    0.000;    0.000
436.639; 1164.175;    0.000;    0.000
436.689; 1180.175;    0.000;    0.000
436.738; 1230.175;    0.000;    0.000
436.788; 1173.175;    0.000;    0.000
436.838; 1194.175;    0.000;    0.000
436.887; 1184.175;    0.000;    0.000
436.937; 1152.175;    0.000;    0.000
436.987; 1129.175;    0.000;    0.000
437.036; 1189.175;    0.000;    0.000
437.086; 1231.175;    0.000;    0.000
437.136; 1192.175;    0.000;    0.000
437.185; 1108.175;    0.000;    0.000
437.235; 1239.175;    0.000;    0.000
437.285; 1193.175;    0.000;    0.000
437.334; 1220.175;    0.000;    0.000
437.384; 1188.175;    0.000;    0.000
437.433; 1158.175;    0.000;    0.000
437.483; 1190.175;    0.000;    0.000
437.532; 1231.175;    0.000;    0.000
437.582; 1214.175;    0.000;    0.000
437.631; 1226.175;    0.000;    0.000
437.681; 1203.175;    0.000;    0.000
437.731; 1127.175;    0.000;    0.000
437.780; 1158.175;    0.000;    0.000
437.829; 1221.175;    0.000;    0.000
437.879; 1121.175;    0.000;    0.000
437.928; 1170.175;    0.000;    0.000
437.978; 1202.175;    0.000;    0.000
438.027; 1209.175;    0.000;    0.000
438.077; 1163.175;    0.000;    0.000
438.126; 1193.175;    0.000;    0.000
438.176; 1135.175;    0.000;    0.000
438.225; 1181.175;    0.000;    0.000
438.274; 1141.175;    0.000;    0.000
438.324; 1212.175;    0.000;    0.000
438.373; 1125.175;    0.000;    0.000
438.422; 1152.175;    0.000;    0.000
438.472; 1195.175;    0.000;    0.000
438.521; 1143.175;    0.000;    0.000
438.571; 1158.175;    0.000;    0.000
438.620; 1251.175;    0.000;    0.000
438.669; 1140.175;    0.000;    0.000
438.718; 1160.175;    0.000;    0.000
438.768; 1152.175;    0.000;    0.000
438.817; 1157.175;    0.000;    0.000
438.866; 1152.175;    0.000;    0.000
438.915; 1178.175;    0.000;    0.000
438.965; 1134.175;    0.000;    0.000
439.014; 1184.175;    0.000;    0.000
439.063; 1171.175;    0.000;    0.000
439.112; 1096.175;    0.000;    0.000
439.162; 1205.175;    0.000;    0.000
439.211; 1199.175;    0.000;    0.000
439.260; 1122.175;    0.000;    0.000
439.309; 1194.175;    0.000;    0.000
439.358; 1192.175;    0.000;    0.000
439.407; 1171.175;    0.000;    0.000
439.456; 1180.175;    0.000;    0.000
439.506; 1185.175;    0.000;    0.000
439.555; 1235.175;    0.000;    0.000
439.604; 1218.175;    0.000;    0.000
439.653; 1226.175;    0.000;    0.000
439.702; 1136.175;    0.000;    0.000
439.751; 1047.175;    0.000;    0.000
439.800; 1134.175;    0.000;    0.000
439.849; 1143.175;    0.000;    0.000
439.898; 1189.175;    0.000;    0.000
439.947; 1148.175;    0.000;    0.000
439.996; 1110.175;    0.000;    0.000
440.045; 1191.175;    0.000;    0.000
440.094; 1112.175;    0.000;    0.000
440.143; 1157.175;    0.000;    0.000
440.192; 1246.175;    0.000;    0.000
440.241; 1125.175;    0.000;    0.000
440.290; 1204.175;    0.000;    0.000
440.339; 1174.175;    0.000;    0.000
440.388; 1167.175;    0.000;    0.000
440.437; 1195.175;    0.000;    0.000
440.486; 1213.175;    0.000;    0.000
440.535; 1186.175;    0.000;    0.000
440.583; 1181.175;    0.000;    0.000
440.632; 1212.175;    0.000;    0.000
440.681; 1146.175;    0.000;    0.000
440.730; 1159.175;    0.000;    0.000
440.779; 1203.175;    0.000;    0.000
440.828; 1157.175;    0.000;    0.000
440.876; 1192.175;    0.000;    0.000
440.925; 1183.175;    0.000;    0.000
440.974; 1242.175;    0.000;    0.000
441.023; 1218.175;    0.000;    0.000
441.072; 1177.175;    0.000;    0.000
441.120; 1230.175;    0.000;    0.000
441.169; 1256.175;    0.000;    0.000
441.218; 1247.175;    0.000;    0.000
441.267; 1233.175;    0.000;    0.000
441.315; 1185.175;    0.000;    0.000
441.364; 1209.175;    0.000;    0.000
441.413; 1228.175;    0.000;    0.000
441.461; 1166.175;    0.000;    0.000
441.510; 1227.175;    0.000;    0.000
441.559; 1227.175;    0.000;    0.000
441.607; 1201.175;    0.000;    0.000
441.656; 1238.175;    0.000;    0.000
441.705; 1253.175;    0.000;    0.000
441.753; 1284.175;    0.000;    0.000
441.802; 1234.175;    0.000;    0.000
441.850; 1279.175;    0.000;    0.000
441.899; 1151.175;    0.000;    0.000
441.948; 1195.175;    0.000;    0.000
441.996; 1228.175;    0.000;    0.000
442.045; 1267.175;    0.000;    0.000
442.093; 1242.175;    0.000;    0.000
442.142; 1270.175;    0.000;    0.000
442.190; 1316.175;    0.000;    0.000
442.239; 1302.175;    0.000;    0.000
442.287; 1266.175;    0.000;    0.000
442.336; 1455.175;    0.000;    0.000
442.384; 1393.175;    0.000;    0.000
442.433; 1646.175;    0.000;    0.000
442.481; 2025.175;    0.000;    0.000
442.529; 2143.175;    0.000;    0.000
442.578; 1950.175;    0.000;    0.000
442.626; 1595.175;    0.000;    0.000
442.675; 1535.175;    0.000;    0.000
442.723; 1337.175;    0.000;    0.000
442.771; 1322.175;    0.000;    0.000
442.820; 1261.175;    0.000;    0.000
442.868; 1260.175;    0.000;    0.000
442.917; 1242.175;    0.000;    0.000
442.965; 1335.175;    0.000;    0.000
443.013; 1333.175;    0.000;    0.000
443.062; 1339.175;    0.000;    0.000
443.110; 1344.175;    0.000;    0.000
443.158; 1405.175;    0.000;    0.000
443.206; 1422.175;    0.000;    0.000
443.255; 1527.175;    0.000;    0.000
443.303; 1612.175;    0.000;    0.000
443.351; 1808.175;    0.000;    0.000
443.399; 2203.175;    0.000;    0.000
443.448; 2939.175;    0.000;    0.000
443.496; 3196.175;    0.000;    0.000
443.544; 2886.175;    0.000;    0.000
443.592; 2210.175;    0.000;    0.000
443.640; 1744.175;    0.000;    0.000
443.689; 1462.175;    0.000;    0.000
443.737; 1408.175;    0.000;    0.000
443.785; 1455.175;    0.000;    0.000
443.833; 1437.175;    0.000;    0.000
443.881; 1318.175;    0.000;    0.000
443.929; 1417.175;    0.000;    0.000
443.977; 1332.175;    0.000;    0.000
444.025; 1310.175;    0.000;    0.000
444.074; 1353.175;    0.000;    0.000
444.122; 1301.175;    0.000;    0.000
444.170; 1267.175;    0.000;    0.000
444.218; 1280.175;    0.000;    0.000
444.266; 1325.175;    0.000;    0.000
444.314; 1315.175;    0.000;    0.000
444.362; 1321.175;    0.000;    0.000
444.410; 1234.175;    0.000;    0.000
444.458; 1340.175;    0.000;    0.000
444.506; 1315.175;    0.000;    0.000
444.554; 1332.175;    0.000;    0.000
444.602; 1393.175;    0.000;    0.000
444.650; 1301.175;    0.000;    0.000
444.698; 1348.175;    0.000;    0.000
444.746; 1308.175;    0.000;    0.000
444.793; 1306.175;    0.000;    0.000
444.841; 1319.175;    0.000;    0.000
444.889; 1327.175;    0.000;    0.000
444.937; 1406.175;    0.000;    0.000
444.985; 1374.175;    0.000;    0.000
445.033; 1441.175;    0.000;    0.000
445.081; 1420.175;    0.000;    0.000
445.129; 1484.175;    0.000;    0.000
445.176; 1457.175;    0.000;    0.000
445.224; 1557.175;    0.000;    0.000
445.272; 1773.175;    0.000;    0.000
445.320; 2072.175;    0.000;    0.000
445.368; 2488.175;    0.000;    0.000
445.415; 3209.175;    0.000;    0.000
445.463; 3615.175;    0.000;    0.000
445.511; 3447.175;    0.000;    0.000
445.559; 2862.175;    0.000;    0.000
445.606; 2338.175;    0.000;    0.000
445.654; 1885.175;    0.000;    0.000
445.702; 1614.175;    0.000;    0.000
445.749; 1524.175;    0.000;    0.000
445.797; 1489.175;    0.000;    0.000
445.845; 1447.175;    0.000;    0.000
445.892; 1391.175;    0.000;    0.000
445.940; 1379.175;    0.000;    0.000
445.988; 1388.175;    0.000;    0.000
446.035; 1313.175;    0.000;    0.000
446.083; 1330.175;    0.000;    0.000
446.131; 1214.175;    0.000;    0.000
446.178; 1302.175;    0.000;    0.000
446.226; 1252.175;    0.000;    0.000
446.273; 1201.175;    0.000;    0.000
446.321; 1229.175;    0.000;    0.000
446.368; 1137.175;    0.000;    0.000
446.416; 1221.175;    0.000;    0.000
446.463; 1236.175;    0.000;    0.000
446.511; 1167.175;    0.000;    0.000
446.558; 1215.175;    0.000;    0.000
446.606; 1207.175;    0.000;    0.000
446.653; 1193.175;    0.000;    0.000
446.701; 1234.175;    0.000;    0.000
446.748; 1168.175;    0.000;    0.000
446.796; 1178.175;    0.000;    0.000
446.843; 1244.175;    0.000;    0.000
446.891; 1169.175;    0.000;    0.000
446.938; 1183.175;    0.000;    0.000
446.985; 1146.175;    0.000;    0.000
447.033; 1231.175;    0.000;    0.000
447.080; 1134.175;    0.000;    0.000
447.128; 1177.175;    0.000;    0.000
447.175; 1186.175;    0.000;    0.000
447.222; 1123.175;    0.000;    0.000
447.270; 1258.175;    0.000;    0.000
447.317; 1151.175;    0.000;    0.000
447.364; 1123.175;    0.000;    0.000
447.411; 1197.175;    0.000;    0.000
447.459; 1136.175;    0.000;    0.000
447.506; 1137.175;    0.000;    0.000
447.553; 1146.175;    0.000;    0.000
447.601; 1134.175;    0.000;    0.000
447.648; 1139.175;    0.000;    0.000
447.695; 1170.175;    0.000;    0.000
447.742; 1109.175;    0.000;    0.000
447.789; 1127.175;    0.000;    0.000
447.837; 1139.175;    0.000;    0.000
447.884; 1154.175;    0.000;    0.000
447.931; 1153.175;    0.000;    0.000
447.978; 1125.175;    0.000;    0.000
448.025; 1194.175;    0.000;    0.000
448.072; 1154.175;    0.000;    0.000
448.120; 1153.175;    0.000;    0.000
448.167; 1203.175;    0.000;    0.000
448.214; 1097.175;    0.000;    0.000
448.261; 1141.175;    0.000;    0.000
448.308; 1179.175;    0.000;    0.000
448.355; 1201.175;    0.000;    0.000
448.402; 1204.175;    0.000;    0.000
448.449; 1159.175;    0.000;    0.000
448.496; 1119.175;    0.000;    0.000
448.543; 1134.175;    0.000;    0.000
448.590; 1183.175;    0.000;    0.000
448.637; 1158.175;    0.000;    0.000
448.684; 1126.175;    0.000;    0.000
448.731; 1124.175;    0.000;    0.000
448.778; 1163.175;    0.000;    0.000
448.825; 1140.175;    0.000;    0.000
448.872; 1097.175;    0.000;    0.000
448.919; 1171.175;    0.000;    0.000
448.966; 1150.175;    0.000;    0.000
449.013; 1190.175;    0.000;    0.000
449.060; 1136.175;    0.000;    0.000
449.107; 1167.175;    0.000;    0.000
449.154; 1156.175;    0.000;    0.000
449.200; 1065.175;    0.000;    0.000
449.247; 1119.175;    0.000;    0.000
449.294; 1080.175;    0.000;    0.000
449.341; 1148.175;    0.000;    0.000
449.388; 1160.175;    0.000;    0.000
449.435; 1093.175;    0.000;    0.000
449.481; 1156.175;    0.000;    0.000
449.528; 1146.175;    0.000;    0.000
449.575; 1090.175;    0.000;    0.000
449.622; 1156.175;    0.000;    0.000
449.668; 1093.175;    0.000;    0.000
449.715; 1136.175;    0.000;    0.000
449.762; 1163.175;    0.000;    0.000
449.809; 1221.175;    0.000;    0.000
449.855; 1118.175;    0.000;    0.000
449.902; 1101.175;    0.000;    0.000
449.949; 1180.175;    0.000;    0.000
449.995; 1182.175;    0.000;    0.000
450.042; 1131.175;    0.000;    0.000
450.089; 1175.175;    0.000;    0.000
450.135; 1169.175;    0.000;    0.000
450.182; 1122.175;    0.000;    0.000
450.229; 1037.175;    0.000;    0.000
450.275; 1116.175;    0.000;    0.000
450.322; 1132.175;    0.000;    0.000
450.368; 1229.175;    0.000;    0.000
450.415; 1203.175;    0.000;    0.000
450.462; 1161.175;    0.000;    0.000
450.508; 1132.175;    0.000;    0.000
450.555; 1150.175;    0.000;    0.000
450.601; 1179.175;    0.000;    0.000
450.648; 1136.175;    0.000;    0.000
450.694; 1083.175;    0.000;    0.000
450.741; 1126.175;    0.000;    0.000
450.787; 1155.175;    0.000;    0.000
450.834; 1152.175;    0.000;    0.000
450.880; 1186.175;    0.000;    0.000
450.927; 1122.175;    0.000;    0.000
450.973; 1121.175;    0.000;    0.000
451.019; 1100.175;    0.000;    0.000
451.066; 1162.175;    0.000;    0.000
451.112; 1115.175;    0.000;    0.000
451.159; 1155.175;    0.000;    0.000
451.205; 1029.175;    0.000;    0.000
451.251; 1158.175;    0.000;    0.000
451.298; 1157.175;    0.000;    0.000
451.344; 1118.175;    0.000;    0.000
451.390; 1132.175;    0.000;    0.000
451.437; 1151.175;    0.000;    0.000
451.483; 1081.175;    0.000;    0.000
451.529; 1065.175;    0.000;    0.000
451.576; 1177.175;    0.000;    0.000
451.622; 1090.175;    0.000;    0.000
451.668; 1124.175;    0.000;    0.000
451.714; 1121.175;    0.000;    0.000
451.761; 1125.175;    0.000;    0.000
451.807; 1111.175;    0.000;    0.000
451.853; 1087.175;    0.000;    0.000
451.899; 1108.175;    0.000;    0.000
451.945; 1109.175;    0.000;    0.000
451.992; 1101.175;    0.000;    0.000
452.038; 1146.175;    0.000;    0.000
452.084; 1120.175;    0.000;    0.000
452.130; 1158.175;    0.000;    0.000
452.176; 1091.175;    0.000;    0.000
452.222; 1075.175;    0.000;    0.000
452.268; 1089.175;    0.000;    0.000
452.315; 1086.175;    0.000;    0.000
452.361; 1091.175;    0.000;    0.000
452.407; 1190.175;    0.000;    0.000
452.453; 1114.175;    0.000;    0.000
452.499; 1155.175;    0.000;    0.000
452.545; 1117.175;    0.000;    0.000
452.591; 1130.175;    0.000;    0.000
452.637; 1183.175;    0.000;    0.000
452.683; 1201.175;    0.000;    0.000
452.729; 1244.175;    0.000;    0.000
452.775; 1211.175;    0.000;    0.000
452.821; 1203.175;    0.000;    0.000
452.867; 1126.175;    0.000;    0.000
452.913; 1101.175;    0.000;    0.000
452.959; 1174.175;    0.000;    0.000
453.005; 1142.175;    0.000;    0.000
453.051; 1150.175;    0.000;    0.000
453.097; 1105.175;    0.000;    0.000
453.142; 1135.175;    0.000;    0.000
453.188; 1117.175;    0.000;    0.000
453.234; 1123.175;    0.000;    0.000
453.280; 1091.175;    0.000;    0.000
453.326; 1069.175;    0.000;    0.000
453.372; 1132.175;    0.000;    0.000
453.418; 1179.175;    0.000;    0.000
453.463; 1132.175;    0.000;    0.000
453.509; 1144.175;    0.000;    0.000
453.555; 1083.175;    0.000;    0.000
453.601; 1124.175;    0.000;    0.000
453.647; 1148.175;    0.000;    0.000
453.692; 1144.175;    0.000;    0.000
453.738; 1134.175;    0.000;    0.000
453.784; 1068.175;    0.000;    0.000
453.829; 1174.175;    0.000;    0.000
453.875; 1126.175;    0.000;    0.000
453.921; 1070.175;    0.000;    0.000
453.967; 1117.175;    0.000;    0.000
454.012; 1100.175;    0.000;    0.000
454.058; 1115.175;    0.000;    0.000
454.104; 1147.175;    0.000;    0.000
454.149; 1105.175;    0.000;    0.000
454.195; 1087.175;    0.000;    0.000
454.240; 1158.175;    0.000;    0.000
454.286; 1120.175;    0.000;    0.000
454.332; 1100.175;    0.000;    0.000
454.377; 1127.175;    0.000;    0.000
454.423; 1144.175;    0.000;    0.000
454.468; 1141.175;    0.000;    0.000
454.514; 1088.175;    0.000;    0.000
454.559; 1124.175;    0.000;    0.000
454.605; 1128.175;    0.000;    0.000
454.650; 1076.175;    0.000;    0.000
454.696; 1139.175;    0.000;    0.000
454.741; 1150.175;    0.000;    0.000
454.787; 1116.175;    0.000;    0.000
454.832; 1122.175;    0.000;    0.000
454.878; 1176.175;    0.000;    0.000
454.923; 1130.175;    0.000;    0.000
454.969; 1119.175;    0.000;    0.000
455.014; 1114.175;    0.000;    0.000
455.060; 1145.175;    0.000;    0.000
455.105; 1106.175;    0.000;    0.000
455.150; 1161.175;    0.000;    0.000
455.196; 1076.175;    0.000;    0.000
455.241; 1161.175;    0.000;    0.000
455.286; 1121.175;    0.000;    0.000
455.332; 1095.175;    0.000;    0.000
455.377; 1121.175;    0.000;    0.000
455.422; 1124.175;    0.000;    0.000
455.468; 1169.175;    0.000;    0.000
455.513; 1087.175;    0.000;    0.000
455.558; 1088.175;    0.000;    0.000
455.604; 1137.175;    0.000;    0.000
455.649; 1148.175;    0.000;    0.000
455.694; 1091.175;    0.000;    0.000
455.739; 1130.175;    0.000;    0.000
455.785; 1140.175;    0.000;    0.000
455.830; 1133.175;    0.000;    0.000
455.875; 1098.175;    0.000;    0.000
455.920; 1058.175;    0.000;    0.000
455.965; 1133.175;    0.000;    0.000
456.010; 1110.175;    0.000;    0.000
456.056; 1115.175;    0.000;    0.000
456.101; 1057.175;    0.000;    0.000
456.146; 1095.175;    0.000;    0.000
456.191; 1177.175;    0.000;    0.000
456.236; 1083.175;    0.000;    0.000
456.281; 1072.175;    0.000;    0.000
456.326; 1119.175;    0.000;    0.000
456.371; 1176.175;    0.000;    0.000
456.416; 1169.175;    0.000;    0.000
456.461; 1134.175;    0.000;    0.000
456.506; 1118.175;    0.000;    0.000
456.552; 1144.175;    0.000;    0.000
456.597; 1112.175;    0.000;    0.000
456.642; 1127.175;    0.000;    0.000
456.687; 1119.175;    0.000;    0.000
456.732; 1171.175;    0.000;    0.000
456.776; 1112.175;    0.000;    0.000
456.821; 1154.175;    0.000;    0.000
456.866; 1088.175;    0.000;    0.000
456.911; 1106.175;    0.000;    0.000
456.956; 1108.175;    0.000;    0.000
457.001; 1144.175;    0.000;    0.000
457.046; 1097.175;    0.000;    0.000
457.091; 1152.175;    0.000;    0.000
457.136; 1113.175;    0.000;    0.000
457.181; 1086.175;    0.000;    0.000
457.225; 1142.175;    0.000;    0.000
457.270; 1171.175;    0.000;    0.000
457.315; 1162.175;    0.000;    0.000
457.360; 1115.175;    0.000;    0.000
457.405; 1105.175;    0.000;    0.000
457.450; 1205.175;    0.000;    0.000
457.494; 1166.175;    0.000;    0.000
457.539; 1129.175;    0.000;    0.000
457.584; 1138.175;    0.000;    0.000
457.629; 1129.175;    0.000;    0.000
457.673; 1175.175;    0.000;    0.000
457.718; 1227.175;    0.000;    0.000
457.763; 1319.175;    0.000;    0.000
457.807; 1365.175;    0.000;    0.000
457.852; 1335.175;    0.000;    0.000
457.897; 1318.175;    0.000;    0.000
457.941; 1314.175;    0.000;    0.000
457.986; 1268.175;    0.000;    0.000
458.031; 1351.175;    0.000;    0.000
458.075; 1356.175;    0.000;    0.000
458.120; 1453.175;    0.000;    0.000
458.165; 1499.175;    0.000;    0.000
458.209; 1398.175;    0.000;    0.000
458.254; 1286.175;    0.000;    0.000
458.298; 1272.175;    0.000;    0.000
458.343; 1233.175;    0.000;    0.000
458.387; 1242.175;    0.000;    0.000
458.432; 1287.175;    0.000;    0.000
458.476; 1357.175;    0.000;    0.000
458.521; 1448.175;    0.000;    0.000
458.565; 1611.175;    0.000;    0.000
458.610; 1563.175;    0.000;    0.000
458.654; 1522.175;    0.000;    0.000
458.699; 1341.175;    0.000;    0.000
458.743; 1286.175;    0.000;    0.000
458.788; 1286.175;    0.000;    0.000
458.832; 1328.175;    0.000;    0.000
458.877; 1317.175;    0.000;    0.000
458.921; 1255.175;    0.000;    0.000
458.965; 1319.175;    0.000;    0.000
459.010; 1305.175;    0.000;    0.000
459.054; 1254.175;    0.000;    0.000
459.098; 1269.175;    0.000;    0.000
459.143; 1304.175;    0.000;    0.000
459.187; 1318.175;    0.000;    0.000
459.231; 1287.175;    0.000;    0.000
459.276; 1275.175;    0.000;    0.000
459.320; 1231.175;    0.000;    0.000
459.364; 1264.175;    0.000;    0.000
459.409; 1255.175;    0.000;    0.000
459.453; 1248.175;    0.000;    0.000
459.497; 1278.175;    0.000;    0.000
459.541; 1280.175;    0.000;    0.000
459.586; 1306.175;    0.000;    0.000
459.630; 1278.175;    0.000;    0.000
459.674; 1262.175;    0.000;    0.000
459.718; 1237.175;    0.000;    0.000
459.762; 1244.175;    0.000;    0.000
459.807; 1269.175;    0.000;    0.000
459.851; 1255.175;    0.000;    0.000
459.895; 1261.175;    0.000;    0.000
459.939; 1251.175;    0.000;    0.000
459.983; 1236.175;    0.000;    0.000
460.027; 1253.175;    0.000;    0.000
460.071; 1338.175;    0.000;    0.000
460.115; 1317.175;    0.000;    0.000
460.159; 1360.175;    0.000;    0.000
460.204; 1242.175;    0.000;    0.000
460.248; 1247.175;    0.000;    0.000
460.292; 1293.175;    0.000;    0.000
460.336; 1283.175;    0.000;    0.000
460.380; 1280.175;    0.000;    0.000
460.424; 1327.175;    0.000;    0.000
460.468; 1318.175;    0.000;    0.000
460.512; 1379.175;    0.000;    0.000
460.556; 1330.175;    0.000;    0.000
460.600; 1308.175;    0.000;    0.000
460.643; 1330.175;    0.000;    0.000
460.687; 1399.175;    0.000;    0.000
460.731; 1394.175;    0.000;    0.000
460.775; 1315.175;    0.000;    0.000
460.819; 1298.175;    0.000;    0.000
460.863; 1369.175;    0.000;    0.000
460.907; 1234.175;    0.000;    0.000
460.951; 1291.175;    0.000;    0.000
460.995; 1308.175;    0.000;    0.000
461.038; 1325.175;    0.000;    0.000
461.082; 1361.175;    0.000;    0.000
461.126; 1357.175;    0.000;    0.000
461.170; 1332.175;    0.000;    0.000
461.214; 1274.175;    0.000;    0.000
461.257; 1265.175;    0.000;    0.000
461.301; 1281.175;    0.000;    0.000
461.345; 1303.175;    0.000;    0.000
461.389; 1270.175;    0.000;    0.000
461.432; 1345.175;    0.000;    0.000
461.476; 1339.175;    0.000;    0.000
461.520; 1261.175;    0.000;    0.000
461.563; 1250.175;    0.000;    0.000
461.607; 1337.175;    0.000;    0.000
461.651; 1289.175;    0.000;    0.000
461.694; 1262.175;    0.000;    0.000
461.738; 1289.175;    0.000;    0.000
461.782; 1253.175;    0.000;    0.000
461.825; 1315.175;    0.000;    0.000
461.869; 1285.175;    0.000;    0.000
461.913; 1329.175;    0.000;    0.000
461.956; 1341.175;    0.000;    0.000
462.000; 1315.175;    0.000;    0.000
462.043; 1330.175;    0.000;    0.000
462.087; 1317.175;    0.000;    0.000
462.130; 1345.175;    0.000;    0.000
462.174; 1355.175;    0.000;    0.000
462.217; 1388.175;    0.000;    0.000
462.261; 1361.175;    0.000;    0.000
462.304; 1353.175;    0.000;    0.000
462.348; 1407.175;    0.000;    0.000
462.391; 1344.175;    0.000;    0.000
462.435; 1384.175;    0.000;    0.000
462.478; 1291.175;    0.000;    0.000
462.522; 1335.175;    0.000;    0.000
462.565; 1426.175;    0.000;    0.000
462.608; 1376.175;    0.000;    0.000
462.652; 1376.175;    0.000;    0.000
462.695; 1472.175;    0.000;    0.000
462.739; 1404.175;    0.000;    0.000
462.782; 1465.175;    0.000;    0.000
462.825; 1480.175;    0.000;    0.000
462.869; 1456.175;    0.000;    0.000
462.912; 1418.175;    0.000;    0.000
462.955; 1442.175;    0.000;    0.000
462.998; 1491.175;    0.000;    0.000
463.042; 1464.175;    0.000;    0.000
463.085; 1410.175;    0.000;    0.000
463.128; 1513.175;    0.000;    0.000
463.172; 1437.175;    0.000;    0.000
463.215;  368.175;    0.000;    0.000
463.258;  306.175;    0.000;    0.000
463.301;  303.175;    0.000;    0.000
463.344;  317.175;    0.000;    0.000
463.388;  317.175;    0.000;    0.000
463.431;  280.175;    0.000;    0.000
463.474;  367.175;    0.000;    0.000
463.517;  334.175;    0.000;    0.000
463.560;  347.175;    0.000;    0.000
463.603;  359.175;    0.000;    0.000
463.646;  382.175;    0.000;    0.000
463.690;  320.175;    0.000;    0.000
463.733;  365.175;    0.000;    0.000
463.776;  284.175;    0.000;    0.000
463.819;  320.175;    0.000;    0.000
463.862;  303.175;    0.000;    0.000

