Yeso_posicion1_Burst5-n5
Integration time [ms]:   1.000
Averaging Nr. [scans]: 1
Smoothing Nr. [pixels]: 0
Data measured with spectrometer [name]: VIS
Wave   ;Sample   ;Dark     ;Reference
[nm]   ;[counts] ;[counts] ;[counts] 

450.961;  173.000;    0.000;    0.000
451.100;  224.000;    0.000;    0.000
451.239;  185.000;    0.000;    0.000
451.377;  233.000;    0.000;    0.000
451.516;  201.000;    0.000;    0.000
451.655;  212.000;    0.000;    0.000
451.794;  185.000;    0.000;    0.000
451.932;  224.000;    0.000;    0.000
452.071;  212.000;    0.000;    0.000
452.210;  210.000;    0.000;    0.000
452.348;  211.000;    0.000;    0.000
452.487;  220.000;    0.000;    0.000
452.626;  203.000;    0.000;    0.000
452.764;  229.000;    0.000;    0.000
452.903;  216.000;    0.000;    0.000
453.042;  255.000;    0.000;    0.000
453.180; 2299.000;    0.000;    0.000
453.319; 2305.000;    0.000;    0.000
453.458; 2304.000;    0.000;    0.000
453.596; 2425.000;    0.000;    0.000
453.735; 2397.000;    0.000;    0.000
453.873; 2367.000;    0.000;    0.000
454.012; 2364.000;    0.000;    0.000
454.150; 2377.000;    0.000;    0.000
454.289; 2424.000;    0.000;    0.000
454.427; 2494.000;    0.000;    0.000
454.566; 2535.000;    0.000;    0.000
454.705; 2527.000;    0.000;    0.000
454.843; 2578.000;    0.000;    0.000
454.981; 2603.000;    0.000;    0.000
455.120; 2566.000;    0.000;    0.000
455.258; 2573.000;    0.000;    0.000
455.397; 2625.000;    0.000;    0.000
455.535; 2630.000;    0.000;    0.000
455.674; 2619.000;    0.000;    0.000
455.812; 2756.000;    0.000;    0.000
455.950; 2754.000;    0.000;    0.000
456.089; 2790.000;    0.000;    0.000
456.227; 2688.000;    0.000;    0.000
456.366; 2923.000;    0.000;    0.000
456.504; 2845.000;    0.000;    0.000
456.642; 2844.000;    0.000;    0.000
456.781; 2766.000;    0.000;    0.000
456.919; 2721.000;    0.000;    0.000
457.057; 2755.000;    0.000;    0.000
457.196; 2762.000;    0.000;    0.000
457.334; 2817.000;    0.000;    0.000
457.472; 2972.000;    0.000;    0.000
457.610; 3016.000;    0.000;    0.000
457.749; 3385.000;    0.000;    0.000
457.887; 3754.000;    0.000;    0.000
458.025; 3970.000;    0.000;    0.000
458.163; 3999.000;    0.000;    0.000
458.301; 3997.000;    0.000;    0.000
458.440; 4148.000;    0.000;    0.000
458.578; 4382.000;    0.000;    0.000
458.716; 4080.000;    0.000;    0.000
458.854; 3795.000;    0.000;    0.000
458.992; 3658.000;    0.000;    0.000
459.130; 3619.000;    0.000;    0.000
459.269; 3558.000;    0.000;    0.000
459.407; 3599.000;    0.000;    0.000
459.545; 3573.000;    0.000;    0.000
459.683; 3634.000;    0.000;    0.000
459.821; 3579.000;    0.000;    0.000
459.959; 3550.000;    0.000;    0.000
460.097; 3677.000;    0.000;    0.000
460.235; 3698.000;    0.000;    0.000
460.373; 3818.000;    0.000;    0.000
460.511; 4049.000;    0.000;    0.000
460.649; 4128.000;    0.000;    0.000
460.787; 4042.000;    0.000;    0.000
460.925; 3820.000;    0.000;    0.000
461.063; 3780.000;    0.000;    0.000
461.201; 3772.000;    0.000;    0.000
461.339; 3773.000;    0.000;    0.000
461.477; 3744.000;    0.000;    0.000
461.615; 3899.000;    0.000;    0.000
461.753; 3775.000;    0.000;    0.000
461.891; 3905.000;    0.000;    0.000
462.029; 3966.000;    0.000;    0.000
462.166; 4025.000;    0.000;    0.000
462.304; 3991.000;    0.000;    0.000
462.442; 4143.000;    0.000;    0.000
462.580; 4236.000;    0.000;    0.000
462.718; 4182.000;    0.000;    0.000
462.856; 4274.000;    0.000;    0.000
462.993; 4213.000;    0.000;    0.000
463.131; 4237.000;    0.000;    0.000
463.269; 4243.000;    0.000;    0.000
463.407; 4142.000;    0.000;    0.000
463.545; 4070.000;    0.000;    0.000
463.682; 4068.000;    0.000;    0.000
463.820; 4254.000;    0.000;    0.000
463.958; 4363.000;    0.000;    0.000
464.095; 4514.000;    0.000;    0.000
464.233; 4404.000;    0.000;    0.000
464.371; 4479.000;    0.000;    0.000
464.509; 4382.000;    0.000;    0.000
464.646; 4393.000;    0.000;    0.000
464.784; 4244.000;    0.000;    0.000
464.921; 4255.000;    0.000;    0.000
465.059; 4199.000;    0.000;    0.000
465.197; 4236.000;    0.000;    0.000
465.334; 4140.000;    0.000;    0.000
465.472; 3915.000;    0.000;    0.000
465.609; 4039.000;    0.000;    0.000
465.747; 4027.000;    0.000;    0.000
465.885; 3951.000;    0.000;    0.000
466.022; 4007.000;    0.000;    0.000
466.160; 4005.000;    0.000;    0.000
466.297; 3915.000;    0.000;    0.000
466.435; 3957.000;    0.000;    0.000
466.572; 3897.000;    0.000;    0.000
466.710; 3865.000;    0.000;    0.000
466.847; 3874.000;    0.000;    0.000
466.985; 3903.000;    0.000;    0.000
467.122; 3788.000;    0.000;    0.000
467.260; 3952.000;    0.000;    0.000
467.397; 3878.000;    0.000;    0.000
467.534; 3966.000;    0.000;    0.000
467.672; 3979.000;    0.000;    0.000
467.809; 3901.000;    0.000;    0.000
467.947; 3915.000;    0.000;    0.000
468.084; 3920.000;    0.000;    0.000
468.221; 3966.000;    0.000;    0.000
468.359; 4005.000;    0.000;    0.000
468.496; 4002.000;    0.000;    0.000
468.633; 3913.000;    0.000;    0.000
468.771; 3985.000;    0.000;    0.000
468.908; 3982.000;    0.000;    0.000
469.045; 3998.000;    0.000;    0.000
469.183; 4032.000;    0.000;    0.000
469.320; 3970.000;    0.000;    0.000
469.457; 4060.000;    0.000;    0.000
469.594; 4058.000;    0.000;    0.000
469.732; 4020.000;    0.000;    0.000
469.869; 4141.000;    0.000;    0.000
470.006; 4072.000;    0.000;    0.000
470.143; 4083.000;    0.000;    0.000
470.280; 4204.000;    0.000;    0.000
470.417; 4171.000;    0.000;    0.000
470.555; 3996.000;    0.000;    0.000
470.692; 4109.000;    0.000;    0.000
470.829; 4081.000;    0.000;    0.000
470.966; 4071.000;    0.000;    0.000
471.103; 4165.000;    0.000;    0.000
471.240; 4145.000;    0.000;    0.000
471.377; 4052.000;    0.000;    0.000
471.514; 4044.000;    0.000;    0.000
471.651; 4069.000;    0.000;    0.000
471.789; 4002.000;    0.000;    0.000
471.926; 4034.000;    0.000;    0.000
472.063; 4033.000;    0.000;    0.000
472.200; 4055.000;    0.000;    0.000
472.337; 4046.000;    0.000;    0.000
472.474; 3952.000;    0.000;    0.000
472.611; 3904.000;    0.000;    0.000
472.748; 3896.000;    0.000;    0.000
472.884; 3971.000;    0.000;    0.000
473.021; 3856.000;    0.000;    0.000
473.158; 3937.000;    0.000;    0.000
473.295; 4091.000;    0.000;    0.000
473.432; 3809.000;    0.000;    0.000
473.569; 4041.000;    0.000;    0.000
473.706; 3923.000;    0.000;    0.000
473.843; 3956.000;    0.000;    0.000
473.980; 3933.000;    0.000;    0.000
474.117; 3918.000;    0.000;    0.000
474.253; 3922.000;    0.000;    0.000
474.390; 3937.000;    0.000;    0.000
474.527; 4007.000;    0.000;    0.000
474.664; 4006.000;    0.000;    0.000
474.801; 3932.000;    0.000;    0.000
474.937; 4008.000;    0.000;    0.000
475.074; 4074.000;    0.000;    0.000
475.211; 4059.000;    0.000;    0.000
475.348; 4190.000;    0.000;    0.000
475.484; 4063.000;    0.000;    0.000
475.621; 4037.000;    0.000;    0.000
475.758; 4000.000;    0.000;    0.000
475.894; 4005.000;    0.000;    0.000
476.031; 4070.000;    0.000;    0.000
476.168; 3995.000;    0.000;    0.000
476.304; 4046.000;    0.000;    0.000
476.441; 4119.000;    0.000;    0.000
476.578; 4146.000;    0.000;    0.000
476.714; 4110.000;    0.000;    0.000
476.851; 4151.000;    0.000;    0.000
476.987; 4250.000;    0.000;    0.000
477.124; 4355.000;    0.000;    0.000
477.261; 4184.000;    0.000;    0.000
477.397; 4254.000;    0.000;    0.000
477.534; 4115.000;    0.000;    0.000
477.670; 4226.000;    0.000;    0.000
477.807; 4255.000;    0.000;    0.000
477.943; 4385.000;    0.000;    0.000
478.080; 4258.000;    0.000;    0.000
478.216; 4333.000;    0.000;    0.000
478.353; 4496.000;    0.000;    0.000
478.489; 4371.000;    0.000;    0.000
478.626; 4472.000;    0.000;    0.000
478.762; 4548.000;    0.000;    0.000
478.898; 4688.000;    0.000;    0.000
479.035; 4613.000;    0.000;    0.000
479.171; 4337.000;    0.000;    0.000
479.308; 4425.000;    0.000;    0.000
479.444; 4535.000;    0.000;    0.000
479.580; 4395.000;    0.000;    0.000
479.717; 4506.000;    0.000;    0.000
479.853; 4462.000;    0.000;    0.000
479.989; 4470.000;    0.000;    0.000
480.126; 4535.000;    0.000;    0.000
480.262; 4493.000;    0.000;    0.000
480.398; 4566.000;    0.000;    0.000
480.535; 4478.000;    0.000;    0.000
480.671; 4684.000;    0.000;    0.000
480.807; 4511.000;    0.000;    0.000
480.943; 4492.000;    0.000;    0.000
481.080; 4574.000;    0.000;    0.000
481.216; 4468.000;    0.000;    0.000
481.352; 4463.000;    0.000;    0.000
481.488; 4587.000;    0.000;    0.000
481.624; 4463.000;    0.000;    0.000
481.761; 4550.000;    0.000;    0.000
481.897; 4409.000;    0.000;    0.000
482.033; 4567.000;    0.000;    0.000
482.169; 4479.000;    0.000;    0.000
482.305; 4607.000;    0.000;    0.000
482.441; 4456.000;    0.000;    0.000
482.577; 4452.000;    0.000;    0.000
482.713; 4461.000;    0.000;    0.000
482.849; 4459.000;    0.000;    0.000
482.985; 4467.000;    0.000;    0.000
483.121; 4439.000;    0.000;    0.000
483.257; 4473.000;    0.000;    0.000
483.394; 4542.000;    0.000;    0.000
483.530; 4579.000;    0.000;    0.000
483.666; 4583.000;    0.000;    0.000
483.801; 4443.000;    0.000;    0.000
483.937; 4488.000;    0.000;    0.000
484.073; 4500.000;    0.000;    0.000
484.209; 4573.000;    0.000;    0.000
484.345; 4517.000;    0.000;    0.000
484.481; 4631.000;    0.000;    0.000
484.617; 4657.000;    0.000;    0.000
484.753; 4623.000;    0.000;    0.000
484.889; 4584.000;    0.000;    0.000
485.025; 4406.000;    0.000;    0.000
485.161; 4519.000;    0.000;    0.000
485.296; 4556.000;    0.000;    0.000
485.432; 4533.000;    0.000;    0.000
485.568; 4729.000;    0.000;    0.000
485.704; 4656.000;    0.000;    0.000
485.840; 4569.000;    0.000;    0.000
485.975; 4561.000;    0.000;    0.000
486.111; 4612.000;    0.000;    0.000
486.247; 4608.000;    0.000;    0.000
486.383; 4523.000;    0.000;    0.000
486.518; 4546.000;    0.000;    0.000
486.654; 4620.000;    0.000;    0.000
486.790; 4663.000;    0.000;    0.000
486.926; 4561.000;    0.000;    0.000
487.061; 4717.000;    0.000;    0.000
487.197; 4640.000;    0.000;    0.000
487.333; 4691.000;    0.000;    0.000
487.468; 4797.000;    0.000;    0.000
487.604; 5458.000;    0.000;    0.000
487.739; 6384.000;    0.000;    0.000
487.875; 6725.000;    0.000;    0.000
488.011; 5993.000;    0.000;    0.000
488.146; 5142.000;    0.000;    0.000
488.282; 5058.000;    0.000;    0.000
488.417; 4857.000;    0.000;    0.000
488.553; 4784.000;    0.000;    0.000
488.688; 4802.000;    0.000;    0.000
488.824; 4702.000;    0.000;    0.000
488.960; 4690.000;    0.000;    0.000
489.095; 4638.000;    0.000;    0.000
489.230; 4695.000;    0.000;    0.000
489.366; 4700.000;    0.000;    0.000
489.501; 4576.000;    0.000;    0.000
489.637; 4678.000;    0.000;    0.000
489.772; 4726.000;    0.000;    0.000
489.908; 4637.000;    0.000;    0.000
490.043; 4611.000;    0.000;    0.000
490.179; 4565.000;    0.000;    0.000
490.314; 4592.000;    0.000;    0.000
490.449; 4598.000;    0.000;    0.000
490.585; 4624.000;    0.000;    0.000
490.720; 4549.000;    0.000;    0.000
490.855; 4590.000;    0.000;    0.000
490.991; 4753.000;    0.000;    0.000
491.126; 4636.000;    0.000;    0.000
491.261; 4657.000;    0.000;    0.000
491.396; 4514.000;    0.000;    0.000
491.532; 4552.000;    0.000;    0.000
491.667; 4554.000;    0.000;    0.000
491.802; 4609.000;    0.000;    0.000
491.937; 4600.000;    0.000;    0.000
492.073; 4702.000;    0.000;    0.000
492.208; 4599.000;    0.000;    0.000
492.343; 4712.000;    0.000;    0.000
492.478; 4680.000;    0.000;    0.000
492.613; 4719.000;    0.000;    0.000
492.749; 4600.000;    0.000;    0.000
492.884; 4551.000;    0.000;    0.000
493.019; 4627.000;    0.000;    0.000
493.154; 4733.000;    0.000;    0.000
493.289; 4631.000;    0.000;    0.000
493.424; 4579.000;    0.000;    0.000
493.559; 4615.000;    0.000;    0.000
493.694; 4631.000;    0.000;    0.000
493.829; 4678.000;    0.000;    0.000
493.964; 4575.000;    0.000;    0.000
494.099; 4699.000;    0.000;    0.000
494.234; 4621.000;    0.000;    0.000
494.369; 4697.000;    0.000;    0.000
494.504; 4566.000;    0.000;    0.000
494.639; 4685.000;    0.000;    0.000
494.774; 4625.000;    0.000;    0.000
494.909; 4646.000;    0.000;    0.000
495.044; 4618.000;    0.000;    0.000
495.179; 4572.000;    0.000;    0.000
495.314; 4650.000;    0.000;    0.000
495.449; 4584.000;    0.000;    0.000
495.584; 4554.000;    0.000;    0.000
495.719; 4690.000;    0.000;    0.000
495.854; 4633.000;    0.000;    0.000
495.988; 4598.000;    0.000;    0.000
496.123; 4519.000;    0.000;    0.000
496.258; 4590.000;    0.000;    0.000
496.393; 4642.000;    0.000;    0.000
496.528; 4756.000;    0.000;    0.000
496.663; 4818.000;    0.000;    0.000
496.797; 4779.000;    0.000;    0.000
496.932; 4810.000;    0.000;    0.000
497.067; 4826.000;    0.000;    0.000
497.202; 4881.000;    0.000;    0.000
497.336; 4904.000;    0.000;    0.000
497.471; 4927.000;    0.000;    0.000
497.606; 5026.000;    0.000;    0.000
497.740; 5038.000;    0.000;    0.000
497.875; 5126.000;    0.000;    0.000
498.010; 5153.000;    0.000;    0.000
498.144; 5243.000;    0.000;    0.000
498.279; 5322.000;    0.000;    0.000
498.414; 5384.000;    0.000;    0.000
498.548; 5532.000;    0.000;    0.000
498.683; 5634.000;    0.000;    0.000
498.817; 5703.000;    0.000;    0.000
498.952; 5766.000;    0.000;    0.000
499.087; 5911.000;    0.000;    0.000
499.221; 6105.000;    0.000;    0.000
499.356; 6190.000;    0.000;    0.000
499.490; 6489.000;    0.000;    0.000
499.625; 6554.000;    0.000;    0.000
499.759; 6815.000;    0.000;    0.000
499.894; 6768.000;    0.000;    0.000
500.028; 7058.000;    0.000;    0.000
500.162; 7216.000;    0.000;    0.000
500.297; 7412.000;    0.000;    0.000
500.431; 7383.000;    0.000;    0.000
500.566; 7449.000;    0.000;    0.000
500.700; 7188.000;    0.000;    0.000
500.835; 7135.000;    0.000;    0.000
500.969; 6849.000;    0.000;    0.000
501.103; 6859.000;    0.000;    0.000
501.238; 6702.000;    0.000;    0.000
501.372; 6643.000;    0.000;    0.000
501.506; 6253.000;    0.000;    0.000
501.641; 6174.000;    0.000;    0.000
501.775; 6049.000;    0.000;    0.000
501.909; 5920.000;    0.000;    0.000
502.043; 5691.000;    0.000;    0.000
502.178; 5736.000;    0.000;    0.000
502.312; 5610.000;    0.000;    0.000
502.446; 5640.000;    0.000;    0.000
502.580; 5457.000;    0.000;    0.000
502.715; 5487.000;    0.000;    0.000
502.849; 5451.000;    0.000;    0.000
502.983; 5270.000;    0.000;    0.000
503.117; 5193.000;    0.000;    0.000
503.251; 5178.000;    0.000;    0.000
503.385; 5019.000;    0.000;    0.000
503.520; 4947.000;    0.000;    0.000
503.654; 4962.000;    0.000;    0.000
503.788; 5090.000;    0.000;    0.000
503.922; 5146.000;    0.000;    0.000
504.056; 5621.000;    0.000;    0.000
504.190; 5907.000;    0.000;    0.000
504.324; 5520.000;    0.000;    0.000
504.458; 5012.000;    0.000;    0.000
504.592; 4810.000;    0.000;    0.000
504.726; 4632.000;    0.000;    0.000
504.860; 4659.000;    0.000;    0.000
504.994; 4515.000;    0.000;    0.000
505.128; 4419.000;    0.000;    0.000
505.262; 4428.000;    0.000;    0.000
505.396; 4393.000;    0.000;    0.000
505.530; 4279.000;    0.000;    0.000
505.664; 4251.000;    0.000;    0.000
505.798; 4197.000;    0.000;    0.000
505.932; 4041.000;    0.000;    0.000
506.066; 4156.000;    0.000;    0.000
506.199; 4095.000;    0.000;    0.000
506.333; 4051.000;    0.000;    0.000
506.467; 3972.000;    0.000;    0.000
506.601; 3914.000;    0.000;    0.000
506.735; 3967.000;    0.000;    0.000
506.869; 3935.000;    0.000;    0.000
507.002; 3925.000;    0.000;    0.000
507.136; 3859.000;    0.000;    0.000
507.270; 3832.000;    0.000;    0.000
507.404; 3795.000;    0.000;    0.000
507.537; 3743.000;    0.000;    0.000
507.671; 3710.000;    0.000;    0.000
507.805; 3765.000;    0.000;    0.000
507.939; 3707.000;    0.000;    0.000
508.072; 3733.000;    0.000;    0.000
508.206; 3593.000;    0.000;    0.000
508.340; 3708.000;    0.000;    0.000
508.473; 3618.000;    0.000;    0.000
508.607; 3605.000;    0.000;    0.000
508.740; 3510.000;    0.000;    0.000
508.874; 3556.000;    0.000;    0.000
509.008; 3605.000;    0.000;    0.000
509.141; 3532.000;    0.000;    0.000
509.275; 3568.000;    0.000;    0.000
509.408; 3498.000;    0.000;    0.000
509.542; 3591.000;    0.000;    0.000
509.675; 3694.000;    0.000;    0.000
509.809; 3517.000;    0.000;    0.000
509.942; 3533.000;    0.000;    0.000
510.076; 3566.000;    0.000;    0.000
510.209; 3529.000;    0.000;    0.000
510.343; 3540.000;    0.000;    0.000
510.476; 3538.000;    0.000;    0.000
510.610; 3428.000;    0.000;    0.000
510.743; 3452.000;    0.000;    0.000
510.877; 3514.000;    0.000;    0.000
511.010; 3481.000;    0.000;    0.000
511.143; 3482.000;    0.000;    0.000
511.277; 3369.000;    0.000;    0.000
511.410; 3417.000;    0.000;    0.000
511.543; 3450.000;    0.000;    0.000
511.677; 3440.000;    0.000;    0.000
511.810; 3408.000;    0.000;    0.000
511.943; 3418.000;    0.000;    0.000
512.077; 3336.000;    0.000;    0.000
512.210; 3302.000;    0.000;    0.000
512.343; 3441.000;    0.000;    0.000
512.476; 3457.000;    0.000;    0.000
512.610; 3352.000;    0.000;    0.000
512.743; 3289.000;    0.000;    0.000
512.876; 3440.000;    0.000;    0.000
513.009; 3350.000;    0.000;    0.000
513.142; 3414.000;    0.000;    0.000
513.276; 3319.000;    0.000;    0.000
513.409; 3366.000;    0.000;    0.000
513.542; 3339.000;    0.000;    0.000
513.675; 3366.000;    0.000;    0.000
513.808; 3410.000;    0.000;    0.000
513.941; 3323.000;    0.000;    0.000
514.074; 3424.000;    0.000;    0.000
514.207; 3401.000;    0.000;    0.000
514.340; 3282.000;    0.000;    0.000
514.474; 3318.000;    0.000;    0.000
514.607; 3363.000;    0.000;    0.000
514.740; 3319.000;    0.000;    0.000
514.873; 3466.000;    0.000;    0.000
515.006; 3458.000;    0.000;    0.000
515.139; 3412.000;    0.000;    0.000
515.272; 3325.000;    0.000;    0.000
515.404; 3427.000;    0.000;    0.000
515.537; 3428.000;    0.000;    0.000
515.670; 3402.000;    0.000;    0.000
515.803; 3451.000;    0.000;    0.000
515.936; 3472.000;    0.000;    0.000
516.069; 3441.000;    0.000;    0.000
516.202; 3541.000;    0.000;    0.000
516.335; 3502.000;    0.000;    0.000
516.468; 3519.000;    0.000;    0.000
516.600; 3583.000;    0.000;    0.000
516.733; 3558.000;    0.000;    0.000
516.866; 3630.000;    0.000;    0.000
516.999; 3580.000;    0.000;    0.000
517.132; 3665.000;    0.000;    0.000
517.264; 3579.000;    0.000;    0.000
517.397; 3708.000;    0.000;    0.000
517.530; 3652.000;    0.000;    0.000
517.663; 3635.000;    0.000;    0.000
517.795; 3778.000;    0.000;    0.000
517.928; 3759.000;    0.000;    0.000
518.061; 3765.000;    0.000;    0.000
518.193; 3721.000;    0.000;    0.000
518.326; 3755.000;    0.000;    0.000
518.459; 3726.000;    0.000;    0.000
518.591; 3893.000;    0.000;    0.000
518.724; 4546.000;    0.000;    0.000
518.857; 5158.000;    0.000;    0.000
518.989; 4797.000;    0.000;    0.000
519.122; 4068.000;    0.000;    0.000
519.254; 3604.000;    0.000;    0.000
519.387; 3604.000;    0.000;    0.000
519.519; 3460.000;    0.000;    0.000
519.652; 3486.000;    0.000;    0.000
519.784; 3287.000;    0.000;    0.000
519.917; 3365.000;    0.000;    0.000
520.049; 3417.000;    0.000;    0.000
520.182; 3267.000;    0.000;    0.000
520.314; 3306.000;    0.000;    0.000
520.447; 3307.000;    0.000;    0.000
520.579; 3314.000;    0.000;    0.000
520.712; 3180.000;    0.000;    0.000
520.844; 3329.000;    0.000;    0.000
520.976; 3244.000;    0.000;    0.000
521.109; 3149.000;    0.000;    0.000
521.241; 3174.000;    0.000;    0.000
521.373; 3229.000;    0.000;    0.000
521.506; 3110.000;    0.000;    0.000
521.638; 3231.000;    0.000;    0.000
521.770; 3162.000;    0.000;    0.000
521.903; 3090.000;    0.000;    0.000
522.035; 3112.000;    0.000;    0.000
522.167; 3064.000;    0.000;    0.000
522.300; 3043.000;    0.000;    0.000
522.432; 3050.000;    0.000;    0.000
522.564; 3132.000;    0.000;    0.000
522.696; 3077.000;    0.000;    0.000
522.828; 3099.000;    0.000;    0.000
522.961; 3045.000;    0.000;    0.000
523.093; 2974.000;    0.000;    0.000
523.225; 3073.000;    0.000;    0.000
523.357; 3104.000;    0.000;    0.000
523.489; 3051.000;    0.000;    0.000
523.621; 3000.000;    0.000;    0.000
523.753; 2936.000;    0.000;    0.000
523.886; 2948.000;    0.000;    0.000
524.018; 2947.000;    0.000;    0.000
524.150; 3021.000;    0.000;    0.000
524.282; 3095.000;    0.000;    0.000
524.414; 3045.000;    0.000;    0.000
524.546; 3087.000;    0.000;    0.000
524.678; 3029.000;    0.000;    0.000
524.810; 3054.000;    0.000;    0.000
524.942; 3025.000;    0.000;    0.000
525.074; 3012.000;    0.000;    0.000
525.206; 3099.000;    0.000;    0.000
525.338; 3160.000;    0.000;    0.000
525.470; 3170.000;    0.000;    0.000
525.601; 3228.000;    0.000;    0.000
525.733; 3215.000;    0.000;    0.000
525.865; 3527.000;    0.000;    0.000
525.997; 4481.000;    0.000;    0.000
526.129; 6840.000;    0.000;    0.000
526.261; 8095.000;    0.000;    0.000
526.393; 8391.000;    0.000;    0.000
526.524; 9443.000;    0.000;    0.000
526.656; 7742.000;    0.000;    0.000
526.788; 5945.000;    0.000;    0.000
526.920; 8665.000;    0.000;    0.000
527.052;10707.000;    0.000;    0.000
527.183; 7361.000;    0.000;    0.000
527.315; 4568.000;    0.000;    0.000
527.447; 3928.000;    0.000;    0.000
527.578; 3524.000;    0.000;    0.000
527.710; 3465.000;    0.000;    0.000
527.842; 3272.000;    0.000;    0.000
527.973; 3275.000;    0.000;    0.000
528.105; 3187.000;    0.000;    0.000
528.237; 3027.000;    0.000;    0.000
528.368; 3032.000;    0.000;    0.000
528.500; 2993.000;    0.000;    0.000
528.632; 2989.000;    0.000;    0.000
528.763; 2947.000;    0.000;    0.000
528.895; 2875.000;    0.000;    0.000
529.026; 2941.000;    0.000;    0.000
529.158; 2962.000;    0.000;    0.000
529.289; 2920.000;    0.000;    0.000
529.421; 2885.000;    0.000;    0.000
529.552; 2891.000;    0.000;    0.000
529.684; 2868.000;    0.000;    0.000
529.815; 2924.000;    0.000;    0.000
529.947; 2859.000;    0.000;    0.000
530.078; 2950.000;    0.000;    0.000
530.210; 2899.000;    0.000;    0.000
530.341; 2817.000;    0.000;    0.000
530.472; 2959.000;    0.000;    0.000
530.604; 2883.000;    0.000;    0.000
530.735; 2874.000;    0.000;    0.000
530.867; 2861.000;    0.000;    0.000
530.998; 2912.000;    0.000;    0.000
531.129; 2901.000;    0.000;    0.000
531.261; 2905.000;    0.000;    0.000
531.392; 2888.000;    0.000;    0.000
531.523; 2944.000;    0.000;    0.000
531.654; 2897.000;    0.000;    0.000
531.786; 2924.000;    0.000;    0.000
531.917; 3090.000;    0.000;    0.000
532.048; 2899.000;    0.000;    0.000
532.179; 2981.000;    0.000;    0.000
532.311; 2998.000;    0.000;    0.000
532.442; 2895.000;    0.000;    0.000
532.573; 2862.000;    0.000;    0.000
532.704; 2947.000;    0.000;    0.000
532.835; 2938.000;    0.000;    0.000
532.966; 2840.000;    0.000;    0.000
533.097; 2881.000;    0.000;    0.000
533.229; 2848.000;    0.000;    0.000
533.360; 2843.000;    0.000;    0.000
533.491; 2886.000;    0.000;    0.000
533.622; 2885.000;    0.000;    0.000
533.753; 3020.000;    0.000;    0.000
533.884; 2969.000;    0.000;    0.000
534.015; 2977.000;    0.000;    0.000
534.146; 2974.000;    0.000;    0.000
534.277; 3102.000;    0.000;    0.000
534.408; 3047.000;    0.000;    0.000
534.539; 3070.000;    0.000;    0.000
534.670; 3198.000;    0.000;    0.000
534.801; 4240.000;    0.000;    0.000
534.932; 5488.000;    0.000;    0.000
535.063; 4851.000;    0.000;    0.000
535.194; 3446.000;    0.000;    0.000
535.324; 3114.000;    0.000;    0.000
535.455; 3045.000;    0.000;    0.000
535.586; 3079.000;    0.000;    0.000
535.717; 2907.000;    0.000;    0.000
535.848; 2944.000;    0.000;    0.000
535.979; 2968.000;    0.000;    0.000
536.109; 2924.000;    0.000;    0.000
536.240; 2901.000;    0.000;    0.000
536.371; 2901.000;    0.000;    0.000
536.502; 2895.000;    0.000;    0.000
536.632; 3021.000;    0.000;    0.000
536.763; 2909.000;    0.000;    0.000
536.894; 2910.000;    0.000;    0.000
537.025; 2860.000;    0.000;    0.000
537.155; 2821.000;    0.000;    0.000
537.286; 2832.000;    0.000;    0.000
537.417; 2878.000;    0.000;    0.000
537.547; 2862.000;    0.000;    0.000
537.678; 2909.000;    0.000;    0.000
537.808; 2824.000;    0.000;    0.000
537.939; 2867.000;    0.000;    0.000
538.070; 2880.000;    0.000;    0.000
538.200; 2860.000;    0.000;    0.000
538.331; 2896.000;    0.000;    0.000
538.461; 2887.000;    0.000;    0.000
538.592; 2899.000;    0.000;    0.000
538.722; 2875.000;    0.000;    0.000
538.853; 2845.000;    0.000;    0.000
538.983; 2853.000;    0.000;    0.000
539.114; 2891.000;    0.000;    0.000
539.244; 2891.000;    0.000;    0.000
539.375; 2917.000;    0.000;    0.000
539.505; 2902.000;    0.000;    0.000
539.636; 2802.000;    0.000;    0.000
539.766; 2859.000;    0.000;    0.000
539.896; 2771.000;    0.000;    0.000
540.027; 2754.000;    0.000;    0.000
540.157; 2828.000;    0.000;    0.000
540.287; 2876.000;    0.000;    0.000
540.418; 2885.000;    0.000;    0.000
540.548; 2839.000;    0.000;    0.000
540.678; 2868.000;    0.000;    0.000
540.809; 2935.000;    0.000;    0.000
540.939; 2947.000;    0.000;    0.000
541.069; 2882.000;    0.000;    0.000
541.199; 2813.000;    0.000;    0.000
541.330; 2849.000;    0.000;    0.000
541.460; 2901.000;    0.000;    0.000
541.590; 2985.000;    0.000;    0.000
541.720; 2912.000;    0.000;    0.000
541.851; 3028.000;    0.000;    0.000
541.981; 2954.000;    0.000;    0.000
542.111; 2920.000;    0.000;    0.000
542.241; 2982.000;    0.000;    0.000
542.371; 3031.000;    0.000;    0.000
542.501; 2991.000;    0.000;    0.000
542.631; 3052.000;    0.000;    0.000
542.761; 3067.000;    0.000;    0.000
542.891; 3106.000;    0.000;    0.000
543.021; 3073.000;    0.000;    0.000
543.151; 3117.000;    0.000;    0.000
543.281; 3085.000;    0.000;    0.000
543.411; 3081.000;    0.000;    0.000
543.541; 3030.000;    0.000;    0.000
543.671; 3060.000;    0.000;    0.000
543.801; 3026.000;    0.000;    0.000
543.931; 3116.000;    0.000;    0.000
544.061; 3092.000;    0.000;    0.000
544.191; 3092.000;    0.000;    0.000
544.321; 3049.000;    0.000;    0.000
544.451; 3146.000;    0.000;    0.000
544.581; 3067.000;    0.000;    0.000
544.711; 3179.000;    0.000;    0.000
544.841; 3181.000;    0.000;    0.000
544.970; 3214.000;    0.000;    0.000
545.100; 3236.000;    0.000;    0.000
545.230; 3347.000;    0.000;    0.000
545.360; 3193.000;    0.000;    0.000
545.490; 3152.000;    0.000;    0.000
545.619; 3210.000;    0.000;    0.000
545.749; 3179.000;    0.000;    0.000
545.879; 3183.000;    0.000;    0.000
546.009; 3184.000;    0.000;    0.000
546.138; 3097.000;    0.000;    0.000
546.268; 3178.000;    0.000;    0.000
546.398; 3069.000;    0.000;    0.000
546.527; 3167.000;    0.000;    0.000
546.657; 3161.000;    0.000;    0.000
546.787; 3304.000;    0.000;    0.000
546.916; 3350.000;    0.000;    0.000
547.046; 3468.000;    0.000;    0.000
547.175; 3487.000;    0.000;    0.000
547.305; 3784.000;    0.000;    0.000
547.434; 3893.000;    0.000;    0.000
547.564; 3892.000;    0.000;    0.000
547.694; 3889.000;    0.000;    0.000
547.823; 3955.000;    0.000;    0.000
547.953; 3957.000;    0.000;    0.000
548.082; 4000.000;    0.000;    0.000
548.211; 4089.000;    0.000;    0.000
548.341; 4106.000;    0.000;    0.000
548.470; 4011.000;    0.000;    0.000
548.600; 4060.000;    0.000;    0.000
548.729; 4077.000;    0.000;    0.000
548.859; 4068.000;    0.000;    0.000
548.988; 4040.000;    0.000;    0.000
549.117; 4047.000;    0.000;    0.000
549.247; 4095.000;    0.000;    0.000
549.376; 4232.000;    0.000;    0.000
549.505; 4169.000;    0.000;    0.000
549.635; 4359.000;    0.000;    0.000
549.764; 4647.000;    0.000;    0.000
549.893; 4771.000;    0.000;    0.000
550.023; 4829.000;    0.000;    0.000
550.152; 4804.000;    0.000;    0.000
550.281; 4599.000;    0.000;    0.000
550.410; 4757.000;    0.000;    0.000
550.539; 5019.000;    0.000;    0.000
550.669; 5204.000;    0.000;    0.000
550.798; 5299.000;    0.000;    0.000
550.927; 5507.000;    0.000;    0.000
551.056; 5712.000;    0.000;    0.000
551.185; 6085.000;    0.000;    0.000
551.314; 6041.000;    0.000;    0.000
551.443; 5791.000;    0.000;    0.000
551.573; 5593.000;    0.000;    0.000
551.702; 5461.000;    0.000;    0.000
551.831; 5446.000;    0.000;    0.000
551.960; 5452.000;    0.000;    0.000
552.089; 5413.000;    0.000;    0.000
552.218; 5358.000;    0.000;    0.000
552.347; 5408.000;    0.000;    0.000
552.476; 5378.000;    0.000;    0.000
552.605; 5317.000;    0.000;    0.000
552.734; 5460.000;    0.000;    0.000
552.863; 5408.000;    0.000;    0.000
552.992; 5405.000;    0.000;    0.000
553.121; 5390.000;    0.000;    0.000
553.249; 5326.000;    0.000;    0.000
553.378; 5489.000;    0.000;    0.000
553.507; 5621.000;    0.000;    0.000
553.636; 5884.000;    0.000;    0.000
553.765; 5782.000;    0.000;    0.000
553.894; 5914.000;    0.000;    0.000
554.023; 5948.000;    0.000;    0.000
554.151; 5832.000;    0.000;    0.000
554.280; 5949.000;    0.000;    0.000
554.409; 5834.000;    0.000;    0.000
554.538; 5910.000;    0.000;    0.000
554.666; 5983.000;    0.000;    0.000
554.795; 5855.000;    0.000;    0.000
554.924; 5666.000;    0.000;    0.000
555.053; 5654.000;    0.000;    0.000
555.181; 5538.000;    0.000;    0.000
555.310; 5585.000;    0.000;    0.000
555.439; 5557.000;    0.000;    0.000
555.567; 5282.000;    0.000;    0.000
555.696; 5252.000;    0.000;    0.000
555.824; 5114.000;    0.000;    0.000
555.953; 4980.000;    0.000;    0.000
556.082; 4956.000;    0.000;    0.000
556.210; 4934.000;    0.000;    0.000
556.339; 4761.000;    0.000;    0.000
556.467; 4612.000;    0.000;    0.000
556.596; 4741.000;    0.000;    0.000
556.724; 4601.000;    0.000;    0.000
556.853; 4514.000;    0.000;    0.000
556.981; 4484.000;    0.000;    0.000
557.110; 4385.000;    0.000;    0.000
557.238; 4368.000;    0.000;    0.000
557.367; 4268.000;    0.000;    0.000
557.495; 4252.000;    0.000;    0.000
557.623; 4135.000;    0.000;    0.000
557.752; 4130.000;    0.000;    0.000
557.880; 4059.000;    0.000;    0.000
558.008; 4595.000;    0.000;    0.000
558.137; 6357.000;    0.000;    0.000
558.265; 6597.000;    0.000;    0.000
558.393; 5106.000;    0.000;    0.000
558.522; 4755.000;    0.000;    0.000
558.650; 5833.000;    0.000;    0.000
558.778;12528.000;    0.000;    0.000
558.907;17466.000;    0.000;    0.000
559.035;13450.000;    0.000;    0.000
559.163; 7923.000;    0.000;    0.000
559.291; 8246.000;    0.000;    0.000
559.419;12505.000;    0.000;    0.000
559.548;11686.000;    0.000;    0.000
559.676; 7932.000;    0.000;    0.000
559.804;10615.000;    0.000;    0.000
559.932;10558.000;    0.000;    0.000
560.060; 8484.000;    0.000;    0.000
560.188; 9198.000;    0.000;    0.000
560.316; 7823.000;    0.000;    0.000
560.444; 5837.000;    0.000;    0.000
560.572; 4544.000;    0.000;    0.000
560.700; 4149.000;    0.000;    0.000
560.828; 4066.000;    0.000;    0.000
560.957; 3909.000;    0.000;    0.000
561.085; 4008.000;    0.000;    0.000
561.212; 3779.000;    0.000;    0.000
561.340; 3676.000;    0.000;    0.000
561.468; 3730.000;    0.000;    0.000
561.596; 3604.000;    0.000;    0.000
561.724; 3571.000;    0.000;    0.000
561.852; 3581.000;    0.000;    0.000
561.980; 3465.000;    0.000;    0.000
562.108; 3510.000;    0.000;    0.000
562.236; 3545.000;    0.000;    0.000
562.364; 3471.000;    0.000;    0.000
562.492; 3448.000;    0.000;    0.000
562.619; 3556.000;    0.000;    0.000
562.747; 3458.000;    0.000;    0.000
562.875; 3510.000;    0.000;    0.000
563.003; 3503.000;    0.000;    0.000
563.130; 3467.000;    0.000;    0.000
563.258; 3423.000;    0.000;    0.000
563.386; 3480.000;    0.000;    0.000
563.514; 3480.000;    0.000;    0.000
563.641; 3541.000;    0.000;    0.000
563.769; 3523.000;    0.000;    0.000
563.897; 3515.000;    0.000;    0.000
564.024; 3599.000;    0.000;    0.000
564.152; 3639.000;    0.000;    0.000
564.280; 3584.000;    0.000;    0.000
564.407; 3577.000;    0.000;    0.000
564.535; 3557.000;    0.000;    0.000
564.662; 3565.000;    0.000;    0.000
564.790; 3723.000;    0.000;    0.000
564.917; 3563.000;    0.000;    0.000
565.045; 3646.000;    0.000;    0.000
565.173; 3676.000;    0.000;    0.000
565.300; 3748.000;    0.000;    0.000
565.428; 3659.000;    0.000;    0.000
565.555; 3727.000;    0.000;    0.000
565.682; 3688.000;    0.000;    0.000
565.810; 3773.000;    0.000;    0.000
565.937; 3899.000;    0.000;    0.000
566.065; 3819.000;    0.000;    0.000
566.192; 3977.000;    0.000;    0.000
566.320; 4057.000;    0.000;    0.000
566.447; 3972.000;    0.000;    0.000
566.574; 4173.000;    0.000;    0.000
566.702; 4161.000;    0.000;    0.000
566.829; 4188.000;    0.000;    0.000
566.956; 4050.000;    0.000;    0.000
567.084; 4225.000;    0.000;    0.000
567.211; 4156.000;    0.000;    0.000
567.338; 4308.000;    0.000;    0.000
567.465; 4283.000;    0.000;    0.000
567.593; 4204.000;    0.000;    0.000
567.720; 4240.000;    0.000;    0.000
567.847; 4257.000;    0.000;    0.000
567.974; 4261.000;    0.000;    0.000
568.101; 4245.000;    0.000;    0.000
568.228; 4127.000;    0.000;    0.000
568.356; 4033.000;    0.000;    0.000
568.483; 3962.000;    0.000;    0.000
568.610; 3968.000;    0.000;    0.000
568.737; 3926.000;    0.000;    0.000
568.864; 3889.000;    0.000;    0.000
568.991; 3806.000;    0.000;    0.000
569.118; 3768.000;    0.000;    0.000
569.245; 3705.000;    0.000;    0.000
569.372; 3786.000;    0.000;    0.000
569.499; 3698.000;    0.000;    0.000
569.626; 3710.000;    0.000;    0.000
569.753; 3693.000;    0.000;    0.000
569.880; 3662.000;    0.000;    0.000
570.007; 3562.000;    0.000;    0.000
570.134; 3552.000;    0.000;    0.000
570.261; 3608.000;    0.000;    0.000
570.388; 3578.000;    0.000;    0.000
570.515; 3538.000;    0.000;    0.000
570.642; 3564.000;    0.000;    0.000
570.768; 3507.000;    0.000;    0.000
570.895; 3555.000;    0.000;    0.000
571.022; 3512.000;    0.000;    0.000
571.149; 3502.000;    0.000;    0.000
571.276; 3549.000;    0.000;    0.000
571.402; 3457.000;    0.000;    0.000
571.529; 3573.000;    0.000;    0.000
571.656; 3497.000;    0.000;    0.000
571.783; 3456.000;    0.000;    0.000
571.909; 3556.000;    0.000;    0.000
572.036; 3430.000;    0.000;    0.000
572.163; 3354.000;    0.000;    0.000
572.289; 3424.000;    0.000;    0.000
572.416; 3437.000;    0.000;    0.000
572.543; 3481.000;    0.000;    0.000
572.669; 3394.000;    0.000;    0.000
572.796; 3342.000;    0.000;    0.000
572.922; 3307.000;    0.000;    0.000
573.049; 3356.000;    0.000;    0.000
573.176; 3374.000;    0.000;    0.000
573.302; 3404.000;    0.000;    0.000
573.429; 3366.000;    0.000;    0.000
573.555; 3415.000;    0.000;    0.000
573.682; 3387.000;    0.000;    0.000
573.808; 3238.000;    0.000;    0.000
573.935; 3407.000;    0.000;    0.000
574.061; 3352.000;    0.000;    0.000
574.188; 3319.000;    0.000;    0.000
574.314; 3269.000;    0.000;    0.000
574.440; 3382.000;    0.000;    0.000
574.567; 3303.000;    0.000;    0.000
574.693; 3299.000;    0.000;    0.000
574.820; 3341.000;    0.000;    0.000
574.946; 3312.000;    0.000;    0.000
575.072; 3310.000;    0.000;    0.000
575.198; 3333.000;    0.000;    0.000
575.325; 3241.000;    0.000;    0.000
575.451; 3252.000;    0.000;    0.000
575.577; 3297.000;    0.000;    0.000
575.704; 3260.000;    0.000;    0.000
575.830; 3328.000;    0.000;    0.000
575.956; 3170.000;    0.000;    0.000
576.082; 3277.000;    0.000;    0.000
576.208; 3204.000;    0.000;    0.000
576.335; 3235.000;    0.000;    0.000
576.461; 3213.000;    0.000;    0.000
576.587; 3142.000;    0.000;    0.000
576.713; 3114.000;    0.000;    0.000
576.839; 3221.000;    0.000;    0.000
576.965; 3095.000;    0.000;    0.000
577.091; 3080.000;    0.000;    0.000
577.217; 3196.000;    0.000;    0.000
577.343; 3110.000;    0.000;    0.000
577.470; 3164.000;    0.000;    0.000
577.596; 3181.000;    0.000;    0.000
577.722; 3053.000;    0.000;    0.000
577.848; 3107.000;    0.000;    0.000
577.973; 3066.000;    0.000;    0.000
578.099; 3055.000;    0.000;    0.000
578.225; 3144.000;    0.000;    0.000
578.351; 3210.000;    0.000;    0.000
578.477; 3143.000;    0.000;    0.000
578.603; 3102.000;    0.000;    0.000
578.729; 3137.000;    0.000;    0.000
578.855; 3155.000;    0.000;    0.000
578.981; 3150.000;    0.000;    0.000
579.107; 3203.000;    0.000;    0.000
579.232; 3178.000;    0.000;    0.000
579.358; 3144.000;    0.000;    0.000
579.484; 3223.000;    0.000;    0.000
579.610; 3126.000;    0.000;    0.000
579.735; 3103.000;    0.000;    0.000
579.861; 3032.000;    0.000;    0.000
579.987; 3115.000;    0.000;    0.000
580.113; 3107.000;    0.000;    0.000
580.238; 3130.000;    0.000;    0.000
580.364; 3179.000;    0.000;    0.000
580.490; 3113.000;    0.000;    0.000
580.615; 3149.000;    0.000;    0.000
580.741; 3185.000;    0.000;    0.000
580.867; 3036.000;    0.000;    0.000
580.992; 3157.000;    0.000;    0.000
581.118; 3074.000;    0.000;    0.000
581.243; 3154.000;    0.000;    0.000
581.369; 3032.000;    0.000;    0.000
581.494; 3117.000;    0.000;    0.000
581.620; 3090.000;    0.000;    0.000
581.745; 3266.000;    0.000;    0.000
581.871; 3192.000;    0.000;    0.000
581.996; 3219.000;    0.000;    0.000
582.122; 3140.000;    0.000;    0.000
582.247; 3150.000;    0.000;    0.000
582.373; 3198.000;    0.000;    0.000
582.498; 3137.000;    0.000;    0.000
582.624; 3249.000;    0.000;    0.000
582.749; 3231.000;    0.000;    0.000
582.874; 3234.000;    0.000;    0.000
583.000; 3228.000;    0.000;    0.000
583.125; 3246.000;    0.000;    0.000
583.250; 3180.000;    0.000;    0.000
583.376; 3225.000;    0.000;    0.000
583.501; 3344.000;    0.000;    0.000
583.626; 3235.000;    0.000;    0.000
583.751; 3242.000;    0.000;    0.000
583.877; 3281.000;    0.000;    0.000
584.002; 3232.000;    0.000;    0.000
584.127; 3275.000;    0.000;    0.000
584.252; 3301.000;    0.000;    0.000
584.377; 3314.000;    0.000;    0.000
584.503; 3328.000;    0.000;    0.000
584.628; 3291.000;    0.000;    0.000
584.753; 3407.000;    0.000;    0.000
584.878; 3428.000;    0.000;    0.000
585.003; 3472.000;    0.000;    0.000
585.128; 3751.000;    0.000;    0.000
585.253; 3979.000;    0.000;    0.000
585.378; 3865.000;    0.000;    0.000
585.503; 4163.000;    0.000;    0.000
585.628; 6953.000;    0.000;    0.000
585.753;10203.000;    0.000;    0.000
585.878; 8639.000;    0.000;    0.000
586.003; 5464.000;    0.000;    0.000
586.128; 4663.000;    0.000;    0.000
586.253; 4184.000;    0.000;    0.000
586.378; 3985.000;    0.000;    0.000
586.503; 3933.000;    0.000;    0.000
586.628; 3743.000;    0.000;    0.000
586.753; 3737.000;    0.000;    0.000
586.878; 3751.000;    0.000;    0.000
587.003; 3662.000;    0.000;    0.000
587.127; 3712.000;    0.000;    0.000
587.252; 3669.000;    0.000;    0.000
587.377; 3744.000;    0.000;    0.000
587.502; 3683.000;    0.000;    0.000
587.627; 3738.000;    0.000;    0.000
587.751; 3801.000;    0.000;    0.000
587.876; 3786.000;    0.000;    0.000
588.001; 3705.000;    0.000;    0.000
588.125; 3731.000;    0.000;    0.000
588.250; 3742.000;    0.000;    0.000
588.375; 3924.000;    0.000;    0.000
588.499; 3920.000;    0.000;    0.000
588.624; 4202.000;    0.000;    0.000
588.749; 5315.000;    0.000;    0.000
588.873;11982.000;    0.000;    0.000
588.998;18197.000;    0.000;    0.000
589.122;13399.000;    0.000;    0.000
589.247; 6200.000;    0.000;    0.000
589.372; 5733.000;    0.000;    0.000
589.496;11542.000;    0.000;    0.000
589.621;13956.000;    0.000;    0.000
589.745; 8995.000;    0.000;    0.000
589.870; 4971.000;    0.000;    0.000
589.994; 4324.000;    0.000;    0.000
590.118; 4044.000;    0.000;    0.000
590.243; 3997.000;    0.000;    0.000
590.367; 3993.000;    0.000;    0.000
590.492; 3947.000;    0.000;    0.000
590.616; 3815.000;    0.000;    0.000
590.740; 3937.000;    0.000;    0.000
590.865; 3768.000;    0.000;    0.000
590.989; 3862.000;    0.000;    0.000
591.114; 3871.000;    0.000;    0.000
591.238; 3797.000;    0.000;    0.000
591.362; 3866.000;    0.000;    0.000
591.486; 3989.000;    0.000;    0.000
591.611; 3968.000;    0.000;    0.000
591.735; 3945.000;    0.000;    0.000
591.859; 3922.000;    0.000;    0.000
591.983; 4012.000;    0.000;    0.000
592.107; 3966.000;    0.000;    0.000
592.232; 4039.000;    0.000;    0.000
592.356; 4102.000;    0.000;    0.000
592.480; 4172.000;    0.000;    0.000
592.604; 4147.000;    0.000;    0.000
592.728; 4206.000;    0.000;    0.000
592.852; 4253.000;    0.000;    0.000
592.976; 4272.000;    0.000;    0.000
593.100; 4323.000;    0.000;    0.000
593.224; 4333.000;    0.000;    0.000
593.349; 4432.000;    0.000;    0.000
593.473; 4386.000;    0.000;    0.000
593.597; 4485.000;    0.000;    0.000
593.721; 4539.000;    0.000;    0.000
593.844; 4364.000;    0.000;    0.000
593.968; 4427.000;    0.000;    0.000
594.092; 4498.000;    0.000;    0.000
594.216; 4520.000;    0.000;    0.000
594.340; 4583.000;    0.000;    0.000
594.464; 4557.000;    0.000;    0.000
594.588; 4533.000;    0.000;    0.000
594.712; 4442.000;    0.000;    0.000
594.836; 4549.000;    0.000;    0.000
594.959; 4523.000;    0.000;    0.000
595.083; 4756.000;    0.000;    0.000
595.207; 4708.000;    0.000;    0.000
595.331; 4682.000;    0.000;    0.000
595.455; 4782.000;    0.000;    0.000
595.578; 4799.000;    0.000;    0.000
595.702; 4805.000;    0.000;    0.000
595.826; 4835.000;    0.000;    0.000
595.949; 4902.000;    0.000;    0.000
596.073; 4866.000;    0.000;    0.000
596.197; 4983.000;    0.000;    0.000
596.320; 5074.000;    0.000;    0.000
596.444; 5309.000;    0.000;    0.000
596.568; 5140.000;    0.000;    0.000
596.691; 5332.000;    0.000;    0.000
596.815; 5295.000;    0.000;    0.000
596.938; 5458.000;    0.000;    0.000
597.062; 5370.000;    0.000;    0.000
597.186; 5313.000;    0.000;    0.000
597.309; 5487.000;    0.000;    0.000
597.433; 5303.000;    0.000;    0.000
597.556; 5330.000;    0.000;    0.000
597.679; 5440.000;    0.000;    0.000
597.803; 5364.000;    0.000;    0.000
597.926; 5355.000;    0.000;    0.000
598.050; 5311.000;    0.000;    0.000
598.173; 5484.000;    0.000;    0.000
598.297; 5609.000;    0.000;    0.000
598.420; 5913.000;    0.000;    0.000
598.543; 5783.000;    0.000;    0.000
598.667; 5767.000;    0.000;    0.000
598.790; 5733.000;    0.000;    0.000
598.913; 5610.000;    0.000;    0.000
599.037; 5746.000;    0.000;    0.000
599.160; 5689.000;    0.000;    0.000
599.283; 5681.000;    0.000;    0.000
599.406; 5696.000;    0.000;    0.000
599.530; 5592.000;    0.000;    0.000
599.653; 5428.000;    0.000;    0.000
599.776; 5456.000;    0.000;    0.000
599.899; 5560.000;    0.000;    0.000
600.022; 5327.000;    0.000;    0.000
600.145; 5463.000;    0.000;    0.000
600.269; 5757.000;    0.000;    0.000
600.392; 5941.000;    0.000;    0.000
600.515; 5981.000;    0.000;    0.000
600.638; 5831.000;    0.000;    0.000
600.761; 5425.000;    0.000;    0.000
600.884; 5174.000;    0.000;    0.000
601.007; 5144.000;    0.000;    0.000
601.130; 5064.000;    0.000;    0.000
601.253; 5073.000;    0.000;    0.000
601.376; 4960.000;    0.000;    0.000
601.499; 4918.000;    0.000;    0.000
601.622; 5079.000;    0.000;    0.000
601.745; 4983.000;    0.000;    0.000
601.868; 5214.000;    0.000;    0.000
601.991; 5153.000;    0.000;    0.000
602.113; 5176.000;    0.000;    0.000
602.236; 5211.000;    0.000;    0.000
602.359; 5255.000;    0.000;    0.000
602.482; 5218.000;    0.000;    0.000
602.605; 5314.000;    0.000;    0.000
602.728; 5301.000;    0.000;    0.000
602.850; 5349.000;    0.000;    0.000
602.973; 5451.000;    0.000;    0.000
603.096; 5468.000;    0.000;    0.000
603.219; 5404.000;    0.000;    0.000
603.341; 5452.000;    0.000;    0.000
603.464; 5518.000;    0.000;    0.000
603.587; 5521.000;    0.000;    0.000
603.709; 5417.000;    0.000;    0.000
603.832; 5555.000;    0.000;    0.000
603.955; 5649.000;    0.000;    0.000
604.077; 5642.000;    0.000;    0.000
604.200; 5696.000;    0.000;    0.000
604.322; 5948.000;    0.000;    0.000
604.445; 6109.000;    0.000;    0.000
604.568; 6078.000;    0.000;    0.000
604.690; 6140.000;    0.000;    0.000
604.813; 6253.000;    0.000;    0.000
604.935; 6399.000;    0.000;    0.000
605.058; 6360.000;    0.000;    0.000
605.180; 6412.000;    0.000;    0.000
605.303; 6547.000;    0.000;    0.000
605.425; 6488.000;    0.000;    0.000
605.547; 6629.000;    0.000;    0.000
605.670; 6847.000;    0.000;    0.000
605.792; 6955.000;    0.000;    0.000
605.915; 6915.000;    0.000;    0.000
606.037; 6801.000;    0.000;    0.000
606.159; 6692.000;    0.000;    0.000
606.282; 6651.000;    0.000;    0.000
606.404; 6603.000;    0.000;    0.000
606.526; 6803.000;    0.000;    0.000
606.648; 6942.000;    0.000;    0.000
606.771; 6801.000;    0.000;    0.000
606.893; 6465.000;    0.000;    0.000
607.015; 6015.000;    0.000;    0.000
607.137; 6033.000;    0.000;    0.000
607.260; 6220.000;    0.000;    0.000
607.382; 6442.000;    0.000;    0.000
607.504; 6526.000;    0.000;    0.000
607.626; 6255.000;    0.000;    0.000
607.748; 6126.000;    0.000;    0.000
607.870; 6015.000;    0.000;    0.000
607.992; 5942.000;    0.000;    0.000
608.114; 6070.000;    0.000;    0.000
608.236; 6279.000;    0.000;    0.000
608.359; 6270.000;    0.000;    0.000
608.481; 6301.000;    0.000;    0.000
608.603; 6192.000;    0.000;    0.000
608.725; 6536.000;    0.000;    0.000
608.847; 6781.000;    0.000;    0.000
608.968; 6662.000;    0.000;    0.000
609.090; 6612.000;    0.000;    0.000
609.212; 6461.000;    0.000;    0.000
609.334; 6215.000;    0.000;    0.000
609.456; 6400.000;    0.000;    0.000
609.578; 6736.000;    0.000;    0.000
609.700; 7399.000;    0.000;    0.000
609.822; 7238.000;    0.000;    0.000
609.944; 6847.000;    0.000;    0.000
610.065; 6971.000;    0.000;    0.000
610.187; 9973.000;    0.000;    0.000
610.309;11529.000;    0.000;    0.000
610.431; 9334.000;    0.000;    0.000
610.552; 7347.000;    0.000;    0.000
610.674; 6935.000;    0.000;    0.000
610.796; 6858.000;    0.000;    0.000
610.918; 7138.000;    0.000;    0.000
611.039; 7194.000;    0.000;    0.000
611.161; 7305.000;    0.000;    0.000
611.282; 7245.000;    0.000;    0.000
611.404; 7356.000;    0.000;    0.000
611.526; 7506.000;    0.000;    0.000
611.647; 7576.000;    0.000;    0.000
611.769; 7634.000;    0.000;    0.000
611.890; 7974.000;    0.000;    0.000
612.012; 8911.000;    0.000;    0.000
612.134;15186.000;    0.000;    0.000
612.255;18739.000;    0.000;    0.000
612.377;14486.000;    0.000;    0.000
612.498; 9904.000;    0.000;    0.000
612.619; 8977.000;    0.000;    0.000
612.741; 8694.000;    0.000;    0.000
612.862; 8489.000;    0.000;    0.000
612.984; 8020.000;    0.000;    0.000
613.105; 7927.000;    0.000;    0.000
613.226; 7512.000;    0.000;    0.000
613.348; 7464.000;    0.000;    0.000
613.469; 7634.000;    0.000;    0.000
613.590; 7667.000;    0.000;    0.000
613.712; 7563.000;    0.000;    0.000
613.833; 7697.000;    0.000;    0.000
613.954; 7681.000;    0.000;    0.000
614.076; 7692.000;    0.000;    0.000
614.197; 7789.000;    0.000;    0.000
614.318; 7751.000;    0.000;    0.000
614.439; 7836.000;    0.000;    0.000
614.560; 7786.000;    0.000;    0.000
614.682; 7685.000;    0.000;    0.000
614.803; 7610.000;    0.000;    0.000
614.924; 7663.000;    0.000;    0.000
615.045; 7571.000;    0.000;    0.000
615.166; 7660.000;    0.000;    0.000
615.287; 7704.000;    0.000;    0.000
615.408; 7642.000;    0.000;    0.000
615.529; 7903.000;    0.000;    0.000
615.650; 8147.000;    0.000;    0.000
615.771; 8231.000;    0.000;    0.000
615.892; 8527.000;    0.000;    0.000
616.013;10562.000;    0.000;    0.000
616.134;19191.000;    0.000;    0.000
616.255;23281.000;    0.000;    0.000
616.376;17557.000;    0.000;    0.000
616.497;11621.000;    0.000;    0.000
616.618;10412.000;    0.000;    0.000
616.739;10453.000;    0.000;    0.000
616.860;12086.000;    0.000;    0.000
616.981;12860.000;    0.000;    0.000
617.101;11034.000;    0.000;    0.000
617.222; 9269.000;    0.000;    0.000
617.343; 8848.000;    0.000;    0.000
617.464; 8600.000;    0.000;    0.000
617.585; 8111.000;    0.000;    0.000
617.705; 7936.000;    0.000;    0.000
617.826; 7872.000;    0.000;    0.000
617.947; 7817.000;    0.000;    0.000
618.068; 7815.000;    0.000;    0.000
618.188; 7893.000;    0.000;    0.000
618.309; 7853.000;    0.000;    0.000
618.430; 7667.000;    0.000;    0.000
618.550; 7326.000;    0.000;    0.000
618.671; 7227.000;    0.000;    0.000
618.791; 7026.000;    0.000;    0.000
618.912; 7104.000;    0.000;    0.000
619.033; 7173.000;    0.000;    0.000
619.153; 7164.000;    0.000;    0.000
619.274; 7003.000;    0.000;    0.000
619.394; 7166.000;    0.000;    0.000
619.515; 6933.000;    0.000;    0.000
619.635; 7138.000;    0.000;    0.000
619.756; 7073.000;    0.000;    0.000
619.876; 7029.000;    0.000;    0.000
619.996; 7166.000;    0.000;    0.000
620.117; 7168.000;    0.000;    0.000
620.237; 7024.000;    0.000;    0.000
620.358; 7106.000;    0.000;    0.000
620.478; 7222.000;    0.000;    0.000
620.598; 7240.000;    0.000;    0.000
620.719; 7369.000;    0.000;    0.000
620.839; 7371.000;    0.000;    0.000
620.959; 7150.000;    0.000;    0.000
621.079; 7214.000;    0.000;    0.000
621.200; 7189.000;    0.000;    0.000
621.320; 7148.000;    0.000;    0.000
621.440; 7131.000;    0.000;    0.000
621.560; 7060.000;    0.000;    0.000
621.681; 7140.000;    0.000;    0.000
621.801; 7148.000;    0.000;    0.000
621.921; 7129.000;    0.000;    0.000
622.041; 7141.000;    0.000;    0.000
622.161; 7287.000;    0.000;    0.000
622.281; 7263.000;    0.000;    0.000
622.401; 7321.000;    0.000;    0.000
622.521; 7310.000;    0.000;    0.000
622.641; 7150.000;    0.000;    0.000
622.761; 7219.000;    0.000;    0.000
622.882; 7091.000;    0.000;    0.000
623.002; 7186.000;    0.000;    0.000
623.121; 7248.000;    0.000;    0.000
623.241; 7074.000;    0.000;    0.000
623.361; 7145.000;    0.000;    0.000
623.481; 6963.000;    0.000;    0.000
623.601; 6992.000;    0.000;    0.000
623.721; 6805.000;    0.000;    0.000
623.841; 6792.000;    0.000;    0.000
623.961; 6712.000;    0.000;    0.000
624.081; 6483.000;    0.000;    0.000
624.201; 6643.000;    0.000;    0.000
624.320; 6614.000;    0.000;    0.000
624.440; 6589.000;    0.000;    0.000
624.560; 6803.000;    0.000;    0.000
624.680; 6719.000;    0.000;    0.000
624.799; 6685.000;    0.000;    0.000
624.919; 6412.000;    0.000;    0.000
625.039; 6454.000;    0.000;    0.000
625.159; 6391.000;    0.000;    0.000
625.278; 6307.000;    0.000;    0.000
625.398; 6284.000;    0.000;    0.000
625.518; 6383.000;    0.000;    0.000
625.637; 6338.000;    0.000;    0.000
625.757; 6297.000;    0.000;    0.000
625.876; 6079.000;    0.000;    0.000
625.996; 5785.000;    0.000;    0.000
626.115; 5849.000;    0.000;    0.000
626.235; 5700.000;    0.000;    0.000
626.355; 5434.000;    0.000;    0.000
626.474; 5205.000;    0.000;    0.000
626.593; 5186.000;    0.000;    0.000
626.713; 5088.000;    0.000;    0.000
626.832; 5157.000;    0.000;    0.000
626.952; 4900.000;    0.000;    0.000
627.071; 4984.000;    0.000;    0.000
627.191; 4926.000;    0.000;    0.000
627.310; 4923.000;    0.000;    0.000
627.429; 4950.000;    0.000;    0.000
627.549; 4785.000;    0.000;    0.000
627.668; 4811.000;    0.000;    0.000
627.787; 4592.000;    0.000;    0.000
627.907; 4449.000;    0.000;    0.000
628.026; 4408.000;    0.000;    0.000
628.145; 4366.000;    0.000;    0.000
628.264; 4283.000;    0.000;    0.000
628.384; 4203.000;    0.000;    0.000
628.503; 4090.000;    0.000;    0.000
628.622; 4001.000;    0.000;    0.000
628.741; 3962.000;    0.000;    0.000
628.860; 3949.000;    0.000;    0.000
628.980; 3881.000;    0.000;    0.000
629.099; 3910.000;    0.000;    0.000
629.218; 3816.000;    0.000;    0.000
629.337; 3884.000;    0.000;    0.000
629.456; 3830.000;    0.000;    0.000
629.575; 3724.000;    0.000;    0.000
629.694; 3722.000;    0.000;    0.000
629.813; 3653.000;    0.000;    0.000
629.932; 3589.000;    0.000;    0.000
630.051; 3680.000;    0.000;    0.000
630.170; 3561.000;    0.000;    0.000
630.289; 3626.000;    0.000;    0.000
630.408; 3540.000;    0.000;    0.000
630.527; 3614.000;    0.000;    0.000
630.646; 3393.000;    0.000;    0.000
630.764; 3504.000;    0.000;    0.000
630.883; 3592.000;    0.000;    0.000
631.002; 3449.000;    0.000;    0.000
631.121; 3382.000;    0.000;    0.000
631.240; 3440.000;    0.000;    0.000
631.359; 3463.000;    0.000;    0.000
631.477; 3473.000;    0.000;    0.000
631.596; 3478.000;    0.000;    0.000
631.715; 3458.000;    0.000;    0.000
631.834; 3583.000;    0.000;    0.000
631.952; 3559.000;    0.000;    0.000
632.071; 3450.000;    0.000;    0.000
632.190; 3370.000;    0.000;    0.000
632.308; 3428.000;    0.000;    0.000
632.427; 3269.000;    0.000;    0.000
632.546; 3395.000;    0.000;    0.000
632.664; 3376.000;    0.000;    0.000
632.783; 3430.000;    0.000;    0.000
632.901; 3297.000;    0.000;    0.000
633.020; 3386.000;    0.000;    0.000
633.138; 3361.000;    0.000;    0.000
633.257; 3357.000;    0.000;    0.000
633.375; 3350.000;    0.000;    0.000
633.494; 3392.000;    0.000;    0.000
633.612; 3414.000;    0.000;    0.000
633.731; 3364.000;    0.000;    0.000
633.849; 3446.000;    0.000;    0.000
633.968; 3516.000;    0.000;    0.000
634.086; 3437.000;    0.000;    0.000
634.204; 3568.000;    0.000;    0.000
634.323; 3655.000;    0.000;    0.000
634.441; 3612.000;    0.000;    0.000
634.559; 3491.000;    0.000;    0.000
634.678; 3578.000;    0.000;    0.000
634.796; 3347.000;    0.000;    0.000
634.914; 3441.000;    0.000;    0.000
635.032; 3409.000;    0.000;    0.000
635.151; 3367.000;    0.000;    0.000
635.269; 3462.000;    0.000;    0.000
635.387; 3469.000;    0.000;    0.000
635.505; 3380.000;    0.000;    0.000
635.623; 3412.000;    0.000;    0.000
635.742; 3417.000;    0.000;    0.000
635.860; 3594.000;    0.000;    0.000
635.978; 3530.000;    0.000;    0.000
636.096; 3571.000;    0.000;    0.000
636.214; 3609.000;    0.000;    0.000
636.332; 3572.000;    0.000;    0.000
636.450; 3536.000;    0.000;    0.000
636.568; 3536.000;    0.000;    0.000
636.686; 3451.000;    0.000;    0.000
636.804; 3380.000;    0.000;    0.000
636.922; 3361.000;    0.000;    0.000
637.040; 3399.000;    0.000;    0.000
637.158; 3393.000;    0.000;    0.000
637.276; 3351.000;    0.000;    0.000
637.394; 3369.000;    0.000;    0.000
637.512; 3220.000;    0.000;    0.000
637.629; 3261.000;    0.000;    0.000
637.747; 3326.000;    0.000;    0.000
637.865; 3381.000;    0.000;    0.000
637.983; 3442.000;    0.000;    0.000
638.101; 3209.000;    0.000;    0.000
638.218; 3248.000;    0.000;    0.000
638.336; 3270.000;    0.000;    0.000
638.454; 3312.000;    0.000;    0.000
638.572; 3216.000;    0.000;    0.000
638.689; 3360.000;    0.000;    0.000
638.807; 3217.000;    0.000;    0.000
638.925; 3344.000;    0.000;    0.000
639.042; 3165.000;    0.000;    0.000
639.160; 3247.000;    0.000;    0.000
639.278; 3181.000;    0.000;    0.000
639.395; 3314.000;    0.000;    0.000
639.513; 3259.000;    0.000;    0.000
639.630; 3222.000;    0.000;    0.000
639.748; 3255.000;    0.000;    0.000
639.865; 3280.000;    0.000;    0.000
639.983; 3248.000;    0.000;    0.000
640.100; 3287.000;    0.000;    0.000
640.218; 3256.000;    0.000;    0.000
640.335; 3261.000;    0.000;    0.000
640.453; 3279.000;    0.000;    0.000
640.570; 3365.000;    0.000;    0.000
640.687; 3381.000;    0.000;    0.000
640.805; 3343.000;    0.000;    0.000
640.922; 3438.000;    0.000;    0.000
641.040; 3259.000;    0.000;    0.000
641.157; 3314.000;    0.000;    0.000
641.274; 3316.000;    0.000;    0.000
641.391; 3283.000;    0.000;    0.000
641.509; 3334.000;    0.000;    0.000
641.626; 3263.000;    0.000;    0.000
641.743; 3352.000;    0.000;    0.000
641.860; 3283.000;    0.000;    0.000
641.978; 3353.000;    0.000;    0.000
642.095; 3202.000;    0.000;    0.000
642.212; 3229.000;    0.000;    0.000
642.329; 3335.000;    0.000;    0.000
642.446; 3217.000;    0.000;    0.000
642.563; 3388.000;    0.000;    0.000
642.681; 3302.000;    0.000;    0.000
642.798; 3386.000;    0.000;    0.000
642.915; 3319.000;    0.000;    0.000
643.032; 3390.000;    0.000;    0.000
643.149; 3375.000;    0.000;    0.000
643.266; 3354.000;    0.000;    0.000
643.383; 3614.000;    0.000;    0.000
643.500; 3709.000;    0.000;    0.000
643.617; 4348.000;    0.000;    0.000
643.734; 6971.000;    0.000;    0.000
643.850;13464.000;    0.000;    0.000
643.967;14542.000;    0.000;    0.000
644.084; 8610.000;    0.000;    0.000
644.201; 5081.000;    0.000;    0.000
644.318; 4381.000;    0.000;    0.000
644.435; 3995.000;    0.000;    0.000
644.552; 3808.000;    0.000;    0.000
644.668; 3952.000;    0.000;    0.000
644.785; 4260.000;    0.000;    0.000
644.902; 5952.000;    0.000;    0.000
645.019; 6513.000;    0.000;    0.000
645.135; 5063.000;    0.000;    0.000
645.252; 3891.000;    0.000;    0.000
645.369; 3857.000;    0.000;    0.000
645.485; 4073.000;    0.000;    0.000
645.602; 4202.000;    0.000;    0.000
645.719; 3971.000;    0.000;    0.000
645.835; 3975.000;    0.000;    0.000
645.952; 4002.000;    0.000;    0.000
646.068; 5772.000;    0.000;    0.000
646.185;10948.000;    0.000;    0.000
646.302;12547.000;    0.000;    0.000
646.418; 8159.000;    0.000;    0.000
646.535; 4964.000;    0.000;    0.000
646.651; 4115.000;    0.000;    0.000
646.768; 3791.000;    0.000;    0.000
646.884; 3765.000;    0.000;    0.000
647.000; 4231.000;    0.000;    0.000
647.117; 5303.000;    0.000;    0.000
647.233; 5439.000;    0.000;    0.000
647.350; 4273.000;    0.000;    0.000
647.466; 3566.000;    0.000;    0.000
647.582; 3383.000;    0.000;    0.000
647.699; 3405.000;    0.000;    0.000
647.815; 3397.000;    0.000;    0.000
647.931; 3338.000;    0.000;    0.000
648.047; 3280.000;    0.000;    0.000
648.164; 3279.000;    0.000;    0.000
648.280; 3296.000;    0.000;    0.000
648.396; 3276.000;    0.000;    0.000
648.512; 3286.000;    0.000;    0.000
648.629; 3273.000;    0.000;    0.000
648.745; 3317.000;    0.000;    0.000
648.861; 3263.000;    0.000;    0.000
648.977; 3373.000;    0.000;    0.000
649.093; 3630.000;    0.000;    0.000
649.209; 5090.000;    0.000;    0.000
649.325; 8242.000;    0.000;    0.000
649.441; 8511.000;    0.000;    0.000
649.557; 5618.000;    0.000;    0.000
649.673; 4030.000;    0.000;    0.000
649.789; 3992.000;    0.000;    0.000
649.905; 4804.000;    0.000;    0.000
650.021; 4967.000;    0.000;    0.000
650.137; 3974.000;    0.000;    0.000
650.253; 3382.000;    0.000;    0.000
650.369; 3325.000;    0.000;    0.000
650.485; 3299.000;    0.000;    0.000
650.601; 3315.000;    0.000;    0.000
650.717; 3168.000;    0.000;    0.000
650.833; 3248.000;    0.000;    0.000
650.948; 3226.000;    0.000;    0.000
651.064; 3147.000;    0.000;    0.000
651.180; 3175.000;    0.000;    0.000
651.296; 3211.000;    0.000;    0.000
651.411; 3135.000;    0.000;    0.000
651.527; 3278.000;    0.000;    0.000
651.643; 3201.000;    0.000;    0.000
651.759; 3247.000;    0.000;    0.000
651.874; 3185.000;    0.000;    0.000
651.990; 3263.000;    0.000;    0.000
652.105; 3174.000;    0.000;    0.000
652.221; 3234.000;    0.000;    0.000
652.337; 3273.000;    0.000;    0.000
652.452; 3324.000;    0.000;    0.000
652.568; 3283.000;    0.000;    0.000
652.683; 3296.000;    0.000;    0.000
652.799; 3428.000;    0.000;    0.000
652.914; 3344.000;    0.000;    0.000
653.030; 3387.000;    0.000;    0.000
653.145; 3443.000;    0.000;    0.000
653.261; 3407.000;    0.000;    0.000
653.376; 3441.000;    0.000;    0.000
653.492; 3423.000;    0.000;    0.000
653.607; 3609.000;    0.000;    0.000
653.722; 3689.000;    0.000;    0.000
653.838; 3663.000;    0.000;    0.000
653.953; 3626.000;    0.000;    0.000
654.068; 3779.000;    0.000;    0.000
654.184; 3720.000;    0.000;    0.000
654.299; 3886.000;    0.000;    0.000
654.414; 3881.000;    0.000;    0.000
654.530; 3944.000;    0.000;    0.000
654.645; 3999.000;    0.000;    0.000
654.760; 4065.000;    0.000;    0.000
654.875; 4096.000;    0.000;    0.000
654.990; 4264.000;    0.000;    0.000
655.106; 4459.000;    0.000;    0.000
655.221; 4435.000;    0.000;    0.000
655.336; 4514.000;    0.000;    0.000
655.451; 4553.000;    0.000;    0.000
655.566; 4865.000;    0.000;    0.000
655.681; 4937.000;    0.000;    0.000
655.796; 5081.000;    0.000;    0.000
655.911; 5376.000;    0.000;    0.000
656.026; 5622.000;    0.000;    0.000
656.141; 5748.000;    0.000;    0.000
656.256; 5934.000;    0.000;    0.000
656.371; 6058.000;    0.000;    0.000
656.486; 5937.000;    0.000;    0.000
656.601; 5944.000;    0.000;    0.000
656.716; 5637.000;    0.000;    0.000
656.831; 5598.000;    0.000;    0.000
656.946; 5572.000;    0.000;    0.000
657.060; 5374.000;    0.000;    0.000
657.175; 5279.000;    0.000;    0.000
657.290; 5270.000;    0.000;    0.000
657.405; 5090.000;    0.000;    0.000
657.520; 4809.000;    0.000;    0.000
657.634; 4760.000;    0.000;    0.000
657.749; 4633.000;    0.000;    0.000
657.864; 4604.000;    0.000;    0.000
657.979; 4424.000;    0.000;    0.000
658.093; 4388.000;    0.000;    0.000
658.208; 4329.000;    0.000;    0.000
658.323; 4142.000;    0.000;    0.000
658.437; 4183.000;    0.000;    0.000
658.552; 4089.000;    0.000;    0.000
658.666; 4055.000;    0.000;    0.000
658.781; 4064.000;    0.000;    0.000
658.895; 4006.000;    0.000;    0.000
659.010; 3931.000;    0.000;    0.000
659.125; 3804.000;    0.000;    0.000
659.239; 3721.000;    0.000;    0.000
659.353; 3745.000;    0.000;    0.000
659.468; 3730.000;    0.000;    0.000
659.582; 3685.000;    0.000;    0.000
659.697; 3695.000;    0.000;    0.000
659.811; 3640.000;    0.000;    0.000
659.926; 3470.000;    0.000;    0.000
660.040; 3532.000;    0.000;    0.000
660.154; 3436.000;    0.000;    0.000
660.269; 3329.000;    0.000;    0.000
660.383; 3355.000;    0.000;    0.000
660.497; 3398.000;    0.000;    0.000
660.612; 3371.000;    0.000;    0.000
660.726; 3419.000;    0.000;    0.000
660.840; 3372.000;    0.000;    0.000
660.954; 3225.000;    0.000;    0.000
661.068; 3134.000;    0.000;    0.000
661.183; 3131.000;    0.000;    0.000
661.297; 3065.000;    0.000;    0.000
661.411; 3213.000;    0.000;    0.000
661.525; 3186.000;    0.000;    0.000
661.639; 3166.000;    0.000;    0.000
661.753; 3009.000;    0.000;    0.000
661.867; 3188.000;    0.000;    0.000
661.981; 3080.000;    0.000;    0.000
662.095; 3006.000;    0.000;    0.000
662.209; 3008.000;    0.000;    0.000
662.323; 3048.000;    0.000;    0.000
662.437; 2969.000;    0.000;    0.000
662.551; 2993.000;    0.000;    0.000
662.665; 2906.000;    0.000;    0.000
662.779; 2797.000;    0.000;    0.000
662.893; 2829.000;    0.000;    0.000
663.007; 2920.000;    0.000;    0.000
663.121; 2820.000;    0.000;    0.000
663.235; 2786.000;    0.000;    0.000
663.348; 2772.000;    0.000;    0.000
663.462; 2844.000;    0.000;    0.000
663.576; 2827.000;    0.000;    0.000
663.690; 2761.000;    0.000;    0.000
663.804; 2774.000;    0.000;    0.000
663.917; 2729.000;    0.000;    0.000
664.031; 2739.000;    0.000;    0.000
664.145; 2709.000;    0.000;    0.000
664.258; 2726.000;    0.000;    0.000
664.372; 2624.000;    0.000;    0.000
664.486; 2564.000;    0.000;    0.000
664.599; 2569.000;    0.000;    0.000
664.713; 2670.000;    0.000;    0.000
664.827; 2690.000;    0.000;    0.000
664.940; 2681.000;    0.000;    0.000
665.054; 2631.000;    0.000;    0.000
665.167; 2548.000;    0.000;    0.000
665.281; 2562.000;    0.000;    0.000
665.394; 2590.000;    0.000;    0.000
665.508; 2648.000;    0.000;    0.000
665.621; 2611.000;    0.000;    0.000
665.735; 2617.000;    0.000;    0.000
665.848; 2530.000;    0.000;    0.000
665.961; 2482.000;    0.000;    0.000
666.075; 2611.000;    0.000;    0.000
666.188; 2583.000;    0.000;    0.000
666.301; 2488.000;    0.000;    0.000
666.415; 2532.000;    0.000;    0.000
666.528; 2552.000;    0.000;    0.000
666.641; 2569.000;    0.000;    0.000
666.755; 2541.000;    0.000;    0.000
666.868; 2477.000;    0.000;    0.000
666.981; 2543.000;    0.000;    0.000
667.094; 2565.000;    0.000;    0.000
667.207; 2436.000;    0.000;    0.000
667.321; 2340.000;    0.000;    0.000
667.434; 2418.000;    0.000;    0.000
667.547; 2615.000;    0.000;    0.000
667.660; 2412.000;    0.000;    0.000
667.773; 2429.000;    0.000;    0.000
667.886; 2335.000;    0.000;    0.000
667.999; 2434.000;    0.000;    0.000
668.112; 2327.000;    0.000;    0.000
668.225; 2401.000;    0.000;    0.000
668.338; 2308.000;    0.000;    0.000
668.451; 2407.000;    0.000;    0.000
668.564; 2420.000;    0.000;    0.000
668.677; 2323.000;    0.000;    0.000
668.790; 2392.000;    0.000;    0.000
668.903; 2369.000;    0.000;    0.000
669.016; 2365.000;    0.000;    0.000
669.129; 2367.000;    0.000;    0.000
669.242; 2295.000;    0.000;    0.000
669.355; 2387.000;    0.000;    0.000
669.467; 2396.000;    0.000;    0.000
669.580; 2334.000;    0.000;    0.000
669.693; 2327.000;    0.000;    0.000
669.806; 2261.000;    0.000;    0.000
669.918; 2269.000;    0.000;    0.000
670.031; 2333.000;    0.000;    0.000
670.144; 2294.000;    0.000;    0.000
670.256; 2309.000;    0.000;    0.000
670.369; 2294.000;    0.000;    0.000
670.482; 2284.000;    0.000;    0.000
670.594; 2288.000;    0.000;    0.000
670.707; 2296.000;    0.000;    0.000
670.820; 2324.000;    0.000;    0.000
670.932; 2214.000;    0.000;    0.000
671.045; 2379.000;    0.000;    0.000
671.157; 2277.000;    0.000;    0.000
671.270; 2217.000;    0.000;    0.000
671.382; 2291.000;    0.000;    0.000
671.495; 2452.000;    0.000;    0.000
671.607; 2817.000;    0.000;    0.000
671.720; 3408.000;    0.000;    0.000
671.832; 3432.000;    0.000;    0.000
671.944; 2969.000;    0.000;    0.000
672.057; 2575.000;    0.000;    0.000
672.169; 2482.000;    0.000;    0.000
672.282; 2387.000;    0.000;    0.000
672.394; 2461.000;    0.000;    0.000
672.506; 2264.000;    0.000;    0.000
672.618; 2257.000;    0.000;    0.000
672.731; 2254.000;    0.000;    0.000
672.843; 2189.000;    0.000;    0.000
672.955; 2252.000;    0.000;    0.000
673.067; 2259.000;    0.000;    0.000
673.180; 2224.000;    0.000;    0.000
673.292; 2118.000;    0.000;    0.000
673.404; 2236.000;    0.000;    0.000
673.516; 2161.000;    0.000;    0.000
673.628; 2171.000;    0.000;    0.000
673.740; 2201.000;    0.000;    0.000
673.852; 2154.000;    0.000;    0.000
673.964; 2155.000;    0.000;    0.000
674.076; 2138.000;    0.000;    0.000
674.188; 2149.000;    0.000;    0.000
674.300; 2278.000;    0.000;    0.000
674.412; 2202.000;    0.000;    0.000
674.524; 2241.000;    0.000;    0.000
674.636; 2160.000;    0.000;    0.000
674.748; 2092.000;    0.000;    0.000
674.860; 2152.000;    0.000;    0.000
674.972; 2156.000;    0.000;    0.000
675.084; 2060.000;    0.000;    0.000
675.196; 2137.000;    0.000;    0.000
675.307; 2155.000;    0.000;    0.000
675.419; 2127.000;    0.000;    0.000
675.531; 2215.000;    0.000;    0.000
675.643; 2127.000;    0.000;    0.000
675.755; 2068.000;    0.000;    0.000
675.866; 2153.000;    0.000;    0.000
675.978; 2111.000;    0.000;    0.000
676.090; 2087.000;    0.000;    0.000
676.201; 2087.000;    0.000;    0.000
676.313; 2041.000;    0.000;    0.000
676.425; 2054.000;    0.000;    0.000
676.536; 2065.000;    0.000;    0.000
676.648; 2109.000;    0.000;    0.000
676.759; 2083.000;    0.000;    0.000
676.871; 2122.000;    0.000;    0.000
676.983; 2122.000;    0.000;    0.000
677.094; 2068.000;    0.000;    0.000
677.206; 2096.000;    0.000;    0.000
677.317; 2111.000;    0.000;    0.000
677.429; 2034.000;    0.000;    0.000
677.540; 2026.000;    0.000;    0.000
677.651; 2047.000;    0.000;    0.000
677.763; 1993.000;    0.000;    0.000
677.874; 1993.000;    0.000;    0.000
677.986; 2012.000;    0.000;    0.000
678.097; 2054.000;    0.000;    0.000
678.208; 2133.000;    0.000;    0.000
678.320; 2080.000;    0.000;    0.000
678.431; 2026.000;    0.000;    0.000
678.542; 2085.000;    0.000;    0.000
678.653; 2016.000;    0.000;    0.000
678.765; 2068.000;    0.000;    0.000
678.876; 1935.000;    0.000;    0.000
678.987; 1984.000;    0.000;    0.000
679.098; 2058.000;    0.000;    0.000
679.209; 2019.000;    0.000;    0.000
679.320; 1973.000;    0.000;    0.000
679.432; 2029.000;    0.000;    0.000
679.543; 1965.000;    0.000;    0.000
679.654; 1900.000;    0.000;    0.000
679.765; 2051.000;    0.000;    0.000
679.876; 1968.000;    0.000;    0.000
679.987; 1920.000;    0.000;    0.000
680.098; 1930.000;    0.000;    0.000
680.209; 1873.000;    0.000;    0.000
680.320; 2029.000;    0.000;    0.000
680.431; 2017.000;    0.000;    0.000
680.542; 1957.000;    0.000;    0.000
680.653; 1966.000;    0.000;    0.000
680.763; 1918.000;    0.000;    0.000
680.874; 2006.000;    0.000;    0.000
680.985; 1870.000;    0.000;    0.000
681.096; 2006.000;    0.000;    0.000
681.207; 1964.000;    0.000;    0.000
681.318; 1928.000;    0.000;    0.000
681.428; 1910.000;    0.000;    0.000
681.539; 1928.000;    0.000;    0.000
681.650; 1934.000;    0.000;    0.000
681.761; 1923.000;    0.000;    0.000
681.871; 1881.000;    0.000;    0.000
681.982; 2000.000;    0.000;    0.000
682.093; 1899.000;    0.000;    0.000
682.203; 1948.000;    0.000;    0.000
682.314; 1851.000;    0.000;    0.000
682.424; 1890.000;    0.000;    0.000
682.535; 1919.000;    0.000;    0.000
682.645; 1979.000;    0.000;    0.000
682.756; 1991.000;    0.000;    0.000
682.867; 1881.000;    0.000;    0.000
682.977; 1942.000;    0.000;    0.000
683.087; 2017.000;    0.000;    0.000
683.198; 1877.000;    0.000;    0.000
683.308; 1809.000;    0.000;    0.000
683.419; 1938.000;    0.000;    0.000
683.529; 1962.000;    0.000;    0.000
683.640; 1940.000;    0.000;    0.000
683.750; 1964.000;    0.000;    0.000
683.860; 1898.000;    0.000;    0.000
683.971; 1934.000;    0.000;    0.000
684.081; 2004.000;    0.000;    0.000
684.191; 1927.000;    0.000;    0.000
684.301; 1947.000;    0.000;    0.000
684.412; 1920.000;    0.000;    0.000
684.522; 1886.000;    0.000;    0.000
684.632; 1891.000;    0.000;    0.000
684.742; 1921.000;    0.000;    0.000
684.852; 1899.000;    0.000;    0.000
684.963; 1953.000;    0.000;    0.000
685.073; 1890.000;    0.000;    0.000
685.183; 1899.000;    0.000;    0.000
685.293; 2000.000;    0.000;    0.000
685.403; 1983.000;    0.000;    0.000
685.513; 1972.000;    0.000;    0.000
685.623; 1934.000;    0.000;    0.000
685.733; 1953.000;    0.000;    0.000
685.843; 1949.000;    0.000;    0.000
685.953; 1973.000;    0.000;    0.000
686.063; 1903.000;    0.000;    0.000
686.173; 1876.000;    0.000;    0.000
686.283; 1954.000;    0.000;    0.000
686.393; 1888.000;    0.000;    0.000
686.503; 1906.000;    0.000;    0.000
686.612; 1935.000;    0.000;    0.000
686.722; 1975.000;    0.000;    0.000
686.832; 1986.000;    0.000;    0.000
686.942; 1959.000;    0.000;    0.000
687.052; 1958.000;    0.000;    0.000
687.161; 1943.000;    0.000;    0.000
687.271; 1907.000;    0.000;    0.000
687.381; 1904.000;    0.000;    0.000
687.491; 1925.000;    0.000;    0.000
687.600; 1966.000;    0.000;    0.000
687.710; 1899.000;    0.000;    0.000
687.820; 1927.000;    0.000;    0.000
687.929; 1901.000;    0.000;    0.000
688.039; 1892.000;    0.000;    0.000
688.148; 1932.000;    0.000;    0.000
688.258; 1867.000;    0.000;    0.000
688.367; 1973.000;    0.000;    0.000
688.477; 1924.000;    0.000;    0.000
688.586; 1847.000;    0.000;    0.000
688.696; 1925.000;    0.000;    0.000
688.805; 1945.000;    0.000;    0.000
688.915; 1952.000;    0.000;    0.000
689.024; 1923.000;    0.000;    0.000
689.134; 1913.000;    0.000;    0.000
689.243; 1830.000;    0.000;    0.000
689.352; 1938.000;    0.000;    0.000
689.462; 1887.000;    0.000;    0.000
689.571; 1811.000;    0.000;    0.000
689.680; 1922.000;    0.000;    0.000
689.790; 1836.000;    0.000;    0.000
689.899; 1916.000;    0.000;    0.000
690.008; 1967.000;    0.000;    0.000
690.117; 1861.000;    0.000;    0.000
690.227; 1820.000;    0.000;    0.000
690.336; 1869.000;    0.000;    0.000
690.445; 1833.000;    0.000;    0.000
690.554; 1889.000;    0.000;    0.000
690.663; 1856.000;    0.000;    0.000
690.772; 1859.000;    0.000;    0.000
690.881; 1842.000;    0.000;    0.000
690.990; 1814.000;    0.000;    0.000
691.100; 1778.000;    0.000;    0.000
691.209; 1863.000;    0.000;    0.000
691.318; 1897.000;    0.000;    0.000
691.427; 1784.000;    0.000;    0.000
691.535; 1862.000;    0.000;    0.000
691.644; 1828.000;    0.000;    0.000
691.753; 1879.000;    0.000;    0.000
691.862; 1844.000;    0.000;    0.000
691.971; 1811.000;    0.000;    0.000
692.080; 1854.000;    0.000;    0.000
692.189; 1789.000;    0.000;    0.000
692.298; 1889.000;    0.000;    0.000
692.407; 1811.000;    0.000;    0.000
692.515; 1911.000;    0.000;    0.000
692.624; 1818.000;    0.000;    0.000
692.733; 1804.000;    0.000;    0.000
692.842; 1878.000;    0.000;    0.000
692.950; 1835.000;    0.000;    0.000
693.059; 1795.000;    0.000;    0.000
693.168; 1892.000;    0.000;    0.000
693.276; 1933.000;    0.000;    0.000
693.385; 1784.000;    0.000;    0.000
693.494; 1839.000;    0.000;    0.000
693.602; 1823.000;    0.000;    0.000
693.711; 1869.000;    0.000;    0.000
693.819; 1828.000;    0.000;    0.000
693.928; 1819.000;    0.000;    0.000
694.036; 1811.000;    0.000;    0.000
694.145; 1825.000;    0.000;    0.000
694.253; 1804.000;    0.000;    0.000
694.362; 1789.000;    0.000;    0.000
694.470; 1891.000;    0.000;    0.000
694.579; 1823.000;    0.000;    0.000
694.687; 1840.000;    0.000;    0.000
694.795; 1867.000;    0.000;    0.000
694.904; 1772.000;    0.000;    0.000
695.012; 1869.000;    0.000;    0.000
695.120; 1845.000;    0.000;    0.000
695.229; 1839.000;    0.000;    0.000
695.337; 1843.000;    0.000;    0.000
695.445; 1889.000;    0.000;    0.000
695.553; 1868.000;    0.000;    0.000
695.662; 1852.000;    0.000;    0.000
695.770; 1897.000;    0.000;    0.000
695.878; 1909.000;    0.000;    0.000
695.986; 1824.000;    0.000;    0.000
696.094; 1891.000;    0.000;    0.000
696.202; 1825.000;    0.000;    0.000
696.310; 1866.000;    0.000;    0.000
696.419; 1828.000;    0.000;    0.000
696.527; 1823.000;    0.000;    0.000
696.635; 1905.000;    0.000;    0.000
696.743; 1852.000;    0.000;    0.000
696.851; 1836.000;    0.000;    0.000
696.959; 1833.000;    0.000;    0.000
697.067; 1919.000;    0.000;    0.000
697.174; 1902.000;    0.000;    0.000
697.282; 1817.000;    0.000;    0.000
697.390; 1899.000;    0.000;    0.000
697.498; 1876.000;    0.000;    0.000
697.606; 1825.000;    0.000;    0.000
697.714; 1848.000;    0.000;    0.000
697.822; 1870.000;    0.000;    0.000
697.929; 1937.000;    0.000;    0.000
698.037; 1845.000;    0.000;    0.000
698.145; 1866.000;    0.000;    0.000
698.253; 1879.000;    0.000;    0.000
698.360; 1982.000;    0.000;    0.000
698.468; 1948.000;    0.000;    0.000
698.576; 1942.000;    0.000;    0.000
698.683; 1888.000;    0.000;    0.000
698.791; 1917.000;    0.000;    0.000
698.899; 1872.000;    0.000;    0.000
699.006; 1949.000;    0.000;    0.000
699.114; 1902.000;    0.000;    0.000
699.221; 1889.000;    0.000;    0.000
699.329; 1914.000;    0.000;    0.000
699.436; 1849.000;    0.000;    0.000
699.544; 1940.000;    0.000;    0.000
699.651; 1834.000;    0.000;    0.000
699.759; 1866.000;    0.000;    0.000
699.866; 1896.000;    0.000;    0.000
699.974; 1802.000;    0.000;    0.000
700.081; 1865.000;    0.000;    0.000
700.188; 1904.000;    0.000;    0.000
700.296; 1886.000;    0.000;    0.000
700.403; 1883.000;    0.000;    0.000
700.510; 1814.000;    0.000;    0.000
700.618; 1900.000;    0.000;    0.000
700.725; 1801.000;    0.000;    0.000
700.832; 1884.000;    0.000;    0.000
700.940; 1875.000;    0.000;    0.000
701.047; 1860.000;    0.000;    0.000
701.154; 1831.000;    0.000;    0.000
701.261; 1840.000;    0.000;    0.000
701.368; 1843.000;    0.000;    0.000
701.475; 1837.000;    0.000;    0.000
701.582; 1859.000;    0.000;    0.000
701.690; 1841.000;    0.000;    0.000
701.797; 1997.000;    0.000;    0.000
701.904; 2011.000;    0.000;    0.000
702.011; 1934.000;    0.000;    0.000
702.118; 1897.000;    0.000;    0.000
702.225; 1878.000;    0.000;    0.000
702.332; 1894.000;    0.000;    0.000
702.439; 1881.000;    0.000;    0.000
702.546; 1974.000;    0.000;    0.000
702.652; 1922.000;    0.000;    0.000
702.759; 1900.000;    0.000;    0.000
702.866; 1916.000;    0.000;    0.000
702.973; 1876.000;    0.000;    0.000
703.080; 1872.000;    0.000;    0.000
703.187; 1888.000;    0.000;    0.000
703.293; 1897.000;    0.000;    0.000
703.400; 1851.000;    0.000;    0.000
703.507;  521.000;    0.000;    0.000
703.614;  301.000;    0.000;    0.000
703.720;  317.000;    0.000;    0.000
703.827;  300.000;    0.000;    0.000
703.934;  329.000;    0.000;    0.000
704.040;  292.000;    0.000;    0.000
704.147;  318.000;    0.000;    0.000
704.254;  346.000;    0.000;    0.000
704.360;  337.000;    0.000;    0.000
704.467;  370.000;    0.000;    0.000
704.573;  335.000;    0.000;    0.000
704.680;  314.000;    0.000;    0.000
704.786;  318.000;    0.000;    0.000
704.893;  334.000;    0.000;    0.000
704.999;  306.000;    0.000;    0.000
705.106;  343.000;    0.000;    0.000

