
Integration time [ms]:   1.000
Averaging Nr. [scans]: 1
Smoothing Nr. [pixels]: 0
Data measured with spectrometer [name]: NIR
Wave   ;Sample   ;Dark     ;Reference
[nm]   ;[counts] ;[counts] ;[counts] 

691.496;  132.150;    0.000;    0.000
691.696;  180.150;    0.000;    0.000
691.896;  132.150;    0.000;    0.000
692.096;  164.150;    0.000;    0.000
692.296;   92.150;    0.000;    0.000
692.496;  228.150;    0.000;    0.000
692.695;  110.150;    0.000;    0.000
692.895;  148.150;    0.000;    0.000
693.095;  114.150;    0.000;    0.000
693.295;  148.150;    0.000;    0.000
693.495;  150.150;    0.000;    0.000
693.695;  125.150;    0.000;    0.000
693.894;  154.150;    0.000;    0.000
694.094;  135.150;    0.000;    0.000
694.294;  114.150;    0.000;    0.000
694.494;  279.150;    0.000;    0.000
694.693; 1765.150;    0.000;    0.000
694.893; 1903.150;    0.000;    0.000
695.093; 1952.150;    0.000;    0.000
695.293; 2033.150;    0.000;    0.000
695.492; 2004.150;    0.000;    0.000
695.692; 1947.150;    0.000;    0.000
695.891; 1956.150;    0.000;    0.000
696.091; 2012.150;    0.000;    0.000
696.291; 2111.150;    0.000;    0.000
696.490; 2044.150;    0.000;    0.000
696.690; 2136.150;    0.000;    0.000
696.889; 2108.150;    0.000;    0.000
697.089; 2054.150;    0.000;    0.000
697.288; 2164.150;    0.000;    0.000
697.488; 2130.150;    0.000;    0.000
697.687; 2098.150;    0.000;    0.000
697.887; 2118.150;    0.000;    0.000
698.086; 2171.150;    0.000;    0.000
698.286; 2106.150;    0.000;    0.000
698.485; 2093.150;    0.000;    0.000
698.684; 2115.150;    0.000;    0.000
698.884; 2221.150;    0.000;    0.000
699.083; 2118.150;    0.000;    0.000
699.282; 2141.150;    0.000;    0.000
699.482; 2143.150;    0.000;    0.000
699.681; 2144.150;    0.000;    0.000
699.880; 2187.150;    0.000;    0.000
700.080; 2203.150;    0.000;    0.000
700.279; 2105.150;    0.000;    0.000
700.478; 2168.150;    0.000;    0.000
700.677; 2112.150;    0.000;    0.000
700.877; 2168.150;    0.000;    0.000
701.076; 2204.150;    0.000;    0.000
701.275; 2243.150;    0.000;    0.000
701.474; 2242.150;    0.000;    0.000
701.673; 2224.150;    0.000;    0.000
701.872; 2138.150;    0.000;    0.000
702.071; 2140.150;    0.000;    0.000
702.271; 2150.150;    0.000;    0.000
702.470; 2253.150;    0.000;    0.000
702.669; 2172.150;    0.000;    0.000
702.868; 2275.150;    0.000;    0.000
703.067; 2296.150;    0.000;    0.000
703.266; 2235.150;    0.000;    0.000
703.465; 2179.150;    0.000;    0.000
703.664; 2126.150;    0.000;    0.000
703.863; 2238.150;    0.000;    0.000
704.062; 2242.150;    0.000;    0.000
704.260; 2218.150;    0.000;    0.000
704.459; 2284.150;    0.000;    0.000
704.658; 2201.150;    0.000;    0.000
704.857; 2151.150;    0.000;    0.000
705.056; 2163.150;    0.000;    0.000
705.255; 2249.150;    0.000;    0.000
705.454; 2144.150;    0.000;    0.000
705.652; 2215.150;    0.000;    0.000
705.851; 2254.150;    0.000;    0.000
706.050; 2240.150;    0.000;    0.000
706.249; 2221.150;    0.000;    0.000
706.447; 2270.150;    0.000;    0.000
706.646; 2218.150;    0.000;    0.000
706.845; 2307.150;    0.000;    0.000
707.043; 2280.150;    0.000;    0.000
707.242; 2289.150;    0.000;    0.000
707.441; 2317.150;    0.000;    0.000
707.639; 2199.150;    0.000;    0.000
707.838; 2284.150;    0.000;    0.000
708.037; 2366.150;    0.000;    0.000
708.235; 2425.150;    0.000;    0.000
708.434; 2389.150;    0.000;    0.000
708.632; 2264.150;    0.000;    0.000
708.831; 2398.150;    0.000;    0.000
709.029; 2343.150;    0.000;    0.000
709.228; 2361.150;    0.000;    0.000
709.426; 2363.150;    0.000;    0.000
709.625; 2360.150;    0.000;    0.000
709.823; 2403.150;    0.000;    0.000
710.022; 2344.150;    0.000;    0.000
710.220; 2315.150;    0.000;    0.000
710.418; 2348.150;    0.000;    0.000
710.617; 2402.150;    0.000;    0.000
710.815; 2372.150;    0.000;    0.000
711.013; 2398.150;    0.000;    0.000
711.212; 2490.150;    0.000;    0.000
711.410; 2426.150;    0.000;    0.000
711.608; 2475.150;    0.000;    0.000
711.807; 2446.150;    0.000;    0.000
712.005; 2411.150;    0.000;    0.000
712.203; 2389.150;    0.000;    0.000
712.401; 2515.150;    0.000;    0.000
712.599; 2506.150;    0.000;    0.000
712.798; 2561.150;    0.000;    0.000
712.996; 2546.150;    0.000;    0.000
713.194; 2575.150;    0.000;    0.000
713.392; 2490.150;    0.000;    0.000
713.590; 2721.150;    0.000;    0.000
713.788; 2637.150;    0.000;    0.000
713.986; 2755.150;    0.000;    0.000
714.184; 2850.150;    0.000;    0.000
714.382; 3459.150;    0.000;    0.000
714.580; 6647.150;    0.000;    0.000
714.778;10683.150;    0.000;    0.000
714.976; 8262.150;    0.000;    0.000
715.174; 4035.150;    0.000;    0.000
715.372; 3374.150;    0.000;    0.000
715.570; 3280.150;    0.000;    0.000
715.768; 3350.150;    0.000;    0.000
715.966; 3293.150;    0.000;    0.000
716.164; 3268.150;    0.000;    0.000
716.362; 3077.150;    0.000;    0.000
716.560; 3002.150;    0.000;    0.000
716.758; 3029.150;    0.000;    0.000
716.955; 2801.150;    0.000;    0.000
717.153; 2844.150;    0.000;    0.000
717.351; 2773.150;    0.000;    0.000
717.549; 2793.150;    0.000;    0.000
717.746; 2799.150;    0.000;    0.000
717.944; 2731.150;    0.000;    0.000
718.142; 2718.150;    0.000;    0.000
718.340; 2757.150;    0.000;    0.000
718.537; 2723.150;    0.000;    0.000
718.735; 2786.150;    0.000;    0.000
718.933; 2708.150;    0.000;    0.000
719.130; 2765.150;    0.000;    0.000
719.328; 2829.150;    0.000;    0.000
719.525; 2860.150;    0.000;    0.000
719.723; 2937.150;    0.000;    0.000
719.920; 3894.150;    0.000;    0.000
720.118; 6841.150;    0.000;    0.000
720.316; 6847.150;    0.000;    0.000
720.513; 3952.150;    0.000;    0.000
720.711; 3019.150;    0.000;    0.000
720.908; 2891.150;    0.000;    0.000
721.105; 2805.150;    0.000;    0.000
721.303; 2776.150;    0.000;    0.000
721.500; 2770.150;    0.000;    0.000
721.698; 2868.150;    0.000;    0.000
721.895; 2784.150;    0.000;    0.000
722.092; 2707.150;    0.000;    0.000
722.290; 2870.150;    0.000;    0.000
722.487; 2767.150;    0.000;    0.000
722.684; 2846.150;    0.000;    0.000
722.882; 2884.150;    0.000;    0.000
723.079; 2792.150;    0.000;    0.000
723.276; 2853.150;    0.000;    0.000
723.473; 2822.150;    0.000;    0.000
723.671; 2775.150;    0.000;    0.000
723.868; 2716.150;    0.000;    0.000
724.065; 2784.150;    0.000;    0.000
724.262; 2831.150;    0.000;    0.000
724.459; 2821.150;    0.000;    0.000
724.656; 2834.150;    0.000;    0.000
724.854; 2878.150;    0.000;    0.000
725.051; 2802.150;    0.000;    0.000
725.248; 2856.150;    0.000;    0.000
725.445; 2857.150;    0.000;    0.000
725.642; 2727.150;    0.000;    0.000
725.839; 2905.150;    0.000;    0.000
726.036; 2805.150;    0.000;    0.000
726.233; 2836.150;    0.000;    0.000
726.430; 2829.150;    0.000;    0.000
726.627; 2898.150;    0.000;    0.000
726.824; 2911.150;    0.000;    0.000
727.021; 2893.150;    0.000;    0.000
727.218; 2830.150;    0.000;    0.000
727.414; 2887.150;    0.000;    0.000
727.611; 2851.150;    0.000;    0.000
727.808; 2890.150;    0.000;    0.000
728.005; 2851.150;    0.000;    0.000
728.202; 2925.150;    0.000;    0.000
728.399; 2830.150;    0.000;    0.000
728.595; 2928.150;    0.000;    0.000
728.792; 2869.150;    0.000;    0.000
728.989; 2918.150;    0.000;    0.000
729.186; 2957.150;    0.000;    0.000
729.382; 2955.150;    0.000;    0.000
729.579; 2926.150;    0.000;    0.000
729.776; 2927.150;    0.000;    0.000
729.972; 2929.150;    0.000;    0.000
730.169; 2985.150;    0.000;    0.000
730.366; 2992.150;    0.000;    0.000
730.562; 3031.150;    0.000;    0.000
730.759; 3076.150;    0.000;    0.000
730.955; 3019.150;    0.000;    0.000
731.152; 3139.150;    0.000;    0.000
731.348; 3096.150;    0.000;    0.000
731.545; 3224.150;    0.000;    0.000
731.741; 3264.150;    0.000;    0.000
731.938; 3522.150;    0.000;    0.000
732.134; 3748.150;    0.000;    0.000
732.331; 5012.150;    0.000;    0.000
732.527; 7290.150;    0.000;    0.000
732.724; 6844.150;    0.000;    0.000
732.920; 4355.150;    0.000;    0.000
733.116; 3676.150;    0.000;    0.000
733.313; 3660.150;    0.000;    0.000
733.509; 3493.150;    0.000;    0.000
733.705; 3542.150;    0.000;    0.000
733.902; 3392.150;    0.000;    0.000
734.098; 3474.150;    0.000;    0.000
734.294; 3322.150;    0.000;    0.000
734.490; 3479.150;    0.000;    0.000
734.687; 3495.150;    0.000;    0.000
734.883; 3378.150;    0.000;    0.000
735.079; 3421.150;    0.000;    0.000
735.275; 3387.150;    0.000;    0.000
735.471; 3416.150;    0.000;    0.000
735.667; 3388.150;    0.000;    0.000
735.863; 3415.150;    0.000;    0.000
736.060; 3423.150;    0.000;    0.000
736.256; 3398.150;    0.000;    0.000
736.452; 3440.150;    0.000;    0.000
736.648; 3352.150;    0.000;    0.000
736.844; 3444.150;    0.000;    0.000
737.040; 3476.150;    0.000;    0.000
737.236; 3443.150;    0.000;    0.000
737.432; 3378.150;    0.000;    0.000
737.628; 3516.150;    0.000;    0.000
737.824; 3374.150;    0.000;    0.000
738.019; 3438.150;    0.000;    0.000
738.215; 3568.150;    0.000;    0.000
738.411; 3491.150;    0.000;    0.000
738.607; 3408.150;    0.000;    0.000
738.803; 3459.150;    0.000;    0.000
738.999; 3565.150;    0.000;    0.000
739.195; 3524.150;    0.000;    0.000
739.390; 3614.150;    0.000;    0.000
739.586; 3516.150;    0.000;    0.000
739.782; 3650.150;    0.000;    0.000
739.978; 3577.150;    0.000;    0.000
740.173; 3560.150;    0.000;    0.000
740.369; 3627.150;    0.000;    0.000
740.565; 3646.150;    0.000;    0.000
740.760; 3807.150;    0.000;    0.000
740.956; 3655.150;    0.000;    0.000
741.152; 3670.150;    0.000;    0.000
741.347; 3760.150;    0.000;    0.000
741.543; 3803.150;    0.000;    0.000
741.738; 3986.150;    0.000;    0.000
741.934; 4024.150;    0.000;    0.000
742.129; 4337.150;    0.000;    0.000
742.325; 4932.150;    0.000;    0.000
742.520; 5216.150;    0.000;    0.000
742.716; 4813.150;    0.000;    0.000
742.911; 4686.150;    0.000;    0.000
743.107; 4447.150;    0.000;    0.000
743.302; 4278.150;    0.000;    0.000
743.498; 4464.150;    0.000;    0.000
743.693; 4405.150;    0.000;    0.000
743.888; 4865.150;    0.000;    0.000
744.084; 5818.150;    0.000;    0.000
744.279; 6851.150;    0.000;    0.000
744.474; 6824.150;    0.000;    0.000
744.670; 5961.150;    0.000;    0.000
744.865; 5539.150;    0.000;    0.000
745.060; 5107.150;    0.000;    0.000
745.255; 5076.150;    0.000;    0.000
745.451; 4808.150;    0.000;    0.000
745.646; 4791.150;    0.000;    0.000
745.841; 4812.150;    0.000;    0.000
746.036; 4792.150;    0.000;    0.000
746.231; 5032.150;    0.000;    0.000
746.426; 5358.150;    0.000;    0.000
746.622; 6706.150;    0.000;    0.000
746.817; 8488.150;    0.000;    0.000
747.012; 9068.150;    0.000;    0.000
747.207; 7974.150;    0.000;    0.000
747.402; 6955.150;    0.000;    0.000
747.597; 6395.150;    0.000;    0.000
747.792; 6070.150;    0.000;    0.000
747.987; 5906.150;    0.000;    0.000
748.182; 5615.150;    0.000;    0.000
748.377; 5302.150;    0.000;    0.000
748.572; 5254.150;    0.000;    0.000
748.767; 4981.150;    0.000;    0.000
748.961; 4831.150;    0.000;    0.000
749.156; 4812.150;    0.000;    0.000
749.351; 4659.150;    0.000;    0.000
749.546; 4533.150;    0.000;    0.000
749.741; 4503.150;    0.000;    0.000
749.936; 4456.150;    0.000;    0.000
750.130; 4348.150;    0.000;    0.000
750.325; 4340.150;    0.000;    0.000
750.520; 4259.150;    0.000;    0.000
750.715; 4282.150;    0.000;    0.000
750.909; 4302.150;    0.000;    0.000
751.104; 4228.150;    0.000;    0.000
751.299; 4170.150;    0.000;    0.000
751.493; 4116.150;    0.000;    0.000
751.688; 4159.150;    0.000;    0.000
751.882; 4063.150;    0.000;    0.000
752.077; 4048.150;    0.000;    0.000
752.272; 4057.150;    0.000;    0.000
752.466; 4112.150;    0.000;    0.000
752.661; 4188.150;    0.000;    0.000
752.855; 3952.150;    0.000;    0.000
753.050; 4030.150;    0.000;    0.000
753.244; 3997.150;    0.000;    0.000
753.439; 4074.150;    0.000;    0.000
753.633; 4114.150;    0.000;    0.000
753.828; 3994.150;    0.000;    0.000
754.022; 3971.150;    0.000;    0.000
754.216; 3967.150;    0.000;    0.000
754.411; 3965.150;    0.000;    0.000
754.605; 3995.150;    0.000;    0.000
754.799; 3971.150;    0.000;    0.000
754.994; 4014.150;    0.000;    0.000
755.188; 4082.150;    0.000;    0.000
755.382; 4023.150;    0.000;    0.000
755.576; 3948.150;    0.000;    0.000
755.771; 3926.150;    0.000;    0.000
755.965; 4023.150;    0.000;    0.000
756.159; 3877.150;    0.000;    0.000
756.353; 3988.150;    0.000;    0.000
756.547; 4114.150;    0.000;    0.000
756.742; 4027.150;    0.000;    0.000
756.936; 4040.150;    0.000;    0.000
757.130; 3917.150;    0.000;    0.000
757.324; 3942.150;    0.000;    0.000
757.518; 4009.150;    0.000;    0.000
757.712; 4014.150;    0.000;    0.000
757.906; 4076.150;    0.000;    0.000
758.100; 4015.150;    0.000;    0.000
758.294; 4125.150;    0.000;    0.000
758.488; 4061.150;    0.000;    0.000
758.682; 4055.150;    0.000;    0.000
758.876; 4036.150;    0.000;    0.000
759.070; 4080.150;    0.000;    0.000
759.264; 4047.150;    0.000;    0.000
759.458; 3993.150;    0.000;    0.000
759.651; 4168.150;    0.000;    0.000
759.845; 4246.150;    0.000;    0.000
760.039; 4336.150;    0.000;    0.000
760.233; 4396.150;    0.000;    0.000
760.427; 4261.150;    0.000;    0.000
760.620; 4330.150;    0.000;    0.000
760.814; 4341.150;    0.000;    0.000
761.008; 4518.150;    0.000;    0.000
761.202; 4332.150;    0.000;    0.000
761.395; 4411.150;    0.000;    0.000
761.589; 4393.150;    0.000;    0.000
761.783; 4313.150;    0.000;    0.000
761.976; 4331.150;    0.000;    0.000
762.170; 4238.150;    0.000;    0.000
762.363; 4230.150;    0.000;    0.000
762.557; 4355.150;    0.000;    0.000
762.750; 4281.150;    0.000;    0.000
762.944; 4316.150;    0.000;    0.000
763.138; 4313.150;    0.000;    0.000
763.331; 4225.150;    0.000;    0.000
763.524; 4376.150;    0.000;    0.000
763.718; 4485.150;    0.000;    0.000
763.911; 4408.150;    0.000;    0.000
764.105; 4301.150;    0.000;    0.000
764.298; 4345.150;    0.000;    0.000
764.492; 4476.150;    0.000;    0.000
764.685; 4255.150;    0.000;    0.000
764.878; 4394.150;    0.000;    0.000
765.072; 4297.150;    0.000;    0.000
765.265; 4467.150;    0.000;    0.000
765.458; 4554.150;    0.000;    0.000
765.651; 4738.150;    0.000;    0.000
765.845; 5015.150;    0.000;    0.000
766.038; 6229.150;    0.000;    0.000
766.231;12240.150;    0.000;    0.000
766.424;22455.150;    0.000;    0.000
766.617;19123.150;    0.000;    0.000
766.811; 8048.150;    0.000;    0.000
767.004; 5571.150;    0.000;    0.000
767.197; 5018.150;    0.000;    0.000
767.390; 4718.150;    0.000;    0.000
767.583; 4640.150;    0.000;    0.000
767.776; 4608.150;    0.000;    0.000
767.969; 4528.150;    0.000;    0.000
768.162; 4617.150;    0.000;    0.000
768.355; 4513.150;    0.000;    0.000
768.548; 4508.150;    0.000;    0.000
768.741; 4736.150;    0.000;    0.000
768.934; 4734.150;    0.000;    0.000
769.127; 4899.150;    0.000;    0.000
769.320; 5217.150;    0.000;    0.000
769.513; 6428.150;    0.000;    0.000
769.706;13624.150;    0.000;    0.000
769.898;18075.150;    0.000;    0.000
770.091;12040.150;    0.000;    0.000
770.284; 6023.150;    0.000;    0.000
770.477; 5226.150;    0.000;    0.000
770.670; 5080.150;    0.000;    0.000
770.862; 4910.150;    0.000;    0.000
771.055; 5044.150;    0.000;    0.000
771.248; 5060.150;    0.000;    0.000
771.441; 5261.150;    0.000;    0.000
771.633; 5434.150;    0.000;    0.000
771.826; 5403.150;    0.000;    0.000
772.018; 5362.150;    0.000;    0.000
772.211; 5714.150;    0.000;    0.000
772.404; 5785.150;    0.000;    0.000
772.596; 5785.150;    0.000;    0.000
772.789; 5780.150;    0.000;    0.000
772.981; 5821.150;    0.000;    0.000
773.174; 5827.150;    0.000;    0.000
773.366; 5891.150;    0.000;    0.000
773.559; 5925.150;    0.000;    0.000
773.751; 6058.150;    0.000;    0.000
773.944; 6115.150;    0.000;    0.000
774.136; 6166.150;    0.000;    0.000
774.329; 6296.150;    0.000;    0.000
774.521; 6495.150;    0.000;    0.000
774.713; 6577.150;    0.000;    0.000
774.906; 6764.150;    0.000;    0.000
775.098; 7065.150;    0.000;    0.000
775.290; 7266.150;    0.000;    0.000
775.483; 7728.150;    0.000;    0.000
775.675; 8091.150;    0.000;    0.000
775.867; 8578.150;    0.000;    0.000
776.059; 9335.150;    0.000;    0.000
776.251;10419.150;    0.000;    0.000
776.444;11872.150;    0.000;    0.000
776.636;14222.150;    0.000;    0.000
776.828;18695.150;    0.000;    0.000
777.020;28786.150;    0.000;    0.000
777.212;40080.148;    0.000;    0.000
777.404;43870.148;    0.000;    0.000
777.596;37287.148;    0.000;    0.000
777.788;26688.150;    0.000;    0.000
777.980;19889.150;    0.000;    0.000
778.172;16152.150;    0.000;    0.000
778.364;13675.150;    0.000;    0.000
778.556;11762.150;    0.000;    0.000
778.748;10800.150;    0.000;    0.000
778.940; 9747.150;    0.000;    0.000
779.132; 8960.150;    0.000;    0.000
779.324; 8446.150;    0.000;    0.000
779.516; 8047.150;    0.000;    0.000
779.708; 7700.150;    0.000;    0.000
779.900; 7170.150;    0.000;    0.000
780.091; 6992.150;    0.000;    0.000
780.283; 6711.150;    0.000;    0.000
780.475; 6408.150;    0.000;    0.000
780.667; 6178.150;    0.000;    0.000
780.859; 6121.150;    0.000;    0.000
781.050; 5988.150;    0.000;    0.000
781.242; 5706.150;    0.000;    0.000
781.434; 5678.150;    0.000;    0.000
781.625; 5617.150;    0.000;    0.000
781.817; 5649.150;    0.000;    0.000
782.008; 5376.150;    0.000;    0.000
782.200; 5335.150;    0.000;    0.000
782.392; 5343.150;    0.000;    0.000
782.583; 5235.150;    0.000;    0.000
782.775; 5167.150;    0.000;    0.000
782.966; 5040.150;    0.000;    0.000
783.158; 5004.150;    0.000;    0.000
783.349; 4994.150;    0.000;    0.000
783.541; 4934.150;    0.000;    0.000
783.732; 4920.150;    0.000;    0.000
783.924; 4804.150;    0.000;    0.000
784.115; 4828.150;    0.000;    0.000
784.306; 4731.150;    0.000;    0.000
784.498; 4687.150;    0.000;    0.000
784.689; 4702.150;    0.000;    0.000
784.880; 4794.150;    0.000;    0.000
785.072; 4678.150;    0.000;    0.000
785.263; 4540.150;    0.000;    0.000
785.454; 4560.150;    0.000;    0.000
785.645; 4539.150;    0.000;    0.000
785.837; 4649.150;    0.000;    0.000
786.028; 4571.150;    0.000;    0.000
786.219; 4386.150;    0.000;    0.000
786.410; 4410.150;    0.000;    0.000
786.601; 4562.150;    0.000;    0.000
786.792; 4495.150;    0.000;    0.000
786.984; 4476.150;    0.000;    0.000
787.175; 4427.150;    0.000;    0.000
787.366; 4379.150;    0.000;    0.000
787.557; 4393.150;    0.000;    0.000
787.748; 4358.150;    0.000;    0.000
787.939; 4408.150;    0.000;    0.000
788.130; 4442.150;    0.000;    0.000
788.321; 4326.150;    0.000;    0.000
788.512; 4411.150;    0.000;    0.000
788.703; 4339.150;    0.000;    0.000
788.894; 4338.150;    0.000;    0.000
789.084; 4357.150;    0.000;    0.000
789.275; 4333.150;    0.000;    0.000
789.466; 4386.150;    0.000;    0.000
789.657; 4354.150;    0.000;    0.000
789.848; 4261.150;    0.000;    0.000
790.039; 4213.150;    0.000;    0.000
790.229; 4223.150;    0.000;    0.000
790.420; 4209.150;    0.000;    0.000
790.611; 4199.150;    0.000;    0.000
790.801; 4097.150;    0.000;    0.000
790.992; 4285.150;    0.000;    0.000
791.183; 4318.150;    0.000;    0.000
791.373; 4281.150;    0.000;    0.000
791.564; 4308.150;    0.000;    0.000
791.755; 4205.150;    0.000;    0.000
791.945; 4377.150;    0.000;    0.000
792.136; 4219.150;    0.000;    0.000
792.326; 4235.150;    0.000;    0.000
792.517; 4284.150;    0.000;    0.000
792.707; 4375.150;    0.000;    0.000
792.898; 4345.150;    0.000;    0.000
793.088; 4512.150;    0.000;    0.000
793.279; 4434.150;    0.000;    0.000
793.469; 4522.150;    0.000;    0.000
793.660; 4664.150;    0.000;    0.000
793.850; 4879.150;    0.000;    0.000
794.040; 4992.150;    0.000;    0.000
794.231; 5311.150;    0.000;    0.000
794.421; 5781.150;    0.000;    0.000
794.611; 6672.150;    0.000;    0.000
794.802; 7666.150;    0.000;    0.000
794.992; 7978.150;    0.000;    0.000
795.182; 8040.150;    0.000;    0.000
795.372; 7381.150;    0.000;    0.000
795.563; 6640.150;    0.000;    0.000
795.753; 5857.150;    0.000;    0.000
795.943; 5531.150;    0.000;    0.000
796.133; 5120.150;    0.000;    0.000
796.323; 4995.150;    0.000;    0.000
796.513; 4738.150;    0.000;    0.000
796.703; 4705.150;    0.000;    0.000
796.893; 4732.150;    0.000;    0.000
797.083; 4550.150;    0.000;    0.000
797.273; 4504.150;    0.000;    0.000
797.463; 4545.150;    0.000;    0.000
797.653; 4275.150;    0.000;    0.000
797.843; 4376.150;    0.000;    0.000
798.033; 4365.150;    0.000;    0.000
798.223; 4222.150;    0.000;    0.000
798.413; 4147.150;    0.000;    0.000
798.603; 4174.150;    0.000;    0.000
798.793; 4076.150;    0.000;    0.000
798.983; 4073.150;    0.000;    0.000
799.172; 3983.150;    0.000;    0.000
799.362; 4104.150;    0.000;    0.000
799.552; 3979.150;    0.000;    0.000
799.742; 4086.150;    0.000;    0.000
799.932; 3961.150;    0.000;    0.000
800.121; 3918.150;    0.000;    0.000
800.311; 3868.150;    0.000;    0.000
800.501; 3854.150;    0.000;    0.000
800.690; 3941.150;    0.000;    0.000
800.880; 3921.150;    0.000;    0.000
801.070; 3851.150;    0.000;    0.000
801.259; 3732.150;    0.000;    0.000
801.449; 3829.150;    0.000;    0.000
801.638; 3757.150;    0.000;    0.000
801.828; 3813.150;    0.000;    0.000
802.017; 3708.150;    0.000;    0.000
802.207; 3688.150;    0.000;    0.000
802.396; 3729.150;    0.000;    0.000
802.586; 3743.150;    0.000;    0.000
802.775; 3691.150;    0.000;    0.000
802.965; 3702.150;    0.000;    0.000
803.154; 3706.150;    0.000;    0.000
803.343; 3585.150;    0.000;    0.000
803.533; 3604.150;    0.000;    0.000
803.722; 3482.150;    0.000;    0.000
803.911; 3545.150;    0.000;    0.000
804.101; 3617.150;    0.000;    0.000
804.290; 3541.150;    0.000;    0.000
804.479; 3566.150;    0.000;    0.000
804.668; 3503.150;    0.000;    0.000
804.857; 3539.150;    0.000;    0.000
805.047; 3537.150;    0.000;    0.000
805.236; 3449.150;    0.000;    0.000
805.425; 3485.150;    0.000;    0.000
805.614; 3476.150;    0.000;    0.000
805.803; 3506.150;    0.000;    0.000
805.992; 3581.150;    0.000;    0.000
806.181; 3433.150;    0.000;    0.000
806.370; 3509.150;    0.000;    0.000
806.559; 3392.150;    0.000;    0.000
806.748; 3543.150;    0.000;    0.000
806.937; 3427.150;    0.000;    0.000
807.126; 3363.150;    0.000;    0.000
807.315; 3501.150;    0.000;    0.000
807.504; 3470.150;    0.000;    0.000
807.693; 3518.150;    0.000;    0.000
807.882; 3380.150;    0.000;    0.000
808.071; 3404.150;    0.000;    0.000
808.260; 3429.150;    0.000;    0.000
808.448; 3415.150;    0.000;    0.000
808.637; 3471.150;    0.000;    0.000
808.826; 3418.150;    0.000;    0.000
809.015; 3414.150;    0.000;    0.000
809.203; 3479.150;    0.000;    0.000
809.392; 3498.150;    0.000;    0.000
809.581; 3414.150;    0.000;    0.000
809.770; 3497.150;    0.000;    0.000
809.958; 3427.150;    0.000;    0.000
810.147; 3392.150;    0.000;    0.000
810.335; 3393.150;    0.000;    0.000
810.524; 3447.150;    0.000;    0.000
810.713; 3533.150;    0.000;    0.000
810.901; 3482.150;    0.000;    0.000
811.090; 3562.150;    0.000;    0.000
811.278; 3523.150;    0.000;    0.000
811.467; 3718.150;    0.000;    0.000
811.655; 3737.150;    0.000;    0.000
811.844; 3705.150;    0.000;    0.000
812.032; 3629.150;    0.000;    0.000
812.220; 3602.150;    0.000;    0.000
812.409; 3539.150;    0.000;    0.000
812.597; 3423.150;    0.000;    0.000
812.785; 3519.150;    0.000;    0.000
812.974; 3503.150;    0.000;    0.000
813.162; 3481.150;    0.000;    0.000
813.350; 3512.150;    0.000;    0.000
813.539; 3504.150;    0.000;    0.000
813.727; 3528.150;    0.000;    0.000
813.915; 3498.150;    0.000;    0.000
814.103; 3625.150;    0.000;    0.000
814.291; 3574.150;    0.000;    0.000
814.479; 3572.150;    0.000;    0.000
814.668; 3692.150;    0.000;    0.000
814.856; 3793.150;    0.000;    0.000
815.044; 3819.150;    0.000;    0.000
815.232; 4161.150;    0.000;    0.000
815.420; 4422.150;    0.000;    0.000
815.608; 4124.150;    0.000;    0.000
815.796; 4291.150;    0.000;    0.000
815.984; 4390.150;    0.000;    0.000
816.172; 4267.150;    0.000;    0.000
816.360; 4543.150;    0.000;    0.000
816.548; 4646.150;    0.000;    0.000
816.736; 4702.150;    0.000;    0.000
816.924; 4785.150;    0.000;    0.000
817.111; 4844.150;    0.000;    0.000
817.299; 4930.150;    0.000;    0.000
817.487; 5131.150;    0.000;    0.000
817.675; 5299.150;    0.000;    0.000
817.863; 5521.150;    0.000;    0.000
818.050; 6054.150;    0.000;    0.000
818.238; 7289.150;    0.000;    0.000
818.426; 8918.150;    0.000;    0.000
818.613; 9882.150;    0.000;    0.000
818.801; 9977.150;    0.000;    0.000
818.989; 9411.150;    0.000;    0.000
819.176; 8435.150;    0.000;    0.000
819.364; 8301.150;    0.000;    0.000
819.552; 8063.150;    0.000;    0.000
819.739; 7327.150;    0.000;    0.000
819.927; 7010.150;    0.000;    0.000
820.114; 7108.150;    0.000;    0.000
820.302; 7199.150;    0.000;    0.000
820.489; 7072.150;    0.000;    0.000
820.677; 7128.150;    0.000;    0.000
820.864; 7841.150;    0.000;    0.000
821.052; 8438.150;    0.000;    0.000
821.239; 9414.150;    0.000;    0.000
821.426;11212.150;    0.000;    0.000
821.614;14214.150;    0.000;    0.000
821.801;14387.150;    0.000;    0.000
821.988;12731.150;    0.000;    0.000
822.176;12141.150;    0.000;    0.000
822.363;12334.150;    0.000;    0.000
822.550;10883.150;    0.000;    0.000
822.737; 9764.150;    0.000;    0.000
822.924; 9100.150;    0.000;    0.000
823.112; 8697.150;    0.000;    0.000
823.299; 7989.150;    0.000;    0.000
823.486; 7668.150;    0.000;    0.000
823.673; 7400.150;    0.000;    0.000
823.860; 7272.150;    0.000;    0.000
824.047; 7919.150;    0.000;    0.000
824.234; 8851.150;    0.000;    0.000
824.421; 8652.150;    0.000;    0.000
824.608; 7886.150;    0.000;    0.000
824.795; 7248.150;    0.000;    0.000
824.982; 7158.150;    0.000;    0.000
825.169; 6734.150;    0.000;    0.000
825.356; 6406.150;    0.000;    0.000
825.543; 6357.150;    0.000;    0.000
825.730; 6128.150;    0.000;    0.000
825.917; 5945.150;    0.000;    0.000
826.104; 5843.150;    0.000;    0.000
826.290; 5571.150;    0.000;    0.000
826.477; 5321.150;    0.000;    0.000
826.664; 5196.150;    0.000;    0.000
826.851; 5069.150;    0.000;    0.000
827.038; 5042.150;    0.000;    0.000
827.224; 4862.150;    0.000;    0.000
827.411; 4801.150;    0.000;    0.000
827.598; 4744.150;    0.000;    0.000
827.784; 4569.150;    0.000;    0.000
827.971; 4477.150;    0.000;    0.000
828.157; 4475.150;    0.000;    0.000
828.344; 4491.150;    0.000;    0.000
828.531; 4324.150;    0.000;    0.000
828.717; 4357.150;    0.000;    0.000
828.904; 4247.150;    0.000;    0.000
829.090; 4202.150;    0.000;    0.000
829.277; 4280.150;    0.000;    0.000
829.463; 4214.150;    0.000;    0.000
829.650; 4043.150;    0.000;    0.000
829.836; 3982.150;    0.000;    0.000
830.022; 3987.150;    0.000;    0.000
830.209; 3922.150;    0.000;    0.000
830.395; 3951.150;    0.000;    0.000
830.581; 3860.150;    0.000;    0.000
830.768; 3831.150;    0.000;    0.000
830.954; 3778.150;    0.000;    0.000
831.140; 3767.150;    0.000;    0.000
831.327; 3742.150;    0.000;    0.000
831.513; 3752.150;    0.000;    0.000
831.699; 3726.150;    0.000;    0.000
831.885; 3639.150;    0.000;    0.000
832.071; 3624.150;    0.000;    0.000
832.257; 3495.150;    0.000;    0.000
832.444; 3430.150;    0.000;    0.000
832.630; 3557.150;    0.000;    0.000
832.816; 3538.150;    0.000;    0.000
833.002; 3452.150;    0.000;    0.000
833.188; 3466.150;    0.000;    0.000
833.374; 3589.150;    0.000;    0.000
833.560; 3673.150;    0.000;    0.000
833.746; 3525.150;    0.000;    0.000
833.932; 3486.150;    0.000;    0.000
834.118; 3293.150;    0.000;    0.000
834.303; 3261.150;    0.000;    0.000
834.489; 3397.150;    0.000;    0.000
834.675; 3359.150;    0.000;    0.000
834.861; 3225.150;    0.000;    0.000
835.047; 3333.150;    0.000;    0.000
835.233; 3251.150;    0.000;    0.000
835.418; 3341.150;    0.000;    0.000
835.604; 3274.150;    0.000;    0.000
835.790; 3205.150;    0.000;    0.000
835.976; 3257.150;    0.000;    0.000
836.161; 3164.150;    0.000;    0.000
836.347; 3121.150;    0.000;    0.000
836.533; 3109.150;    0.000;    0.000
836.718; 3129.150;    0.000;    0.000
836.904; 3173.150;    0.000;    0.000
837.089; 3130.150;    0.000;    0.000
837.275; 3123.150;    0.000;    0.000
837.460; 3111.150;    0.000;    0.000
837.646; 3157.150;    0.000;    0.000
837.831; 3155.150;    0.000;    0.000
838.017; 3223.150;    0.000;    0.000
838.202; 3060.150;    0.000;    0.000
838.388; 3108.150;    0.000;    0.000
838.573; 3075.150;    0.000;    0.000
838.759; 3098.150;    0.000;    0.000
838.944; 3032.150;    0.000;    0.000
839.129; 3140.150;    0.000;    0.000
839.315; 3056.150;    0.000;    0.000
839.500; 3156.150;    0.000;    0.000
839.685; 3127.150;    0.000;    0.000
839.870; 3090.150;    0.000;    0.000
840.056; 2996.150;    0.000;    0.000
840.241; 3054.150;    0.000;    0.000
840.426; 3128.150;    0.000;    0.000
840.611; 3176.150;    0.000;    0.000
840.796; 3189.150;    0.000;    0.000
840.981; 3184.150;    0.000;    0.000
841.166; 3187.150;    0.000;    0.000
841.352; 3278.150;    0.000;    0.000
841.537; 3218.150;    0.000;    0.000
841.722; 3319.150;    0.000;    0.000
841.907; 3340.150;    0.000;    0.000
842.092; 3372.150;    0.000;    0.000
842.277; 3473.150;    0.000;    0.000
842.461; 3479.150;    0.000;    0.000
842.646; 3488.150;    0.000;    0.000
842.831; 3698.150;    0.000;    0.000
843.016; 3804.150;    0.000;    0.000
843.201; 3911.150;    0.000;    0.000
843.386; 4082.150;    0.000;    0.000
843.571; 4244.150;    0.000;    0.000
843.755; 4475.150;    0.000;    0.000
843.940; 4894.150;    0.000;    0.000
844.125; 5604.150;    0.000;    0.000
844.310; 7033.150;    0.000;    0.000
844.494;10058.150;    0.000;    0.000
844.679;12504.150;    0.000;    0.000
844.864;11395.150;    0.000;    0.000
845.048; 8972.150;    0.000;    0.000
845.233; 7279.150;    0.000;    0.000
845.418; 6371.150;    0.000;    0.000
845.602; 5690.150;    0.000;    0.000
845.787; 5184.150;    0.000;    0.000
845.971; 4978.150;    0.000;    0.000
846.156; 4498.150;    0.000;    0.000
846.340; 4350.150;    0.000;    0.000
846.525; 4287.150;    0.000;    0.000
846.709; 4020.150;    0.000;    0.000
846.893; 3979.150;    0.000;    0.000
847.078; 3919.150;    0.000;    0.000
847.262; 3923.150;    0.000;    0.000
847.447; 3732.150;    0.000;    0.000
847.631; 3812.150;    0.000;    0.000
847.815; 3776.150;    0.000;    0.000
848.000; 3728.150;    0.000;    0.000
848.184; 3868.150;    0.000;    0.000
848.368; 3794.150;    0.000;    0.000
848.552; 3832.150;    0.000;    0.000
848.736; 3972.150;    0.000;    0.000
848.921; 4194.150;    0.000;    0.000
849.105; 4674.150;    0.000;    0.000
849.289; 5347.150;    0.000;    0.000
849.473; 7708.150;    0.000;    0.000
849.657;14626.150;    0.000;    0.000
849.841;17203.150;    0.000;    0.000
850.025;11577.150;    0.000;    0.000
850.209; 6856.150;    0.000;    0.000
850.393; 5394.150;    0.000;    0.000
850.577; 4793.150;    0.000;    0.000
850.761; 4454.150;    0.000;    0.000
850.945; 4325.150;    0.000;    0.000
851.129; 4188.150;    0.000;    0.000
851.313; 4187.150;    0.000;    0.000
851.497; 4135.150;    0.000;    0.000
851.680; 4147.150;    0.000;    0.000
851.864; 4255.150;    0.000;    0.000
852.048; 4536.150;    0.000;    0.000
852.232; 4756.150;    0.000;    0.000
852.416; 5042.150;    0.000;    0.000
852.599; 5268.150;    0.000;    0.000
852.783; 5776.150;    0.000;    0.000
852.967; 6384.150;    0.000;    0.000
853.150; 7350.150;    0.000;    0.000
853.334; 8843.150;    0.000;    0.000
853.518;11182.150;    0.000;    0.000
853.701;15256.150;    0.000;    0.000
853.885;25320.150;    0.000;    0.000
854.068;44425.148;    0.000;    0.000
854.252;50722.148;    0.000;    0.000
854.435;36861.148;    0.000;    0.000
854.619;22060.150;    0.000;    0.000
854.802;15190.150;    0.000;    0.000
854.986;11591.150;    0.000;    0.000
855.169; 9557.150;    0.000;    0.000
855.353; 8205.150;    0.000;    0.000
855.536; 6890.150;    0.000;    0.000
855.719; 6167.150;    0.000;    0.000
855.903; 5656.150;    0.000;    0.000
856.086; 5203.150;    0.000;    0.000
856.269; 4811.150;    0.000;    0.000
856.452; 4613.150;    0.000;    0.000
856.636; 4668.150;    0.000;    0.000
856.819; 4604.150;    0.000;    0.000
857.002; 4466.150;    0.000;    0.000
857.185; 4330.150;    0.000;    0.000
857.368; 3995.150;    0.000;    0.000
857.552; 3786.150;    0.000;    0.000
857.735; 3910.150;    0.000;    0.000
857.918; 3655.150;    0.000;    0.000
858.101; 3707.150;    0.000;    0.000
858.284; 3582.150;    0.000;    0.000
858.467; 3653.150;    0.000;    0.000
858.650; 3637.150;    0.000;    0.000
858.833; 3588.150;    0.000;    0.000
859.016; 3698.150;    0.000;    0.000
859.199; 3849.150;    0.000;    0.000
859.382; 4259.150;    0.000;    0.000
859.564; 4405.150;    0.000;    0.000
859.747; 4066.150;    0.000;    0.000
859.930; 3825.150;    0.000;    0.000
860.113; 3677.150;    0.000;    0.000
860.296; 3656.150;    0.000;    0.000
860.478; 3485.150;    0.000;    0.000
860.661; 3535.150;    0.000;    0.000
860.844; 3463.150;    0.000;    0.000
861.027; 3467.150;    0.000;    0.000
861.209; 3450.150;    0.000;    0.000
861.392; 3451.150;    0.000;    0.000
861.575; 3428.150;    0.000;    0.000
861.757; 3460.150;    0.000;    0.000
861.940; 3628.150;    0.000;    0.000
862.122; 3689.150;    0.000;    0.000
862.305; 3772.150;    0.000;    0.000
862.487; 4018.150;    0.000;    0.000
862.670; 4438.150;    0.000;    0.000
862.852; 5346.150;    0.000;    0.000
863.035; 5943.150;    0.000;    0.000
863.217; 5752.150;    0.000;    0.000
863.400; 5247.150;    0.000;    0.000
863.582; 4931.150;    0.000;    0.000
863.764; 4775.150;    0.000;    0.000
863.947; 4562.150;    0.000;    0.000
864.129; 4664.150;    0.000;    0.000
864.311; 4678.150;    0.000;    0.000
864.493; 4780.150;    0.000;    0.000
864.676; 4974.150;    0.000;    0.000
864.858; 5347.150;    0.000;    0.000
865.040; 5702.150;    0.000;    0.000
865.222; 6737.150;    0.000;    0.000
865.404; 7720.150;    0.000;    0.000
865.587; 9603.150;    0.000;    0.000
865.769;12610.150;    0.000;    0.000
865.951;21843.150;    0.000;    0.000
866.133;35577.148;    0.000;    0.000
866.315;35028.148;    0.000;    0.000
866.497;22034.150;    0.000;    0.000
866.679;14083.150;    0.000;    0.000
866.861;10938.150;    0.000;    0.000
867.043; 9297.150;    0.000;    0.000
867.225; 8602.150;    0.000;    0.000
867.407; 8269.150;    0.000;    0.000
867.589; 8676.150;    0.000;    0.000
867.770;10115.150;    0.000;    0.000
867.952;13277.150;    0.000;    0.000
868.134;15051.150;    0.000;    0.000
868.316;14781.150;    0.000;    0.000
868.498;13522.150;    0.000;    0.000
868.679;11470.150;    0.000;    0.000
868.861; 9613.150;    0.000;    0.000
869.043; 8082.150;    0.000;    0.000
869.224; 7115.150;    0.000;    0.000
869.406; 6619.150;    0.000;    0.000
869.588; 6281.150;    0.000;    0.000
869.769; 5947.150;    0.000;    0.000
869.951; 5835.150;    0.000;    0.000
870.132; 6118.150;    0.000;    0.000
870.314; 6682.150;    0.000;    0.000
870.495; 6329.150;    0.000;    0.000
870.677; 5954.150;    0.000;    0.000
870.858; 5734.150;    0.000;    0.000
871.040; 6315.150;    0.000;    0.000
871.221; 6685.150;    0.000;    0.000
871.403; 6255.150;    0.000;    0.000
871.584; 5845.150;    0.000;    0.000
871.765; 5805.150;    0.000;    0.000
871.947; 5996.150;    0.000;    0.000
872.128; 5407.150;    0.000;    0.000
872.309; 4822.150;    0.000;    0.000
872.491; 4335.150;    0.000;    0.000
872.672; 4421.150;    0.000;    0.000
872.853; 4288.150;    0.000;    0.000
873.034; 4000.150;    0.000;    0.000
873.215; 3789.150;    0.000;    0.000
873.396; 3678.150;    0.000;    0.000
873.578; 3519.150;    0.000;    0.000
873.759; 3496.150;    0.000;    0.000
873.940; 3416.150;    0.000;    0.000
874.121; 3263.150;    0.000;    0.000
874.302; 3213.150;    0.000;    0.000
874.483; 3194.150;    0.000;    0.000
874.664; 3196.150;    0.000;    0.000
874.845; 3164.150;    0.000;    0.000
875.026; 3046.150;    0.000;    0.000
875.207; 2975.150;    0.000;    0.000
875.388; 3049.150;    0.000;    0.000
875.568; 2958.150;    0.000;    0.000
875.749; 2860.150;    0.000;    0.000
875.930; 2823.150;    0.000;    0.000
876.111; 2870.150;    0.000;    0.000
876.292; 2807.150;    0.000;    0.000
876.472; 2835.150;    0.000;    0.000
876.653; 2750.150;    0.000;    0.000
876.834; 2734.150;    0.000;    0.000
877.015; 2791.150;    0.000;    0.000
877.195; 2796.150;    0.000;    0.000
877.376; 2674.150;    0.000;    0.000
877.556; 2643.150;    0.000;    0.000
877.737; 2729.150;    0.000;    0.000
877.918; 2590.150;    0.000;    0.000
878.098; 2596.150;    0.000;    0.000
878.279; 2653.150;    0.000;    0.000
878.459; 2558.150;    0.000;    0.000
878.640; 2611.150;    0.000;    0.000
878.820; 2597.150;    0.000;    0.000
879.000; 2472.150;    0.000;    0.000
879.181; 2491.150;    0.000;    0.000
879.361; 2549.150;    0.000;    0.000
879.542; 2444.150;    0.000;    0.000
879.722; 2423.150;    0.000;    0.000
879.902; 2450.150;    0.000;    0.000
880.083; 2516.150;    0.000;    0.000
880.263; 2515.150;    0.000;    0.000
880.443; 2536.150;    0.000;    0.000
880.623; 2484.150;    0.000;    0.000
880.803; 2453.150;    0.000;    0.000
880.984; 2512.150;    0.000;    0.000
881.164; 2510.150;    0.000;    0.000
881.344; 2472.150;    0.000;    0.000
881.524; 2584.150;    0.000;    0.000
881.704; 2621.150;    0.000;    0.000
881.884; 2792.150;    0.000;    0.000
882.064; 2927.150;    0.000;    0.000
882.244; 2820.150;    0.000;    0.000
882.424; 2636.150;    0.000;    0.000
882.604; 2675.150;    0.000;    0.000
882.784; 2592.150;    0.000;    0.000
882.964; 2558.150;    0.000;    0.000
883.144; 2428.150;    0.000;    0.000
883.324; 2524.150;    0.000;    0.000
883.504; 2448.150;    0.000;    0.000
883.683; 2504.150;    0.000;    0.000
883.863; 2455.150;    0.000;    0.000
884.043; 2444.150;    0.000;    0.000
884.223; 2460.150;    0.000;    0.000
884.402; 2482.150;    0.000;    0.000
884.582; 2376.150;    0.000;    0.000
884.762; 2470.150;    0.000;    0.000
884.941; 2488.150;    0.000;    0.000
885.121; 2358.150;    0.000;    0.000
885.301; 2425.150;    0.000;    0.000
885.480; 2432.150;    0.000;    0.000
885.660; 2503.150;    0.000;    0.000
885.839; 2480.150;    0.000;    0.000
886.019; 2395.150;    0.000;    0.000
886.198; 2481.150;    0.000;    0.000
886.378; 2464.150;    0.000;    0.000
886.557; 2468.150;    0.000;    0.000
886.737; 2444.150;    0.000;    0.000
886.916; 2518.150;    0.000;    0.000
887.095; 2563.150;    0.000;    0.000
887.275; 2592.150;    0.000;    0.000
887.454; 2610.150;    0.000;    0.000
887.633; 2540.150;    0.000;    0.000
887.813; 2639.150;    0.000;    0.000
887.992; 2616.150;    0.000;    0.000
888.171; 2692.150;    0.000;    0.000
888.350; 2785.150;    0.000;    0.000
888.530; 2776.150;    0.000;    0.000
888.709; 2694.150;    0.000;    0.000
888.888; 2894.150;    0.000;    0.000
889.067; 2854.150;    0.000;    0.000
889.246; 2947.150;    0.000;    0.000
889.425; 3124.150;    0.000;    0.000
889.604; 3157.150;    0.000;    0.000
889.783; 3273.150;    0.000;    0.000
889.962; 3311.150;    0.000;    0.000
890.141; 3618.150;    0.000;    0.000
890.320; 3676.150;    0.000;    0.000
890.499; 3979.150;    0.000;    0.000
890.678; 4329.150;    0.000;    0.000
890.857; 4826.150;    0.000;    0.000
891.036; 5447.150;    0.000;    0.000
891.214; 5668.150;    0.000;    0.000
891.393; 5520.150;    0.000;    0.000
891.572; 5195.150;    0.000;    0.000
891.751; 5127.150;    0.000;    0.000
891.930; 4950.150;    0.000;    0.000
892.108; 5100.150;    0.000;    0.000
892.287; 5366.150;    0.000;    0.000
892.466; 6084.150;    0.000;    0.000
892.644; 6658.150;    0.000;    0.000
892.823; 6479.150;    0.000;    0.000
893.001; 5614.150;    0.000;    0.000
893.180; 4889.150;    0.000;    0.000
893.359; 4554.150;    0.000;    0.000
893.537; 3979.150;    0.000;    0.000
893.716; 3738.150;    0.000;    0.000
893.894; 3535.150;    0.000;    0.000
894.073; 3327.150;    0.000;    0.000
894.251; 3205.150;    0.000;    0.000
894.429; 3132.150;    0.000;    0.000
894.608; 2955.150;    0.000;    0.000
894.786; 2850.150;    0.000;    0.000
894.964; 2764.150;    0.000;    0.000
895.143; 2737.150;    0.000;    0.000
895.321; 2626.150;    0.000;    0.000
895.499; 2604.150;    0.000;    0.000
895.677; 2595.150;    0.000;    0.000
895.856; 2566.150;    0.000;    0.000
896.034; 2547.150;    0.000;    0.000
896.212; 2497.150;    0.000;    0.000
896.390; 2370.150;    0.000;    0.000
896.568; 2298.150;    0.000;    0.000
896.746; 2277.150;    0.000;    0.000
896.924; 2342.150;    0.000;    0.000
897.102; 2375.150;    0.000;    0.000
897.280; 2201.150;    0.000;    0.000
897.458; 2221.150;    0.000;    0.000
897.636; 2283.150;    0.000;    0.000
897.814; 2205.150;    0.000;    0.000
897.992; 2260.150;    0.000;    0.000
898.170; 2195.150;    0.000;    0.000
898.348; 2199.150;    0.000;    0.000
898.526; 2224.150;    0.000;    0.000
898.704; 2183.150;    0.000;    0.000
898.882; 2084.150;    0.000;    0.000
899.059; 2158.150;    0.000;    0.000
899.237; 2148.150;    0.000;    0.000
899.415; 2196.150;    0.000;    0.000
899.593; 2126.150;    0.000;    0.000
899.770; 2064.150;    0.000;    0.000
899.948; 2135.150;    0.000;    0.000
900.125; 2102.150;    0.000;    0.000
900.303; 2112.150;    0.000;    0.000
900.481; 2137.150;    0.000;    0.000
900.658; 2144.150;    0.000;    0.000
900.836; 2108.150;    0.000;    0.000
901.013; 2177.150;    0.000;    0.000
901.191; 2080.150;    0.000;    0.000
901.368; 2123.150;    0.000;    0.000
901.546; 2200.150;    0.000;    0.000
901.723; 2260.150;    0.000;    0.000
901.901; 2269.150;    0.000;    0.000
902.078; 2316.150;    0.000;    0.000
902.255; 2286.150;    0.000;    0.000
902.433; 2364.150;    0.000;    0.000
902.610; 2304.150;    0.000;    0.000
902.787; 2315.150;    0.000;    0.000
902.964; 2378.150;    0.000;    0.000
903.142; 2355.150;    0.000;    0.000
903.319; 2380.150;    0.000;    0.000
903.496; 2416.150;    0.000;    0.000
903.673; 2492.150;    0.000;    0.000
903.850; 2607.150;    0.000;    0.000
904.027; 2712.150;    0.000;    0.000
904.204; 2740.150;    0.000;    0.000
904.381; 3186.150;    0.000;    0.000
904.558; 3614.150;    0.000;    0.000
904.735; 3900.150;    0.000;    0.000
904.912; 3936.150;    0.000;    0.000
905.089; 3704.150;    0.000;    0.000
905.266; 3503.150;    0.000;    0.000
905.443; 3257.150;    0.000;    0.000
905.620; 2948.150;    0.000;    0.000
905.797; 2850.150;    0.000;    0.000
905.974; 2912.150;    0.000;    0.000
906.151; 2742.150;    0.000;    0.000
906.327; 2829.150;    0.000;    0.000
906.504; 2716.150;    0.000;    0.000
906.681; 2533.150;    0.000;    0.000
906.858; 2526.150;    0.000;    0.000
907.034; 2519.150;    0.000;    0.000
907.211; 2411.150;    0.000;    0.000
907.388; 2306.150;    0.000;    0.000
907.564; 2247.150;    0.000;    0.000
907.741; 2347.150;    0.000;    0.000
907.917; 2308.150;    0.000;    0.000
908.094; 2252.150;    0.000;    0.000
908.271; 2181.150;    0.000;    0.000
908.447; 2170.150;    0.000;    0.000
908.623; 2132.150;    0.000;    0.000
908.800; 2202.150;    0.000;    0.000
908.976; 2134.150;    0.000;    0.000
909.153; 2083.150;    0.000;    0.000
909.329; 2317.150;    0.000;    0.000
909.505; 2228.150;    0.000;    0.000
909.682; 2141.150;    0.000;    0.000
909.858; 2065.150;    0.000;    0.000
910.034; 2026.150;    0.000;    0.000
910.211; 2011.150;    0.000;    0.000
910.387; 1960.150;    0.000;    0.000
910.563; 1979.150;    0.000;    0.000
910.739; 1899.150;    0.000;    0.000
910.915; 2015.150;    0.000;    0.000
911.091; 1982.150;    0.000;    0.000
911.268; 1976.150;    0.000;    0.000
911.444; 1924.150;    0.000;    0.000
911.620; 1912.150;    0.000;    0.000
911.796; 1886.150;    0.000;    0.000
911.972; 1943.150;    0.000;    0.000
912.148; 1934.150;    0.000;    0.000
912.324; 1842.150;    0.000;    0.000
912.500; 1928.150;    0.000;    0.000
912.676; 1847.150;    0.000;    0.000
912.851; 1904.150;    0.000;    0.000
913.027; 1887.150;    0.000;    0.000
913.203; 1883.150;    0.000;    0.000
913.379; 1790.150;    0.000;    0.000
913.555; 1870.150;    0.000;    0.000
913.730; 1832.150;    0.000;    0.000
913.906; 1878.150;    0.000;    0.000
914.082; 1870.150;    0.000;    0.000
914.258; 1805.150;    0.000;    0.000
914.433; 1865.150;    0.000;    0.000
914.609; 1828.150;    0.000;    0.000
914.784; 1831.150;    0.000;    0.000
914.960; 1809.150;    0.000;    0.000
915.136; 1811.150;    0.000;    0.000
915.311; 1835.150;    0.000;    0.000
915.487; 1886.150;    0.000;    0.000
915.662; 1850.150;    0.000;    0.000
915.838; 1879.150;    0.000;    0.000
916.013; 1906.150;    0.000;    0.000
916.189; 1848.150;    0.000;    0.000
916.364; 1803.150;    0.000;    0.000
916.539; 1817.150;    0.000;    0.000
916.715; 1846.150;    0.000;    0.000
916.890; 1911.150;    0.000;    0.000
917.065; 1860.150;    0.000;    0.000
917.240; 1818.150;    0.000;    0.000
917.416; 1769.150;    0.000;    0.000
917.591; 1827.150;    0.000;    0.000
917.766; 1840.150;    0.000;    0.000
917.941; 1892.150;    0.000;    0.000
918.116; 1781.150;    0.000;    0.000
918.292; 1819.150;    0.000;    0.000
918.467; 1782.150;    0.000;    0.000
918.642; 1914.150;    0.000;    0.000
918.817; 1816.150;    0.000;    0.000
918.992; 1751.150;    0.000;    0.000
919.167; 1788.150;    0.000;    0.000
919.342; 1807.150;    0.000;    0.000
919.517; 1893.150;    0.000;    0.000
919.692; 1856.150;    0.000;    0.000
919.867; 1864.150;    0.000;    0.000
920.041; 1954.150;    0.000;    0.000
920.216; 1964.150;    0.000;    0.000
920.391; 1979.150;    0.000;    0.000
920.566; 2014.150;    0.000;    0.000
920.741; 2016.150;    0.000;    0.000
920.915; 2153.150;    0.000;    0.000
921.090; 2512.150;    0.000;    0.000
921.265; 3010.150;    0.000;    0.000
921.439; 3083.150;    0.000;    0.000
921.614; 2686.150;    0.000;    0.000
921.789; 2405.150;    0.000;    0.000
921.963; 2354.150;    0.000;    0.000
922.138; 2307.150;    0.000;    0.000
922.312; 2278.150;    0.000;    0.000
922.487; 2431.150;    0.000;    0.000
922.661; 2715.150;    0.000;    0.000
922.836; 3129.150;    0.000;    0.000
923.010; 3234.150;    0.000;    0.000
923.185; 3083.150;    0.000;    0.000
923.359; 3026.150;    0.000;    0.000
923.534; 2992.150;    0.000;    0.000
923.708; 3143.150;    0.000;    0.000
923.882; 3143.150;    0.000;    0.000
924.057; 2852.150;    0.000;    0.000
924.231; 2835.150;    0.000;    0.000
924.405; 2672.150;    0.000;    0.000
924.579; 2756.150;    0.000;    0.000
924.753; 2678.150;    0.000;    0.000
924.928; 2694.150;    0.000;    0.000
925.102; 2722.150;    0.000;    0.000
925.276; 2778.150;    0.000;    0.000
925.450; 2754.150;    0.000;    0.000
925.624; 2823.150;    0.000;    0.000
925.798; 3057.150;    0.000;    0.000
925.972; 3129.150;    0.000;    0.000
926.146; 3367.150;    0.000;    0.000
926.320; 3685.150;    0.000;    0.000
926.494; 3996.150;    0.000;    0.000
926.668; 4023.150;    0.000;    0.000
926.842; 4089.150;    0.000;    0.000
927.016; 3988.150;    0.000;    0.000
927.190; 3859.150;    0.000;    0.000
927.363; 3718.150;    0.000;    0.000
927.537; 3580.150;    0.000;    0.000
927.711; 3553.150;    0.000;    0.000
927.885; 3392.150;    0.000;    0.000
928.058; 3364.150;    0.000;    0.000
928.232; 3275.150;    0.000;    0.000
928.406; 3196.150;    0.000;    0.000
928.579; 3173.150;    0.000;    0.000
928.753; 2934.150;    0.000;    0.000
928.927; 2978.150;    0.000;    0.000
929.100; 2896.150;    0.000;    0.000
929.274; 2796.150;    0.000;    0.000
929.447; 2777.150;    0.000;    0.000
929.621; 2775.150;    0.000;    0.000
929.794; 2723.150;    0.000;    0.000
929.968; 2604.150;    0.000;    0.000
930.141; 2572.150;    0.000;    0.000
930.315; 2533.150;    0.000;    0.000
930.488; 2568.150;    0.000;    0.000
930.661; 2432.150;    0.000;    0.000
930.835; 2440.150;    0.000;    0.000
931.008; 2396.150;    0.000;    0.000
931.181; 2383.150;    0.000;    0.000
931.354; 2340.150;    0.000;    0.000
931.528; 2270.150;    0.000;    0.000
931.701; 2142.150;    0.000;    0.000
931.874; 2236.150;    0.000;    0.000
932.047; 2150.150;    0.000;    0.000
932.220; 2200.150;    0.000;    0.000
932.393; 2165.150;    0.000;    0.000
932.566; 2105.150;    0.000;    0.000
932.739; 2086.150;    0.000;    0.000
932.912; 2133.150;    0.000;    0.000
933.085; 2158.150;    0.000;    0.000
933.258; 2083.150;    0.000;    0.000
933.431; 2115.150;    0.000;    0.000
933.604; 2075.150;    0.000;    0.000
933.777; 2073.150;    0.000;    0.000
933.950; 2055.150;    0.000;    0.000
934.123; 2058.150;    0.000;    0.000
934.296; 2064.150;    0.000;    0.000
934.468; 1920.150;    0.000;    0.000
934.641; 2009.150;    0.000;    0.000
934.814; 2068.150;    0.000;    0.000
934.987; 1947.150;    0.000;    0.000
935.159; 1948.150;    0.000;    0.000
935.332; 1930.150;    0.000;    0.000
935.505; 1905.150;    0.000;    0.000
935.677; 1868.150;    0.000;    0.000
935.850; 1900.150;    0.000;    0.000
936.022; 1890.150;    0.000;    0.000
936.195; 1841.150;    0.000;    0.000
936.367; 1835.150;    0.000;    0.000
936.540; 1958.150;    0.000;    0.000
936.712; 1916.150;    0.000;    0.000
936.885; 1823.150;    0.000;    0.000
937.057; 1789.150;    0.000;    0.000
937.229; 1854.150;    0.000;    0.000
937.402; 1949.150;    0.000;    0.000
937.574; 1922.150;    0.000;    0.000
937.746; 1928.150;    0.000;    0.000
937.919; 2017.150;    0.000;    0.000
938.091; 2093.150;    0.000;    0.000
938.263; 2207.150;    0.000;    0.000
938.435; 2355.150;    0.000;    0.000
938.608; 2852.150;    0.000;    0.000
938.780; 3123.150;    0.000;    0.000
938.952; 3189.150;    0.000;    0.000
939.124; 3474.150;    0.000;    0.000
939.296; 3766.150;    0.000;    0.000
939.468; 3572.150;    0.000;    0.000
939.640; 3226.150;    0.000;    0.000
939.812; 2839.150;    0.000;    0.000
939.984; 2541.150;    0.000;    0.000
940.156; 2407.150;    0.000;    0.000
940.328; 2272.150;    0.000;    0.000
940.500; 2157.150;    0.000;    0.000
940.672; 2176.150;    0.000;    0.000
940.843; 1959.150;    0.000;    0.000
941.015; 2066.150;    0.000;    0.000
941.187; 1858.150;    0.000;    0.000
941.359; 1863.150;    0.000;    0.000
941.531; 1854.150;    0.000;    0.000
941.702; 1844.150;    0.000;    0.000
941.874; 1783.150;    0.000;    0.000
942.046; 1779.150;    0.000;    0.000
942.217; 1726.150;    0.000;    0.000
942.389; 1717.150;    0.000;    0.000
942.560; 1532.150;    0.000;    0.000
942.732; 1626.150;    0.000;    0.000
942.904; 1566.150;    0.000;    0.000
943.075; 1545.150;    0.000;    0.000
943.247; 1545.150;    0.000;    0.000
943.418; 1412.150;    0.000;    0.000
943.589; 1481.150;    0.000;    0.000
943.761; 1537.150;    0.000;    0.000
943.932; 1533.150;    0.000;    0.000
944.104; 1419.150;    0.000;    0.000
944.275; 1400.150;    0.000;    0.000
944.446; 1395.150;    0.000;    0.000
944.617; 1399.150;    0.000;    0.000
944.789; 1423.150;    0.000;    0.000
944.960; 1374.150;    0.000;    0.000
945.131; 1356.150;    0.000;    0.000
945.302; 1420.150;    0.000;    0.000
945.473; 1382.150;    0.000;    0.000
945.645; 1464.150;    0.000;    0.000
945.816; 1461.150;    0.000;    0.000
945.987; 1566.150;    0.000;    0.000
946.158; 1558.150;    0.000;    0.000
946.329; 1563.150;    0.000;    0.000
946.500; 1444.150;    0.000;    0.000
946.671; 1403.150;    0.000;    0.000
946.842; 1397.150;    0.000;    0.000
947.013; 1375.150;    0.000;    0.000
947.183; 1442.150;    0.000;    0.000
947.354; 1396.150;    0.000;    0.000
947.525; 1408.150;    0.000;    0.000
947.696; 1345.150;    0.000;    0.000
947.867; 1462.150;    0.000;    0.000
948.037; 1381.150;    0.000;    0.000
948.208; 1390.150;    0.000;    0.000
948.379; 1404.150;    0.000;    0.000
948.550; 1395.150;    0.000;    0.000
948.720; 1437.150;    0.000;    0.000
948.891; 1411.150;    0.000;    0.000
949.061; 1363.150;    0.000;    0.000
949.232; 1392.150;    0.000;    0.000
949.403; 1340.150;    0.000;    0.000
949.573; 1317.150;    0.000;    0.000
949.744; 1468.150;    0.000;    0.000
949.914; 1354.150;    0.000;    0.000
950.085; 1298.150;    0.000;    0.000
950.255; 1370.150;    0.000;    0.000
950.425; 1341.150;    0.000;    0.000
950.596; 1382.150;    0.000;    0.000
950.766; 1343.150;    0.000;    0.000
950.936; 1421.150;    0.000;    0.000
951.107; 1329.150;    0.000;    0.000
951.277; 1367.150;    0.000;    0.000
951.447; 1471.150;    0.000;    0.000
951.617; 1402.150;    0.000;    0.000
951.788; 1345.150;    0.000;    0.000
951.958; 1335.150;    0.000;    0.000
952.128; 1354.150;    0.000;    0.000
952.298; 1378.150;    0.000;    0.000
952.468; 1387.150;    0.000;    0.000
952.638; 1291.150;    0.000;    0.000
952.808; 1284.150;    0.000;    0.000
952.978; 1425.150;    0.000;    0.000
953.148; 1371.150;    0.000;    0.000
953.318; 1326.150;    0.000;    0.000
953.488; 1284.150;    0.000;    0.000
953.658; 1334.150;    0.000;    0.000
953.828; 1299.150;    0.000;    0.000
953.998; 1342.150;    0.000;    0.000
954.167; 1335.150;    0.000;    0.000
954.337; 1316.150;    0.000;    0.000
954.507; 1329.150;    0.000;    0.000
954.677; 1312.150;    0.000;    0.000
954.846; 1323.150;    0.000;    0.000
955.016; 1260.150;    0.000;    0.000
955.186; 1290.150;    0.000;    0.000
955.355; 1323.150;    0.000;    0.000
955.525; 1246.150;    0.000;    0.000
955.695; 1308.150;    0.000;    0.000
955.864; 1252.150;    0.000;    0.000
956.034; 1315.150;    0.000;    0.000
956.203; 1384.150;    0.000;    0.000
956.373; 1309.150;    0.000;    0.000
956.542; 1330.150;    0.000;    0.000
956.711; 1290.150;    0.000;    0.000
956.881; 1316.150;    0.000;    0.000
957.050; 1338.150;    0.000;    0.000
957.220; 1269.150;    0.000;    0.000
957.389; 1333.150;    0.000;    0.000
957.558; 1249.150;    0.000;    0.000
957.727; 1238.150;    0.000;    0.000
957.897; 1261.150;    0.000;    0.000
958.066; 1175.150;    0.000;    0.000
958.235; 1247.150;    0.000;    0.000
958.404; 1203.150;    0.000;    0.000
958.573; 1235.150;    0.000;    0.000
958.743; 1213.150;    0.000;    0.000
958.912; 1206.150;    0.000;    0.000
959.081; 1236.150;    0.000;    0.000
959.250; 1218.150;    0.000;    0.000
959.419; 1262.150;    0.000;    0.000
959.588; 1299.150;    0.000;    0.000
959.757; 1209.150;    0.000;    0.000
959.926; 1220.150;    0.000;    0.000
960.094; 1249.150;    0.000;    0.000
960.263; 1269.150;    0.000;    0.000
960.432; 1242.150;    0.000;    0.000
960.601; 1165.150;    0.000;    0.000
960.770; 1168.150;    0.000;    0.000
960.939; 1183.150;    0.000;    0.000
961.107; 1261.150;    0.000;    0.000
961.276; 1247.150;    0.000;    0.000
961.445; 1223.150;    0.000;    0.000
961.613; 1272.150;    0.000;    0.000
961.782; 1258.150;    0.000;    0.000
961.951; 1313.150;    0.000;    0.000
962.119; 1226.150;    0.000;    0.000
962.288; 1196.150;    0.000;    0.000
962.456; 1182.150;    0.000;    0.000
962.625; 1229.150;    0.000;    0.000
962.793; 1155.150;    0.000;    0.000
962.962; 1175.150;    0.000;    0.000
963.130; 1168.150;    0.000;    0.000
963.298; 1215.150;    0.000;    0.000
963.467; 1191.150;    0.000;    0.000
963.635; 1214.150;    0.000;    0.000
963.803; 1166.150;    0.000;    0.000
963.972; 1256.150;    0.000;    0.000
964.140; 1122.150;    0.000;    0.000
964.308; 1164.150;    0.000;    0.000
964.477; 1221.150;    0.000;    0.000
964.645; 1293.150;    0.000;    0.000
964.813; 1192.150;    0.000;    0.000
964.981; 1175.150;    0.000;    0.000
965.149; 1188.150;    0.000;    0.000
965.317; 1273.150;    0.000;    0.000
965.485; 1309.150;    0.000;    0.000
965.653; 1310.150;    0.000;    0.000
965.821; 1282.150;    0.000;    0.000
965.989; 1346.150;    0.000;    0.000
966.157; 1307.150;    0.000;    0.000
966.325; 1275.150;    0.000;    0.000
966.493; 1267.150;    0.000;    0.000
966.661; 1221.150;    0.000;    0.000
966.829; 1229.150;    0.000;    0.000
966.996; 1192.150;    0.000;    0.000
967.164; 1204.150;    0.000;    0.000
967.332; 1222.150;    0.000;    0.000
967.500; 1265.150;    0.000;    0.000
967.667; 1211.150;    0.000;    0.000
967.835; 1232.150;    0.000;    0.000
968.003; 1258.150;    0.000;    0.000
968.170; 1233.150;    0.000;    0.000
968.338; 1183.150;    0.000;    0.000
968.505; 1256.150;    0.000;    0.000
968.673; 1230.150;    0.000;    0.000
968.841; 1209.150;    0.000;    0.000
969.008; 1273.150;    0.000;    0.000
969.175; 1194.150;    0.000;    0.000
969.343; 1226.150;    0.000;    0.000
969.510; 1199.150;    0.000;    0.000
969.678; 1239.150;    0.000;    0.000
969.845; 1217.150;    0.000;    0.000
970.012; 1373.150;    0.000;    0.000
970.180; 1393.150;    0.000;    0.000
970.347; 1290.150;    0.000;    0.000
970.514; 1234.150;    0.000;    0.000
970.681; 1167.150;    0.000;    0.000
970.849; 1189.150;    0.000;    0.000
971.016; 1167.150;    0.000;    0.000
971.183; 1245.150;    0.000;    0.000
971.350; 1203.150;    0.000;    0.000
971.517; 1238.150;    0.000;    0.000
971.684; 1215.150;    0.000;    0.000
971.851; 1206.150;    0.000;    0.000
972.018; 1251.150;    0.000;    0.000
972.185; 1194.150;    0.000;    0.000
972.352; 1171.150;    0.000;    0.000
972.519; 1210.150;    0.000;    0.000
972.686; 1189.150;    0.000;    0.000
972.853; 1164.150;    0.000;    0.000
973.020; 1179.150;    0.000;    0.000
973.186; 1134.150;    0.000;    0.000
973.353; 1185.150;    0.000;    0.000
973.520; 1251.150;    0.000;    0.000
973.687; 1178.150;    0.000;    0.000
973.853; 1198.150;    0.000;    0.000
974.020; 1295.150;    0.000;    0.000
974.187; 1231.150;    0.000;    0.000
974.353; 1266.150;    0.000;    0.000
974.520; 1159.150;    0.000;    0.000
974.687; 1201.150;    0.000;    0.000
974.853; 1254.150;    0.000;    0.000
975.020; 1162.150;    0.000;    0.000
975.186; 1177.150;    0.000;    0.000
975.353; 1234.150;    0.000;    0.000
975.519; 1165.150;    0.000;    0.000
975.685; 1193.150;    0.000;    0.000
975.852; 1213.150;    0.000;    0.000
976.018; 1209.150;    0.000;    0.000
976.184; 1201.150;    0.000;    0.000
976.351; 1195.150;    0.000;    0.000
976.517; 1251.150;    0.000;    0.000
976.683; 1225.150;    0.000;    0.000
976.849; 1219.150;    0.000;    0.000
977.016; 1129.150;    0.000;    0.000
977.182; 1184.150;    0.000;    0.000
977.348; 1232.150;    0.000;    0.000
977.514; 1239.150;    0.000;    0.000
977.680; 1288.150;    0.000;    0.000
977.846; 1241.150;    0.000;    0.000
978.012; 1256.150;    0.000;    0.000
978.178; 1228.150;    0.000;    0.000
978.344; 1182.150;    0.000;    0.000
978.510; 1228.150;    0.000;    0.000
978.676; 1197.150;    0.000;    0.000
978.842; 1192.150;    0.000;    0.000
979.008; 1248.150;    0.000;    0.000
979.174; 1175.150;    0.000;    0.000
979.340; 1248.150;    0.000;    0.000
979.505; 1251.150;    0.000;    0.000
979.671; 1216.150;    0.000;    0.000
979.837; 1240.150;    0.000;    0.000
980.003; 1186.150;    0.000;    0.000
980.168; 1262.150;    0.000;    0.000
980.334; 1224.150;    0.000;    0.000
980.499; 1256.150;    0.000;    0.000
980.665; 1382.150;    0.000;    0.000
980.831; 1345.150;    0.000;    0.000
980.996; 1323.150;    0.000;    0.000
981.162; 1366.150;    0.000;    0.000
981.327; 1316.150;    0.000;    0.000
981.493; 1289.150;    0.000;    0.000
981.658; 1279.150;    0.000;    0.000
981.823; 1296.150;    0.000;    0.000
981.989; 1279.150;    0.000;    0.000
982.154; 1340.150;    0.000;    0.000
982.319; 1289.150;    0.000;    0.000
982.485; 1342.150;    0.000;    0.000
982.650; 1380.150;    0.000;    0.000
982.815; 1314.150;    0.000;    0.000
982.980; 1300.150;    0.000;    0.000
983.146; 1331.150;    0.000;    0.000
983.311; 1319.150;    0.000;    0.000
983.476; 1440.150;    0.000;    0.000
983.641; 1429.150;    0.000;    0.000
983.806; 1302.150;    0.000;    0.000
983.971; 1440.150;    0.000;    0.000
984.136; 1362.150;    0.000;    0.000
984.301; 1348.150;    0.000;    0.000
984.466; 1329.150;    0.000;    0.000
984.631; 1355.150;    0.000;    0.000
984.796; 1332.150;    0.000;    0.000
984.961; 1377.150;    0.000;    0.000
985.126; 1374.150;    0.000;    0.000
985.291; 1401.150;    0.000;    0.000
985.455; 1408.150;    0.000;    0.000
985.620; 1366.150;    0.000;    0.000
985.785; 1427.150;    0.000;    0.000
985.950; 1417.150;    0.000;    0.000
986.114; 1473.150;    0.000;    0.000
986.279; 1472.150;    0.000;    0.000
986.444; 1459.150;    0.000;    0.000
986.608; 1518.150;    0.000;    0.000
986.773; 1523.150;    0.000;    0.000
986.937; 1533.150;    0.000;    0.000
987.102; 1608.150;    0.000;    0.000
987.266; 1486.150;    0.000;    0.000
987.431; 1617.150;    0.000;    0.000
987.595; 1576.150;    0.000;    0.000
987.760; 1595.150;    0.000;    0.000
987.924; 1494.150;    0.000;    0.000
988.088; 1565.150;    0.000;    0.000
988.253; 1545.150;    0.000;    0.000
988.417; 1628.150;    0.000;    0.000
988.581; 1532.150;    0.000;    0.000
988.746; 1465.150;    0.000;    0.000
988.910; 1509.150;    0.000;    0.000
989.074; 1513.150;    0.000;    0.000
989.238; 1540.150;    0.000;    0.000
989.402; 1550.150;    0.000;    0.000
989.566; 1481.150;    0.000;    0.000
989.731; 1455.150;    0.000;    0.000
989.895; 1459.150;    0.000;    0.000
990.059; 1402.150;    0.000;    0.000
990.223; 1419.150;    0.000;    0.000
990.387; 1327.150;    0.000;    0.000
990.551; 1374.150;    0.000;    0.000
990.714; 1318.150;    0.000;    0.000
990.878; 1401.150;    0.000;    0.000
991.042; 1300.150;    0.000;    0.000
991.206; 1356.150;    0.000;    0.000
991.370; 1421.150;    0.000;    0.000
991.534; 1299.150;    0.000;    0.000
991.697; 1305.150;    0.000;    0.000
991.861; 1362.150;    0.000;    0.000
992.025; 1270.150;    0.000;    0.000
992.188; 1213.150;    0.000;    0.000
992.352; 1284.150;    0.000;    0.000
992.516; 1241.150;    0.000;    0.000
992.679; 1249.150;    0.000;    0.000
992.843; 1269.150;    0.000;    0.000
993.006; 1231.150;    0.000;    0.000
993.170; 1284.150;    0.000;    0.000
993.333; 1223.150;    0.000;    0.000
993.497; 1289.150;    0.000;    0.000
993.660; 1207.150;    0.000;    0.000
993.824; 1244.150;    0.000;    0.000
993.987; 1260.150;    0.000;    0.000
994.150; 1172.150;    0.000;    0.000
994.314; 1265.150;    0.000;    0.000
994.477; 1238.150;    0.000;    0.000
994.640; 1166.150;    0.000;    0.000
994.803; 1246.150;    0.000;    0.000
994.967; 1264.150;    0.000;    0.000
995.130; 1187.150;    0.000;    0.000
995.293; 1149.150;    0.000;    0.000
995.456; 1187.150;    0.000;    0.000
995.619; 1141.150;    0.000;    0.000
995.782; 1124.150;    0.000;    0.000
995.945; 1178.150;    0.000;    0.000
996.108; 1115.150;    0.000;    0.000
996.271; 1144.150;    0.000;    0.000
996.434; 1145.150;    0.000;    0.000
996.597; 1062.150;    0.000;    0.000
996.760; 1169.150;    0.000;    0.000
996.923; 1134.150;    0.000;    0.000
997.086; 1074.150;    0.000;    0.000
997.248; 1151.150;    0.000;    0.000
997.411; 1103.150;    0.000;    0.000
997.574; 1129.150;    0.000;    0.000
997.737; 1123.150;    0.000;    0.000
997.899; 1121.150;    0.000;    0.000
998.062; 1174.150;    0.000;    0.000
998.225; 1054.150;    0.000;    0.000
998.387; 1139.150;    0.000;    0.000
998.550; 1122.150;    0.000;    0.000
998.712; 1109.150;    0.000;    0.000
998.875; 1095.150;    0.000;    0.000
999.037; 1119.150;    0.000;    0.000
999.200; 1086.150;    0.000;    0.000
999.362; 1077.150;    0.000;    0.000
999.525; 1069.150;    0.000;    0.000
999.687; 1074.150;    0.000;    0.000
999.849; 1072.150;    0.000;    0.000
1000.012; 1051.150;    0.000;    0.000
1000.174; 1065.150;    0.000;    0.000
1000.336; 1057.150;    0.000;    0.000
1000.499; 1083.150;    0.000;    0.000
1000.661; 1036.150;    0.000;    0.000
1000.823; 1062.150;    0.000;    0.000
1000.985; 1041.150;    0.000;    0.000
1001.147; 1091.150;    0.000;    0.000
1001.309; 1108.150;    0.000;    0.000
1001.471; 1070.150;    0.000;    0.000
1001.633; 1067.150;    0.000;    0.000
1001.796; 1049.150;    0.000;    0.000
1001.958; 1042.150;    0.000;    0.000
1002.119; 1104.150;    0.000;    0.000
1002.281; 1063.150;    0.000;    0.000
1002.443; 1072.150;    0.000;    0.000
1002.605; 1069.150;    0.000;    0.000
1002.767; 1123.150;    0.000;    0.000
1002.929; 1090.150;    0.000;    0.000
1003.091; 1098.150;    0.000;    0.000
1003.252; 1164.150;    0.000;    0.000
1003.414; 1133.150;    0.000;    0.000
1003.576; 1142.150;    0.000;    0.000
1003.738; 1119.150;    0.000;    0.000
1003.899; 1125.150;    0.000;    0.000
1004.061; 1120.150;    0.000;    0.000
1004.222; 1153.150;    0.000;    0.000
1004.384; 1159.150;    0.000;    0.000
1004.546; 1170.150;    0.000;    0.000
1004.707; 1191.150;    0.000;    0.000
1004.869; 1170.150;    0.000;    0.000
1005.030; 1175.150;    0.000;    0.000
1005.191; 1164.150;    0.000;    0.000
1005.353; 1209.150;    0.000;    0.000
1005.514; 1116.150;    0.000;    0.000
1005.675; 1147.150;    0.000;    0.000
1005.837; 1182.150;    0.000;    0.000
1005.998; 1094.150;    0.000;    0.000
1006.159; 1085.150;    0.000;    0.000
1006.321; 1072.150;    0.000;    0.000
1006.482; 1190.150;    0.000;    0.000
1006.643; 1151.150;    0.000;    0.000
1006.804; 1139.150;    0.000;    0.000
1006.965; 1127.150;    0.000;    0.000
1007.126; 1120.150;    0.000;    0.000
1007.287; 1143.150;    0.000;    0.000
1007.448; 1168.150;    0.000;    0.000
1007.609; 1194.150;    0.000;    0.000
1007.770; 1174.150;    0.000;    0.000
1007.931; 1170.150;    0.000;    0.000
1008.092; 1166.150;    0.000;    0.000
1008.253; 1278.150;    0.000;    0.000
1008.414; 1181.150;    0.000;    0.000
1008.575; 1249.150;    0.000;    0.000
1008.736; 1183.150;    0.000;    0.000
1008.896; 1227.150;    0.000;    0.000
1009.057; 1267.150;    0.000;    0.000
1009.218; 1223.150;    0.000;    0.000
1009.379; 1207.150;    0.000;    0.000
1009.539; 1286.150;    0.000;    0.000
1009.700; 1290.150;    0.000;    0.000
1009.860; 1302.150;    0.000;    0.000
1010.021; 1288.150;    0.000;    0.000
1010.182; 1294.150;    0.000;    0.000
1010.342; 1339.150;    0.000;    0.000
1010.503; 1437.150;    0.000;    0.000
1010.663; 1443.150;    0.000;    0.000
1010.823; 1496.150;    0.000;    0.000
1010.984; 1595.150;    0.000;    0.000
1011.144; 1690.150;    0.000;    0.000
1011.305; 1765.150;    0.000;    0.000
1011.465; 1826.150;    0.000;    0.000
1011.625; 1860.150;    0.000;    0.000
1011.785; 1908.150;    0.000;    0.000
1011.946; 1783.150;    0.000;    0.000
1012.106; 1831.150;    0.000;    0.000
1012.266; 1701.150;    0.000;    0.000
1012.426; 1710.150;    0.000;    0.000
1012.586; 1746.150;    0.000;    0.000
1012.746; 1624.150;    0.000;    0.000
1012.906; 1600.150;    0.000;    0.000
1013.066; 1617.150;    0.000;    0.000
1013.226; 1549.150;    0.000;    0.000
1013.386; 1565.150;    0.000;    0.000
1013.546; 1518.150;    0.000;    0.000
1013.706; 1456.150;    0.000;    0.000
1013.866; 1473.150;    0.000;    0.000
1014.026; 1425.150;    0.000;    0.000
1014.186; 1409.150;    0.000;    0.000
1014.346; 1443.150;    0.000;    0.000
1014.505; 1458.150;    0.000;    0.000
1014.665; 1393.150;    0.000;    0.000
1014.825; 1333.150;    0.000;    0.000
1014.985; 1377.150;    0.000;    0.000
1015.144; 1390.150;    0.000;    0.000
1015.304; 1425.150;    0.000;    0.000
1015.464; 1345.150;    0.000;    0.000
1015.623; 1423.150;    0.000;    0.000
1015.783; 1445.150;    0.000;    0.000
1015.942; 1429.150;    0.000;    0.000
1016.102; 1421.150;    0.000;    0.000
1016.261; 1349.150;    0.000;    0.000
1016.420; 1398.150;    0.000;    0.000
1016.580; 1491.150;    0.000;    0.000
1016.739; 1409.150;    0.000;    0.000
1016.899; 1413.150;    0.000;    0.000
1017.058; 1415.150;    0.000;    0.000
1017.217; 1465.150;    0.000;    0.000
1017.376; 1488.150;    0.000;    0.000
1017.536; 1351.150;    0.000;    0.000
1017.695; 1413.150;    0.000;    0.000
1017.854; 1438.150;    0.000;    0.000
1018.013; 1315.150;    0.000;    0.000
1018.172; 1336.150;    0.000;    0.000
1018.331; 1226.150;    0.000;    0.000
1018.490; 1279.150;    0.000;    0.000
1018.649; 1311.150;    0.000;    0.000
1018.808; 1364.150;    0.000;    0.000
1018.967; 1348.150;    0.000;    0.000
1019.126; 1341.150;    0.000;    0.000
1019.285; 1352.150;    0.000;    0.000
1019.444; 1396.150;    0.000;    0.000
1019.603; 1362.150;    0.000;    0.000
1019.762; 1216.150;    0.000;    0.000
1019.921; 1279.150;    0.000;    0.000
1020.079; 1282.150;    0.000;    0.000
1020.238; 1292.150;    0.000;    0.000
1020.397; 1359.150;    0.000;    0.000
1020.555; 1216.150;    0.000;    0.000
1020.714; 1316.150;    0.000;    0.000
1020.873; 1369.150;    0.000;    0.000
1021.031; 1312.150;    0.000;    0.000
1021.190; 1300.150;    0.000;    0.000
1021.348; 1274.150;    0.000;    0.000
1021.507; 1320.150;    0.000;    0.000
1021.665; 1389.150;    0.000;    0.000
1021.824; 1348.150;    0.000;    0.000
1021.982; 1292.150;    0.000;    0.000
1022.141; 1271.150;    0.000;    0.000
1022.299; 1262.150;    0.000;    0.000
1022.457; 1443.150;    0.000;    0.000
1022.616; 1378.150;    0.000;    0.000
1022.774; 1272.150;    0.000;    0.000
1022.932; 1236.150;    0.000;    0.000
1023.090; 1275.150;    0.000;    0.000
1023.249; 1324.150;    0.000;    0.000
1023.407; 1367.150;    0.000;    0.000
1023.565; 1188.150;    0.000;    0.000
1023.723; 1200.150;    0.000;    0.000
1023.881; 1344.150;    0.000;    0.000
1024.039; 1366.150;    0.000;    0.000
1024.197; 1328.150;    0.000;    0.000
1024.355; 1258.150;    0.000;    0.000
1024.513; 1260.150;    0.000;    0.000
1024.671; 1372.150;    0.000;    0.000
1024.829; 1347.150;    0.000;    0.000
1024.987; 1292.150;    0.000;    0.000
1025.145; 1201.150;    0.000;    0.000
1025.302; 1294.150;    0.000;    0.000
1025.460; 1256.150;    0.000;    0.000
1025.618; 1282.150;    0.000;    0.000
1025.776; 1370.150;    0.000;    0.000
1025.933; 1227.150;    0.000;    0.000
1026.091; 1269.150;    0.000;    0.000
1026.249; 1334.150;    0.000;    0.000
1026.406; 1411.150;    0.000;    0.000
1026.564; 1405.150;    0.000;    0.000
1026.721; 1332.150;    0.000;    0.000
1026.879; 1175.150;    0.000;    0.000
1027.036; 1287.150;    0.000;    0.000
1027.194; 1352.150;    0.000;    0.000
1027.351; 1395.150;    0.000;    0.000
1027.509; 1354.150;    0.000;    0.000
1027.666; 1312.150;    0.000;    0.000
1027.823; 1322.150;    0.000;    0.000
1027.981; 1326.150;    0.000;    0.000
1028.138; 1392.150;    0.000;    0.000
1028.295; 1405.150;    0.000;    0.000
1028.452; 1328.150;    0.000;    0.000
1028.609; 1277.150;    0.000;    0.000
1028.767; 1261.150;    0.000;    0.000
1028.924; 1308.150;    0.000;    0.000
1029.081; 1371.150;    0.000;    0.000
1029.238; 1380.150;    0.000;    0.000
1029.395; 1371.150;    0.000;    0.000
1029.552; 1279.150;    0.000;    0.000
1029.709; 1316.150;    0.000;    0.000
1029.866; 1340.150;    0.000;    0.000
1030.023; 1300.150;    0.000;    0.000
1030.180; 1306.150;    0.000;    0.000
1030.337; 1348.150;    0.000;    0.000
1030.494; 1306.150;    0.000;    0.000
1030.650; 1360.150;    0.000;    0.000
1030.807; 1376.150;    0.000;    0.000
1030.964; 1305.150;    0.000;    0.000
1031.121; 1324.150;    0.000;    0.000
1031.277; 1349.150;    0.000;    0.000
1031.434; 1364.150;    0.000;    0.000
1031.591; 1432.150;    0.000;    0.000
1031.747; 1435.150;    0.000;    0.000
1031.904; 1394.150;    0.000;    0.000
1032.060; 1325.150;    0.000;    0.000
1032.217; 1348.150;    0.000;    0.000
1032.373; 1484.150;    0.000;    0.000
1032.530; 1526.150;    0.000;    0.000
1032.686; 1609.150;    0.000;    0.000
1032.843; 1571.150;    0.000;    0.000
1032.999; 1528.150;    0.000;    0.000
1033.155; 1452.150;    0.000;    0.000
1033.312; 1519.150;    0.000;    0.000
1033.468; 1595.150;    0.000;    0.000
1033.624; 1726.150;    0.000;    0.000
1033.780; 1720.150;    0.000;    0.000
1033.937; 1834.150;    0.000;    0.000
1034.093; 1746.150;    0.000;    0.000
1034.249; 1928.150;    0.000;    0.000
1034.405; 1963.150;    0.000;    0.000
1034.561; 1896.150;    0.000;    0.000
1034.717; 1765.150;    0.000;    0.000
1034.873; 1829.150;    0.000;    0.000
1035.029; 1792.150;    0.000;    0.000
1035.185; 1778.150;    0.000;    0.000
1035.341; 1670.150;    0.000;    0.000
1035.497; 1665.150;    0.000;    0.000
1035.653; 1731.150;    0.000;    0.000
1035.809; 1910.150;    0.000;    0.000
1035.964; 1943.150;    0.000;    0.000
1036.120; 1829.150;    0.000;    0.000
1036.276; 1879.150;    0.000;    0.000
1036.432; 1866.150;    0.000;    0.000
1036.587; 1781.150;    0.000;    0.000
1036.743; 1812.150;    0.000;    0.000
1036.899; 1983.150;    0.000;    0.000
1037.054; 1854.150;    0.000;    0.000
1037.210; 2059.150;    0.000;    0.000
1037.365; 2177.150;    0.000;    0.000
1037.521; 2024.150;    0.000;    0.000
1037.676; 1956.150;    0.000;    0.000
1037.832; 1905.150;    0.000;    0.000
1037.987; 1938.150;    0.000;    0.000
1038.143; 1873.150;    0.000;    0.000
1038.298; 2042.150;    0.000;    0.000
1038.453; 2004.150;    0.000;    0.000
1038.609; 2167.150;    0.000;    0.000
1038.764; 2271.150;    0.000;    0.000
1038.919; 2121.150;    0.000;    0.000
1039.074; 2169.150;    0.000;    0.000
1039.229; 2048.150;    0.000;    0.000
1039.385; 1950.150;    0.000;    0.000
1039.540; 2054.150;    0.000;    0.000
1039.695; 2177.150;    0.000;    0.000
1039.850; 2217.150;    0.000;    0.000
1040.005; 2280.150;    0.000;    0.000
1040.160; 2487.150;    0.000;    0.000
1040.315; 2453.150;    0.000;    0.000
1040.470; 2199.150;    0.000;    0.000
1040.625; 2387.150;    0.000;    0.000
1040.780; 2326.150;    0.000;    0.000
1040.935; 2078.150;    0.000;    0.000
1041.089; 2331.150;    0.000;    0.000
1041.244; 2376.150;    0.000;    0.000
1041.399; 2502.150;    0.000;    0.000
1041.554; 2561.150;    0.000;    0.000
1041.708; 2783.150;    0.000;    0.000
1041.863; 2834.150;    0.000;    0.000
1042.018; 2670.150;    0.000;    0.000
1042.172; 2677.150;    0.000;    0.000
1042.327; 2721.150;    0.000;    0.000
1042.481; 2514.150;    0.000;    0.000
1042.636; 2595.150;    0.000;    0.000
1042.791; 2571.150;    0.000;    0.000
1042.945; 2791.150;    0.000;    0.000
1043.099; 3281.150;    0.000;    0.000
1043.254; 3147.150;    0.000;    0.000
1043.408; 3218.150;    0.000;    0.000
1043.563; 3542.150;    0.000;    0.000
1043.717; 3504.150;    0.000;    0.000
1043.871; 3243.150;    0.000;    0.000
1044.025; 3352.150;    0.000;    0.000
1044.180; 3047.150;    0.000;    0.000
1044.334; 2985.150;    0.000;    0.000
1044.488; 3108.150;    0.000;    0.000
1044.642; 3106.150;    0.000;    0.000
1044.796; 3284.150;    0.000;    0.000
1044.950; 3754.150;    0.000;    0.000
1045.104; 3851.150;    0.000;    0.000
1045.258; 4044.150;    0.000;    0.000
1045.412; 4195.150;    0.000;    0.000
1045.566; 4102.150;    0.000;    0.000
1045.720; 3891.150;    0.000;    0.000
1045.874; 3816.150;    0.000;    0.000
1046.028; 3750.150;    0.000;    0.000
1046.182; 3350.150;    0.000;    0.000
1046.336; 3401.150;    0.000;    0.000
1046.489; 3622.150;    0.000;    0.000
1046.643; 3484.150;    0.000;    0.000
1046.797; 3617.150;    0.000;    0.000
1046.951; 4151.150;    0.000;    0.000
1047.104; 4199.150;    0.000;    0.000
1047.258; 4089.150;    0.000;    0.000
1047.411; 4326.150;    0.000;    0.000
1047.565; 4627.150;    0.000;    0.000
1047.719; 4570.150;    0.000;    0.000
1047.872; 4272.150;    0.000;    0.000
1048.026; 4009.150;    0.000;    0.000
1048.179; 4221.150;    0.000;    0.000
1048.332; 4214.150;    0.000;    0.000
1048.486; 4117.150;    0.000;    0.000
1048.639; 3904.150;    0.000;    0.000
1048.792; 4113.150;    0.000;    0.000
1048.946; 4265.150;    0.000;    0.000
1049.099; 4539.150;    0.000;    0.000
1049.252; 4727.150;    0.000;    0.000
1049.406; 4728.150;    0.000;    0.000
1049.559; 4881.150;    0.000;    0.000
1049.712; 5241.150;    0.000;    0.000
1049.865; 5436.150;    0.000;    0.000
1050.018; 5602.150;    0.000;    0.000
1050.171; 5340.150;    0.000;    0.000
1050.324; 4845.150;    0.000;    0.000
1050.477; 5055.150;    0.000;    0.000
1050.630; 5464.150;    0.000;    0.000
1050.783; 5781.150;    0.000;    0.000
1050.936; 5532.150;    0.000;    0.000
1051.089; 4999.150;    0.000;    0.000
1051.242; 5142.150;    0.000;    0.000
1051.394; 5714.150;    0.000;    0.000
1051.547; 6387.150;    0.000;    0.000
1051.700; 6102.150;    0.000;    0.000
1051.853; 6012.150;    0.000;    0.000
1052.005; 5789.150;    0.000;    0.000
1052.158; 6011.150;    0.000;    0.000
1052.311; 6772.150;    0.000;    0.000
1052.463; 6903.150;    0.000;    0.000
1052.616; 6810.150;    0.000;    0.000
1052.768; 6285.150;    0.000;    0.000
1052.921; 5638.150;    0.000;    0.000
1053.073; 5726.150;    0.000;    0.000
1053.226; 6392.150;    0.000;    0.000
1053.378; 7615.150;    0.000;    0.000
1053.531; 8081.150;    0.000;    0.000
1053.683; 8049.150;    0.000;    0.000
1053.835; 7277.150;    0.000;    0.000
1053.988; 5432.150;    0.000;    0.000
1054.140; 1132.150;    0.000;    0.000
1054.292;  467.150;    0.000;    0.000
1054.444;  379.150;    0.000;    0.000
1054.596;  391.150;    0.000;    0.000
1054.749;  398.150;    0.000;    0.000
1054.901;  344.150;    0.000;    0.000
1055.053;  384.150;    0.000;    0.000
1055.205;  358.150;    0.000;    0.000
1055.357;  382.150;    0.000;    0.000
1055.509;  373.150;    0.000;    0.000
1055.661;  372.150;    0.000;    0.000
1055.813;  358.150;    0.000;    0.000
1055.965;  361.150;    0.000;    0.000
1056.116;  393.150;    0.000;    0.000
1056.268;  353.150;    0.000;    0.000
1056.420;  392.150;    0.000;    0.000

