
Integration time [ms]:   1.000
Averaging Nr. [scans]: 1
Smoothing Nr. [pixels]: 0
Data measured with spectrometer [name]: VIS
Wave   ;Sample   ;Dark     ;Reference
[nm]   ;[counts] ;[counts] ;[counts] 

450.961;  182.850;    0.000;    0.000
451.100;  209.850;    0.000;    0.000
451.239;  181.850;    0.000;    0.000
451.377;  202.850;    0.000;    0.000
451.516;  201.850;    0.000;    0.000
451.655;  229.850;    0.000;    0.000
451.794;  212.850;    0.000;    0.000
451.932;  218.850;    0.000;    0.000
452.071;  193.850;    0.000;    0.000
452.210;  218.850;    0.000;    0.000
452.348;  222.850;    0.000;    0.000
452.487;  214.850;    0.000;    0.000
452.626;  217.850;    0.000;    0.000
452.764;  204.850;    0.000;    0.000
452.903;  221.850;    0.000;    0.000
453.042;  295.850;    0.000;    0.000
453.180; 3689.850;    0.000;    0.000
453.319; 3842.850;    0.000;    0.000
453.458; 3798.850;    0.000;    0.000
453.596; 3884.850;    0.000;    0.000
453.735; 3779.850;    0.000;    0.000
453.873; 3902.850;    0.000;    0.000
454.012; 3899.850;    0.000;    0.000
454.150; 3991.850;    0.000;    0.000
454.289; 3948.850;    0.000;    0.000
454.427; 3967.850;    0.000;    0.000
454.566; 4039.850;    0.000;    0.000
454.704; 4115.850;    0.000;    0.000
454.843; 4169.850;    0.000;    0.000
454.981; 4148.850;    0.000;    0.000
455.120; 4183.850;    0.000;    0.000
455.258; 4285.850;    0.000;    0.000
455.397; 4299.850;    0.000;    0.000
455.535; 4228.850;    0.000;    0.000
455.674; 4364.850;    0.000;    0.000
455.812; 4449.850;    0.000;    0.000
455.951; 4492.850;    0.000;    0.000
456.089; 4517.850;    0.000;    0.000
456.227; 4626.850;    0.000;    0.000
456.366; 4624.850;    0.000;    0.000
456.504; 4578.850;    0.000;    0.000
456.642; 4626.850;    0.000;    0.000
456.781; 4614.850;    0.000;    0.000
456.919; 4559.850;    0.000;    0.000
457.057; 4488.850;    0.000;    0.000
457.196; 4555.850;    0.000;    0.000
457.334; 4781.850;    0.000;    0.000
457.472; 4831.850;    0.000;    0.000
457.610; 5203.850;    0.000;    0.000
457.749; 5624.850;    0.000;    0.000
457.887; 6177.850;    0.000;    0.000
458.025; 6564.850;    0.000;    0.000
458.163; 6563.850;    0.000;    0.000
458.301; 6611.850;    0.000;    0.000
458.440; 6908.850;    0.000;    0.000
458.578; 7260.850;    0.000;    0.000
458.716; 6806.850;    0.000;    0.000
458.854; 6229.850;    0.000;    0.000
458.992; 6031.850;    0.000;    0.000
459.130; 5858.850;    0.000;    0.000
459.269; 5840.850;    0.000;    0.000
459.407; 5919.850;    0.000;    0.000
459.545; 5876.850;    0.000;    0.000
459.683; 5915.850;    0.000;    0.000
459.821; 5957.850;    0.000;    0.000
459.959; 5910.850;    0.000;    0.000
460.097; 5993.850;    0.000;    0.000
460.235; 6062.850;    0.000;    0.000
460.373; 6161.850;    0.000;    0.000
460.511; 6436.850;    0.000;    0.000
460.649; 6651.850;    0.000;    0.000
460.787; 6710.850;    0.000;    0.000
460.925; 6161.850;    0.000;    0.000
461.063; 6156.850;    0.000;    0.000
461.201; 6188.850;    0.000;    0.000
461.339; 6477.850;    0.000;    0.000
461.477; 6215.850;    0.000;    0.000
461.615; 6372.850;    0.000;    0.000
461.753; 6390.850;    0.000;    0.000
461.891; 6442.850;    0.000;    0.000
462.029; 6612.850;    0.000;    0.000
462.166; 6655.850;    0.000;    0.000
462.304; 6698.850;    0.000;    0.000
462.442; 6807.850;    0.000;    0.000
462.580; 6897.850;    0.000;    0.000
462.718; 6972.850;    0.000;    0.000
462.856; 7089.850;    0.000;    0.000
462.993; 7009.850;    0.000;    0.000
463.131; 6925.850;    0.000;    0.000
463.269; 6992.850;    0.000;    0.000
463.407; 6916.850;    0.000;    0.000
463.545; 6758.850;    0.000;    0.000
463.682; 6890.850;    0.000;    0.000
463.820; 7104.850;    0.000;    0.000
463.958; 7094.850;    0.000;    0.000
464.095; 7300.850;    0.000;    0.000
464.233; 7345.850;    0.000;    0.000
464.371; 7231.850;    0.000;    0.000
464.509; 7204.850;    0.000;    0.000
464.646; 7227.850;    0.000;    0.000
464.784; 7108.850;    0.000;    0.000
464.921; 7122.850;    0.000;    0.000
465.059; 7035.850;    0.000;    0.000
465.197; 6954.850;    0.000;    0.000
465.334; 6879.850;    0.000;    0.000
465.472; 6684.850;    0.000;    0.000
465.609; 6705.850;    0.000;    0.000
465.747; 6593.850;    0.000;    0.000
465.885; 6649.850;    0.000;    0.000
466.022; 6627.850;    0.000;    0.000
466.160; 6366.850;    0.000;    0.000
466.297; 6542.850;    0.000;    0.000
466.435; 6342.850;    0.000;    0.000
466.572; 6488.850;    0.000;    0.000
466.710; 6365.850;    0.000;    0.000
466.847; 6535.850;    0.000;    0.000
466.985; 6359.850;    0.000;    0.000
467.122; 6477.850;    0.000;    0.000
467.260; 6326.850;    0.000;    0.000
467.397; 6354.850;    0.000;    0.000
467.534; 6415.850;    0.000;    0.000
467.672; 6421.850;    0.000;    0.000
467.809; 6492.850;    0.000;    0.000
467.947; 6457.850;    0.000;    0.000
468.084; 6455.850;    0.000;    0.000
468.221; 6489.850;    0.000;    0.000
468.359; 6582.850;    0.000;    0.000
468.496; 6568.850;    0.000;    0.000
468.633; 6392.850;    0.000;    0.000
468.771; 6405.850;    0.000;    0.000
468.908; 6542.850;    0.000;    0.000
469.045; 6525.850;    0.000;    0.000
469.183; 6484.850;    0.000;    0.000
469.320; 6580.850;    0.000;    0.000
469.457; 6610.850;    0.000;    0.000
469.594; 6669.850;    0.000;    0.000
469.732; 6668.850;    0.000;    0.000
469.869; 6726.850;    0.000;    0.000
470.006; 6716.850;    0.000;    0.000
470.143; 6707.850;    0.000;    0.000
470.280; 6790.850;    0.000;    0.000
470.417; 6862.850;    0.000;    0.000
470.555; 6753.850;    0.000;    0.000
470.692; 6832.850;    0.000;    0.000
470.829; 6689.850;    0.000;    0.000
470.966; 6813.850;    0.000;    0.000
471.103; 6885.850;    0.000;    0.000
471.240; 6802.850;    0.000;    0.000
471.377; 6708.850;    0.000;    0.000
471.514; 6752.850;    0.000;    0.000
471.651; 6726.850;    0.000;    0.000
471.789; 6716.850;    0.000;    0.000
471.926; 6701.850;    0.000;    0.000
472.063; 6698.850;    0.000;    0.000
472.200; 6582.850;    0.000;    0.000
472.337; 6641.850;    0.000;    0.000
472.474; 6692.850;    0.000;    0.000
472.611; 6650.850;    0.000;    0.000
472.748; 6523.850;    0.000;    0.000
472.884; 6727.850;    0.000;    0.000
473.021; 6582.850;    0.000;    0.000
473.158; 6552.850;    0.000;    0.000
473.295; 6703.850;    0.000;    0.000
473.432; 6481.850;    0.000;    0.000
473.569; 6597.850;    0.000;    0.000
473.706; 6573.850;    0.000;    0.000
473.843; 6672.850;    0.000;    0.000
473.980; 6639.850;    0.000;    0.000
474.117; 6630.850;    0.000;    0.000
474.253; 6576.850;    0.000;    0.000
474.390; 6566.850;    0.000;    0.000
474.527; 6778.850;    0.000;    0.000
474.664; 6651.850;    0.000;    0.000
474.801; 6679.850;    0.000;    0.000
474.937; 6614.850;    0.000;    0.000
475.074; 6767.850;    0.000;    0.000
475.211; 6741.850;    0.000;    0.000
475.348; 6779.850;    0.000;    0.000
475.484; 6721.850;    0.000;    0.000
475.621; 6807.850;    0.000;    0.000
475.758; 6841.850;    0.000;    0.000
475.894; 6876.850;    0.000;    0.000
476.031; 6847.850;    0.000;    0.000
476.168; 6772.850;    0.000;    0.000
476.304; 6903.850;    0.000;    0.000
476.441; 6996.850;    0.000;    0.000
476.578; 6722.850;    0.000;    0.000
476.714; 6793.850;    0.000;    0.000
476.851; 6814.850;    0.000;    0.000
476.987; 6937.850;    0.000;    0.000
477.124; 6944.850;    0.000;    0.000
477.261; 7111.850;    0.000;    0.000
477.397; 7046.850;    0.000;    0.000
477.534; 7087.850;    0.000;    0.000
477.670; 7128.850;    0.000;    0.000
477.807; 7082.850;    0.000;    0.000
477.943; 7179.850;    0.000;    0.000
478.080; 7231.850;    0.000;    0.000
478.216; 7249.850;    0.000;    0.000
478.353; 7346.850;    0.000;    0.000
478.489; 7381.850;    0.000;    0.000
478.626; 7417.850;    0.000;    0.000
478.762; 7617.850;    0.000;    0.000
478.898; 7498.850;    0.000;    0.000
479.035; 7615.850;    0.000;    0.000
479.171; 7490.850;    0.000;    0.000
479.308; 7476.850;    0.000;    0.000
479.444; 7588.850;    0.000;    0.000
479.580; 7573.850;    0.000;    0.000
479.717; 7525.850;    0.000;    0.000
479.853; 7577.850;    0.000;    0.000
479.989; 7696.850;    0.000;    0.000
480.126; 7586.850;    0.000;    0.000
480.262; 7670.850;    0.000;    0.000
480.398; 7728.850;    0.000;    0.000
480.535; 7752.850;    0.000;    0.000
480.671; 7644.850;    0.000;    0.000
480.807; 7651.850;    0.000;    0.000
480.943; 7591.850;    0.000;    0.000
481.080; 7712.850;    0.000;    0.000
481.216; 7632.850;    0.000;    0.000
481.352; 7434.850;    0.000;    0.000
481.488; 7669.850;    0.000;    0.000
481.624; 7567.850;    0.000;    0.000
481.760; 7576.850;    0.000;    0.000
481.897; 7540.850;    0.000;    0.000
482.033; 7557.850;    0.000;    0.000
482.169; 7476.850;    0.000;    0.000
482.305; 7573.850;    0.000;    0.000
482.441; 7480.850;    0.000;    0.000
482.577; 7600.850;    0.000;    0.000
482.713; 7602.850;    0.000;    0.000
482.849; 7614.850;    0.000;    0.000
482.985; 7570.850;    0.000;    0.000
483.121; 7604.850;    0.000;    0.000
483.258; 7676.850;    0.000;    0.000
483.394; 7471.850;    0.000;    0.000
483.530; 7609.850;    0.000;    0.000
483.665; 7573.850;    0.000;    0.000
483.801; 7420.850;    0.000;    0.000
483.937; 7644.850;    0.000;    0.000
484.073; 7623.850;    0.000;    0.000
484.209; 7540.850;    0.000;    0.000
484.345; 7666.850;    0.000;    0.000
484.481; 7802.850;    0.000;    0.000
484.617; 7628.850;    0.000;    0.000
484.753; 7645.850;    0.000;    0.000
484.889; 7694.850;    0.000;    0.000
485.025; 7561.850;    0.000;    0.000
485.161; 7715.850;    0.000;    0.000
485.296; 7790.850;    0.000;    0.000
485.432; 7638.850;    0.000;    0.000
485.568; 7699.850;    0.000;    0.000
485.704; 7780.850;    0.000;    0.000
485.840; 7937.850;    0.000;    0.000
485.975; 7833.850;    0.000;    0.000
486.111; 7769.850;    0.000;    0.000
486.247; 7781.850;    0.000;    0.000
486.383; 7658.850;    0.000;    0.000
486.518; 7826.850;    0.000;    0.000
486.654; 7658.850;    0.000;    0.000
486.790; 7764.850;    0.000;    0.000
486.926; 7818.850;    0.000;    0.000
487.061; 7709.850;    0.000;    0.000
487.197; 7843.850;    0.000;    0.000
487.333; 7961.850;    0.000;    0.000
487.468; 8062.850;    0.000;    0.000
487.604; 9087.850;    0.000;    0.000
487.740;10608.850;    0.000;    0.000
487.875;11255.850;    0.000;    0.000
488.011;10042.850;    0.000;    0.000
488.146; 8681.850;    0.000;    0.000
488.282; 8303.850;    0.000;    0.000
488.417; 8076.850;    0.000;    0.000
488.553; 8147.850;    0.000;    0.000
488.688; 7873.850;    0.000;    0.000
488.824; 7936.850;    0.000;    0.000
488.960; 7793.850;    0.000;    0.000
489.095; 7830.850;    0.000;    0.000
489.230; 7795.850;    0.000;    0.000
489.366; 7780.850;    0.000;    0.000
489.501; 7760.850;    0.000;    0.000
489.637; 7732.850;    0.000;    0.000
489.772; 7741.850;    0.000;    0.000
489.908; 7811.850;    0.000;    0.000
490.043; 7624.850;    0.000;    0.000
490.178; 7940.850;    0.000;    0.000
490.314; 7748.850;    0.000;    0.000
490.449; 7764.850;    0.000;    0.000
490.585; 7723.850;    0.000;    0.000
490.720; 7734.850;    0.000;    0.000
490.855; 7778.850;    0.000;    0.000
490.991; 7462.850;    0.000;    0.000
491.126; 7842.850;    0.000;    0.000
491.261; 7655.850;    0.000;    0.000
491.396; 7637.850;    0.000;    0.000
491.532; 7701.850;    0.000;    0.000
491.667; 7717.850;    0.000;    0.000
491.802; 7699.850;    0.000;    0.000
491.937; 7641.850;    0.000;    0.000
492.073; 7848.850;    0.000;    0.000
492.208; 7728.850;    0.000;    0.000
492.343; 7574.850;    0.000;    0.000
492.478; 7805.850;    0.000;    0.000
492.613; 7756.850;    0.000;    0.000
492.749; 7682.850;    0.000;    0.000
492.884; 7596.850;    0.000;    0.000
493.019; 7667.850;    0.000;    0.000
493.154; 7770.850;    0.000;    0.000
493.289; 7808.850;    0.000;    0.000
493.424; 7679.850;    0.000;    0.000
493.559; 7700.850;    0.000;    0.000
493.694; 7713.850;    0.000;    0.000
493.829; 7633.850;    0.000;    0.000
493.964; 7734.850;    0.000;    0.000
494.099; 7671.850;    0.000;    0.000
494.234; 7722.850;    0.000;    0.000
494.369; 7592.850;    0.000;    0.000
494.504; 7656.850;    0.000;    0.000
494.639; 7693.850;    0.000;    0.000
494.774; 7597.850;    0.000;    0.000
494.909; 7719.850;    0.000;    0.000
495.044; 7610.850;    0.000;    0.000
495.179; 7636.850;    0.000;    0.000
495.314; 7712.850;    0.000;    0.000
495.449; 7530.850;    0.000;    0.000
495.584; 7771.850;    0.000;    0.000
495.719; 7563.850;    0.000;    0.000
495.854; 7742.850;    0.000;    0.000
495.988; 7736.850;    0.000;    0.000
496.123; 7699.850;    0.000;    0.000
496.258; 7815.850;    0.000;    0.000
496.393; 7915.850;    0.000;    0.000
496.528; 7877.850;    0.000;    0.000
496.663; 7862.850;    0.000;    0.000
496.797; 7985.850;    0.000;    0.000
496.932; 7945.850;    0.000;    0.000
497.067; 7949.850;    0.000;    0.000
497.202; 8184.850;    0.000;    0.000
497.336; 8125.850;    0.000;    0.000
497.471; 8160.850;    0.000;    0.000
497.606; 8176.850;    0.000;    0.000
497.740; 8390.850;    0.000;    0.000
497.875; 8372.850;    0.000;    0.000
498.010; 8796.850;    0.000;    0.000
498.144; 8782.850;    0.000;    0.000
498.279; 8992.850;    0.000;    0.000
498.414; 8943.850;    0.000;    0.000
498.548; 9108.850;    0.000;    0.000
498.683; 9236.850;    0.000;    0.000
498.817; 9451.850;    0.000;    0.000
498.952; 9608.850;    0.000;    0.000
499.087; 9895.850;    0.000;    0.000
499.221;10294.850;    0.000;    0.000
499.356;10372.850;    0.000;    0.000
499.490;10741.850;    0.000;    0.000
499.625;11002.850;    0.000;    0.000
499.759;11177.850;    0.000;    0.000
499.894;11567.850;    0.000;    0.000
500.028;12004.850;    0.000;    0.000
500.162;12098.850;    0.000;    0.000
500.297;12155.850;    0.000;    0.000
500.431;12046.850;    0.000;    0.000
500.566;12135.850;    0.000;    0.000
500.700;12216.850;    0.000;    0.000
500.835;12039.850;    0.000;    0.000
500.969;11587.850;    0.000;    0.000
501.103;11283.850;    0.000;    0.000
501.238;11299.850;    0.000;    0.000
501.372;10792.850;    0.000;    0.000
501.506;10533.850;    0.000;    0.000
501.641;10291.850;    0.000;    0.000
501.775;10023.850;    0.000;    0.000
501.909; 9891.850;    0.000;    0.000
502.043; 9692.850;    0.000;    0.000
502.178; 9686.850;    0.000;    0.000
502.312; 9231.850;    0.000;    0.000
502.446; 9229.850;    0.000;    0.000
502.580; 9059.850;    0.000;    0.000
502.715; 8902.850;    0.000;    0.000
502.849; 8913.850;    0.000;    0.000
502.983; 8577.850;    0.000;    0.000
503.117; 8516.850;    0.000;    0.000
503.251; 8515.850;    0.000;    0.000
503.385; 8261.850;    0.000;    0.000
503.520; 8390.850;    0.000;    0.000
503.654; 8260.850;    0.000;    0.000
503.788; 8374.850;    0.000;    0.000
503.922; 8567.850;    0.000;    0.000
504.056; 9396.850;    0.000;    0.000
504.190; 9719.850;    0.000;    0.000
504.324; 9072.850;    0.000;    0.000
504.458; 8305.850;    0.000;    0.000
504.592; 7951.850;    0.000;    0.000
504.726; 7932.850;    0.000;    0.000
504.860; 7625.850;    0.000;    0.000
504.994; 7484.850;    0.000;    0.000
505.128; 7406.850;    0.000;    0.000
505.262; 7403.850;    0.000;    0.000
505.396; 7154.850;    0.000;    0.000
505.530; 7094.850;    0.000;    0.000
505.664; 6942.850;    0.000;    0.000
505.798; 7039.850;    0.000;    0.000
505.932; 6877.850;    0.000;    0.000
506.066; 6865.850;    0.000;    0.000
506.199; 6793.850;    0.000;    0.000
506.333; 6695.850;    0.000;    0.000
506.467; 6565.850;    0.000;    0.000
506.601; 6520.850;    0.000;    0.000
506.735; 6680.850;    0.000;    0.000
506.869; 6418.850;    0.000;    0.000
507.002; 6475.850;    0.000;    0.000
507.136; 6466.850;    0.000;    0.000
507.270; 6356.850;    0.000;    0.000
507.404; 6370.850;    0.000;    0.000
507.537; 6199.850;    0.000;    0.000
507.671; 6263.850;    0.000;    0.000
507.805; 6151.850;    0.000;    0.000
507.939; 6060.850;    0.000;    0.000
508.072; 6089.850;    0.000;    0.000
508.206; 6153.850;    0.000;    0.000
508.340; 6089.850;    0.000;    0.000
508.473; 6051.850;    0.000;    0.000
508.607; 6126.850;    0.000;    0.000
508.740; 5838.850;    0.000;    0.000
508.874; 5972.850;    0.000;    0.000
509.008; 5824.850;    0.000;    0.000
509.141; 5969.850;    0.000;    0.000
509.275; 5957.850;    0.000;    0.000
509.408; 5935.850;    0.000;    0.000
509.542; 5822.850;    0.000;    0.000
509.675; 5836.850;    0.000;    0.000
509.809; 5796.850;    0.000;    0.000
509.942; 5804.850;    0.000;    0.000
510.076; 5753.850;    0.000;    0.000
510.209; 5813.850;    0.000;    0.000
510.343; 5782.850;    0.000;    0.000
510.476; 5854.850;    0.000;    0.000
510.610; 5624.850;    0.000;    0.000
510.743; 5726.850;    0.000;    0.000
510.877; 5864.850;    0.000;    0.000
511.010; 5661.850;    0.000;    0.000
511.143; 5693.850;    0.000;    0.000
511.277; 5654.850;    0.000;    0.000
511.410; 5641.850;    0.000;    0.000
511.543; 5760.850;    0.000;    0.000
511.677; 5596.850;    0.000;    0.000
511.810; 5532.850;    0.000;    0.000
511.943; 5625.850;    0.000;    0.000
512.077; 5608.850;    0.000;    0.000
512.210; 5558.850;    0.000;    0.000
512.343; 5728.850;    0.000;    0.000
512.476; 5640.850;    0.000;    0.000
512.610; 5582.850;    0.000;    0.000
512.743; 5516.850;    0.000;    0.000
512.876; 5697.850;    0.000;    0.000
513.009; 5610.850;    0.000;    0.000
513.142; 5554.850;    0.000;    0.000
513.276; 5549.850;    0.000;    0.000
513.409; 5684.850;    0.000;    0.000
513.542; 5634.850;    0.000;    0.000
513.675; 5615.850;    0.000;    0.000
513.808; 5505.850;    0.000;    0.000
513.941; 5522.850;    0.000;    0.000
514.074; 5528.850;    0.000;    0.000
514.207; 5537.850;    0.000;    0.000
514.340; 5543.850;    0.000;    0.000
514.474; 5586.850;    0.000;    0.000
514.607; 5593.850;    0.000;    0.000
514.740; 5602.850;    0.000;    0.000
514.873; 5542.850;    0.000;    0.000
515.006; 5655.850;    0.000;    0.000
515.139; 5557.850;    0.000;    0.000
515.272; 5674.850;    0.000;    0.000
515.404; 5639.850;    0.000;    0.000
515.537; 5651.850;    0.000;    0.000
515.670; 5715.850;    0.000;    0.000
515.803; 5786.850;    0.000;    0.000
515.936; 5747.850;    0.000;    0.000
516.069; 5605.850;    0.000;    0.000
516.202; 5695.850;    0.000;    0.000
516.335; 5853.850;    0.000;    0.000
516.468; 5879.850;    0.000;    0.000
516.600; 5793.850;    0.000;    0.000
516.733; 5962.850;    0.000;    0.000
516.866; 5963.850;    0.000;    0.000
516.999; 6024.850;    0.000;    0.000
517.132; 5987.850;    0.000;    0.000
517.264; 6106.850;    0.000;    0.000
517.397; 6085.850;    0.000;    0.000
517.530; 6087.850;    0.000;    0.000
517.663; 6022.850;    0.000;    0.000
517.795; 6071.850;    0.000;    0.000
517.928; 6125.850;    0.000;    0.000
518.061; 6076.850;    0.000;    0.000
518.193; 6207.850;    0.000;    0.000
518.326; 6319.850;    0.000;    0.000
518.459; 6313.850;    0.000;    0.000
518.591; 6474.850;    0.000;    0.000
518.724; 7522.850;    0.000;    0.000
518.857; 8331.850;    0.000;    0.000
518.989; 7925.850;    0.000;    0.000
519.122; 6502.850;    0.000;    0.000
519.254; 6105.850;    0.000;    0.000
519.387; 6013.850;    0.000;    0.000
519.519; 5925.850;    0.000;    0.000
519.652; 5828.850;    0.000;    0.000
519.784; 5671.850;    0.000;    0.000
519.917; 5578.850;    0.000;    0.000
520.049; 5562.850;    0.000;    0.000
520.182; 5470.850;    0.000;    0.000
520.314; 5570.850;    0.000;    0.000
520.447; 5395.850;    0.000;    0.000
520.579; 5439.850;    0.000;    0.000
520.712; 5401.850;    0.000;    0.000
520.844; 5381.850;    0.000;    0.000
520.976; 5269.850;    0.000;    0.000
521.109; 5299.850;    0.000;    0.000
521.241; 5201.850;    0.000;    0.000
521.373; 5210.850;    0.000;    0.000
521.506; 5062.850;    0.000;    0.000
521.638; 5250.850;    0.000;    0.000
521.770; 5053.850;    0.000;    0.000
521.903; 5060.850;    0.000;    0.000
522.035; 4979.850;    0.000;    0.000
522.167; 4985.850;    0.000;    0.000
522.300; 5015.850;    0.000;    0.000
522.432; 5116.850;    0.000;    0.000
522.564; 4918.850;    0.000;    0.000
522.696; 5037.850;    0.000;    0.000
522.828; 4972.850;    0.000;    0.000
522.961; 4857.850;    0.000;    0.000
523.093; 4942.850;    0.000;    0.000
523.225; 5019.850;    0.000;    0.000
523.357; 5038.850;    0.000;    0.000
523.489; 4890.850;    0.000;    0.000
523.621; 4896.850;    0.000;    0.000
523.753; 4909.850;    0.000;    0.000
523.885; 4777.850;    0.000;    0.000
524.018; 4837.850;    0.000;    0.000
524.150; 4871.850;    0.000;    0.000
524.282; 5044.850;    0.000;    0.000
524.414; 4902.850;    0.000;    0.000
524.546; 4884.850;    0.000;    0.000
524.678; 4892.850;    0.000;    0.000
524.810; 4821.850;    0.000;    0.000
524.942; 4970.850;    0.000;    0.000
525.074; 4915.850;    0.000;    0.000
525.206; 5004.850;    0.000;    0.000
525.338; 5000.850;    0.000;    0.000
525.469; 5128.850;    0.000;    0.000
525.601; 5173.850;    0.000;    0.000
525.733; 5299.850;    0.000;    0.000
525.865; 5764.850;    0.000;    0.000
525.997; 7500.850;    0.000;    0.000
526.129;11320.850;    0.000;    0.000
526.261;13376.850;    0.000;    0.000
526.393;13875.850;    0.000;    0.000
526.524;15448.850;    0.000;    0.000
526.656;12792.850;    0.000;    0.000
526.788; 9688.850;    0.000;    0.000
526.920;14070.850;    0.000;    0.000
527.052;16617.850;    0.000;    0.000
527.183;12054.850;    0.000;    0.000
527.315; 7604.850;    0.000;    0.000
527.447; 6476.850;    0.000;    0.000
527.578; 5855.850;    0.000;    0.000
527.710; 5656.850;    0.000;    0.000
527.842; 5337.850;    0.000;    0.000
527.973; 5236.850;    0.000;    0.000
528.105; 5114.850;    0.000;    0.000
528.237; 5009.850;    0.000;    0.000
528.368; 4888.850;    0.000;    0.000
528.500; 4838.850;    0.000;    0.000
528.632; 4968.850;    0.000;    0.000
528.763; 4887.850;    0.000;    0.000
528.895; 4838.850;    0.000;    0.000
529.026; 4848.850;    0.000;    0.000
529.158; 4775.850;    0.000;    0.000
529.289; 4688.850;    0.000;    0.000
529.421; 4703.850;    0.000;    0.000
529.552; 4735.850;    0.000;    0.000
529.684; 4732.850;    0.000;    0.000
529.815; 4765.850;    0.000;    0.000
529.947; 4642.850;    0.000;    0.000
530.078; 4625.850;    0.000;    0.000
530.210; 4605.850;    0.000;    0.000
530.341; 4718.850;    0.000;    0.000
530.472; 4658.850;    0.000;    0.000
530.604; 4815.850;    0.000;    0.000
530.735; 4774.850;    0.000;    0.000
530.867; 4736.850;    0.000;    0.000
530.998; 4725.850;    0.000;    0.000
531.129; 4683.850;    0.000;    0.000
531.260; 4843.850;    0.000;    0.000
531.392; 4727.850;    0.000;    0.000
531.523; 4722.850;    0.000;    0.000
531.654; 4828.850;    0.000;    0.000
531.786; 4767.850;    0.000;    0.000
531.917; 4879.850;    0.000;    0.000
532.048; 4731.850;    0.000;    0.000
532.179; 4689.850;    0.000;    0.000
532.311; 4780.850;    0.000;    0.000
532.442; 4751.850;    0.000;    0.000
532.573; 4723.850;    0.000;    0.000
532.704; 4697.850;    0.000;    0.000
532.835; 4702.850;    0.000;    0.000
532.966; 4730.850;    0.000;    0.000
533.097; 4771.850;    0.000;    0.000
533.229; 4755.850;    0.000;    0.000
533.360; 4716.850;    0.000;    0.000
533.491; 4613.850;    0.000;    0.000
533.622; 4747.850;    0.000;    0.000
533.753; 4721.850;    0.000;    0.000
533.884; 4757.850;    0.000;    0.000
534.015; 4870.850;    0.000;    0.000
534.146; 4824.850;    0.000;    0.000
534.277; 4897.850;    0.000;    0.000
534.408; 4946.850;    0.000;    0.000
534.539; 4952.850;    0.000;    0.000
534.670; 5239.850;    0.000;    0.000
534.801; 6890.850;    0.000;    0.000
534.932; 8944.850;    0.000;    0.000
535.063; 7661.850;    0.000;    0.000
535.194; 5508.850;    0.000;    0.000
535.324; 5071.850;    0.000;    0.000
535.455; 4985.850;    0.000;    0.000
535.586; 4942.850;    0.000;    0.000
535.717; 4778.850;    0.000;    0.000
535.848; 4870.850;    0.000;    0.000
535.979; 4701.850;    0.000;    0.000
536.109; 4778.850;    0.000;    0.000
536.240; 4681.850;    0.000;    0.000
536.371; 4669.850;    0.000;    0.000
536.502; 4755.850;    0.000;    0.000
536.632; 4710.850;    0.000;    0.000
536.763; 4695.850;    0.000;    0.000
536.894; 4646.850;    0.000;    0.000
537.025; 4686.850;    0.000;    0.000
537.155; 4703.850;    0.000;    0.000
537.286; 4635.850;    0.000;    0.000
537.417; 4575.850;    0.000;    0.000
537.547; 4513.850;    0.000;    0.000
537.678; 4639.850;    0.000;    0.000
537.808; 4643.850;    0.000;    0.000
537.939; 4625.850;    0.000;    0.000
538.070; 4657.850;    0.000;    0.000
538.200; 4672.850;    0.000;    0.000
538.331; 4579.850;    0.000;    0.000
538.461; 4697.850;    0.000;    0.000
538.592; 4558.850;    0.000;    0.000
538.722; 4724.850;    0.000;    0.000
538.853; 4736.850;    0.000;    0.000
538.983; 4639.850;    0.000;    0.000
539.114; 4568.850;    0.000;    0.000
539.244; 4651.850;    0.000;    0.000
539.375; 4610.850;    0.000;    0.000
539.505; 4560.850;    0.000;    0.000
539.636; 4689.850;    0.000;    0.000
539.766; 4618.850;    0.000;    0.000
539.896; 4559.850;    0.000;    0.000
540.027; 4719.850;    0.000;    0.000
540.157; 4526.850;    0.000;    0.000
540.287; 4650.850;    0.000;    0.000
540.418; 4665.850;    0.000;    0.000
540.548; 4695.850;    0.000;    0.000
540.678; 4683.850;    0.000;    0.000
540.809; 4735.850;    0.000;    0.000
540.939; 4753.850;    0.000;    0.000
541.069; 4724.850;    0.000;    0.000
541.200; 4641.850;    0.000;    0.000
541.330; 4735.850;    0.000;    0.000
541.460; 4685.850;    0.000;    0.000
541.590; 4796.850;    0.000;    0.000
541.720; 4618.850;    0.000;    0.000
541.851; 4754.850;    0.000;    0.000
541.981; 4859.850;    0.000;    0.000
542.111; 4856.850;    0.000;    0.000
542.241; 4718.850;    0.000;    0.000
542.371; 4851.850;    0.000;    0.000
542.501; 4885.850;    0.000;    0.000
542.631; 4951.850;    0.000;    0.000
542.761; 5024.850;    0.000;    0.000
542.891; 4997.850;    0.000;    0.000
543.021; 5103.850;    0.000;    0.000
543.151; 5038.850;    0.000;    0.000
543.281; 4937.850;    0.000;    0.000
543.411; 4922.850;    0.000;    0.000
543.542; 4890.850;    0.000;    0.000
543.671; 4953.850;    0.000;    0.000
543.801; 4937.850;    0.000;    0.000
543.931; 4876.850;    0.000;    0.000
544.061; 5097.850;    0.000;    0.000
544.191; 5001.850;    0.000;    0.000
544.321; 5106.850;    0.000;    0.000
544.451; 5022.850;    0.000;    0.000
544.581; 4978.850;    0.000;    0.000
544.711; 5108.850;    0.000;    0.000
544.841; 5208.850;    0.000;    0.000
544.970; 5209.850;    0.000;    0.000
545.100; 5287.850;    0.000;    0.000
545.230; 5291.850;    0.000;    0.000
545.360; 5386.850;    0.000;    0.000
545.490; 5130.850;    0.000;    0.000
545.619; 5152.850;    0.000;    0.000
545.749; 5059.850;    0.000;    0.000
545.879; 5003.850;    0.000;    0.000
546.009; 5161.850;    0.000;    0.000
546.138; 5143.850;    0.000;    0.000
546.268; 5138.850;    0.000;    0.000
546.398; 5139.850;    0.000;    0.000
546.527; 5147.850;    0.000;    0.000
546.657; 5184.850;    0.000;    0.000
546.786; 5205.850;    0.000;    0.000
546.916; 5323.850;    0.000;    0.000
547.046; 5411.850;    0.000;    0.000
547.175; 5741.850;    0.000;    0.000
547.305; 5976.850;    0.000;    0.000
547.434; 6192.850;    0.000;    0.000
547.564; 6305.850;    0.000;    0.000
547.693; 6193.850;    0.000;    0.000
547.823; 6228.850;    0.000;    0.000
547.953; 6376.850;    0.000;    0.000
548.082; 6480.850;    0.000;    0.000
548.211; 6560.850;    0.000;    0.000
548.341; 6514.850;    0.000;    0.000
548.470; 6536.850;    0.000;    0.000
548.600; 6426.850;    0.000;    0.000
548.729; 6542.850;    0.000;    0.000
548.859; 6530.850;    0.000;    0.000
548.988; 6615.850;    0.000;    0.000
549.117; 6426.850;    0.000;    0.000
549.247; 6601.850;    0.000;    0.000
549.376; 6831.850;    0.000;    0.000
549.505; 6765.850;    0.000;    0.000
549.635; 7037.850;    0.000;    0.000
549.764; 7391.850;    0.000;    0.000
549.893; 7704.850;    0.000;    0.000
550.023; 7691.850;    0.000;    0.000
550.152; 7516.850;    0.000;    0.000
550.281; 7492.850;    0.000;    0.000
550.410; 7727.850;    0.000;    0.000
550.539; 8094.850;    0.000;    0.000
550.669; 8435.850;    0.000;    0.000
550.798; 8614.850;    0.000;    0.000
550.927; 8918.850;    0.000;    0.000
551.056; 9267.850;    0.000;    0.000
551.185; 9785.850;    0.000;    0.000
551.314; 9755.850;    0.000;    0.000
551.443; 9361.850;    0.000;    0.000
551.573; 9055.850;    0.000;    0.000
551.702; 8821.850;    0.000;    0.000
551.831; 8818.850;    0.000;    0.000
551.960; 8599.850;    0.000;    0.000
552.089; 8948.850;    0.000;    0.000
552.218; 8823.850;    0.000;    0.000
552.347; 8848.850;    0.000;    0.000
552.476; 8779.850;    0.000;    0.000
552.605; 8899.850;    0.000;    0.000
552.734; 8738.850;    0.000;    0.000
552.863; 8885.850;    0.000;    0.000
552.992; 8904.850;    0.000;    0.000
553.121; 8931.850;    0.000;    0.000
553.249; 9099.850;    0.000;    0.000
553.378; 9301.850;    0.000;    0.000
553.507; 9424.850;    0.000;    0.000
553.636; 9606.850;    0.000;    0.000
553.765; 9707.850;    0.000;    0.000
553.894; 9663.850;    0.000;    0.000
554.023; 9944.850;    0.000;    0.000
554.151; 9758.850;    0.000;    0.000
554.280; 9941.850;    0.000;    0.000
554.409; 9609.850;    0.000;    0.000
554.538; 9993.850;    0.000;    0.000
554.666; 9912.850;    0.000;    0.000
554.795; 9827.850;    0.000;    0.000
554.924; 9758.850;    0.000;    0.000
555.052; 9406.850;    0.000;    0.000
555.181; 9448.850;    0.000;    0.000
555.310; 9284.850;    0.000;    0.000
555.439; 9267.850;    0.000;    0.000
555.567; 8885.850;    0.000;    0.000
555.696; 8701.850;    0.000;    0.000
555.824; 8560.850;    0.000;    0.000
555.953; 8502.850;    0.000;    0.000
556.082; 8217.850;    0.000;    0.000
556.210; 8150.850;    0.000;    0.000
556.339; 8116.850;    0.000;    0.000
556.467; 7882.850;    0.000;    0.000
556.596; 7745.850;    0.000;    0.000
556.724; 7448.850;    0.000;    0.000
556.853; 7641.850;    0.000;    0.000
556.981; 7362.850;    0.000;    0.000
557.110; 7281.850;    0.000;    0.000
557.238; 7222.850;    0.000;    0.000
557.367; 7068.850;    0.000;    0.000
557.495; 7022.850;    0.000;    0.000
557.623; 6897.850;    0.000;    0.000
557.752; 6880.850;    0.000;    0.000
557.880; 6989.850;    0.000;    0.000
558.008; 7684.850;    0.000;    0.000
558.137;10389.850;    0.000;    0.000
558.265;10906.850;    0.000;    0.000
558.393; 8642.850;    0.000;    0.000
558.522; 8026.850;    0.000;    0.000
558.650; 9792.850;    0.000;    0.000
558.778;19220.850;    0.000;    0.000
558.906;26999.850;    0.000;    0.000
559.035;20901.850;    0.000;    0.000
559.163;12977.850;    0.000;    0.000
559.291;13452.850;    0.000;    0.000
559.419;19632.850;    0.000;    0.000
559.548;18371.850;    0.000;    0.000
559.676;12920.850;    0.000;    0.000
559.804;16808.850;    0.000;    0.000
559.932;16610.850;    0.000;    0.000
560.060;13716.850;    0.000;    0.000
560.188;14893.850;    0.000;    0.000
560.316;12888.850;    0.000;    0.000
560.444; 9388.850;    0.000;    0.000
560.572; 7371.850;    0.000;    0.000
560.700; 6924.850;    0.000;    0.000
560.828; 6674.850;    0.000;    0.000
560.956; 6398.850;    0.000;    0.000
561.085; 6180.850;    0.000;    0.000
561.212; 6069.850;    0.000;    0.000
561.340; 6232.850;    0.000;    0.000
561.468; 6081.850;    0.000;    0.000
561.596; 5833.850;    0.000;    0.000
561.724; 5934.850;    0.000;    0.000
561.852; 5818.850;    0.000;    0.000
561.980; 5794.850;    0.000;    0.000
562.108; 5872.850;    0.000;    0.000
562.236; 5750.850;    0.000;    0.000
562.364; 5717.850;    0.000;    0.000
562.492; 5499.850;    0.000;    0.000
562.619; 5659.850;    0.000;    0.000
562.747; 5890.850;    0.000;    0.000
562.875; 5731.850;    0.000;    0.000
563.003; 5746.850;    0.000;    0.000
563.130; 5641.850;    0.000;    0.000
563.258; 5667.850;    0.000;    0.000
563.386; 5689.850;    0.000;    0.000
563.514; 5751.850;    0.000;    0.000
563.641; 5753.850;    0.000;    0.000
563.769; 5762.850;    0.000;    0.000
563.897; 5763.850;    0.000;    0.000
564.024; 5868.850;    0.000;    0.000
564.152; 5857.850;    0.000;    0.000
564.280; 5806.850;    0.000;    0.000
564.407; 6035.850;    0.000;    0.000
564.535; 5873.850;    0.000;    0.000
564.662; 5800.850;    0.000;    0.000
564.790; 5920.850;    0.000;    0.000
564.917; 5877.850;    0.000;    0.000
565.045; 5891.850;    0.000;    0.000
565.173; 5872.850;    0.000;    0.000
565.300; 6088.850;    0.000;    0.000
565.428; 6094.850;    0.000;    0.000
565.555; 6080.850;    0.000;    0.000
565.682; 6111.850;    0.000;    0.000
565.810; 6246.850;    0.000;    0.000
565.937; 6392.850;    0.000;    0.000
566.065; 6443.850;    0.000;    0.000
566.192; 6400.850;    0.000;    0.000
566.320; 6665.850;    0.000;    0.000
566.447; 6805.850;    0.000;    0.000
566.574; 6656.850;    0.000;    0.000
566.702; 6711.850;    0.000;    0.000
566.829; 6790.850;    0.000;    0.000
566.956; 6800.850;    0.000;    0.000
567.083; 6802.850;    0.000;    0.000
567.211; 6848.850;    0.000;    0.000
567.338; 6935.850;    0.000;    0.000
567.465; 7069.850;    0.000;    0.000
567.593; 7000.850;    0.000;    0.000
567.720; 6967.850;    0.000;    0.000
567.847; 6928.850;    0.000;    0.000
567.974; 6875.850;    0.000;    0.000
568.101; 6802.850;    0.000;    0.000
568.228; 6798.850;    0.000;    0.000
568.356; 6655.850;    0.000;    0.000
568.483; 6376.850;    0.000;    0.000
568.610; 6499.850;    0.000;    0.000
568.737; 6343.850;    0.000;    0.000
568.864; 6363.850;    0.000;    0.000
568.991; 6285.850;    0.000;    0.000
569.118; 6042.850;    0.000;    0.000
569.245; 5949.850;    0.000;    0.000
569.372; 6031.850;    0.000;    0.000
569.499; 5853.850;    0.000;    0.000
569.626; 5908.850;    0.000;    0.000
569.753; 5819.850;    0.000;    0.000
569.880; 5854.850;    0.000;    0.000
570.007; 5829.850;    0.000;    0.000
570.134; 5660.850;    0.000;    0.000
570.261; 5692.850;    0.000;    0.000
570.388; 5819.850;    0.000;    0.000
570.515; 5711.850;    0.000;    0.000
570.642; 5650.850;    0.000;    0.000
570.768; 5696.850;    0.000;    0.000
570.895; 5790.850;    0.000;    0.000
571.022; 5681.850;    0.000;    0.000
571.149; 5655.850;    0.000;    0.000
571.276; 5521.850;    0.000;    0.000
571.402; 5606.850;    0.000;    0.000
571.529; 5519.850;    0.000;    0.000
571.656; 5580.850;    0.000;    0.000
571.783; 5549.850;    0.000;    0.000
571.909; 5522.850;    0.000;    0.000
572.036; 5493.850;    0.000;    0.000
572.163; 5545.850;    0.000;    0.000
572.289; 5424.850;    0.000;    0.000
572.416; 5366.850;    0.000;    0.000
572.543; 5495.850;    0.000;    0.000
572.669; 5544.850;    0.000;    0.000
572.796; 5450.850;    0.000;    0.000
572.922; 5412.850;    0.000;    0.000
573.049; 5333.850;    0.000;    0.000
573.176; 5397.850;    0.000;    0.000
573.302; 5360.850;    0.000;    0.000
573.429; 5445.850;    0.000;    0.000
573.555; 5368.850;    0.000;    0.000
573.682; 5342.850;    0.000;    0.000
573.808; 5304.850;    0.000;    0.000
573.935; 5396.850;    0.000;    0.000
574.061; 5312.850;    0.000;    0.000
574.188; 5204.850;    0.000;    0.000
574.314; 5343.850;    0.000;    0.000
574.440; 5258.850;    0.000;    0.000
574.567; 5208.850;    0.000;    0.000
574.693; 5238.850;    0.000;    0.000
574.820; 5270.850;    0.000;    0.000
574.946; 5171.850;    0.000;    0.000
575.072; 5249.850;    0.000;    0.000
575.198; 5128.850;    0.000;    0.000
575.325; 5165.850;    0.000;    0.000
575.451; 5047.850;    0.000;    0.000
575.577; 5215.850;    0.000;    0.000
575.704; 5008.850;    0.000;    0.000
575.830; 5198.850;    0.000;    0.000
575.956; 5084.850;    0.000;    0.000
576.082; 5107.850;    0.000;    0.000
576.208; 4995.850;    0.000;    0.000
576.335; 5110.850;    0.000;    0.000
576.461; 5137.850;    0.000;    0.000
576.587; 5070.850;    0.000;    0.000
576.713; 5035.850;    0.000;    0.000
576.839; 5065.850;    0.000;    0.000
576.965; 4943.850;    0.000;    0.000
577.091; 4916.850;    0.000;    0.000
577.217; 5001.850;    0.000;    0.000
577.343; 4995.850;    0.000;    0.000
577.469; 4934.850;    0.000;    0.000
577.596; 5047.850;    0.000;    0.000
577.722; 4964.850;    0.000;    0.000
577.848; 4888.850;    0.000;    0.000
577.974; 4977.850;    0.000;    0.000
578.099; 4953.850;    0.000;    0.000
578.225; 4997.850;    0.000;    0.000
578.351; 4904.850;    0.000;    0.000
578.477; 4870.850;    0.000;    0.000
578.603; 5010.850;    0.000;    0.000
578.729; 4968.850;    0.000;    0.000
578.855; 4876.850;    0.000;    0.000
578.981; 4894.850;    0.000;    0.000
579.107; 4941.850;    0.000;    0.000
579.232; 4837.850;    0.000;    0.000
579.358; 4930.850;    0.000;    0.000
579.484; 4994.850;    0.000;    0.000
579.610; 4923.850;    0.000;    0.000
579.735; 4950.850;    0.000;    0.000
579.861; 4888.850;    0.000;    0.000
579.987; 5023.850;    0.000;    0.000
580.113; 4971.850;    0.000;    0.000
580.238; 4889.850;    0.000;    0.000
580.364; 5005.850;    0.000;    0.000
580.490; 4928.850;    0.000;    0.000
580.615; 5041.850;    0.000;    0.000
580.741; 4885.850;    0.000;    0.000
580.867; 4946.850;    0.000;    0.000
580.992; 5078.850;    0.000;    0.000
581.118; 5042.850;    0.000;    0.000
581.243; 5072.850;    0.000;    0.000
581.369; 4924.850;    0.000;    0.000
581.494; 4923.850;    0.000;    0.000
581.620; 4981.850;    0.000;    0.000
581.745; 5035.850;    0.000;    0.000
581.871; 5026.850;    0.000;    0.000
581.996; 5034.850;    0.000;    0.000
582.122; 5003.850;    0.000;    0.000
582.247; 4988.850;    0.000;    0.000
582.373; 4989.850;    0.000;    0.000
582.498; 5035.850;    0.000;    0.000
582.624; 4977.850;    0.000;    0.000
582.749; 5159.850;    0.000;    0.000
582.874; 5062.850;    0.000;    0.000
583.000; 5050.850;    0.000;    0.000
583.125; 5141.850;    0.000;    0.000
583.250; 5264.850;    0.000;    0.000
583.376; 5067.850;    0.000;    0.000
583.501; 5095.850;    0.000;    0.000
583.626; 5129.850;    0.000;    0.000
583.751; 5176.850;    0.000;    0.000
583.877; 5128.850;    0.000;    0.000
584.002; 5081.850;    0.000;    0.000
584.127; 5161.850;    0.000;    0.000
584.252; 5226.850;    0.000;    0.000
584.377; 5226.850;    0.000;    0.000
584.503; 5204.850;    0.000;    0.000
584.628; 5130.850;    0.000;    0.000
584.753; 5244.850;    0.000;    0.000
584.878; 5331.850;    0.000;    0.000
585.003; 5485.850;    0.000;    0.000
585.128; 5720.850;    0.000;    0.000
585.253; 5883.850;    0.000;    0.000
585.378; 5978.850;    0.000;    0.000
585.503; 6605.850;    0.000;    0.000
585.628;11214.850;    0.000;    0.000
585.753;15976.850;    0.000;    0.000
585.878;13977.850;    0.000;    0.000
586.003; 8905.850;    0.000;    0.000
586.128; 7414.850;    0.000;    0.000
586.253; 6809.850;    0.000;    0.000
586.378; 6398.850;    0.000;    0.000
586.503; 6244.850;    0.000;    0.000
586.628; 5956.850;    0.000;    0.000
586.753; 6095.850;    0.000;    0.000
586.878; 6074.850;    0.000;    0.000
587.003; 5877.850;    0.000;    0.000
587.127; 5840.850;    0.000;    0.000
587.252; 5822.850;    0.000;    0.000
587.377; 5811.850;    0.000;    0.000
587.502; 5833.850;    0.000;    0.000
587.627; 5996.850;    0.000;    0.000
587.751; 5820.850;    0.000;    0.000
587.876; 5919.850;    0.000;    0.000
588.001; 5951.850;    0.000;    0.000
588.125; 6092.850;    0.000;    0.000
588.250; 6054.850;    0.000;    0.000
588.375; 6370.850;    0.000;    0.000
588.499; 6625.850;    0.000;    0.000
588.624; 7415.850;    0.000;    0.000
588.749; 9484.850;    0.000;    0.000
588.873;20957.850;    0.000;    0.000
588.998;31171.850;    0.000;    0.000
589.122;23992.850;    0.000;    0.000
589.247;11861.850;    0.000;    0.000
589.372;10778.850;    0.000;    0.000
589.496;19894.850;    0.000;    0.000
589.621;24589.850;    0.000;    0.000
589.745;16230.850;    0.000;    0.000
589.870; 8872.850;    0.000;    0.000
589.994; 7503.850;    0.000;    0.000
590.118; 7057.850;    0.000;    0.000
590.243; 6742.850;    0.000;    0.000
590.367; 6553.850;    0.000;    0.000
590.492; 6472.850;    0.000;    0.000
590.616; 6281.850;    0.000;    0.000
590.740; 6348.850;    0.000;    0.000
590.865; 6315.850;    0.000;    0.000
590.989; 6162.850;    0.000;    0.000
591.114; 6338.850;    0.000;    0.000
591.238; 6102.850;    0.000;    0.000
591.362; 6222.850;    0.000;    0.000
591.486; 6405.850;    0.000;    0.000
591.611; 6271.850;    0.000;    0.000
591.735; 6299.850;    0.000;    0.000
591.859; 6291.850;    0.000;    0.000
591.983; 6543.850;    0.000;    0.000
592.107; 6482.850;    0.000;    0.000
592.232; 6541.850;    0.000;    0.000
592.356; 6763.850;    0.000;    0.000
592.480; 6703.850;    0.000;    0.000
592.604; 6697.850;    0.000;    0.000
592.728; 6765.850;    0.000;    0.000
592.852; 6780.850;    0.000;    0.000
592.976; 6909.850;    0.000;    0.000
593.100; 6841.850;    0.000;    0.000
593.224; 6962.850;    0.000;    0.000
593.349; 7140.850;    0.000;    0.000
593.473; 7170.850;    0.000;    0.000
593.597; 7148.850;    0.000;    0.000
593.721; 7280.850;    0.000;    0.000
593.844; 7097.850;    0.000;    0.000
593.968; 7262.850;    0.000;    0.000
594.092; 7183.850;    0.000;    0.000
594.216; 7460.850;    0.000;    0.000
594.340; 7202.850;    0.000;    0.000
594.464; 7242.850;    0.000;    0.000
594.588; 7121.850;    0.000;    0.000
594.712; 7351.850;    0.000;    0.000
594.836; 7290.850;    0.000;    0.000
594.959; 7341.850;    0.000;    0.000
595.083; 7287.850;    0.000;    0.000
595.207; 7562.850;    0.000;    0.000
595.331; 7479.850;    0.000;    0.000
595.455; 7573.850;    0.000;    0.000
595.578; 7636.850;    0.000;    0.000
595.702; 7623.850;    0.000;    0.000
595.826; 7651.850;    0.000;    0.000
595.949; 7825.850;    0.000;    0.000
596.073; 7862.850;    0.000;    0.000
596.197; 7936.850;    0.000;    0.000
596.320; 8045.850;    0.000;    0.000
596.444; 8283.850;    0.000;    0.000
596.568; 8208.850;    0.000;    0.000
596.691; 8417.850;    0.000;    0.000
596.815; 8432.850;    0.000;    0.000
596.938; 8478.850;    0.000;    0.000
597.062; 8547.850;    0.000;    0.000
597.186; 8522.850;    0.000;    0.000
597.309; 8494.850;    0.000;    0.000
597.433; 8582.850;    0.000;    0.000
597.556; 8459.850;    0.000;    0.000
597.680; 8643.850;    0.000;    0.000
597.803; 8483.850;    0.000;    0.000
597.926; 8471.850;    0.000;    0.000
598.050; 8261.850;    0.000;    0.000
598.173; 8513.850;    0.000;    0.000
598.297; 8925.850;    0.000;    0.000
598.420; 9215.850;    0.000;    0.000
598.543; 9217.850;    0.000;    0.000
598.667; 8866.850;    0.000;    0.000
598.790; 8834.850;    0.000;    0.000
598.913; 8808.850;    0.000;    0.000
599.037; 8883.850;    0.000;    0.000
599.160; 8906.850;    0.000;    0.000
599.283; 9031.850;    0.000;    0.000
599.406; 8939.850;    0.000;    0.000
599.530; 8828.850;    0.000;    0.000
599.653; 8549.850;    0.000;    0.000
599.776; 8465.850;    0.000;    0.000
599.899; 8545.850;    0.000;    0.000
600.022; 8523.850;    0.000;    0.000
600.145; 8578.850;    0.000;    0.000
600.269; 9046.850;    0.000;    0.000
600.392; 9458.850;    0.000;    0.000
600.515; 9534.850;    0.000;    0.000
600.638; 9107.850;    0.000;    0.000
600.761; 8525.850;    0.000;    0.000
600.884; 8193.850;    0.000;    0.000
601.007; 8137.850;    0.000;    0.000
601.130; 8025.850;    0.000;    0.000
601.253; 7887.850;    0.000;    0.000
601.376; 8016.850;    0.000;    0.000
601.499; 7910.850;    0.000;    0.000
601.622; 8042.850;    0.000;    0.000
601.745; 8034.850;    0.000;    0.000
601.868; 8123.850;    0.000;    0.000
601.991; 8276.850;    0.000;    0.000
602.113; 8171.850;    0.000;    0.000
602.236; 8221.850;    0.000;    0.000
602.359; 8389.850;    0.000;    0.000
602.482; 8485.850;    0.000;    0.000
602.605; 8518.850;    0.000;    0.000
602.728; 8449.850;    0.000;    0.000
602.850; 8496.850;    0.000;    0.000
602.973; 8860.850;    0.000;    0.000
603.096; 8810.850;    0.000;    0.000
603.219; 8799.850;    0.000;    0.000
603.341; 8926.850;    0.000;    0.000
603.464; 8772.850;    0.000;    0.000
603.587; 8840.850;    0.000;    0.000
603.709; 8717.850;    0.000;    0.000
603.832; 8795.850;    0.000;    0.000
603.955; 8933.850;    0.000;    0.000
604.077; 8962.850;    0.000;    0.000
604.200; 9124.850;    0.000;    0.000
604.323; 9210.850;    0.000;    0.000
604.445; 9553.850;    0.000;    0.000
604.568; 9342.850;    0.000;    0.000
604.690; 9577.850;    0.000;    0.000
604.813; 9618.850;    0.000;    0.000
604.935; 9657.850;    0.000;    0.000
605.058; 9902.850;    0.000;    0.000
605.180; 9921.850;    0.000;    0.000
605.303; 9956.850;    0.000;    0.000
605.425;10039.850;    0.000;    0.000
605.547;10122.850;    0.000;    0.000
605.670;10501.850;    0.000;    0.000
605.792;10632.850;    0.000;    0.000
605.915;10632.850;    0.000;    0.000
606.037;10457.850;    0.000;    0.000
606.159;10589.850;    0.000;    0.000
606.282;10400.850;    0.000;    0.000
606.404;10284.850;    0.000;    0.000
606.526;10520.850;    0.000;    0.000
606.648;10702.850;    0.000;    0.000
606.771;10608.850;    0.000;    0.000
606.893;10104.850;    0.000;    0.000
607.015; 9572.850;    0.000;    0.000
607.137; 9600.850;    0.000;    0.000
607.260; 9765.850;    0.000;    0.000
607.382; 9936.850;    0.000;    0.000
607.504; 9820.850;    0.000;    0.000
607.626; 9800.850;    0.000;    0.000
607.748; 9572.850;    0.000;    0.000
607.870; 9476.850;    0.000;    0.000
607.992; 9526.850;    0.000;    0.000
608.114; 9634.850;    0.000;    0.000
608.237; 9908.850;    0.000;    0.000
608.359; 9858.850;    0.000;    0.000
608.481; 9720.850;    0.000;    0.000
608.603; 9785.850;    0.000;    0.000
608.725;10043.850;    0.000;    0.000
608.847;10430.850;    0.000;    0.000
608.969;10423.850;    0.000;    0.000
609.090;10186.850;    0.000;    0.000
609.212;10066.850;    0.000;    0.000
609.334; 9853.850;    0.000;    0.000
609.456;10011.850;    0.000;    0.000
609.578;10867.850;    0.000;    0.000
609.700;11329.850;    0.000;    0.000
609.822;11131.850;    0.000;    0.000
609.944;10494.850;    0.000;    0.000
610.065;10807.850;    0.000;    0.000
610.187;15547.850;    0.000;    0.000
610.309;18222.850;    0.000;    0.000
610.431;14875.850;    0.000;    0.000
610.552;11515.850;    0.000;    0.000
610.674;11017.850;    0.000;    0.000
610.796;10957.850;    0.000;    0.000
610.918;11163.850;    0.000;    0.000
611.039;11219.850;    0.000;    0.000
611.161;11069.850;    0.000;    0.000
611.282;11230.850;    0.000;    0.000
611.404;11558.850;    0.000;    0.000
611.526;11693.850;    0.000;    0.000
611.647;11733.850;    0.000;    0.000
611.769;12002.850;    0.000;    0.000
611.890;12255.850;    0.000;    0.000
612.012;14073.850;    0.000;    0.000
612.133;22714.850;    0.000;    0.000
612.255;27874.850;    0.000;    0.000
612.377;22343.850;    0.000;    0.000
612.498;15835.850;    0.000;    0.000
612.619;14402.850;    0.000;    0.000
612.741;13753.850;    0.000;    0.000
612.862;13199.850;    0.000;    0.000
612.984;12663.850;    0.000;    0.000
613.105;12355.850;    0.000;    0.000
613.226;11943.850;    0.000;    0.000
613.348;12068.850;    0.000;    0.000
613.469;11945.850;    0.000;    0.000
613.590;11763.850;    0.000;    0.000
613.712;11881.850;    0.000;    0.000
613.833;12031.850;    0.000;    0.000
613.954;12218.850;    0.000;    0.000
614.076;12214.850;    0.000;    0.000
614.197;12083.850;    0.000;    0.000
614.318;12168.850;    0.000;    0.000
614.439;11987.850;    0.000;    0.000
614.560;12249.850;    0.000;    0.000
614.682;12183.850;    0.000;    0.000
614.803;12099.850;    0.000;    0.000
614.924;11926.850;    0.000;    0.000
615.045;11913.850;    0.000;    0.000
615.166;12298.850;    0.000;    0.000
615.287;12387.850;    0.000;    0.000
615.408;12345.850;    0.000;    0.000
615.529;12539.850;    0.000;    0.000
615.650;12782.850;    0.000;    0.000
615.771;13113.850;    0.000;    0.000
615.892;13863.850;    0.000;    0.000
616.013;16636.850;    0.000;    0.000
616.134;28045.850;    0.000;    0.000
616.255;34463.852;    0.000;    0.000
616.376;26950.850;    0.000;    0.000
616.497;18965.850;    0.000;    0.000
616.618;17222.850;    0.000;    0.000
616.739;17212.850;    0.000;    0.000
616.860;19151.850;    0.000;    0.000
616.981;20169.850;    0.000;    0.000
617.102;17782.850;    0.000;    0.000
617.222;15205.850;    0.000;    0.000
617.343;14344.850;    0.000;    0.000
617.464;13763.850;    0.000;    0.000
617.585;13320.850;    0.000;    0.000
617.705;13241.850;    0.000;    0.000
617.826;13026.850;    0.000;    0.000
617.947;12870.850;    0.000;    0.000
618.068;12783.850;    0.000;    0.000
618.188;12710.850;    0.000;    0.000
618.309;12802.850;    0.000;    0.000
618.430;12551.850;    0.000;    0.000
618.550;12295.850;    0.000;    0.000
618.671;11789.850;    0.000;    0.000
618.791;11643.850;    0.000;    0.000
618.912;11939.850;    0.000;    0.000
619.033;11749.850;    0.000;    0.000
619.153;11803.850;    0.000;    0.000
619.274;11862.850;    0.000;    0.000
619.394;11753.850;    0.000;    0.000
619.515;11757.850;    0.000;    0.000
619.635;11528.850;    0.000;    0.000
619.756;11841.850;    0.000;    0.000
619.876;11717.850;    0.000;    0.000
619.996;11874.850;    0.000;    0.000
620.117;11802.850;    0.000;    0.000
620.237;11706.850;    0.000;    0.000
620.358;11922.850;    0.000;    0.000
620.478;11950.850;    0.000;    0.000
620.598;12177.850;    0.000;    0.000
620.719;12153.850;    0.000;    0.000
620.839;12363.850;    0.000;    0.000
620.959;11991.850;    0.000;    0.000
621.079;12099.850;    0.000;    0.000
621.200;11718.850;    0.000;    0.000
621.320;11852.850;    0.000;    0.000
621.440;11743.850;    0.000;    0.000
621.560;11699.850;    0.000;    0.000
621.681;11711.850;    0.000;    0.000
621.801;11691.850;    0.000;    0.000
621.921;11614.850;    0.000;    0.000
622.041;11715.850;    0.000;    0.000
622.161;11745.850;    0.000;    0.000
622.281;11777.850;    0.000;    0.000
622.401;11835.850;    0.000;    0.000
622.521;11835.850;    0.000;    0.000
622.641;11873.850;    0.000;    0.000
622.761;11832.850;    0.000;    0.000
622.882;11776.850;    0.000;    0.000
623.002;11647.850;    0.000;    0.000
623.121;11755.850;    0.000;    0.000
623.241;11580.850;    0.000;    0.000
623.361;11632.850;    0.000;    0.000
623.481;11334.850;    0.000;    0.000
623.601;11517.850;    0.000;    0.000
623.721;11317.850;    0.000;    0.000
623.841;11098.850;    0.000;    0.000
623.961;10892.850;    0.000;    0.000
624.081;10871.850;    0.000;    0.000
624.201;11162.850;    0.000;    0.000
624.320;11012.850;    0.000;    0.000
624.440;10995.850;    0.000;    0.000
624.560;11158.850;    0.000;    0.000
624.680;11187.850;    0.000;    0.000
624.799;11065.850;    0.000;    0.000
624.919;10856.850;    0.000;    0.000
625.039;10583.850;    0.000;    0.000
625.159;10409.850;    0.000;    0.000
625.278;10487.850;    0.000;    0.000
625.398;10456.850;    0.000;    0.000
625.518;10496.850;    0.000;    0.000
625.637;10585.850;    0.000;    0.000
625.757;10316.850;    0.000;    0.000
625.876;10219.850;    0.000;    0.000
625.996; 9744.850;    0.000;    0.000
626.115; 9670.850;    0.000;    0.000
626.235; 9330.850;    0.000;    0.000
626.354; 8978.850;    0.000;    0.000
626.474; 8679.850;    0.000;    0.000
626.594; 8594.850;    0.000;    0.000
626.713; 8541.850;    0.000;    0.000
626.832; 8431.850;    0.000;    0.000
626.952; 8355.850;    0.000;    0.000
627.071; 8275.850;    0.000;    0.000
627.191; 8107.850;    0.000;    0.000
627.310; 7956.850;    0.000;    0.000
627.429; 8017.850;    0.000;    0.000
627.549; 7677.850;    0.000;    0.000
627.668; 7707.850;    0.000;    0.000
627.787; 7627.850;    0.000;    0.000
627.907; 7528.850;    0.000;    0.000
628.026; 7236.850;    0.000;    0.000
628.145; 7178.850;    0.000;    0.000
628.264; 6957.850;    0.000;    0.000
628.384; 7011.850;    0.000;    0.000
628.503; 6788.850;    0.000;    0.000
628.622; 6566.850;    0.000;    0.000
628.741; 6541.850;    0.000;    0.000
628.860; 6346.850;    0.000;    0.000
628.980; 6397.850;    0.000;    0.000
629.099; 6290.850;    0.000;    0.000
629.218; 6191.850;    0.000;    0.000
629.337; 6036.850;    0.000;    0.000
629.456; 6127.850;    0.000;    0.000
629.575; 5994.850;    0.000;    0.000
629.694; 6001.850;    0.000;    0.000
629.813; 6003.850;    0.000;    0.000
629.932; 5836.850;    0.000;    0.000
630.051; 5737.850;    0.000;    0.000
630.170; 5737.850;    0.000;    0.000
630.289; 5648.850;    0.000;    0.000
630.408; 5545.850;    0.000;    0.000
630.527; 5618.850;    0.000;    0.000
630.646; 5500.850;    0.000;    0.000
630.764; 5686.850;    0.000;    0.000
630.883; 5514.850;    0.000;    0.000
631.002; 5656.850;    0.000;    0.000
631.121; 5625.850;    0.000;    0.000
631.240; 5552.850;    0.000;    0.000
631.359; 5589.850;    0.000;    0.000
631.477; 5641.850;    0.000;    0.000
631.596; 5656.850;    0.000;    0.000
631.715; 5540.850;    0.000;    0.000
631.834; 5590.850;    0.000;    0.000
631.952; 5690.850;    0.000;    0.000
632.071; 5558.850;    0.000;    0.000
632.190; 5398.850;    0.000;    0.000
632.308; 5378.850;    0.000;    0.000
632.427; 5451.850;    0.000;    0.000
632.546; 5341.850;    0.000;    0.000
632.664; 5351.850;    0.000;    0.000
632.783; 5333.850;    0.000;    0.000
632.901; 5327.850;    0.000;    0.000
633.020; 5359.850;    0.000;    0.000
633.138; 5448.850;    0.000;    0.000
633.257; 5427.850;    0.000;    0.000
633.375; 5428.850;    0.000;    0.000
633.494; 5315.850;    0.000;    0.000
633.612; 5455.850;    0.000;    0.000
633.731; 5436.850;    0.000;    0.000
633.849; 5461.850;    0.000;    0.000
633.968; 5538.850;    0.000;    0.000
634.086; 5623.850;    0.000;    0.000
634.204; 5687.850;    0.000;    0.000
634.323; 5670.850;    0.000;    0.000
634.441; 5708.850;    0.000;    0.000
634.559; 5653.850;    0.000;    0.000
634.678; 5577.850;    0.000;    0.000
634.796; 5411.850;    0.000;    0.000
634.914; 5367.850;    0.000;    0.000
635.032; 5430.850;    0.000;    0.000
635.151; 5380.850;    0.000;    0.000
635.269; 5410.850;    0.000;    0.000
635.387; 5477.850;    0.000;    0.000
635.505; 5461.850;    0.000;    0.000
635.623; 5499.850;    0.000;    0.000
635.742; 5498.850;    0.000;    0.000
635.860; 5487.850;    0.000;    0.000
635.978; 5624.850;    0.000;    0.000
636.096; 5696.850;    0.000;    0.000
636.214; 5819.850;    0.000;    0.000
636.332; 5655.850;    0.000;    0.000
636.450; 5685.850;    0.000;    0.000
636.568; 5462.850;    0.000;    0.000
636.686; 5496.850;    0.000;    0.000
636.804; 5449.850;    0.000;    0.000
636.922; 5383.850;    0.000;    0.000
637.040; 5396.850;    0.000;    0.000
637.158; 5449.850;    0.000;    0.000
637.276; 5412.850;    0.000;    0.000
637.394; 5292.850;    0.000;    0.000
637.512; 5313.850;    0.000;    0.000
637.629; 5424.850;    0.000;    0.000
637.747; 5388.850;    0.000;    0.000
637.865; 5266.850;    0.000;    0.000
637.983; 5444.850;    0.000;    0.000
638.101; 5302.850;    0.000;    0.000
638.218; 5394.850;    0.000;    0.000
638.336; 5288.850;    0.000;    0.000
638.454; 5289.850;    0.000;    0.000
638.572; 5288.850;    0.000;    0.000
638.689; 5337.850;    0.000;    0.000
638.807; 5403.850;    0.000;    0.000
638.925; 5372.850;    0.000;    0.000
639.042; 5262.850;    0.000;    0.000
639.160; 5226.850;    0.000;    0.000
639.278; 5248.850;    0.000;    0.000
639.395; 5299.850;    0.000;    0.000
639.513; 5382.850;    0.000;    0.000
639.630; 5183.850;    0.000;    0.000
639.748; 5267.850;    0.000;    0.000
639.865; 5168.850;    0.000;    0.000
639.983; 5235.850;    0.000;    0.000
640.100; 5255.850;    0.000;    0.000
640.218; 5311.850;    0.000;    0.000
640.335; 5279.850;    0.000;    0.000
640.453; 5376.850;    0.000;    0.000
640.570; 5399.850;    0.000;    0.000
640.688; 5385.850;    0.000;    0.000
640.805; 5411.850;    0.000;    0.000
640.922; 5347.850;    0.000;    0.000
641.040; 5360.850;    0.000;    0.000
641.157; 5409.850;    0.000;    0.000
641.274; 5386.850;    0.000;    0.000
641.391; 5385.850;    0.000;    0.000
641.509; 5255.850;    0.000;    0.000
641.626; 5256.850;    0.000;    0.000
641.743; 5378.850;    0.000;    0.000
641.860; 5439.850;    0.000;    0.000
641.978; 5430.850;    0.000;    0.000
642.095; 5303.850;    0.000;    0.000
642.212; 5288.850;    0.000;    0.000
642.329; 5275.850;    0.000;    0.000
642.446; 5437.850;    0.000;    0.000
642.563; 5447.850;    0.000;    0.000
642.681; 5379.850;    0.000;    0.000
642.798; 5300.850;    0.000;    0.000
642.915; 5379.850;    0.000;    0.000
643.032; 5532.850;    0.000;    0.000
643.149; 5659.850;    0.000;    0.000
643.266; 5441.850;    0.000;    0.000
643.383; 5752.850;    0.000;    0.000
643.500; 6163.850;    0.000;    0.000
643.617; 7074.850;    0.000;    0.000
643.734;11009.850;    0.000;    0.000
643.850;20402.850;    0.000;    0.000
643.967;21938.850;    0.000;    0.000
644.084;13825.850;    0.000;    0.000
644.201; 8369.850;    0.000;    0.000
644.318; 7068.850;    0.000;    0.000
644.435; 6471.850;    0.000;    0.000
644.552; 6341.850;    0.000;    0.000
644.668; 6134.850;    0.000;    0.000
644.785; 6980.850;    0.000;    0.000
644.902; 9666.850;    0.000;    0.000
645.019;10413.850;    0.000;    0.000
645.135; 8272.850;    0.000;    0.000
645.252; 6379.850;    0.000;    0.000
645.369; 5982.850;    0.000;    0.000
645.485; 6691.850;    0.000;    0.000
645.602; 6748.850;    0.000;    0.000
645.719; 6396.850;    0.000;    0.000
645.835; 6293.850;    0.000;    0.000
645.952; 6659.850;    0.000;    0.000
646.068; 9371.850;    0.000;    0.000
646.185;16780.850;    0.000;    0.000
646.302;19118.850;    0.000;    0.000
646.418;12966.850;    0.000;    0.000
646.535; 8095.850;    0.000;    0.000
646.651; 6727.850;    0.000;    0.000
646.768; 6324.850;    0.000;    0.000
646.884; 6189.850;    0.000;    0.000
647.000; 6933.850;    0.000;    0.000
647.117; 8655.850;    0.000;    0.000
647.233; 8713.850;    0.000;    0.000
647.350; 6792.850;    0.000;    0.000
647.466; 5756.850;    0.000;    0.000
647.582; 5592.850;    0.000;    0.000
647.699; 5627.850;    0.000;    0.000
647.815; 5454.850;    0.000;    0.000
647.931; 5444.850;    0.000;    0.000
648.047; 5376.850;    0.000;    0.000
648.164; 5480.850;    0.000;    0.000
648.280; 5277.850;    0.000;    0.000
648.396; 5405.850;    0.000;    0.000
648.512; 5384.850;    0.000;    0.000
648.629; 5364.850;    0.000;    0.000
648.745; 5486.850;    0.000;    0.000
648.861; 5430.850;    0.000;    0.000
648.977; 5602.850;    0.000;    0.000
649.093; 5952.850;    0.000;    0.000
649.209; 7998.850;    0.000;    0.000
649.325;12685.850;    0.000;    0.000
649.441;13397.850;    0.000;    0.000
649.557; 8985.850;    0.000;    0.000
649.673; 6580.850;    0.000;    0.000
649.789; 6551.850;    0.000;    0.000
649.905; 7910.850;    0.000;    0.000
650.021; 8244.850;    0.000;    0.000
650.137; 6522.850;    0.000;    0.000
650.253; 5616.850;    0.000;    0.000
650.369; 5369.850;    0.000;    0.000
650.485; 5415.850;    0.000;    0.000
650.601; 5404.850;    0.000;    0.000
650.717; 5293.850;    0.000;    0.000
650.833; 5390.850;    0.000;    0.000
650.948; 5262.850;    0.000;    0.000
651.064; 5423.850;    0.000;    0.000
651.180; 5278.850;    0.000;    0.000
651.296; 5328.850;    0.000;    0.000
651.411; 5365.850;    0.000;    0.000
651.527; 5369.850;    0.000;    0.000
651.643; 5373.850;    0.000;    0.000
651.759; 5339.850;    0.000;    0.000
651.874; 5336.850;    0.000;    0.000
651.990; 5314.850;    0.000;    0.000
652.105; 5440.850;    0.000;    0.000
652.221; 5382.850;    0.000;    0.000
652.337; 5549.850;    0.000;    0.000
652.452; 5480.850;    0.000;    0.000
652.568; 5495.850;    0.000;    0.000
652.683; 5514.850;    0.000;    0.000
652.799; 5609.850;    0.000;    0.000
652.914; 5562.850;    0.000;    0.000
653.030; 5778.850;    0.000;    0.000
653.145; 5827.850;    0.000;    0.000
653.261; 5803.850;    0.000;    0.000
653.376; 5790.850;    0.000;    0.000
653.492; 5901.850;    0.000;    0.000
653.607; 6009.850;    0.000;    0.000
653.722; 6095.850;    0.000;    0.000
653.838; 6201.850;    0.000;    0.000
653.953; 6321.850;    0.000;    0.000
654.068; 6328.850;    0.000;    0.000
654.184; 6418.850;    0.000;    0.000
654.299; 6605.850;    0.000;    0.000
654.414; 6562.850;    0.000;    0.000
654.530; 6788.850;    0.000;    0.000
654.645; 6940.850;    0.000;    0.000
654.760; 7077.850;    0.000;    0.000
654.875; 7120.850;    0.000;    0.000
654.990; 7387.850;    0.000;    0.000
655.106; 7554.850;    0.000;    0.000
655.221; 7580.850;    0.000;    0.000
655.336; 7994.850;    0.000;    0.000
655.451; 8230.850;    0.000;    0.000
655.566; 8259.850;    0.000;    0.000
655.681; 8785.850;    0.000;    0.000
655.796; 9202.850;    0.000;    0.000
655.911; 9411.850;    0.000;    0.000
656.026; 9933.850;    0.000;    0.000
656.141;10113.850;    0.000;    0.000
656.256;10514.850;    0.000;    0.000
656.371;10563.850;    0.000;    0.000
656.486;10671.850;    0.000;    0.000
656.601;10340.850;    0.000;    0.000
656.716;10180.850;    0.000;    0.000
656.831; 9915.850;    0.000;    0.000
656.946; 9741.850;    0.000;    0.000
657.060; 9353.850;    0.000;    0.000
657.175; 9386.850;    0.000;    0.000
657.290; 9368.850;    0.000;    0.000
657.405; 8943.850;    0.000;    0.000
657.520; 8588.850;    0.000;    0.000
657.634; 8284.850;    0.000;    0.000
657.749; 8223.850;    0.000;    0.000
657.864; 8054.850;    0.000;    0.000
657.979; 7811.850;    0.000;    0.000
658.093; 7692.850;    0.000;    0.000
658.208; 7580.850;    0.000;    0.000
658.323; 7403.850;    0.000;    0.000
658.437; 7327.850;    0.000;    0.000
658.552; 7239.850;    0.000;    0.000
658.666; 7096.850;    0.000;    0.000
658.781; 6942.850;    0.000;    0.000
658.895; 6821.850;    0.000;    0.000
659.010; 6785.850;    0.000;    0.000
659.125; 6649.850;    0.000;    0.000
659.239; 6408.850;    0.000;    0.000
659.353; 6383.850;    0.000;    0.000
659.468; 6346.850;    0.000;    0.000
659.582; 6334.850;    0.000;    0.000
659.697; 6242.850;    0.000;    0.000
659.811; 6078.850;    0.000;    0.000
659.926; 6177.850;    0.000;    0.000
660.040; 6025.850;    0.000;    0.000
660.154; 6051.850;    0.000;    0.000
660.269; 5747.850;    0.000;    0.000
660.383; 5833.850;    0.000;    0.000
660.497; 5800.850;    0.000;    0.000
660.612; 5708.850;    0.000;    0.000
660.726; 5789.850;    0.000;    0.000
660.840; 5683.850;    0.000;    0.000
660.954; 5620.850;    0.000;    0.000
661.068; 5360.850;    0.000;    0.000
661.183; 5572.850;    0.000;    0.000
661.297; 5286.850;    0.000;    0.000
661.411; 5457.850;    0.000;    0.000
661.525; 5210.850;    0.000;    0.000
661.639; 5204.850;    0.000;    0.000
661.753; 5122.850;    0.000;    0.000
661.867; 5129.850;    0.000;    0.000
661.981; 5104.850;    0.000;    0.000
662.095; 5037.850;    0.000;    0.000
662.209; 5054.850;    0.000;    0.000
662.323; 5011.850;    0.000;    0.000
662.437; 4824.850;    0.000;    0.000
662.551; 4896.850;    0.000;    0.000
662.665; 4846.850;    0.000;    0.000
662.779; 4781.850;    0.000;    0.000
662.893; 4863.850;    0.000;    0.000
663.007; 4680.850;    0.000;    0.000
663.121; 4816.850;    0.000;    0.000
663.235; 4675.850;    0.000;    0.000
663.349; 4600.850;    0.000;    0.000
663.462; 4563.850;    0.000;    0.000
663.576; 4606.850;    0.000;    0.000
663.690; 4592.850;    0.000;    0.000
663.804; 4449.850;    0.000;    0.000
663.917; 4438.850;    0.000;    0.000
664.031; 4389.850;    0.000;    0.000
664.145; 4481.850;    0.000;    0.000
664.258; 4444.850;    0.000;    0.000
664.372; 4448.850;    0.000;    0.000
664.486; 4327.850;    0.000;    0.000
664.599; 4420.850;    0.000;    0.000
664.713; 4388.850;    0.000;    0.000
664.827; 4304.850;    0.000;    0.000
664.940; 4290.850;    0.000;    0.000
665.054; 4353.850;    0.000;    0.000
665.167; 4266.850;    0.000;    0.000
665.281; 4374.850;    0.000;    0.000
665.394; 4232.850;    0.000;    0.000
665.508; 4285.850;    0.000;    0.000
665.621; 4162.850;    0.000;    0.000
665.735; 4319.850;    0.000;    0.000
665.848; 4119.850;    0.000;    0.000
665.961; 4144.850;    0.000;    0.000
666.075; 4146.850;    0.000;    0.000
666.188; 4175.850;    0.000;    0.000
666.301; 4133.850;    0.000;    0.000
666.415; 4143.850;    0.000;    0.000
666.528; 4086.850;    0.000;    0.000
666.641; 4083.850;    0.000;    0.000
666.755; 4097.850;    0.000;    0.000
666.868; 4006.850;    0.000;    0.000
666.981; 4041.850;    0.000;    0.000
667.094; 3903.850;    0.000;    0.000
667.207; 3947.850;    0.000;    0.000
667.321; 3984.850;    0.000;    0.000
667.434; 3973.850;    0.000;    0.000
667.547; 4038.850;    0.000;    0.000
667.660; 3901.850;    0.000;    0.000
667.773; 3867.850;    0.000;    0.000
667.886; 3842.850;    0.000;    0.000
667.999; 3844.850;    0.000;    0.000
668.112; 3875.850;    0.000;    0.000
668.225; 3860.850;    0.000;    0.000
668.338; 3809.850;    0.000;    0.000
668.451; 3861.850;    0.000;    0.000
668.564; 3878.850;    0.000;    0.000
668.677; 3691.850;    0.000;    0.000
668.790; 3814.850;    0.000;    0.000
668.903; 3822.850;    0.000;    0.000
669.016; 3686.850;    0.000;    0.000
669.129; 3717.850;    0.000;    0.000
669.242; 3721.850;    0.000;    0.000
669.354; 3619.850;    0.000;    0.000
669.467; 3793.850;    0.000;    0.000
669.580; 3633.850;    0.000;    0.000
669.693; 3626.850;    0.000;    0.000
669.806; 3666.850;    0.000;    0.000
669.918; 3549.850;    0.000;    0.000
670.031; 3722.850;    0.000;    0.000
670.144; 3650.850;    0.000;    0.000
670.256; 3661.850;    0.000;    0.000
670.369; 3639.850;    0.000;    0.000
670.482; 3546.850;    0.000;    0.000
670.594; 3623.850;    0.000;    0.000
670.707; 3837.850;    0.000;    0.000
670.820; 3750.850;    0.000;    0.000
670.932; 3721.850;    0.000;    0.000
671.045; 3713.850;    0.000;    0.000
671.157; 3641.850;    0.000;    0.000
671.270; 3676.850;    0.000;    0.000
671.382; 3687.850;    0.000;    0.000
671.495; 3858.850;    0.000;    0.000
671.607; 4412.850;    0.000;    0.000
671.720; 5344.850;    0.000;    0.000
671.832; 5590.850;    0.000;    0.000
671.944; 4863.850;    0.000;    0.000
672.057; 4147.850;    0.000;    0.000
672.169; 3838.850;    0.000;    0.000
672.281; 3796.850;    0.000;    0.000
672.394; 3747.850;    0.000;    0.000
672.506; 3623.850;    0.000;    0.000
672.618; 3523.850;    0.000;    0.000
672.731; 3535.850;    0.000;    0.000
672.843; 3418.850;    0.000;    0.000
672.955; 3571.850;    0.000;    0.000
673.067; 3497.850;    0.000;    0.000
673.180; 3429.850;    0.000;    0.000
673.292; 3495.850;    0.000;    0.000
673.404; 3449.850;    0.000;    0.000
673.516; 3375.850;    0.000;    0.000
673.628; 3368.850;    0.000;    0.000
673.740; 3446.850;    0.000;    0.000
673.852; 3385.850;    0.000;    0.000
673.964; 3432.850;    0.000;    0.000
674.076; 3319.850;    0.000;    0.000
674.188; 3300.850;    0.000;    0.000
674.300; 3391.850;    0.000;    0.000
674.412; 3260.850;    0.000;    0.000
674.524; 3472.850;    0.000;    0.000
674.636; 3359.850;    0.000;    0.000
674.748; 3336.850;    0.000;    0.000
674.860; 3351.850;    0.000;    0.000
674.972; 3254.850;    0.000;    0.000
675.084; 3264.850;    0.000;    0.000
675.196; 3339.850;    0.000;    0.000
675.307; 3382.850;    0.000;    0.000
675.419; 3299.850;    0.000;    0.000
675.531; 3353.850;    0.000;    0.000
675.643; 3248.850;    0.000;    0.000
675.755; 3307.850;    0.000;    0.000
675.866; 3291.850;    0.000;    0.000
675.978; 3273.850;    0.000;    0.000
676.090; 3252.850;    0.000;    0.000
676.201; 3264.850;    0.000;    0.000
676.313; 3273.850;    0.000;    0.000
676.425; 3239.850;    0.000;    0.000
676.536; 3206.850;    0.000;    0.000
676.648; 3262.850;    0.000;    0.000
676.759; 3224.850;    0.000;    0.000
676.871; 3248.850;    0.000;    0.000
676.983; 3287.850;    0.000;    0.000
677.094; 3263.850;    0.000;    0.000
677.206; 3307.850;    0.000;    0.000
677.317; 3212.850;    0.000;    0.000
677.429; 3194.850;    0.000;    0.000
677.540; 3255.850;    0.000;    0.000
677.651; 3155.850;    0.000;    0.000
677.763; 3071.850;    0.000;    0.000
677.874; 3080.850;    0.000;    0.000
677.986; 3189.850;    0.000;    0.000
678.097; 3173.850;    0.000;    0.000
678.208; 3263.850;    0.000;    0.000
678.320; 3105.850;    0.000;    0.000
678.431; 3186.850;    0.000;    0.000
678.542; 3152.850;    0.000;    0.000
678.653; 3088.850;    0.000;    0.000
678.765; 3143.850;    0.000;    0.000
678.876; 3068.850;    0.000;    0.000
678.987; 3105.850;    0.000;    0.000
679.098; 3084.850;    0.000;    0.000
679.209; 3112.850;    0.000;    0.000
679.320; 3053.850;    0.000;    0.000
679.432; 3062.850;    0.000;    0.000
679.543; 3016.850;    0.000;    0.000
679.654; 3176.850;    0.000;    0.000
679.765; 3092.850;    0.000;    0.000
679.876; 3054.850;    0.000;    0.000
679.987; 3075.850;    0.000;    0.000
680.098; 2992.850;    0.000;    0.000
680.209; 3018.850;    0.000;    0.000
680.320; 3072.850;    0.000;    0.000
680.431; 3101.850;    0.000;    0.000
680.542; 2957.850;    0.000;    0.000
680.653; 3104.850;    0.000;    0.000
680.763; 2999.850;    0.000;    0.000
680.874; 3068.850;    0.000;    0.000
680.985; 3008.850;    0.000;    0.000
681.096; 3034.850;    0.000;    0.000
681.207; 3062.850;    0.000;    0.000
681.318; 2955.850;    0.000;    0.000
681.428; 3042.850;    0.000;    0.000
681.539; 3064.850;    0.000;    0.000
681.650; 2999.850;    0.000;    0.000
681.760; 2947.850;    0.000;    0.000
681.871; 3021.850;    0.000;    0.000
681.982; 3003.850;    0.000;    0.000
682.093; 2982.850;    0.000;    0.000
682.203; 3045.850;    0.000;    0.000
682.314; 2977.850;    0.000;    0.000
682.424; 2936.850;    0.000;    0.000
682.535; 2887.850;    0.000;    0.000
682.646; 3075.850;    0.000;    0.000
682.756; 3020.850;    0.000;    0.000
682.867; 3070.850;    0.000;    0.000
682.977; 2940.850;    0.000;    0.000
683.088; 2931.850;    0.000;    0.000
683.198; 2969.850;    0.000;    0.000
683.308; 3030.850;    0.000;    0.000
683.419; 2963.850;    0.000;    0.000
683.529; 3038.850;    0.000;    0.000
683.640; 2993.850;    0.000;    0.000
683.750; 2988.850;    0.000;    0.000
683.860; 3043.850;    0.000;    0.000
683.971; 2937.850;    0.000;    0.000
684.081; 2991.850;    0.000;    0.000
684.191; 2950.850;    0.000;    0.000
684.301; 2922.850;    0.000;    0.000
684.412; 3023.850;    0.000;    0.000
684.522; 2858.850;    0.000;    0.000
684.632; 2947.850;    0.000;    0.000
684.742; 2933.850;    0.000;    0.000
684.852; 2845.850;    0.000;    0.000
684.963; 2965.850;    0.000;    0.000
685.073; 2965.850;    0.000;    0.000
685.183; 3067.850;    0.000;    0.000
685.293; 2894.850;    0.000;    0.000
685.403; 2960.850;    0.000;    0.000
685.513; 3044.850;    0.000;    0.000
685.623; 2928.850;    0.000;    0.000
685.733; 2873.850;    0.000;    0.000
685.843; 2995.850;    0.000;    0.000
685.953; 2992.850;    0.000;    0.000
686.063; 2928.850;    0.000;    0.000
686.173; 2880.850;    0.000;    0.000
686.283; 2906.850;    0.000;    0.000
686.393; 2935.850;    0.000;    0.000
686.503; 2976.850;    0.000;    0.000
686.612; 2930.850;    0.000;    0.000
686.722; 2956.850;    0.000;    0.000
686.832; 2979.850;    0.000;    0.000
686.942; 2919.850;    0.000;    0.000
687.052; 2898.850;    0.000;    0.000
687.161; 2985.850;    0.000;    0.000
687.271; 2900.850;    0.000;    0.000
687.381; 2945.850;    0.000;    0.000
687.491; 2971.850;    0.000;    0.000
687.600; 2853.850;    0.000;    0.000
687.710; 2908.850;    0.000;    0.000
687.820; 2930.850;    0.000;    0.000
687.929; 2868.850;    0.000;    0.000
688.039; 2889.850;    0.000;    0.000
688.148; 2886.850;    0.000;    0.000
688.258; 2956.850;    0.000;    0.000
688.367; 2851.850;    0.000;    0.000
688.477; 2938.850;    0.000;    0.000
688.586; 2932.850;    0.000;    0.000
688.696; 2929.850;    0.000;    0.000
688.805; 2880.850;    0.000;    0.000
688.915; 2927.850;    0.000;    0.000
689.024; 2839.850;    0.000;    0.000
689.134; 2808.850;    0.000;    0.000
689.243; 2788.850;    0.000;    0.000
689.352; 2894.850;    0.000;    0.000
689.462; 2913.850;    0.000;    0.000
689.571; 2797.850;    0.000;    0.000
689.680; 2912.850;    0.000;    0.000
689.790; 2828.850;    0.000;    0.000
689.899; 2929.850;    0.000;    0.000
690.008; 2886.850;    0.000;    0.000
690.117; 2906.850;    0.000;    0.000
690.227; 2898.850;    0.000;    0.000
690.336; 2946.850;    0.000;    0.000
690.445; 2926.850;    0.000;    0.000
690.554; 2855.850;    0.000;    0.000
690.663; 2835.850;    0.000;    0.000
690.772; 2817.850;    0.000;    0.000
690.881; 2939.850;    0.000;    0.000
690.990; 2803.850;    0.000;    0.000
691.099; 2869.850;    0.000;    0.000
691.209; 2921.850;    0.000;    0.000
691.318; 2868.850;    0.000;    0.000
691.427; 2793.850;    0.000;    0.000
691.536; 2883.850;    0.000;    0.000
691.644; 2852.850;    0.000;    0.000
691.753; 2766.850;    0.000;    0.000
691.862; 2886.850;    0.000;    0.000
691.971; 2854.850;    0.000;    0.000
692.080; 2921.850;    0.000;    0.000
692.189; 2742.850;    0.000;    0.000
692.298; 2831.850;    0.000;    0.000
692.406; 2853.850;    0.000;    0.000
692.515; 2797.850;    0.000;    0.000
692.624; 2740.850;    0.000;    0.000
692.733; 2791.850;    0.000;    0.000
692.842; 2867.850;    0.000;    0.000
692.950; 2770.850;    0.000;    0.000
693.059; 2802.850;    0.000;    0.000
693.168; 2876.850;    0.000;    0.000
693.276; 2747.850;    0.000;    0.000
693.385; 2775.850;    0.000;    0.000
693.494; 2819.850;    0.000;    0.000
693.602; 2705.850;    0.000;    0.000
693.711; 2768.850;    0.000;    0.000
693.819; 2815.850;    0.000;    0.000
693.928; 2777.850;    0.000;    0.000
694.036; 2747.850;    0.000;    0.000
694.145; 2840.850;    0.000;    0.000
694.253; 2754.850;    0.000;    0.000
694.362; 2737.850;    0.000;    0.000
694.470; 2832.850;    0.000;    0.000
694.579; 2791.850;    0.000;    0.000
694.687; 2766.850;    0.000;    0.000
694.795; 2791.850;    0.000;    0.000
694.904; 2808.850;    0.000;    0.000
695.012; 2836.850;    0.000;    0.000
695.120; 2773.850;    0.000;    0.000
695.229; 2809.850;    0.000;    0.000
695.337; 2809.850;    0.000;    0.000
695.445; 2762.850;    0.000;    0.000
695.553; 2776.850;    0.000;    0.000
695.662; 2834.850;    0.000;    0.000
695.770; 2822.850;    0.000;    0.000
695.878; 2904.850;    0.000;    0.000
695.986; 2825.850;    0.000;    0.000
696.094; 2760.850;    0.000;    0.000
696.202; 2883.850;    0.000;    0.000
696.310; 2887.850;    0.000;    0.000
696.419; 2836.850;    0.000;    0.000
696.527; 2792.850;    0.000;    0.000
696.635; 2836.850;    0.000;    0.000
696.743; 2889.850;    0.000;    0.000
696.851; 2783.850;    0.000;    0.000
696.959; 2858.850;    0.000;    0.000
697.067; 2744.850;    0.000;    0.000
697.174; 2756.850;    0.000;    0.000
697.282; 2896.850;    0.000;    0.000
697.390; 2909.850;    0.000;    0.000
697.498; 2749.850;    0.000;    0.000
697.606; 2866.850;    0.000;    0.000
697.714; 2974.850;    0.000;    0.000
697.822; 2852.850;    0.000;    0.000
697.929; 2886.850;    0.000;    0.000
698.037; 2840.850;    0.000;    0.000
698.145; 2775.850;    0.000;    0.000
698.253; 2855.850;    0.000;    0.000
698.360; 2904.850;    0.000;    0.000
698.468; 2893.850;    0.000;    0.000
698.576; 2884.850;    0.000;    0.000
698.683; 2909.850;    0.000;    0.000
698.791; 2851.850;    0.000;    0.000
698.899; 2908.850;    0.000;    0.000
699.006; 2864.850;    0.000;    0.000
699.114; 2870.850;    0.000;    0.000
699.221; 2888.850;    0.000;    0.000
699.329; 2949.850;    0.000;    0.000
699.436; 2774.850;    0.000;    0.000
699.544; 2868.850;    0.000;    0.000
699.651; 2849.850;    0.000;    0.000
699.759; 2778.850;    0.000;    0.000
699.866; 2854.850;    0.000;    0.000
699.974; 2845.850;    0.000;    0.000
700.081; 2804.850;    0.000;    0.000
700.188; 2842.850;    0.000;    0.000
700.296; 2827.850;    0.000;    0.000
700.403; 2825.850;    0.000;    0.000
700.510; 2812.850;    0.000;    0.000
700.618; 2878.850;    0.000;    0.000
700.725; 2851.850;    0.000;    0.000
700.832; 2853.850;    0.000;    0.000
700.940; 2812.850;    0.000;    0.000
701.047; 2822.850;    0.000;    0.000
701.154; 2797.850;    0.000;    0.000
701.261; 2727.850;    0.000;    0.000
701.368; 2874.850;    0.000;    0.000
701.475; 2862.850;    0.000;    0.000
701.582; 2879.850;    0.000;    0.000
701.690; 2810.850;    0.000;    0.000
701.797; 2867.850;    0.000;    0.000
701.904; 2863.850;    0.000;    0.000
702.011; 2871.850;    0.000;    0.000
702.118; 2807.850;    0.000;    0.000
702.225; 2865.850;    0.000;    0.000
702.332; 2823.850;    0.000;    0.000
702.439; 2809.850;    0.000;    0.000
702.546; 2867.850;    0.000;    0.000
702.652; 2857.850;    0.000;    0.000
702.759; 2822.850;    0.000;    0.000
702.866; 2873.850;    0.000;    0.000
702.973; 2806.850;    0.000;    0.000
703.080; 2873.850;    0.000;    0.000
703.187; 2790.850;    0.000;    0.000
703.294; 2805.850;    0.000;    0.000
703.400; 2626.850;    0.000;    0.000
703.507;  595.850;    0.000;    0.000
703.614;  316.850;    0.000;    0.000
703.720;  307.850;    0.000;    0.000
703.827;  308.850;    0.000;    0.000
703.934;  307.850;    0.000;    0.000
704.040;  299.850;    0.000;    0.000
704.147;  314.850;    0.000;    0.000
704.254;  343.850;    0.000;    0.000
704.360;  306.850;    0.000;    0.000
704.467;  359.850;    0.000;    0.000
704.573;  353.850;    0.000;    0.000
704.680;  347.850;    0.000;    0.000
704.786;  345.850;    0.000;    0.000
704.893;  301.850;    0.000;    0.000
704.999;  281.850;    0.000;    0.000
705.106;  332.850;    0.000;    0.000

