
Integration time [ms]:   1.000
Averaging Nr. [scans]: 1
Smoothing Nr. [pixels]: 0
Data measured with spectrometer [name]: UV2
Wave   ;Sample   ;Dark     ;Reference
[nm]   ;[counts] ;[counts] ;[counts] 

353.533;  224.950;    0.000;    0.000
353.597;  234.950;    0.000;    0.000
353.660;  207.950;    0.000;    0.000
353.723;  210.950;    0.000;    0.000
353.786;  218.950;    0.000;    0.000
353.850;  228.950;    0.000;    0.000
353.913;  195.950;    0.000;    0.000
353.976;  217.950;    0.000;    0.000
354.039;  187.950;    0.000;    0.000
354.102;  249.950;    0.000;    0.000
354.166;  254.950;    0.000;    0.000
354.229;  193.950;    0.000;    0.000
354.292;  224.950;    0.000;    0.000
354.355;  255.950;    0.000;    0.000
354.418;  240.950;    0.000;    0.000
354.481;  243.950;    0.000;    0.000
354.545;  408.950;    0.000;    0.000
354.608;  408.950;    0.000;    0.000
354.671;  359.950;    0.000;    0.000
354.734;  422.950;    0.000;    0.000
354.797;  355.950;    0.000;    0.000
354.860;  374.950;    0.000;    0.000
354.923;  400.950;    0.000;    0.000
354.986;  417.950;    0.000;    0.000
355.050;  413.950;    0.000;    0.000
355.113;  429.950;    0.000;    0.000
355.176;  407.950;    0.000;    0.000
355.239;  424.950;    0.000;    0.000
355.302;  402.950;    0.000;    0.000
355.365;  400.950;    0.000;    0.000
355.428;  404.950;    0.000;    0.000
355.491;  413.950;    0.000;    0.000
355.554;  404.950;    0.000;    0.000
355.617;  417.950;    0.000;    0.000
355.680;  398.950;    0.000;    0.000
355.743;  394.950;    0.000;    0.000
355.806;  418.950;    0.000;    0.000
355.869;  392.950;    0.000;    0.000
355.932;  400.950;    0.000;    0.000
355.995;  439.950;    0.000;    0.000
356.058;  423.950;    0.000;    0.000
356.121;  421.950;    0.000;    0.000
356.184;  444.950;    0.000;    0.000
356.247;  438.950;    0.000;    0.000
356.310;  401.950;    0.000;    0.000
356.373;  421.950;    0.000;    0.000
356.436;  428.950;    0.000;    0.000
356.498;  430.950;    0.000;    0.000
356.561;  389.950;    0.000;    0.000
356.624;  366.950;    0.000;    0.000
356.687;  444.950;    0.000;    0.000
356.750;  452.950;    0.000;    0.000
356.813;  395.950;    0.000;    0.000
356.876;  408.950;    0.000;    0.000
356.939;  383.950;    0.000;    0.000
357.001;  426.950;    0.000;    0.000
357.064;  400.950;    0.000;    0.000
357.127;  453.950;    0.000;    0.000
357.190;  408.950;    0.000;    0.000
357.253;  417.950;    0.000;    0.000
357.316;  449.950;    0.000;    0.000
357.378;  426.950;    0.000;    0.000
357.441;  448.950;    0.000;    0.000
357.504;  414.950;    0.000;    0.000
357.567;  348.950;    0.000;    0.000
357.629;  426.950;    0.000;    0.000
357.692;  379.950;    0.000;    0.000
357.755;  438.950;    0.000;    0.000
357.818;  345.950;    0.000;    0.000
357.880;  460.950;    0.000;    0.000
357.943;  415.950;    0.000;    0.000
358.006;  445.950;    0.000;    0.000
358.069;  449.950;    0.000;    0.000
358.131;  418.950;    0.000;    0.000
358.194;  398.950;    0.000;    0.000
358.257;  419.950;    0.000;    0.000
358.319;  432.950;    0.000;    0.000
358.382;  446.950;    0.000;    0.000
358.445;  419.950;    0.000;    0.000
358.507;  397.950;    0.000;    0.000
358.570;  433.950;    0.000;    0.000
358.633;  430.950;    0.000;    0.000
358.695;  431.950;    0.000;    0.000
358.758;  437.950;    0.000;    0.000
358.821;  442.950;    0.000;    0.000
358.883;  420.950;    0.000;    0.000
358.946;  429.950;    0.000;    0.000
359.008;  489.950;    0.000;    0.000
359.071;  434.950;    0.000;    0.000
359.134;  401.950;    0.000;    0.000
359.196;  436.950;    0.000;    0.000
359.259;  440.950;    0.000;    0.000
359.321;  438.950;    0.000;    0.000
359.384;  471.950;    0.000;    0.000
359.446;  418.950;    0.000;    0.000
359.509;  426.950;    0.000;    0.000
359.571;  456.950;    0.000;    0.000
359.634;  433.950;    0.000;    0.000
359.696;  417.950;    0.000;    0.000
359.759;  471.950;    0.000;    0.000
359.821;  391.950;    0.000;    0.000
359.884;  422.950;    0.000;    0.000
359.946;  484.950;    0.000;    0.000
360.009;  438.950;    0.000;    0.000
360.071;  481.950;    0.000;    0.000
360.134;  499.950;    0.000;    0.000
360.196;  439.950;    0.000;    0.000
360.259;  492.950;    0.000;    0.000
360.321;  423.950;    0.000;    0.000
360.384;  484.950;    0.000;    0.000
360.446;  429.950;    0.000;    0.000
360.508;  455.950;    0.000;    0.000
360.571;  502.950;    0.000;    0.000
360.633;  497.950;    0.000;    0.000
360.696;  424.950;    0.000;    0.000
360.758;  456.950;    0.000;    0.000
360.820;  457.950;    0.000;    0.000
360.883;  435.950;    0.000;    0.000
360.945;  492.950;    0.000;    0.000
361.007;  492.950;    0.000;    0.000
361.070;  436.950;    0.000;    0.000
361.132;  480.950;    0.000;    0.000
361.194;  445.950;    0.000;    0.000
361.257;  480.950;    0.000;    0.000
361.319;  480.950;    0.000;    0.000
361.381;  486.950;    0.000;    0.000
361.443;  460.950;    0.000;    0.000
361.506;  488.950;    0.000;    0.000
361.568;  486.950;    0.000;    0.000
361.630;  470.950;    0.000;    0.000
361.693;  491.950;    0.000;    0.000
361.755;  452.950;    0.000;    0.000
361.817;  506.950;    0.000;    0.000
361.879;  491.950;    0.000;    0.000
361.941;  493.950;    0.000;    0.000
362.004;  455.950;    0.000;    0.000
362.066;  480.950;    0.000;    0.000
362.128;  497.950;    0.000;    0.000
362.190;  491.950;    0.000;    0.000
362.252;  492.950;    0.000;    0.000
362.315;  491.950;    0.000;    0.000
362.377;  494.950;    0.000;    0.000
362.439;  484.950;    0.000;    0.000
362.501;  463.950;    0.000;    0.000
362.563;  526.950;    0.000;    0.000
362.625;  523.950;    0.000;    0.000
362.688;  471.950;    0.000;    0.000
362.750;  528.950;    0.000;    0.000
362.812;  515.950;    0.000;    0.000
362.874;  483.950;    0.000;    0.000
362.936;  591.950;    0.000;    0.000
362.998;  541.950;    0.000;    0.000
363.060;  560.950;    0.000;    0.000
363.122;  537.950;    0.000;    0.000
363.184;  511.950;    0.000;    0.000
363.246;  507.950;    0.000;    0.000
363.308;  538.950;    0.000;    0.000
363.370;  526.950;    0.000;    0.000
363.432;  488.950;    0.000;    0.000
363.494;  499.950;    0.000;    0.000
363.556;  535.950;    0.000;    0.000
363.618;  535.950;    0.000;    0.000
363.680;  529.950;    0.000;    0.000
363.742;  514.950;    0.000;    0.000
363.804;  523.950;    0.000;    0.000
363.866;  559.950;    0.000;    0.000
363.928;  539.950;    0.000;    0.000
363.990;  528.950;    0.000;    0.000
364.052;  515.950;    0.000;    0.000
364.114;  517.950;    0.000;    0.000
364.176;  575.950;    0.000;    0.000
364.238;  567.950;    0.000;    0.000
364.300;  604.950;    0.000;    0.000
364.362;  593.950;    0.000;    0.000
364.424;  548.950;    0.000;    0.000
364.486;  557.950;    0.000;    0.000
364.548;  517.950;    0.000;    0.000
364.609;  552.950;    0.000;    0.000
364.671;  528.950;    0.000;    0.000
364.733;  526.950;    0.000;    0.000
364.795;  540.950;    0.000;    0.000
364.857;  538.950;    0.000;    0.000
364.919;  510.950;    0.000;    0.000
364.981;  572.950;    0.000;    0.000
365.042;  553.950;    0.000;    0.000
365.104;  530.950;    0.000;    0.000
365.166;  527.950;    0.000;    0.000
365.228;  581.950;    0.000;    0.000
365.290;  522.950;    0.000;    0.000
365.351;  560.950;    0.000;    0.000
365.413;  527.950;    0.000;    0.000
365.475;  549.950;    0.000;    0.000
365.537;  532.950;    0.000;    0.000
365.598;  547.950;    0.000;    0.000
365.660;  506.950;    0.000;    0.000
365.722;  577.950;    0.000;    0.000
365.784;  544.950;    0.000;    0.000
365.845;  514.950;    0.000;    0.000
365.907;  503.950;    0.000;    0.000
365.969;  579.950;    0.000;    0.000
366.030;  566.950;    0.000;    0.000
366.092;  532.950;    0.000;    0.000
366.154;  555.950;    0.000;    0.000
366.215;  549.950;    0.000;    0.000
366.277;  551.950;    0.000;    0.000
366.339;  575.950;    0.000;    0.000
366.400;  556.950;    0.000;    0.000
366.462;  555.950;    0.000;    0.000
366.524;  608.950;    0.000;    0.000
366.585;  579.950;    0.000;    0.000
366.647;  595.950;    0.000;    0.000
366.708;  524.950;    0.000;    0.000
366.770;  641.950;    0.000;    0.000
366.832;  604.950;    0.000;    0.000
366.893;  587.950;    0.000;    0.000
366.955;  567.950;    0.000;    0.000
367.016;  612.950;    0.000;    0.000
367.078;  594.950;    0.000;    0.000
367.139;  560.950;    0.000;    0.000
367.201;  579.950;    0.000;    0.000
367.262;  589.950;    0.000;    0.000
367.324;  636.950;    0.000;    0.000
367.385;  543.950;    0.000;    0.000
367.447;  620.950;    0.000;    0.000
367.508;  607.950;    0.000;    0.000
367.570;  616.950;    0.000;    0.000
367.631;  628.950;    0.000;    0.000
367.693;  627.950;    0.000;    0.000
367.754;  630.950;    0.000;    0.000
367.816;  651.950;    0.000;    0.000
367.877;  608.950;    0.000;    0.000
367.939;  608.950;    0.000;    0.000
368.000;  559.950;    0.000;    0.000
368.062;  611.950;    0.000;    0.000
368.123;  637.950;    0.000;    0.000
368.184;  568.950;    0.000;    0.000
368.246;  608.950;    0.000;    0.000
368.307;  669.950;    0.000;    0.000
368.369;  623.950;    0.000;    0.000
368.430;  582.950;    0.000;    0.000
368.491;  632.950;    0.000;    0.000
368.553;  620.950;    0.000;    0.000
368.614;  620.950;    0.000;    0.000
368.675;  607.950;    0.000;    0.000
368.737;  591.950;    0.000;    0.000
368.798;  662.950;    0.000;    0.000
368.859;  672.950;    0.000;    0.000
368.921;  636.950;    0.000;    0.000
368.982;  679.950;    0.000;    0.000
369.043;  659.950;    0.000;    0.000
369.104;  621.950;    0.000;    0.000
369.166;  704.950;    0.000;    0.000
369.227;  704.950;    0.000;    0.000
369.288;  685.950;    0.000;    0.000
369.349;  687.950;    0.000;    0.000
369.411;  700.950;    0.000;    0.000
369.472;  726.950;    0.000;    0.000
369.533;  704.950;    0.000;    0.000
369.594;  684.950;    0.000;    0.000
369.656;  699.950;    0.000;    0.000
369.717;  692.950;    0.000;    0.000
369.778;  753.950;    0.000;    0.000
369.839;  666.950;    0.000;    0.000
369.900;  732.950;    0.000;    0.000
369.961;  745.950;    0.000;    0.000
370.023;  780.950;    0.000;    0.000
370.084;  760.950;    0.000;    0.000
370.145;  749.950;    0.000;    0.000
370.206;  836.950;    0.000;    0.000
370.267;  832.950;    0.000;    0.000
370.328;  878.950;    0.000;    0.000
370.389;  920.950;    0.000;    0.000
370.451;  982.950;    0.000;    0.000
370.512; 1152.950;    0.000;    0.000
370.573; 1572.950;    0.000;    0.000
370.634; 1767.950;    0.000;    0.000
370.695; 1608.950;    0.000;    0.000
370.756; 1431.950;    0.000;    0.000
370.817; 1280.950;    0.000;    0.000
370.878; 1200.950;    0.000;    0.000
370.939; 1171.950;    0.000;    0.000
371.000; 1054.950;    0.000;    0.000
371.061; 1047.950;    0.000;    0.000
371.122; 1006.950;    0.000;    0.000
371.183;  950.950;    0.000;    0.000
371.244;  863.950;    0.000;    0.000
371.305;  871.950;    0.000;    0.000
371.366;  877.950;    0.000;    0.000
371.427;  871.950;    0.000;    0.000
371.488;  883.950;    0.000;    0.000
371.549;  831.950;    0.000;    0.000
371.610;  855.950;    0.000;    0.000
371.671;  816.950;    0.000;    0.000
371.732;  847.950;    0.000;    0.000
371.793;  889.950;    0.000;    0.000
371.853;  797.950;    0.000;    0.000
371.914;  791.950;    0.000;    0.000
371.975;  802.950;    0.000;    0.000
372.036;  855.950;    0.000;    0.000
372.097;  860.950;    0.000;    0.000
372.158;  824.950;    0.000;    0.000
372.219;  839.950;    0.000;    0.000
372.280;  823.950;    0.000;    0.000
372.340;  845.950;    0.000;    0.000
372.401;  844.950;    0.000;    0.000
372.462;  818.950;    0.000;    0.000
372.523;  779.950;    0.000;    0.000
372.584;  807.950;    0.000;    0.000
372.645;  826.950;    0.000;    0.000
372.705;  928.950;    0.000;    0.000
372.766;  871.950;    0.000;    0.000
372.827;  847.950;    0.000;    0.000
372.888;  849.950;    0.000;    0.000
372.948;  859.950;    0.000;    0.000
373.009;  916.950;    0.000;    0.000
373.070;  879.950;    0.000;    0.000
373.131;  881.950;    0.000;    0.000
373.191; 1002.950;    0.000;    0.000
373.252;  975.950;    0.000;    0.000
373.313; 1048.950;    0.000;    0.000
373.373; 1017.950;    0.000;    0.000
373.434; 1212.950;    0.000;    0.000
373.495; 1213.950;    0.000;    0.000
373.555; 1459.950;    0.000;    0.000
373.616; 2036.950;    0.000;    0.000
373.677; 2682.950;    0.000;    0.000
373.737; 2904.950;    0.000;    0.000
373.798; 2466.950;    0.000;    0.000
373.859; 2261.950;    0.000;    0.000
373.919; 1992.950;    0.000;    0.000
373.980; 1799.950;    0.000;    0.000
374.041; 1584.950;    0.000;    0.000
374.101; 1499.950;    0.000;    0.000
374.162; 1446.950;    0.000;    0.000
374.222; 1350.950;    0.000;    0.000
374.283; 1271.950;    0.000;    0.000
374.343; 1264.950;    0.000;    0.000
374.404; 1193.950;    0.000;    0.000
374.465; 1157.950;    0.000;    0.000
374.525; 1133.950;    0.000;    0.000
374.586; 1143.950;    0.000;    0.000
374.646; 1086.950;    0.000;    0.000
374.707; 1072.950;    0.000;    0.000
374.767; 1028.950;    0.000;    0.000
374.828;  950.950;    0.000;    0.000
374.888;  965.950;    0.000;    0.000
374.949;  983.950;    0.000;    0.000
375.009;  940.950;    0.000;    0.000
375.070; 1016.950;    0.000;    0.000
375.130;  981.950;    0.000;    0.000
375.190;  900.950;    0.000;    0.000
375.251;  927.950;    0.000;    0.000
375.311;  918.950;    0.000;    0.000
375.372;  906.950;    0.000;    0.000
375.432;  952.950;    0.000;    0.000
375.493;  898.950;    0.000;    0.000
375.553;  857.950;    0.000;    0.000
375.613;  859.950;    0.000;    0.000
375.674;  905.950;    0.000;    0.000
375.734;  872.950;    0.000;    0.000
375.794;  845.950;    0.000;    0.000
375.855;  826.950;    0.000;    0.000
375.915;  833.950;    0.000;    0.000
375.975;  844.950;    0.000;    0.000
376.036;  794.950;    0.000;    0.000
376.096;  812.950;    0.000;    0.000
376.156;  799.950;    0.000;    0.000
376.217;  858.950;    0.000;    0.000
376.277;  820.950;    0.000;    0.000
376.337;  769.950;    0.000;    0.000
376.398;  782.950;    0.000;    0.000
376.458;  833.950;    0.000;    0.000
376.518;  783.950;    0.000;    0.000
376.578;  780.950;    0.000;    0.000
376.639;  836.950;    0.000;    0.000
376.699;  837.950;    0.000;    0.000
376.759;  840.950;    0.000;    0.000
376.819;  831.950;    0.000;    0.000
376.880;  768.950;    0.000;    0.000
376.940;  800.950;    0.000;    0.000
377.000;  812.950;    0.000;    0.000
377.060;  810.950;    0.000;    0.000
377.120;  837.950;    0.000;    0.000
377.180;  780.950;    0.000;    0.000
377.241;  754.950;    0.000;    0.000
377.301;  858.950;    0.000;    0.000
377.361;  763.950;    0.000;    0.000
377.421;  870.950;    0.000;    0.000
377.481;  748.950;    0.000;    0.000
377.541;  747.950;    0.000;    0.000
377.601;  835.950;    0.000;    0.000
377.661;  781.950;    0.000;    0.000
377.722;  791.950;    0.000;    0.000
377.782;  802.950;    0.000;    0.000
377.842;  761.950;    0.000;    0.000
377.902;  821.950;    0.000;    0.000
377.962;  758.950;    0.000;    0.000
378.022;  765.950;    0.000;    0.000
378.082;  783.950;    0.000;    0.000
378.142;  760.950;    0.000;    0.000
378.202;  770.950;    0.000;    0.000
378.262;  803.950;    0.000;    0.000
378.322;  804.950;    0.000;    0.000
378.382;  781.950;    0.000;    0.000
378.442;  766.950;    0.000;    0.000
378.502;  763.950;    0.000;    0.000
378.562;  767.950;    0.000;    0.000
378.622;  840.950;    0.000;    0.000
378.682;  776.950;    0.000;    0.000
378.742;  707.950;    0.000;    0.000
378.802;  745.950;    0.000;    0.000
378.862;  771.950;    0.000;    0.000
378.921;  766.950;    0.000;    0.000
378.981;  830.950;    0.000;    0.000
379.041;  675.950;    0.000;    0.000
379.101;  774.950;    0.000;    0.000
379.161;  711.950;    0.000;    0.000
379.221;  713.950;    0.000;    0.000
379.281;  711.950;    0.000;    0.000
379.341;  739.950;    0.000;    0.000
379.401;  701.950;    0.000;    0.000
379.460;  769.950;    0.000;    0.000
379.520;  744.950;    0.000;    0.000
379.580;  743.950;    0.000;    0.000
379.640;  755.950;    0.000;    0.000
379.700;  736.950;    0.000;    0.000
379.759;  770.950;    0.000;    0.000
379.819;  716.950;    0.000;    0.000
379.879;  729.950;    0.000;    0.000
379.939;  753.950;    0.000;    0.000
379.999;  736.950;    0.000;    0.000
380.058;  767.950;    0.000;    0.000
380.118;  718.950;    0.000;    0.000
380.178;  756.950;    0.000;    0.000
380.237;  766.950;    0.000;    0.000
380.297;  748.950;    0.000;    0.000
380.357;  719.950;    0.000;    0.000
380.417;  727.950;    0.000;    0.000
380.476;  766.950;    0.000;    0.000
380.536;  741.950;    0.000;    0.000
380.596;  778.950;    0.000;    0.000
380.655;  791.950;    0.000;    0.000
380.715;  791.950;    0.000;    0.000
380.775;  769.950;    0.000;    0.000
380.834;  752.950;    0.000;    0.000
380.894;  725.950;    0.000;    0.000
380.954;  733.950;    0.000;    0.000
381.013;  819.950;    0.000;    0.000
381.073;  698.950;    0.000;    0.000
381.132;  764.950;    0.000;    0.000
381.192;  710.950;    0.000;    0.000
381.252;  784.950;    0.000;    0.000
381.311;  787.950;    0.000;    0.000
381.371;  741.950;    0.000;    0.000
381.430;  752.950;    0.000;    0.000
381.490;  743.950;    0.000;    0.000
381.549;  746.950;    0.000;    0.000
381.609;  801.950;    0.000;    0.000
381.668;  716.950;    0.000;    0.000
381.728;  730.950;    0.000;    0.000
381.787;  753.950;    0.000;    0.000
381.847;  773.950;    0.000;    0.000
381.906;  738.950;    0.000;    0.000
381.966;  790.950;    0.000;    0.000
382.025;  793.950;    0.000;    0.000
382.085;  768.950;    0.000;    0.000
382.144;  800.950;    0.000;    0.000
382.204;  757.950;    0.000;    0.000
382.263;  755.950;    0.000;    0.000
382.323;  752.950;    0.000;    0.000
382.382;  804.950;    0.000;    0.000
382.441;  794.950;    0.000;    0.000
382.501;  810.950;    0.000;    0.000
382.560;  777.950;    0.000;    0.000
382.619;  800.950;    0.000;    0.000
382.679;  812.950;    0.000;    0.000
382.738;  815.950;    0.000;    0.000
382.798;  831.950;    0.000;    0.000
382.857;  816.950;    0.000;    0.000
382.916;  810.950;    0.000;    0.000
382.976;  816.950;    0.000;    0.000
383.035;  791.950;    0.000;    0.000
383.094;  823.950;    0.000;    0.000
383.154;  806.950;    0.000;    0.000
383.213;  767.950;    0.000;    0.000
383.272;  852.950;    0.000;    0.000
383.331;  811.950;    0.000;    0.000
383.391;  865.950;    0.000;    0.000
383.450;  857.950;    0.000;    0.000
383.509;  803.950;    0.000;    0.000
383.568;  856.950;    0.000;    0.000
383.628;  799.950;    0.000;    0.000
383.687;  810.950;    0.000;    0.000
383.746;  858.950;    0.000;    0.000
383.805;  801.950;    0.000;    0.000
383.864;  822.950;    0.000;    0.000
383.924;  909.950;    0.000;    0.000
383.983;  841.950;    0.000;    0.000
384.042;  837.950;    0.000;    0.000
384.101;  832.950;    0.000;    0.000
384.160;  843.950;    0.000;    0.000
384.219;  862.950;    0.000;    0.000
384.279;  868.950;    0.000;    0.000
384.338;  876.950;    0.000;    0.000
384.397;  862.950;    0.000;    0.000
384.456;  905.950;    0.000;    0.000
384.515;  855.950;    0.000;    0.000
384.574;  916.950;    0.000;    0.000
384.633;  898.950;    0.000;    0.000
384.692;  921.950;    0.000;    0.000
384.751;  890.950;    0.000;    0.000
384.810;  911.950;    0.000;    0.000
384.869;  902.950;    0.000;    0.000
384.929;  909.950;    0.000;    0.000
384.988;  874.950;    0.000;    0.000
385.047;  921.950;    0.000;    0.000
385.106;  925.950;    0.000;    0.000
385.165;  915.950;    0.000;    0.000
385.224;  856.950;    0.000;    0.000
385.283;  907.950;    0.000;    0.000
385.342;  912.950;    0.000;    0.000
385.401;  950.950;    0.000;    0.000
385.459;  961.950;    0.000;    0.000
385.518;  904.950;    0.000;    0.000
385.577;  935.950;    0.000;    0.000
385.636;  908.950;    0.000;    0.000
385.695;  931.950;    0.000;    0.000
385.754;  990.950;    0.000;    0.000
385.813;  956.950;    0.000;    0.000
385.872;  993.950;    0.000;    0.000
385.931;  972.950;    0.000;    0.000
385.990; 1029.950;    0.000;    0.000
386.049;  957.950;    0.000;    0.000
386.107;  978.950;    0.000;    0.000
386.166;  988.950;    0.000;    0.000
386.225; 1032.950;    0.000;    0.000
386.284;  966.950;    0.000;    0.000
386.343; 1044.950;    0.000;    0.000
386.402; 1003.950;    0.000;    0.000
386.460;  986.950;    0.000;    0.000
386.519; 1078.950;    0.000;    0.000
386.578;  985.950;    0.000;    0.000
386.637; 1036.950;    0.000;    0.000
386.696; 1077.950;    0.000;    0.000
386.754; 1133.950;    0.000;    0.000
386.813; 1083.950;    0.000;    0.000
386.872; 1114.950;    0.000;    0.000
386.931; 1142.950;    0.000;    0.000
386.989; 1148.950;    0.000;    0.000
387.048; 1122.950;    0.000;    0.000
387.107; 1211.950;    0.000;    0.000
387.165; 1217.950;    0.000;    0.000
387.224; 1209.950;    0.000;    0.000
387.283; 1218.950;    0.000;    0.000
387.342; 1323.950;    0.000;    0.000
387.400; 1213.950;    0.000;    0.000
387.459; 1274.950;    0.000;    0.000
387.517; 1342.950;    0.000;    0.000
387.576; 1247.950;    0.000;    0.000
387.635; 1299.950;    0.000;    0.000
387.693; 1360.950;    0.000;    0.000
387.752; 1339.950;    0.000;    0.000
387.811; 1341.950;    0.000;    0.000
387.869; 1349.950;    0.000;    0.000
387.928; 1417.950;    0.000;    0.000
387.986; 1384.950;    0.000;    0.000
388.045; 1391.950;    0.000;    0.000
388.103; 1400.950;    0.000;    0.000
388.162; 1484.950;    0.000;    0.000
388.221; 1488.950;    0.000;    0.000
388.279; 1476.950;    0.000;    0.000
388.338; 1463.950;    0.000;    0.000
388.396; 1542.950;    0.000;    0.000
388.455; 1546.950;    0.000;    0.000
388.513; 1512.950;    0.000;    0.000
388.572; 1558.950;    0.000;    0.000
388.630; 1541.950;    0.000;    0.000
388.689; 1527.950;    0.000;    0.000
388.747; 1619.950;    0.000;    0.000
388.806; 1662.950;    0.000;    0.000
388.864; 1609.950;    0.000;    0.000
388.922; 1686.950;    0.000;    0.000
388.981; 1673.950;    0.000;    0.000
389.039; 1639.950;    0.000;    0.000
389.098; 1717.950;    0.000;    0.000
389.156; 1738.950;    0.000;    0.000
389.214; 1689.950;    0.000;    0.000
389.273; 1742.950;    0.000;    0.000
389.331; 1745.950;    0.000;    0.000
389.390; 1742.950;    0.000;    0.000
389.448; 1759.950;    0.000;    0.000
389.506; 1804.950;    0.000;    0.000
389.565; 1835.950;    0.000;    0.000
389.623; 1852.950;    0.000;    0.000
389.681; 1829.950;    0.000;    0.000
389.740; 1921.950;    0.000;    0.000
389.798; 1900.950;    0.000;    0.000
389.856; 1887.950;    0.000;    0.000
389.914; 1888.950;    0.000;    0.000
389.973; 1960.950;    0.000;    0.000
390.031; 1942.950;    0.000;    0.000
390.089; 1952.950;    0.000;    0.000
390.147; 1989.950;    0.000;    0.000
390.206; 1990.950;    0.000;    0.000
390.264; 1972.950;    0.000;    0.000
390.322; 2033.950;    0.000;    0.000
390.380; 2008.950;    0.000;    0.000
390.439; 2020.950;    0.000;    0.000
390.497; 2049.950;    0.000;    0.000
390.555; 2028.950;    0.000;    0.000
390.613; 2008.950;    0.000;    0.000
390.671; 2084.950;    0.000;    0.000
390.729; 2030.950;    0.000;    0.000
390.788; 2138.950;    0.000;    0.000
390.846; 2094.950;    0.000;    0.000
390.904; 2144.950;    0.000;    0.000
390.962; 2146.950;    0.000;    0.000
391.020; 2209.950;    0.000;    0.000
391.078; 2191.950;    0.000;    0.000
391.136; 2253.950;    0.000;    0.000
391.194; 2358.950;    0.000;    0.000
391.253; 2439.950;    0.000;    0.000
391.311; 2342.950;    0.000;    0.000
391.369; 2419.950;    0.000;    0.000
391.427; 2458.950;    0.000;    0.000
391.485; 2507.950;    0.000;    0.000
391.543; 2475.950;    0.000;    0.000
391.601; 2495.950;    0.000;    0.000
391.659; 2533.950;    0.000;    0.000
391.717; 2603.950;    0.000;    0.000
391.775; 2599.950;    0.000;    0.000
391.833; 2703.950;    0.000;    0.000
391.891; 2771.950;    0.000;    0.000
391.949; 2950.950;    0.000;    0.000
392.007; 2949.950;    0.000;    0.000
392.065; 3057.950;    0.000;    0.000
392.123; 3229.950;    0.000;    0.000
392.180; 3281.950;    0.000;    0.000
392.238; 3467.950;    0.000;    0.000
392.296; 3492.950;    0.000;    0.000
392.354; 3640.950;    0.000;    0.000
392.412; 3876.950;    0.000;    0.000
392.470; 4172.950;    0.000;    0.000
392.528; 4279.950;    0.000;    0.000
392.586; 4516.950;    0.000;    0.000
392.644; 4850.950;    0.000;    0.000
392.701; 5310.950;    0.000;    0.000
392.759; 5722.950;    0.000;    0.000
392.817; 6247.950;    0.000;    0.000
392.875; 6822.950;    0.000;    0.000
392.933; 7709.950;    0.000;    0.000
392.991; 8667.950;    0.000;    0.000
393.048;10139.950;    0.000;    0.000
393.106;11505.950;    0.000;    0.000
393.164;13531.950;    0.000;    0.000
393.222;15726.950;    0.000;    0.000
393.279;17177.949;    0.000;    0.000
393.337;17325.949;    0.000;    0.000
393.395;16544.949;    0.000;    0.000
393.453;14831.950;    0.000;    0.000
393.510;12473.950;    0.000;    0.000
393.568;10302.950;    0.000;    0.000
393.626; 9006.950;    0.000;    0.000
393.684; 7832.950;    0.000;    0.000
393.741; 6911.950;    0.000;    0.000
393.799; 6268.950;    0.000;    0.000
393.857; 5459.950;    0.000;    0.000
393.914; 5225.950;    0.000;    0.000
393.972; 4814.950;    0.000;    0.000
394.030; 4453.950;    0.000;    0.000
394.087; 4338.950;    0.000;    0.000
394.145; 4071.950;    0.000;    0.000
394.202; 3828.950;    0.000;    0.000
394.260; 3743.950;    0.000;    0.000
394.318; 3718.950;    0.000;    0.000
394.375; 3503.950;    0.000;    0.000
394.433; 3363.950;    0.000;    0.000
394.490; 3290.950;    0.000;    0.000
394.548; 3263.950;    0.000;    0.000
394.605; 3277.950;    0.000;    0.000
394.663; 3237.950;    0.000;    0.000
394.720; 3177.950;    0.000;    0.000
394.778; 3027.950;    0.000;    0.000
394.836; 2985.950;    0.000;    0.000
394.893; 2978.950;    0.000;    0.000
394.951; 2962.950;    0.000;    0.000
395.008; 2906.950;    0.000;    0.000
395.065; 3021.950;    0.000;    0.000
395.123; 2956.950;    0.000;    0.000
395.180; 2969.950;    0.000;    0.000
395.238; 2949.950;    0.000;    0.000
395.295; 2949.950;    0.000;    0.000
395.353; 2976.950;    0.000;    0.000
395.410; 2894.950;    0.000;    0.000
395.468; 3074.950;    0.000;    0.000
395.525; 3022.950;    0.000;    0.000
395.582; 3130.950;    0.000;    0.000
395.640; 3248.950;    0.000;    0.000
395.697; 3267.950;    0.000;    0.000
395.754; 3135.950;    0.000;    0.000
395.812; 3339.950;    0.000;    0.000
395.869; 3529.950;    0.000;    0.000
395.927; 3560.950;    0.000;    0.000
395.984; 3601.950;    0.000;    0.000
396.041; 3609.950;    0.000;    0.000
396.098; 3971.950;    0.000;    0.000
396.156; 4208.950;    0.000;    0.000
396.213; 4454.950;    0.000;    0.000
396.270; 4720.950;    0.000;    0.000
396.328; 5172.950;    0.000;    0.000
396.385; 5793.950;    0.000;    0.000
396.442; 6480.950;    0.000;    0.000
396.499; 7403.950;    0.000;    0.000
396.557; 8590.950;    0.000;    0.000
396.614;10406.950;    0.000;    0.000
396.671;12672.950;    0.000;    0.000
396.728;15556.950;    0.000;    0.000
396.785;17013.949;    0.000;    0.000
396.843;16859.949;    0.000;    0.000
396.900;14717.950;    0.000;    0.000
396.957;11994.950;    0.000;    0.000
397.014; 9358.950;    0.000;    0.000
397.071; 7676.950;    0.000;    0.000
397.128; 6633.950;    0.000;    0.000
397.186; 5812.950;    0.000;    0.000
397.243; 5217.950;    0.000;    0.000
397.300; 4739.950;    0.000;    0.000
397.357; 4456.950;    0.000;    0.000
397.414; 4290.950;    0.000;    0.000
397.471; 3868.950;    0.000;    0.000
397.528; 3620.950;    0.000;    0.000
397.585; 3531.950;    0.000;    0.000
397.642; 3368.950;    0.000;    0.000
397.699; 3287.950;    0.000;    0.000
397.756; 3180.950;    0.000;    0.000
397.814; 3132.950;    0.000;    0.000
397.871; 2901.950;    0.000;    0.000
397.928; 2912.950;    0.000;    0.000
397.985; 2813.950;    0.000;    0.000
398.042; 2804.950;    0.000;    0.000
398.099; 2700.950;    0.000;    0.000
398.156; 2710.950;    0.000;    0.000
398.212; 2648.950;    0.000;    0.000
398.269; 2602.950;    0.000;    0.000
398.326; 2546.950;    0.000;    0.000
398.383; 2504.950;    0.000;    0.000
398.440; 2505.950;    0.000;    0.000
398.497; 2502.950;    0.000;    0.000
398.554; 2365.950;    0.000;    0.000
398.611; 2459.950;    0.000;    0.000
398.668; 2304.950;    0.000;    0.000
398.725; 2296.950;    0.000;    0.000
398.782; 2347.950;    0.000;    0.000
398.839; 2278.950;    0.000;    0.000
398.895; 2283.950;    0.000;    0.000
398.952; 2240.950;    0.000;    0.000
399.009; 2176.950;    0.000;    0.000
399.066; 2263.950;    0.000;    0.000
399.123; 2201.950;    0.000;    0.000
399.180; 2183.950;    0.000;    0.000
399.236; 2106.950;    0.000;    0.000
399.293; 2202.950;    0.000;    0.000
399.350; 2147.950;    0.000;    0.000
399.407; 2188.950;    0.000;    0.000
399.463; 2119.950;    0.000;    0.000
399.520; 2101.950;    0.000;    0.000
399.577; 2091.950;    0.000;    0.000
399.634; 2171.950;    0.000;    0.000
399.690; 2096.950;    0.000;    0.000
399.747; 2039.950;    0.000;    0.000
399.804; 2150.950;    0.000;    0.000
399.861; 2105.950;    0.000;    0.000
399.917; 2109.950;    0.000;    0.000
399.974; 2134.950;    0.000;    0.000
400.031; 1991.950;    0.000;    0.000
400.087; 1997.950;    0.000;    0.000
400.144; 1928.950;    0.000;    0.000
400.201; 1860.950;    0.000;    0.000
400.257; 1961.950;    0.000;    0.000
400.314; 1987.950;    0.000;    0.000
400.370; 1958.950;    0.000;    0.000
400.427; 1936.950;    0.000;    0.000
400.484; 1986.950;    0.000;    0.000
400.540; 1956.950;    0.000;    0.000
400.597; 1835.950;    0.000;    0.000
400.653; 1937.950;    0.000;    0.000
400.710; 1830.950;    0.000;    0.000
400.766; 1893.950;    0.000;    0.000
400.823; 1908.950;    0.000;    0.000
400.879; 1819.950;    0.000;    0.000
400.936; 1798.950;    0.000;    0.000
400.993; 1791.950;    0.000;    0.000
401.049; 1858.950;    0.000;    0.000
401.105; 1846.950;    0.000;    0.000
401.162; 1861.950;    0.000;    0.000
401.218; 1771.950;    0.000;    0.000
401.275; 1757.950;    0.000;    0.000
401.331; 1735.950;    0.000;    0.000
401.388; 1781.950;    0.000;    0.000
401.444; 1784.950;    0.000;    0.000
401.501; 1711.950;    0.000;    0.000
401.557; 1616.950;    0.000;    0.000
401.614; 1617.950;    0.000;    0.000
401.670; 1654.950;    0.000;    0.000
401.726; 1678.950;    0.000;    0.000
401.783; 1693.950;    0.000;    0.000
401.839; 1564.950;    0.000;    0.000
401.895; 1592.950;    0.000;    0.000
401.952; 1629.950;    0.000;    0.000
402.008; 1517.950;    0.000;    0.000
402.064; 1494.950;    0.000;    0.000
402.121; 1574.950;    0.000;    0.000
402.177; 1488.950;    0.000;    0.000
402.233; 1608.950;    0.000;    0.000
402.290; 1510.950;    0.000;    0.000
402.346; 1539.950;    0.000;    0.000
402.402; 1545.950;    0.000;    0.000
402.458; 1478.950;    0.000;    0.000
402.515; 1488.950;    0.000;    0.000
402.571; 1433.950;    0.000;    0.000
402.627; 1425.950;    0.000;    0.000
402.683; 1422.950;    0.000;    0.000
402.740; 1443.950;    0.000;    0.000
402.796; 1390.950;    0.000;    0.000
402.852; 1394.950;    0.000;    0.000
402.908; 1354.950;    0.000;    0.000
402.964; 1409.950;    0.000;    0.000
403.021; 1367.950;    0.000;    0.000
403.077; 1417.950;    0.000;    0.000
403.133; 1357.950;    0.000;    0.000
403.189; 1379.950;    0.000;    0.000
403.245; 1398.950;    0.000;    0.000
403.301; 1405.950;    0.000;    0.000
403.357; 1432.950;    0.000;    0.000
403.414; 1374.950;    0.000;    0.000
403.470; 1421.950;    0.000;    0.000
403.526; 1367.950;    0.000;    0.000
403.582; 1400.950;    0.000;    0.000
403.638; 1366.950;    0.000;    0.000
403.694; 1339.950;    0.000;    0.000
403.750; 1316.950;    0.000;    0.000
403.806; 1303.950;    0.000;    0.000
403.862; 1388.950;    0.000;    0.000
403.918; 1301.950;    0.000;    0.000
403.974; 1357.950;    0.000;    0.000
404.030; 1352.950;    0.000;    0.000
404.086; 1239.950;    0.000;    0.000
404.142; 1378.950;    0.000;    0.000
404.198; 1384.950;    0.000;    0.000
404.254; 1346.950;    0.000;    0.000
404.310; 1276.950;    0.000;    0.000
404.366; 1287.950;    0.000;    0.000
404.422; 1247.950;    0.000;    0.000
404.478; 1340.950;    0.000;    0.000
404.534; 1315.950;    0.000;    0.000
404.590; 1316.950;    0.000;    0.000
404.646; 1275.950;    0.000;    0.000
404.701; 1215.950;    0.000;    0.000
404.757; 1284.950;    0.000;    0.000
404.813; 1197.950;    0.000;    0.000
404.869; 1332.950;    0.000;    0.000
404.925; 1259.950;    0.000;    0.000
404.981; 1303.950;    0.000;    0.000
405.037; 1226.950;    0.000;    0.000
405.092; 1264.950;    0.000;    0.000
405.148; 1226.950;    0.000;    0.000
405.204; 1205.950;    0.000;    0.000
405.260; 1267.950;    0.000;    0.000
405.316; 1165.950;    0.000;    0.000
405.371; 1184.950;    0.000;    0.000
405.427; 1243.950;    0.000;    0.000
405.483; 1262.950;    0.000;    0.000
405.539; 1225.950;    0.000;    0.000
405.594; 1252.950;    0.000;    0.000
405.650; 1226.950;    0.000;    0.000
405.706; 1255.950;    0.000;    0.000
405.761; 1231.950;    0.000;    0.000
405.817; 1208.950;    0.000;    0.000
405.873; 1232.950;    0.000;    0.000
405.928; 1259.950;    0.000;    0.000
405.984; 1207.950;    0.000;    0.000
406.040; 1257.950;    0.000;    0.000
406.095; 1240.950;    0.000;    0.000
406.151; 1280.950;    0.000;    0.000
406.207; 1249.950;    0.000;    0.000
406.262; 1225.950;    0.000;    0.000
406.318; 1224.950;    0.000;    0.000
406.374; 1270.950;    0.000;    0.000
406.429; 1228.950;    0.000;    0.000
406.485; 1316.950;    0.000;    0.000
406.540; 1284.950;    0.000;    0.000
406.596; 1262.950;    0.000;    0.000
406.651; 1299.950;    0.000;    0.000
406.707; 1276.950;    0.000;    0.000
406.763; 1246.950;    0.000;    0.000
406.818; 1224.950;    0.000;    0.000
406.874; 1195.950;    0.000;    0.000
406.929; 1325.950;    0.000;    0.000
406.985; 1244.950;    0.000;    0.000
407.040; 1277.950;    0.000;    0.000
407.095; 1292.950;    0.000;    0.000
407.151; 1319.950;    0.000;    0.000
407.206; 1324.950;    0.000;    0.000
407.262; 1310.950;    0.000;    0.000
407.317; 1316.950;    0.000;    0.000
407.373; 1316.950;    0.000;    0.000
407.428; 1327.950;    0.000;    0.000
407.484; 1306.950;    0.000;    0.000
407.539; 1399.950;    0.000;    0.000
407.594; 1388.950;    0.000;    0.000
407.650; 1438.950;    0.000;    0.000
407.705; 1551.950;    0.000;    0.000
407.760; 1617.950;    0.000;    0.000
407.816; 1541.950;    0.000;    0.000
407.871; 1392.950;    0.000;    0.000
407.926; 1359.950;    0.000;    0.000
407.982; 1279.950;    0.000;    0.000
408.037; 1296.950;    0.000;    0.000
408.092; 1336.950;    0.000;    0.000
408.148; 1264.950;    0.000;    0.000
408.203; 1303.950;    0.000;    0.000
408.258; 1289.950;    0.000;    0.000
408.314; 1278.950;    0.000;    0.000
408.369; 1292.950;    0.000;    0.000
408.424; 1330.950;    0.000;    0.000
408.479; 1297.950;    0.000;    0.000
408.534; 1360.950;    0.000;    0.000
408.590; 1283.950;    0.000;    0.000
408.645; 1218.950;    0.000;    0.000
408.700; 1269.950;    0.000;    0.000
408.755; 1296.950;    0.000;    0.000
408.810; 1244.950;    0.000;    0.000
408.866; 1255.950;    0.000;    0.000
408.921; 1303.950;    0.000;    0.000
408.976; 1226.950;    0.000;    0.000
409.031; 1252.950;    0.000;    0.000
409.086; 1244.950;    0.000;    0.000
409.141; 1273.950;    0.000;    0.000
409.196; 1265.950;    0.000;    0.000
409.252; 1323.950;    0.000;    0.000
409.307; 1204.950;    0.000;    0.000
409.362; 1280.950;    0.000;    0.000
409.417; 1260.950;    0.000;    0.000
409.472; 1274.950;    0.000;    0.000
409.527; 1345.950;    0.000;    0.000
409.582; 1344.950;    0.000;    0.000
409.637; 1284.950;    0.000;    0.000
409.692; 1292.950;    0.000;    0.000
409.747; 1247.950;    0.000;    0.000
409.802; 1286.950;    0.000;    0.000
409.857; 1284.950;    0.000;    0.000
409.912; 1326.950;    0.000;    0.000
409.967; 1284.950;    0.000;    0.000
410.022; 1257.950;    0.000;    0.000
410.077; 1257.950;    0.000;    0.000
410.132; 1280.950;    0.000;    0.000
410.187; 1265.950;    0.000;    0.000
410.242; 1332.950;    0.000;    0.000
410.297; 1260.950;    0.000;    0.000
410.351; 1244.950;    0.000;    0.000
410.406; 1230.950;    0.000;    0.000
410.461; 1320.950;    0.000;    0.000
410.516; 1250.950;    0.000;    0.000
410.571; 1230.950;    0.000;    0.000
410.626; 1280.950;    0.000;    0.000
410.681; 1261.950;    0.000;    0.000
410.736; 1238.950;    0.000;    0.000
410.790; 1279.950;    0.000;    0.000
410.845; 1289.950;    0.000;    0.000
410.900; 1310.950;    0.000;    0.000
410.955; 1268.950;    0.000;    0.000
411.010; 1297.950;    0.000;    0.000
411.064; 1279.950;    0.000;    0.000
411.119; 1250.950;    0.000;    0.000
411.174; 1257.950;    0.000;    0.000
411.229; 1290.950;    0.000;    0.000
411.283; 1300.950;    0.000;    0.000
411.338; 1203.950;    0.000;    0.000
411.393; 1255.950;    0.000;    0.000
411.447; 1214.950;    0.000;    0.000
411.502; 1271.950;    0.000;    0.000
411.557; 1282.950;    0.000;    0.000
411.612; 1321.950;    0.000;    0.000
411.666; 1307.950;    0.000;    0.000
411.721; 1297.950;    0.000;    0.000
411.776; 1319.950;    0.000;    0.000
411.830; 1275.950;    0.000;    0.000
411.885; 1240.950;    0.000;    0.000
411.939; 1351.950;    0.000;    0.000
411.994; 1248.950;    0.000;    0.000
412.049; 1247.950;    0.000;    0.000
412.103; 1267.950;    0.000;    0.000
412.158; 1332.950;    0.000;    0.000
412.212; 1279.950;    0.000;    0.000
412.267; 1270.950;    0.000;    0.000
412.322; 1349.950;    0.000;    0.000
412.376; 1275.950;    0.000;    0.000
412.431; 1270.950;    0.000;    0.000
412.485; 1261.950;    0.000;    0.000
412.540; 1309.950;    0.000;    0.000
412.594; 1282.950;    0.000;    0.000
412.649; 1245.950;    0.000;    0.000
412.703; 1295.950;    0.000;    0.000
412.758; 1302.950;    0.000;    0.000
412.812; 1288.950;    0.000;    0.000
412.866; 1243.950;    0.000;    0.000
412.921; 1232.950;    0.000;    0.000
412.975; 1285.950;    0.000;    0.000
413.030; 1299.950;    0.000;    0.000
413.084; 1254.950;    0.000;    0.000
413.139; 1323.950;    0.000;    0.000
413.193; 1228.950;    0.000;    0.000
413.247; 1352.950;    0.000;    0.000
413.302; 1255.950;    0.000;    0.000
413.356; 1235.950;    0.000;    0.000
413.410; 1251.950;    0.000;    0.000
413.465; 1270.950;    0.000;    0.000
413.519; 1254.950;    0.000;    0.000
413.573; 1243.950;    0.000;    0.000
413.628; 1291.950;    0.000;    0.000
413.682; 1319.950;    0.000;    0.000
413.736; 1281.950;    0.000;    0.000
413.791; 1295.950;    0.000;    0.000
413.845; 1231.950;    0.000;    0.000
413.899; 1193.950;    0.000;    0.000
413.953; 1299.950;    0.000;    0.000
414.008; 1194.950;    0.000;    0.000
414.062; 1247.950;    0.000;    0.000
414.116; 1293.950;    0.000;    0.000
414.170; 1230.950;    0.000;    0.000
414.225; 1151.950;    0.000;    0.000
414.279; 1305.950;    0.000;    0.000
414.333; 1301.950;    0.000;    0.000
414.387; 1268.950;    0.000;    0.000
414.441; 1293.950;    0.000;    0.000
414.496; 1315.950;    0.000;    0.000
414.550; 1252.950;    0.000;    0.000
414.604; 1252.950;    0.000;    0.000
414.658; 1170.950;    0.000;    0.000
414.712; 1250.950;    0.000;    0.000
414.766; 1319.950;    0.000;    0.000
414.820; 1298.950;    0.000;    0.000
414.874; 1314.950;    0.000;    0.000
414.928; 1333.950;    0.000;    0.000
414.982; 1303.950;    0.000;    0.000
415.037; 1283.950;    0.000;    0.000
415.091; 1323.950;    0.000;    0.000
415.145; 1315.950;    0.000;    0.000
415.199; 1282.950;    0.000;    0.000
415.253; 1285.950;    0.000;    0.000
415.307; 1265.950;    0.000;    0.000
415.361; 1315.950;    0.000;    0.000
415.415; 1247.950;    0.000;    0.000
415.469; 1291.950;    0.000;    0.000
415.523; 1328.950;    0.000;    0.000
415.577; 1288.950;    0.000;    0.000
415.631; 1255.950;    0.000;    0.000
415.684; 1317.950;    0.000;    0.000
415.738; 1255.950;    0.000;    0.000
415.792; 1306.950;    0.000;    0.000
415.846; 1270.950;    0.000;    0.000
415.900; 1209.950;    0.000;    0.000
415.954; 1336.950;    0.000;    0.000
416.008; 1287.950;    0.000;    0.000
416.062; 1223.950;    0.000;    0.000
416.116; 1253.950;    0.000;    0.000
416.169; 1294.950;    0.000;    0.000
416.223; 1322.950;    0.000;    0.000
416.277; 1317.950;    0.000;    0.000
416.331; 1335.950;    0.000;    0.000
416.385; 1342.950;    0.000;    0.000
416.439; 1281.950;    0.000;    0.000
416.492; 1309.950;    0.000;    0.000
416.546; 1306.950;    0.000;    0.000
416.600; 1325.950;    0.000;    0.000
416.654; 1337.950;    0.000;    0.000
416.707; 1328.950;    0.000;    0.000
416.761; 1304.950;    0.000;    0.000
416.815; 1299.950;    0.000;    0.000
416.869; 1350.950;    0.000;    0.000
416.922; 1344.950;    0.000;    0.000
416.976; 1286.950;    0.000;    0.000
417.030; 1292.950;    0.000;    0.000
417.083; 1293.950;    0.000;    0.000
417.137; 1337.950;    0.000;    0.000
417.191; 1258.950;    0.000;    0.000
417.244; 1281.950;    0.000;    0.000
417.298; 1202.950;    0.000;    0.000
417.352; 1310.950;    0.000;    0.000
417.405; 1358.950;    0.000;    0.000
417.459; 1375.950;    0.000;    0.000
417.512; 1314.950;    0.000;    0.000
417.566; 1307.950;    0.000;    0.000
417.620; 1343.950;    0.000;    0.000
417.673; 1333.950;    0.000;    0.000
417.727; 1299.950;    0.000;    0.000
417.780; 1287.950;    0.000;    0.000
417.834; 1311.950;    0.000;    0.000
417.887; 1373.950;    0.000;    0.000
417.941; 1322.950;    0.000;    0.000
417.994; 1345.950;    0.000;    0.000
418.048; 1373.950;    0.000;    0.000
418.101; 1359.950;    0.000;    0.000
418.155; 1334.950;    0.000;    0.000
418.208; 1405.950;    0.000;    0.000
418.262; 1370.950;    0.000;    0.000
418.315; 1308.950;    0.000;    0.000
418.369; 1333.950;    0.000;    0.000
418.422; 1267.950;    0.000;    0.000
418.476; 1404.950;    0.000;    0.000
418.529; 1423.950;    0.000;    0.000
418.582; 1364.950;    0.000;    0.000
418.636; 1314.950;    0.000;    0.000
418.689; 1387.950;    0.000;    0.000
418.743; 1338.950;    0.000;    0.000
418.796; 1355.950;    0.000;    0.000
418.849; 1304.950;    0.000;    0.000
418.903; 1355.950;    0.000;    0.000
418.956; 1379.950;    0.000;    0.000
419.009; 1381.950;    0.000;    0.000
419.063; 1277.950;    0.000;    0.000
419.116; 1382.950;    0.000;    0.000
419.169; 1293.950;    0.000;    0.000
419.222; 1339.950;    0.000;    0.000
419.276; 1382.950;    0.000;    0.000
419.329; 1384.950;    0.000;    0.000
419.382; 1335.950;    0.000;    0.000
419.435; 1270.950;    0.000;    0.000
419.489; 1377.950;    0.000;    0.000
419.542; 1343.950;    0.000;    0.000
419.595; 1330.950;    0.000;    0.000
419.648; 1351.950;    0.000;    0.000
419.701; 1333.950;    0.000;    0.000
419.755; 1328.950;    0.000;    0.000
419.808; 1333.950;    0.000;    0.000
419.861; 1331.950;    0.000;    0.000
419.914; 1317.950;    0.000;    0.000
419.967; 1310.950;    0.000;    0.000
420.020; 1332.950;    0.000;    0.000
420.073; 1326.950;    0.000;    0.000
420.127; 1307.950;    0.000;    0.000
420.180; 1322.950;    0.000;    0.000
420.233; 1273.950;    0.000;    0.000
420.286; 1322.950;    0.000;    0.000
420.339; 1303.950;    0.000;    0.000
420.392; 1313.950;    0.000;    0.000
420.445; 1339.950;    0.000;    0.000
420.498; 1322.950;    0.000;    0.000
420.551; 1307.950;    0.000;    0.000
420.604; 1339.950;    0.000;    0.000
420.657; 1350.950;    0.000;    0.000
420.710; 1339.950;    0.000;    0.000
420.763; 1359.950;    0.000;    0.000
420.816; 1349.950;    0.000;    0.000
420.869; 1305.950;    0.000;    0.000
420.922; 1361.950;    0.000;    0.000
420.975; 1401.950;    0.000;    0.000
421.028; 1353.950;    0.000;    0.000
421.081; 1350.950;    0.000;    0.000
421.134; 1328.950;    0.000;    0.000
421.187; 1316.950;    0.000;    0.000
421.239; 1352.950;    0.000;    0.000
421.292; 1354.950;    0.000;    0.000
421.345; 1377.950;    0.000;    0.000
421.398; 1412.950;    0.000;    0.000
421.451; 1478.950;    0.000;    0.000
421.504; 1514.950;    0.000;    0.000
421.557; 1491.950;    0.000;    0.000
421.609; 1394.950;    0.000;    0.000
421.662; 1378.950;    0.000;    0.000
421.715; 1433.950;    0.000;    0.000
421.768; 1315.950;    0.000;    0.000
421.821; 1455.950;    0.000;    0.000
421.873; 1435.950;    0.000;    0.000
421.926; 1511.950;    0.000;    0.000
421.979; 1532.950;    0.000;    0.000
422.032; 1545.950;    0.000;    0.000
422.084; 1565.950;    0.000;    0.000
422.137; 1567.950;    0.000;    0.000
422.190; 1691.950;    0.000;    0.000
422.243; 1788.950;    0.000;    0.000
422.295; 2006.950;    0.000;    0.000
422.348; 2110.950;    0.000;    0.000
422.401; 2301.950;    0.000;    0.000
422.453; 2805.950;    0.000;    0.000
422.506; 3514.950;    0.000;    0.000
422.559; 4851.950;    0.000;    0.000
422.611; 6391.950;    0.000;    0.000
422.664; 7240.950;    0.000;    0.000
422.716; 6452.950;    0.000;    0.000
422.769; 4755.950;    0.000;    0.000
422.822; 3531.950;    0.000;    0.000
422.874; 2685.950;    0.000;    0.000
422.927; 2406.950;    0.000;    0.000
422.979; 2146.950;    0.000;    0.000
423.032; 1969.950;    0.000;    0.000
423.084; 1899.950;    0.000;    0.000
423.137; 1748.950;    0.000;    0.000
423.189; 1745.950;    0.000;    0.000
423.242; 1609.950;    0.000;    0.000
423.294; 1536.950;    0.000;    0.000
423.347; 1505.950;    0.000;    0.000
423.399; 1562.950;    0.000;    0.000
423.452; 1494.950;    0.000;    0.000
423.504; 1506.950;    0.000;    0.000
423.557; 1482.950;    0.000;    0.000
423.609; 1436.950;    0.000;    0.000
423.662; 1411.950;    0.000;    0.000
423.714; 1417.950;    0.000;    0.000
423.766; 1405.950;    0.000;    0.000
423.819; 1433.950;    0.000;    0.000
423.871; 1412.950;    0.000;    0.000
423.923; 1351.950;    0.000;    0.000
423.976; 1344.950;    0.000;    0.000
424.028; 1342.950;    0.000;    0.000
424.081; 1350.950;    0.000;    0.000
424.133; 1334.950;    0.000;    0.000
424.185; 1363.950;    0.000;    0.000
424.238; 1306.950;    0.000;    0.000
424.290; 1297.950;    0.000;    0.000
424.342; 1255.950;    0.000;    0.000
424.394; 1353.950;    0.000;    0.000
424.447; 1379.950;    0.000;    0.000
424.499; 1283.950;    0.000;    0.000
424.551; 1344.950;    0.000;    0.000
424.603; 1325.950;    0.000;    0.000
424.656; 1300.950;    0.000;    0.000
424.708; 1311.950;    0.000;    0.000
424.760; 1233.950;    0.000;    0.000
424.812; 1362.950;    0.000;    0.000
424.864; 1276.950;    0.000;    0.000
424.917; 1350.950;    0.000;    0.000
424.969; 1337.950;    0.000;    0.000
425.021; 1286.950;    0.000;    0.000
425.073; 1293.950;    0.000;    0.000
425.125; 1314.950;    0.000;    0.000
425.177; 1385.950;    0.000;    0.000
425.229; 1322.950;    0.000;    0.000
425.282; 1329.950;    0.000;    0.000
425.334; 1346.950;    0.000;    0.000
425.386; 1327.950;    0.000;    0.000
425.438; 1372.950;    0.000;    0.000
425.490; 1311.950;    0.000;    0.000
425.542; 1284.950;    0.000;    0.000
425.594; 1289.950;    0.000;    0.000
425.646; 1319.950;    0.000;    0.000
425.698; 1290.950;    0.000;    0.000
425.750; 1285.950;    0.000;    0.000
425.802; 1312.950;    0.000;    0.000
425.854; 1340.950;    0.000;    0.000
425.906; 1339.950;    0.000;    0.000
425.958; 1325.950;    0.000;    0.000
426.010; 1284.950;    0.000;    0.000
426.062; 1276.950;    0.000;    0.000
426.114; 1300.950;    0.000;    0.000
426.166; 1385.950;    0.000;    0.000
426.218; 1288.950;    0.000;    0.000
426.270; 1356.950;    0.000;    0.000
426.321; 1312.950;    0.000;    0.000
426.373; 1268.950;    0.000;    0.000
426.425; 1276.950;    0.000;    0.000
426.477; 1324.950;    0.000;    0.000
426.529; 1346.950;    0.000;    0.000
426.581; 1318.950;    0.000;    0.000
426.633; 1342.950;    0.000;    0.000
426.684; 1260.950;    0.000;    0.000
426.736; 1306.950;    0.000;    0.000
426.788; 1239.950;    0.000;    0.000
426.840; 1285.950;    0.000;    0.000
426.892; 1315.950;    0.000;    0.000
426.943; 1304.950;    0.000;    0.000
426.995; 1269.950;    0.000;    0.000
427.047; 1245.950;    0.000;    0.000
427.099; 1314.950;    0.000;    0.000
427.150; 1291.950;    0.000;    0.000
427.202; 1236.950;    0.000;    0.000
427.254; 1290.950;    0.000;    0.000
427.306; 1278.950;    0.000;    0.000
427.357; 1331.950;    0.000;    0.000
427.409; 1271.950;    0.000;    0.000
427.461; 1302.950;    0.000;    0.000
427.512; 1327.950;    0.000;    0.000
427.564; 1295.950;    0.000;    0.000
427.616; 1323.950;    0.000;    0.000
427.667; 1289.950;    0.000;    0.000
427.719; 1305.950;    0.000;    0.000
427.770; 1233.950;    0.000;    0.000
427.822; 1353.950;    0.000;    0.000
427.874; 1319.950;    0.000;    0.000
427.925; 1358.950;    0.000;    0.000
427.977; 1346.950;    0.000;    0.000
428.028; 1350.950;    0.000;    0.000
428.080; 1384.950;    0.000;    0.000
428.131; 1507.950;    0.000;    0.000
428.183; 1701.950;    0.000;    0.000
428.234; 2197.950;    0.000;    0.000
428.286; 2365.950;    0.000;    0.000
428.337; 2086.950;    0.000;    0.000
428.389; 1555.950;    0.000;    0.000
428.440; 1278.950;    0.000;    0.000
428.492; 1368.950;    0.000;    0.000
428.543; 1366.950;    0.000;    0.000
428.595; 1303.950;    0.000;    0.000
428.646; 1311.950;    0.000;    0.000
428.697; 1323.950;    0.000;    0.000
428.749; 1422.950;    0.000;    0.000
428.800; 1589.950;    0.000;    0.000
428.852; 1893.950;    0.000;    0.000
428.903; 2229.950;    0.000;    0.000
428.954; 1995.950;    0.000;    0.000
429.006; 1649.950;    0.000;    0.000
429.057; 1280.950;    0.000;    0.000
429.108; 1340.950;    0.000;    0.000
429.160; 1326.950;    0.000;    0.000
429.211; 1237.950;    0.000;    0.000
429.262; 1282.950;    0.000;    0.000
429.314; 1296.950;    0.000;    0.000
429.365; 1258.950;    0.000;    0.000
429.416; 1285.950;    0.000;    0.000
429.467; 1216.950;    0.000;    0.000
429.519; 1293.950;    0.000;    0.000
429.570; 1264.950;    0.000;    0.000
429.621; 1321.950;    0.000;    0.000
429.672; 1314.950;    0.000;    0.000
429.724; 1406.950;    0.000;    0.000
429.775; 1528.950;    0.000;    0.000
429.826; 1914.950;    0.000;    0.000
429.877; 2110.950;    0.000;    0.000
429.928; 2009.950;    0.000;    0.000
429.980; 1693.950;    0.000;    0.000
430.031; 1556.950;    0.000;    0.000
430.082; 1705.950;    0.000;    0.000
430.133; 2203.950;    0.000;    0.000
430.184; 3118.950;    0.000;    0.000
430.235; 3388.950;    0.000;    0.000
430.286; 2816.950;    0.000;    0.000
430.337; 1830.950;    0.000;    0.000
430.388; 1541.950;    0.000;    0.000
430.439; 1417.950;    0.000;    0.000
430.490; 1380.950;    0.000;    0.000
430.542; 1392.950;    0.000;    0.000
430.593; 1431.950;    0.000;    0.000
430.644; 1496.950;    0.000;    0.000
430.695; 1934.950;    0.000;    0.000
430.746; 2158.950;    0.000;    0.000
430.797; 1960.950;    0.000;    0.000
430.848; 1553.950;    0.000;    0.000
430.898; 1210.950;    0.000;    0.000
430.949; 1219.950;    0.000;    0.000
431.000; 1171.950;    0.000;    0.000
431.051; 1290.950;    0.000;    0.000
431.102; 1164.950;    0.000;    0.000
431.153; 1161.950;    0.000;    0.000
431.204; 1179.950;    0.000;    0.000
431.255; 1117.950;    0.000;    0.000
431.306; 1209.950;    0.000;    0.000
431.357; 1242.950;    0.000;    0.000
431.408; 1204.950;    0.000;    0.000
431.458; 1267.950;    0.000;    0.000
431.509; 1222.950;    0.000;    0.000
431.560; 1214.950;    0.000;    0.000
431.611; 1253.950;    0.000;    0.000
431.662; 1366.950;    0.000;    0.000
431.713; 1493.950;    0.000;    0.000
431.763; 1739.950;    0.000;    0.000
431.814; 2225.950;    0.000;    0.000
431.865; 2218.950;    0.000;    0.000
431.916; 1747.950;    0.000;    0.000
431.966; 1372.950;    0.000;    0.000
432.017; 1255.950;    0.000;    0.000
432.068; 1256.950;    0.000;    0.000
432.118; 1229.950;    0.000;    0.000
432.169; 1215.950;    0.000;    0.000
432.220; 1216.950;    0.000;    0.000
432.271; 1181.950;    0.000;    0.000
432.321; 1194.950;    0.000;    0.000
432.372; 1194.950;    0.000;    0.000
432.423; 1123.950;    0.000;    0.000
432.473; 1134.950;    0.000;    0.000
432.524; 1178.950;    0.000;    0.000
432.574; 1197.950;    0.000;    0.000
432.625; 1139.950;    0.000;    0.000
432.676; 1117.950;    0.000;    0.000
432.726; 1193.950;    0.000;    0.000
432.777; 1155.950;    0.000;    0.000
432.827; 1200.950;    0.000;    0.000
432.878; 1109.950;    0.000;    0.000
432.928; 1100.950;    0.000;    0.000
432.979; 1152.950;    0.000;    0.000
433.029; 1171.950;    0.000;    0.000
433.080; 1126.950;    0.000;    0.000
433.130; 1090.950;    0.000;    0.000
433.181; 1148.950;    0.000;    0.000
433.231; 1134.950;    0.000;    0.000
433.282; 1179.950;    0.000;    0.000
433.332; 1171.950;    0.000;    0.000
433.383; 1167.950;    0.000;    0.000
433.433; 1198.950;    0.000;    0.000
433.484; 1133.950;    0.000;    0.000
433.534; 1093.950;    0.000;    0.000
433.585; 1135.950;    0.000;    0.000
433.635; 1163.950;    0.000;    0.000
433.685; 1197.950;    0.000;    0.000
433.736; 1158.950;    0.000;    0.000
433.786; 1096.950;    0.000;    0.000
433.836; 1223.950;    0.000;    0.000
433.887; 1127.950;    0.000;    0.000
433.937; 1146.950;    0.000;    0.000
433.987; 1095.950;    0.000;    0.000
434.038; 1112.950;    0.000;    0.000
434.088; 1167.950;    0.000;    0.000
434.138; 1197.950;    0.000;    0.000
434.189; 1165.950;    0.000;    0.000
434.239; 1173.950;    0.000;    0.000
434.289; 1156.950;    0.000;    0.000
434.339; 1191.950;    0.000;    0.000
434.389; 1166.950;    0.000;    0.000
434.440; 1156.950;    0.000;    0.000
434.490; 1286.950;    0.000;    0.000
434.540; 1194.950;    0.000;    0.000
434.590; 1153.950;    0.000;    0.000
434.640; 1161.950;    0.000;    0.000
434.691; 1226.950;    0.000;    0.000
434.741; 1133.950;    0.000;    0.000
434.791; 1223.950;    0.000;    0.000
434.841; 1194.950;    0.000;    0.000
434.891; 1208.950;    0.000;    0.000
434.941; 1201.950;    0.000;    0.000
434.991; 1238.950;    0.000;    0.000
435.042; 1177.950;    0.000;    0.000
435.092; 1167.950;    0.000;    0.000
435.142; 1136.950;    0.000;    0.000
435.192; 1114.950;    0.000;    0.000
435.242; 1089.950;    0.000;    0.000
435.292; 1138.950;    0.000;    0.000
435.342; 1201.950;    0.000;    0.000
435.392; 1154.950;    0.000;    0.000
435.442; 1133.950;    0.000;    0.000
435.492; 1196.950;    0.000;    0.000
435.542; 1127.950;    0.000;    0.000
435.592; 1146.950;    0.000;    0.000
435.642; 1135.950;    0.000;    0.000
435.692; 1122.950;    0.000;    0.000
435.742; 1180.950;    0.000;    0.000
435.792; 1223.950;    0.000;    0.000
435.842; 1191.950;    0.000;    0.000
435.891; 1081.950;    0.000;    0.000
435.941; 1151.950;    0.000;    0.000
435.991; 1138.950;    0.000;    0.000
436.041; 1149.950;    0.000;    0.000
436.091; 1171.950;    0.000;    0.000
436.141; 1098.950;    0.000;    0.000
436.191; 1181.950;    0.000;    0.000
436.241; 1185.950;    0.000;    0.000
436.290; 1136.950;    0.000;    0.000
436.340; 1113.950;    0.000;    0.000
436.390; 1093.950;    0.000;    0.000
436.440; 1072.950;    0.000;    0.000
436.490; 1080.950;    0.000;    0.000
436.539; 1104.950;    0.000;    0.000
436.589; 1110.950;    0.000;    0.000
436.639; 1110.950;    0.000;    0.000
436.689; 1172.950;    0.000;    0.000
436.738; 1188.950;    0.000;    0.000
436.788; 1078.950;    0.000;    0.000
436.838; 1149.950;    0.000;    0.000
436.887; 1107.950;    0.000;    0.000
436.937; 1162.950;    0.000;    0.000
436.987; 1082.950;    0.000;    0.000
437.036; 1159.950;    0.000;    0.000
437.086; 1086.950;    0.000;    0.000
437.136; 1135.950;    0.000;    0.000
437.185; 1031.950;    0.000;    0.000
437.235; 1187.950;    0.000;    0.000
437.285; 1099.950;    0.000;    0.000
437.334; 1089.950;    0.000;    0.000
437.384; 1137.950;    0.000;    0.000
437.433; 1087.950;    0.000;    0.000
437.483; 1179.950;    0.000;    0.000
437.532; 1175.950;    0.000;    0.000
437.582; 1142.950;    0.000;    0.000
437.631; 1074.950;    0.000;    0.000
437.681; 1113.950;    0.000;    0.000
437.730; 1109.950;    0.000;    0.000
437.780; 1079.950;    0.000;    0.000
437.829; 1057.950;    0.000;    0.000
437.879; 1075.950;    0.000;    0.000
437.928; 1050.950;    0.000;    0.000
437.978; 1128.950;    0.000;    0.000
438.027; 1135.950;    0.000;    0.000
438.077; 1092.950;    0.000;    0.000
438.126; 1059.950;    0.000;    0.000
438.176; 1111.950;    0.000;    0.000
438.225; 1070.950;    0.000;    0.000
438.274; 1075.950;    0.000;    0.000
438.324; 1158.950;    0.000;    0.000
438.373; 1047.950;    0.000;    0.000
438.422; 1057.950;    0.000;    0.000
438.472; 1045.950;    0.000;    0.000
438.521; 1083.950;    0.000;    0.000
438.570; 1177.950;    0.000;    0.000
438.620; 1157.950;    0.000;    0.000
438.669; 1074.950;    0.000;    0.000
438.718; 1062.950;    0.000;    0.000
438.768; 1157.950;    0.000;    0.000
438.817; 1064.950;    0.000;    0.000
438.866; 1106.950;    0.000;    0.000
438.915; 1131.950;    0.000;    0.000
438.965; 1149.950;    0.000;    0.000
439.014; 1110.950;    0.000;    0.000
439.063; 1130.950;    0.000;    0.000
439.112; 1051.950;    0.000;    0.000
439.162; 1149.950;    0.000;    0.000
439.211; 1160.950;    0.000;    0.000
439.260; 1087.950;    0.000;    0.000
439.309; 1105.950;    0.000;    0.000
439.358; 1095.950;    0.000;    0.000
439.407; 1118.950;    0.000;    0.000
439.456; 1130.950;    0.000;    0.000
439.506; 1089.950;    0.000;    0.000
439.555; 1168.950;    0.000;    0.000
439.604; 1095.950;    0.000;    0.000
439.653; 1099.950;    0.000;    0.000
439.702; 1107.950;    0.000;    0.000
439.751; 1106.950;    0.000;    0.000
439.800; 1112.950;    0.000;    0.000
439.849; 1083.950;    0.000;    0.000
439.898; 1133.950;    0.000;    0.000
439.947; 1047.950;    0.000;    0.000
439.996; 1165.950;    0.000;    0.000
440.045; 1054.950;    0.000;    0.000
440.094; 1123.950;    0.000;    0.000
440.143; 1138.950;    0.000;    0.000
440.192; 1117.950;    0.000;    0.000
440.241; 1112.950;    0.000;    0.000
440.290; 1141.950;    0.000;    0.000
440.339; 1083.950;    0.000;    0.000
440.388; 1039.950;    0.000;    0.000
440.437; 1116.950;    0.000;    0.000
440.486; 1114.950;    0.000;    0.000
440.535; 1148.950;    0.000;    0.000
440.583; 1089.950;    0.000;    0.000
440.632; 1153.950;    0.000;    0.000
440.681; 1106.950;    0.000;    0.000
440.730; 1141.950;    0.000;    0.000
440.779; 1140.950;    0.000;    0.000
440.828; 1066.950;    0.000;    0.000
440.876; 1100.950;    0.000;    0.000
440.925; 1139.950;    0.000;    0.000
440.974; 1132.950;    0.000;    0.000
441.023; 1132.950;    0.000;    0.000
441.072; 1153.950;    0.000;    0.000
441.120; 1108.950;    0.000;    0.000
441.169; 1211.950;    0.000;    0.000
441.218; 1172.950;    0.000;    0.000
441.267; 1128.950;    0.000;    0.000
441.315; 1172.950;    0.000;    0.000
441.364; 1116.950;    0.000;    0.000
441.413; 1121.950;    0.000;    0.000
441.461; 1092.950;    0.000;    0.000
441.510; 1174.950;    0.000;    0.000
441.559; 1162.950;    0.000;    0.000
441.607; 1148.950;    0.000;    0.000
441.656; 1166.950;    0.000;    0.000
441.705; 1184.950;    0.000;    0.000
441.753; 1197.950;    0.000;    0.000
441.802; 1167.950;    0.000;    0.000
441.850; 1162.950;    0.000;    0.000
441.899; 1219.950;    0.000;    0.000
441.948; 1174.950;    0.000;    0.000
441.996; 1160.950;    0.000;    0.000
442.045; 1173.950;    0.000;    0.000
442.093; 1163.950;    0.000;    0.000
442.142; 1189.950;    0.000;    0.000
442.190; 1223.950;    0.000;    0.000
442.239; 1212.950;    0.000;    0.000
442.287; 1178.950;    0.000;    0.000
442.336; 1207.950;    0.000;    0.000
442.384; 1352.950;    0.000;    0.000
442.433; 1515.950;    0.000;    0.000
442.481; 1906.950;    0.000;    0.000
442.529; 1931.950;    0.000;    0.000
442.578; 1737.950;    0.000;    0.000
442.626; 1444.950;    0.000;    0.000
442.675; 1327.950;    0.000;    0.000
442.723; 1215.950;    0.000;    0.000
442.771; 1245.950;    0.000;    0.000
442.820; 1242.950;    0.000;    0.000
442.868; 1198.950;    0.000;    0.000
442.917; 1213.950;    0.000;    0.000
442.965; 1249.950;    0.000;    0.000
443.013; 1238.950;    0.000;    0.000
443.062; 1257.950;    0.000;    0.000
443.110; 1209.950;    0.000;    0.000
443.158; 1242.950;    0.000;    0.000
443.206; 1310.950;    0.000;    0.000
443.255; 1313.950;    0.000;    0.000
443.303; 1512.950;    0.000;    0.000
443.351; 1620.950;    0.000;    0.000
443.399; 2059.950;    0.000;    0.000
443.448; 2595.950;    0.000;    0.000
443.496; 2926.950;    0.000;    0.000
443.544; 2638.950;    0.000;    0.000
443.592; 2048.950;    0.000;    0.000
443.640; 1633.950;    0.000;    0.000
443.689; 1397.950;    0.000;    0.000
443.737; 1391.950;    0.000;    0.000
443.785; 1345.950;    0.000;    0.000
443.833; 1326.950;    0.000;    0.000
443.881; 1266.950;    0.000;    0.000
443.929; 1326.950;    0.000;    0.000
443.977; 1255.950;    0.000;    0.000
444.025; 1184.950;    0.000;    0.000
444.074; 1195.950;    0.000;    0.000
444.122; 1291.950;    0.000;    0.000
444.170; 1155.950;    0.000;    0.000
444.218; 1171.950;    0.000;    0.000
444.266; 1204.950;    0.000;    0.000
444.314; 1199.950;    0.000;    0.000
444.362; 1261.950;    0.000;    0.000
444.410; 1221.950;    0.000;    0.000
444.458; 1249.950;    0.000;    0.000
444.506; 1156.950;    0.000;    0.000
444.554; 1221.950;    0.000;    0.000
444.602; 1218.950;    0.000;    0.000
444.650; 1280.950;    0.000;    0.000
444.698; 1228.950;    0.000;    0.000
444.746; 1280.950;    0.000;    0.000
444.793; 1212.950;    0.000;    0.000
444.841; 1259.950;    0.000;    0.000
444.889; 1228.950;    0.000;    0.000
444.937; 1262.950;    0.000;    0.000
444.985; 1320.950;    0.000;    0.000
445.033; 1338.950;    0.000;    0.000
445.081; 1345.950;    0.000;    0.000
445.129; 1334.950;    0.000;    0.000
445.176; 1427.950;    0.000;    0.000
445.224; 1452.950;    0.000;    0.000
445.272; 1639.950;    0.000;    0.000
445.320; 1876.950;    0.000;    0.000
445.368; 2251.950;    0.000;    0.000
445.415; 3005.950;    0.000;    0.000
445.463; 3202.950;    0.000;    0.000
445.511; 3133.950;    0.000;    0.000
445.559; 2582.950;    0.000;    0.000
445.606; 2111.950;    0.000;    0.000
445.654; 1760.950;    0.000;    0.000
445.702; 1523.950;    0.000;    0.000
445.749; 1454.950;    0.000;    0.000
445.797; 1273.950;    0.000;    0.000
445.845; 1291.950;    0.000;    0.000
445.892; 1304.950;    0.000;    0.000
445.940; 1283.950;    0.000;    0.000
445.988; 1209.950;    0.000;    0.000
446.035; 1220.950;    0.000;    0.000
446.083; 1233.950;    0.000;    0.000
446.130; 1140.950;    0.000;    0.000
446.178; 1209.950;    0.000;    0.000
446.226; 1198.950;    0.000;    0.000
446.273; 1130.950;    0.000;    0.000
446.321; 1166.950;    0.000;    0.000
446.368; 1156.950;    0.000;    0.000
446.416; 1120.950;    0.000;    0.000
446.463; 1165.950;    0.000;    0.000
446.511; 1105.950;    0.000;    0.000
446.558; 1165.950;    0.000;    0.000
446.606; 1180.950;    0.000;    0.000
446.653; 1146.950;    0.000;    0.000
446.701; 1190.950;    0.000;    0.000
446.748; 1154.950;    0.000;    0.000
446.796; 1138.950;    0.000;    0.000
446.843; 1154.950;    0.000;    0.000
446.891; 1119.950;    0.000;    0.000
446.938; 1145.950;    0.000;    0.000
446.985; 1113.950;    0.000;    0.000
447.033; 1161.950;    0.000;    0.000
447.080; 1179.950;    0.000;    0.000
447.128; 1141.950;    0.000;    0.000
447.175; 1146.950;    0.000;    0.000
447.222; 1110.950;    0.000;    0.000
447.270; 1124.950;    0.000;    0.000
447.317; 1129.950;    0.000;    0.000
447.364; 1072.950;    0.000;    0.000
447.411; 1137.950;    0.000;    0.000
447.459; 1045.950;    0.000;    0.000
447.506; 1076.950;    0.000;    0.000
447.553; 1134.950;    0.000;    0.000
447.601; 1126.950;    0.000;    0.000
447.648; 1166.950;    0.000;    0.000
447.695; 1080.950;    0.000;    0.000
447.742; 1144.950;    0.000;    0.000
447.789; 1077.950;    0.000;    0.000
447.837; 1191.950;    0.000;    0.000
447.884; 1079.950;    0.000;    0.000
447.931; 1146.950;    0.000;    0.000
447.978; 1108.950;    0.000;    0.000
448.025; 1100.950;    0.000;    0.000
448.072; 1113.950;    0.000;    0.000
448.120; 1129.950;    0.000;    0.000
448.167; 1119.950;    0.000;    0.000
448.214; 1116.950;    0.000;    0.000
448.261; 1126.950;    0.000;    0.000
448.308; 1138.950;    0.000;    0.000
448.355; 1180.950;    0.000;    0.000
448.402; 1117.950;    0.000;    0.000
448.449; 1042.950;    0.000;    0.000
448.496; 1131.950;    0.000;    0.000
448.543; 1047.950;    0.000;    0.000
448.590; 1156.950;    0.000;    0.000
448.637; 1112.950;    0.000;    0.000
448.684; 1133.950;    0.000;    0.000
448.731; 1093.950;    0.000;    0.000
448.778; 1109.950;    0.000;    0.000
448.825; 1032.950;    0.000;    0.000
448.872; 1012.950;    0.000;    0.000
448.919; 1124.950;    0.000;    0.000
448.966; 1168.950;    0.000;    0.000
449.013; 1128.950;    0.000;    0.000
449.060; 1164.950;    0.000;    0.000
449.107; 1060.950;    0.000;    0.000
449.154; 1066.950;    0.000;    0.000
449.200; 1092.950;    0.000;    0.000
449.247; 1070.950;    0.000;    0.000
449.294; 1048.950;    0.000;    0.000
449.341; 1106.950;    0.000;    0.000
449.388; 1139.950;    0.000;    0.000
449.435; 1068.950;    0.000;    0.000
449.481; 1167.950;    0.000;    0.000
449.528; 1088.950;    0.000;    0.000
449.575; 1113.950;    0.000;    0.000
449.622; 1069.950;    0.000;    0.000
449.668; 1024.950;    0.000;    0.000
449.715; 1093.950;    0.000;    0.000
449.762; 1102.950;    0.000;    0.000
449.809; 1102.950;    0.000;    0.000
449.855; 1102.950;    0.000;    0.000
449.902; 1114.950;    0.000;    0.000
449.949; 1146.950;    0.000;    0.000
449.995; 1083.950;    0.000;    0.000
450.042; 1191.950;    0.000;    0.000
450.089; 1155.950;    0.000;    0.000
450.135; 1151.950;    0.000;    0.000
450.182; 1113.950;    0.000;    0.000
450.229; 1059.950;    0.000;    0.000
450.275; 1105.950;    0.000;    0.000
450.322; 1113.950;    0.000;    0.000
450.368; 1129.950;    0.000;    0.000
450.415; 1158.950;    0.000;    0.000
450.462; 1107.950;    0.000;    0.000
450.508; 1090.950;    0.000;    0.000
450.555; 1056.950;    0.000;    0.000
450.601; 1162.950;    0.000;    0.000
450.648; 1097.950;    0.000;    0.000
450.694; 1127.950;    0.000;    0.000
450.741; 1151.950;    0.000;    0.000
450.787; 1156.950;    0.000;    0.000
450.834; 1129.950;    0.000;    0.000
450.880; 1088.950;    0.000;    0.000
450.927; 1071.950;    0.000;    0.000
450.973; 1079.950;    0.000;    0.000
451.019; 1110.950;    0.000;    0.000
451.066; 1130.950;    0.000;    0.000
451.112; 1138.950;    0.000;    0.000
451.159; 1047.950;    0.000;    0.000
451.205; 1141.950;    0.000;    0.000
451.251; 1123.950;    0.000;    0.000
451.298; 1121.950;    0.000;    0.000
451.344; 1203.950;    0.000;    0.000
451.390; 1149.950;    0.000;    0.000
451.437; 1088.950;    0.000;    0.000
451.483; 1101.950;    0.000;    0.000
451.529; 1060.950;    0.000;    0.000
451.576; 1105.950;    0.000;    0.000
451.622; 1062.950;    0.000;    0.000
451.668; 1076.950;    0.000;    0.000
451.714; 1112.950;    0.000;    0.000
451.761; 1130.950;    0.000;    0.000
451.807; 1114.950;    0.000;    0.000
451.853; 1065.950;    0.000;    0.000
451.899; 1100.950;    0.000;    0.000
451.945; 1040.950;    0.000;    0.000
451.992; 1097.950;    0.000;    0.000
452.038; 1089.950;    0.000;    0.000
452.084; 1102.950;    0.000;    0.000
452.130; 1122.950;    0.000;    0.000
452.176; 1070.950;    0.000;    0.000
452.222; 1084.950;    0.000;    0.000
452.268; 1162.950;    0.000;    0.000
452.315; 1105.950;    0.000;    0.000
452.361; 1057.950;    0.000;    0.000
452.407; 1081.950;    0.000;    0.000
452.453; 1070.950;    0.000;    0.000
452.499; 1037.950;    0.000;    0.000
452.545; 1118.950;    0.000;    0.000
452.591; 1118.950;    0.000;    0.000
452.637; 1208.950;    0.000;    0.000
452.683; 1103.950;    0.000;    0.000
452.729; 1182.950;    0.000;    0.000
452.775; 1179.950;    0.000;    0.000
452.821; 1165.950;    0.000;    0.000
452.867; 1078.950;    0.000;    0.000
452.913; 1161.950;    0.000;    0.000
452.959; 1073.950;    0.000;    0.000
453.005; 1143.950;    0.000;    0.000
453.051; 1166.950;    0.000;    0.000
453.097; 1089.950;    0.000;    0.000
453.142;  996.950;    0.000;    0.000
453.188; 1072.950;    0.000;    0.000
453.234; 1069.950;    0.000;    0.000
453.280; 1043.950;    0.000;    0.000
453.326; 1048.950;    0.000;    0.000
453.372; 1078.950;    0.000;    0.000
453.418; 1128.950;    0.000;    0.000
453.463; 1136.950;    0.000;    0.000
453.509; 1095.950;    0.000;    0.000
453.555; 1116.950;    0.000;    0.000
453.601; 1075.950;    0.000;    0.000
453.647; 1166.950;    0.000;    0.000
453.692; 1058.950;    0.000;    0.000
453.738; 1067.950;    0.000;    0.000
453.784; 1036.950;    0.000;    0.000
453.829; 1113.950;    0.000;    0.000
453.875; 1043.950;    0.000;    0.000
453.921; 1085.950;    0.000;    0.000
453.967; 1071.950;    0.000;    0.000
454.012; 1150.950;    0.000;    0.000
454.058; 1100.950;    0.000;    0.000
454.104; 1087.950;    0.000;    0.000
454.149; 1136.950;    0.000;    0.000
454.195; 1021.950;    0.000;    0.000
454.240; 1111.950;    0.000;    0.000
454.286; 1080.950;    0.000;    0.000
454.332; 1119.950;    0.000;    0.000
454.377; 1084.950;    0.000;    0.000
454.423; 1084.950;    0.000;    0.000
454.468; 1099.950;    0.000;    0.000
454.514; 1114.950;    0.000;    0.000
454.559; 1123.950;    0.000;    0.000
454.605; 1084.950;    0.000;    0.000
454.650; 1082.950;    0.000;    0.000
454.696; 1077.950;    0.000;    0.000
454.741; 1079.950;    0.000;    0.000
454.787; 1033.950;    0.000;    0.000
454.832; 1044.950;    0.000;    0.000
454.878; 1099.950;    0.000;    0.000
454.923; 1106.950;    0.000;    0.000
454.969; 1097.950;    0.000;    0.000
455.014; 1110.950;    0.000;    0.000
455.060; 1054.950;    0.000;    0.000
455.105; 1111.950;    0.000;    0.000
455.150; 1077.950;    0.000;    0.000
455.196; 1098.950;    0.000;    0.000
455.241; 1083.950;    0.000;    0.000
455.286; 1131.950;    0.000;    0.000
455.332; 1045.950;    0.000;    0.000
455.377; 1012.950;    0.000;    0.000
455.422; 1067.950;    0.000;    0.000
455.468; 1055.950;    0.000;    0.000
455.513; 1049.950;    0.000;    0.000
455.558; 1060.950;    0.000;    0.000
455.604; 1104.950;    0.000;    0.000
455.649; 1107.950;    0.000;    0.000
455.694; 1069.950;    0.000;    0.000
455.739; 1064.950;    0.000;    0.000
455.785; 1176.950;    0.000;    0.000
455.830; 1154.950;    0.000;    0.000
455.875; 1067.950;    0.000;    0.000
455.920; 1044.950;    0.000;    0.000
455.965; 1078.950;    0.000;    0.000
456.010; 1130.950;    0.000;    0.000
456.056; 1123.950;    0.000;    0.000
456.101; 1061.950;    0.000;    0.000
456.146; 1148.950;    0.000;    0.000
456.191; 1107.950;    0.000;    0.000
456.236; 1183.950;    0.000;    0.000
456.281; 1065.950;    0.000;    0.000
456.326; 1168.950;    0.000;    0.000
456.371; 1128.950;    0.000;    0.000
456.416; 1135.950;    0.000;    0.000
456.461; 1093.950;    0.000;    0.000
456.507; 1102.950;    0.000;    0.000
456.552; 1144.950;    0.000;    0.000
456.597; 1128.950;    0.000;    0.000
456.642; 1109.950;    0.000;    0.000
456.687; 1134.950;    0.000;    0.000
456.732; 1163.950;    0.000;    0.000
456.776; 1128.950;    0.000;    0.000
456.821; 1120.950;    0.000;    0.000
456.866; 1116.950;    0.000;    0.000
456.911; 1087.950;    0.000;    0.000
456.956; 1175.950;    0.000;    0.000
457.001; 1134.950;    0.000;    0.000
457.046; 1116.950;    0.000;    0.000
457.091; 1116.950;    0.000;    0.000
457.136; 1057.950;    0.000;    0.000
457.181; 1107.950;    0.000;    0.000
457.225; 1145.950;    0.000;    0.000
457.270; 1182.950;    0.000;    0.000
457.315; 1148.950;    0.000;    0.000
457.360; 1128.950;    0.000;    0.000
457.405; 1109.950;    0.000;    0.000
457.450; 1150.950;    0.000;    0.000
457.494; 1157.950;    0.000;    0.000
457.539; 1072.950;    0.000;    0.000
457.584; 1118.950;    0.000;    0.000
457.629; 1160.950;    0.000;    0.000
457.673; 1161.950;    0.000;    0.000
457.718; 1136.950;    0.000;    0.000
457.763; 1250.950;    0.000;    0.000
457.807; 1309.950;    0.000;    0.000
457.852; 1312.950;    0.000;    0.000
457.897; 1300.950;    0.000;    0.000
457.941; 1328.950;    0.000;    0.000
457.986; 1281.950;    0.000;    0.000
458.031; 1256.950;    0.000;    0.000
458.075; 1312.950;    0.000;    0.000
458.120; 1456.950;    0.000;    0.000
458.165; 1304.950;    0.000;    0.000
458.209; 1358.950;    0.000;    0.000
458.254; 1316.950;    0.000;    0.000
458.298; 1236.950;    0.000;    0.000
458.343; 1218.950;    0.000;    0.000
458.387; 1244.950;    0.000;    0.000
458.432; 1241.950;    0.000;    0.000
458.476; 1354.950;    0.000;    0.000
458.521; 1398.950;    0.000;    0.000
458.565; 1523.950;    0.000;    0.000
458.610; 1458.950;    0.000;    0.000
458.654; 1402.950;    0.000;    0.000
458.699; 1333.950;    0.000;    0.000
458.743; 1253.950;    0.000;    0.000
458.788; 1287.950;    0.000;    0.000
458.832; 1295.950;    0.000;    0.000
458.877; 1285.950;    0.000;    0.000
458.921; 1174.950;    0.000;    0.000
458.965; 1222.950;    0.000;    0.000
459.010; 1235.950;    0.000;    0.000
459.054; 1243.950;    0.000;    0.000
459.099; 1170.950;    0.000;    0.000
459.143; 1231.950;    0.000;    0.000
459.187; 1241.950;    0.000;    0.000
459.231; 1239.950;    0.000;    0.000
459.276; 1167.950;    0.000;    0.000
459.320; 1243.950;    0.000;    0.000
459.364; 1183.950;    0.000;    0.000
459.409; 1218.950;    0.000;    0.000
459.453; 1163.950;    0.000;    0.000
459.497; 1197.950;    0.000;    0.000
459.541; 1229.950;    0.000;    0.000
459.586; 1191.950;    0.000;    0.000
459.630; 1275.950;    0.000;    0.000
459.674; 1221.950;    0.000;    0.000
459.718; 1180.950;    0.000;    0.000
459.762; 1230.950;    0.000;    0.000
459.807; 1241.950;    0.000;    0.000
459.851; 1223.950;    0.000;    0.000
459.895; 1194.950;    0.000;    0.000
459.939; 1246.950;    0.000;    0.000
459.983; 1229.950;    0.000;    0.000
460.027; 1190.950;    0.000;    0.000
460.071; 1283.950;    0.000;    0.000
460.115; 1175.950;    0.000;    0.000
460.159; 1201.950;    0.000;    0.000
460.204; 1242.950;    0.000;    0.000
460.248; 1179.950;    0.000;    0.000
460.292; 1261.950;    0.000;    0.000
460.336; 1271.950;    0.000;    0.000
460.380; 1162.950;    0.000;    0.000
460.424; 1211.950;    0.000;    0.000
460.468; 1261.950;    0.000;    0.000
460.512; 1316.950;    0.000;    0.000
460.556; 1303.950;    0.000;    0.000
460.599; 1245.950;    0.000;    0.000
460.643; 1347.950;    0.000;    0.000
460.687; 1332.950;    0.000;    0.000
460.731; 1314.950;    0.000;    0.000
460.775; 1315.950;    0.000;    0.000
460.819; 1240.950;    0.000;    0.000
460.863; 1155.950;    0.000;    0.000
460.907; 1172.950;    0.000;    0.000
460.951; 1177.950;    0.000;    0.000
460.995; 1263.950;    0.000;    0.000
461.038; 1218.950;    0.000;    0.000
461.082; 1213.950;    0.000;    0.000
461.126; 1248.950;    0.000;    0.000
461.170; 1222.950;    0.000;    0.000
461.214; 1279.950;    0.000;    0.000
461.257; 1267.950;    0.000;    0.000
461.301; 1242.950;    0.000;    0.000
461.345; 1250.950;    0.000;    0.000
461.389; 1245.950;    0.000;    0.000
461.432; 1229.950;    0.000;    0.000
461.476; 1185.950;    0.000;    0.000
461.520; 1231.950;    0.000;    0.000
461.563; 1235.950;    0.000;    0.000
461.607; 1252.950;    0.000;    0.000
461.651; 1192.950;    0.000;    0.000
461.694; 1252.950;    0.000;    0.000
461.738; 1215.950;    0.000;    0.000
461.782; 1263.950;    0.000;    0.000
461.825; 1262.950;    0.000;    0.000
461.869; 1244.950;    0.000;    0.000
461.913; 1230.950;    0.000;    0.000
461.956; 1223.950;    0.000;    0.000
462.000; 1209.950;    0.000;    0.000
462.043; 1207.950;    0.000;    0.000
462.087; 1240.950;    0.000;    0.000
462.130; 1239.950;    0.000;    0.000
462.174; 1349.950;    0.000;    0.000
462.217; 1260.950;    0.000;    0.000
462.261; 1307.950;    0.000;    0.000
462.304; 1258.950;    0.000;    0.000
462.348; 1261.950;    0.000;    0.000
462.391; 1252.950;    0.000;    0.000
462.435; 1308.950;    0.000;    0.000
462.478; 1229.950;    0.000;    0.000
462.522; 1213.950;    0.000;    0.000
462.565; 1286.950;    0.000;    0.000
462.608; 1352.950;    0.000;    0.000
462.652; 1312.950;    0.000;    0.000
462.695; 1296.950;    0.000;    0.000
462.739; 1304.950;    0.000;    0.000
462.782; 1325.950;    0.000;    0.000
462.825; 1320.950;    0.000;    0.000
462.869; 1270.950;    0.000;    0.000
462.912; 1426.950;    0.000;    0.000
462.955; 1350.950;    0.000;    0.000
462.998; 1286.950;    0.000;    0.000
463.042; 1292.950;    0.000;    0.000
463.085; 1345.950;    0.000;    0.000
463.128; 1297.950;    0.000;    0.000
463.172; 1247.950;    0.000;    0.000
463.215;  387.950;    0.000;    0.000
463.258;  344.950;    0.000;    0.000
463.301;  302.950;    0.000;    0.000
463.344;  344.950;    0.000;    0.000
463.388;  329.950;    0.000;    0.000
463.431;  319.950;    0.000;    0.000
463.474;  370.950;    0.000;    0.000
463.517;  321.950;    0.000;    0.000
463.560;  346.950;    0.000;    0.000
463.603;  362.950;    0.000;    0.000
463.646;  389.950;    0.000;    0.000
463.690;  343.950;    0.000;    0.000
463.733;  350.950;    0.000;    0.000
463.776;  307.950;    0.000;    0.000
463.819;  309.950;    0.000;    0.000
463.862;  296.950;    0.000;    0.000

