Olivine_1s
Integration time [ms]: 1000.000
Averaging Nr. [scans]: 1
Smoothing Nr. [pixels]: 0
Data measured with spectrometer [name]: 7320751SP
Wave   ;Sample   ;Dark     ;Reference
[nm]   ;[counts] ;[counts] ;[counts] 

466.185;   79.000; 1974.000;    0.000
466.317;   64.000; 1812.000;    0.000
466.449;   62.000; 1770.000;    0.000
466.582;   60.000; 1832.000;    0.000
466.714;   81.000; 1878.000;    0.000
466.847;   71.000; 2039.000;    0.000
466.979;  101.000; 3108.000;    0.000
467.112;   52.000; 1168.000;    0.000
467.244;   71.000; 2159.000;    0.000
467.376;   68.000; 1794.000;    0.000
467.509;   68.000; 1757.000;    0.000
467.641;   64.000; 2154.000;    0.000
467.773;   53.000; 1530.000;    0.000
467.906;   64.000; 2197.000;    0.000
468.038;   93.000; 2737.000;    0.000
468.170;   80.000; 1954.000;    0.000
468.302;   71.000; 1784.000;    0.000
468.435;   53.000; 1452.000;    0.000
468.567;   75.000; 2281.000;    0.000
468.699;   88.000; 2178.000;    0.000
468.831;   83.000; 2284.000;    0.000
468.964;   79.000; 2641.000;    0.000
469.096;   83.000; 2307.000;    0.000
469.228;   78.000; 2043.000;    0.000
469.360;   84.000; 2698.000;    0.000
469.492;   90.000; 2822.000;    0.000
469.624;   64.000; 1710.000;    0.000
469.756;   93.000; 2836.000;    0.000
469.888;   74.000; 2485.000;    0.000
470.021;   76.000; 1915.000;    0.000
470.153;   62.000; 1897.000;    0.000
470.285;   84.000; 2659.000;    0.000
470.417;   83.000; 2303.000;    0.000
470.549;   74.000; 2473.000;    0.000
470.681;   77.000; 2179.000;    0.000
470.813;   99.000; 3051.000;    0.000
470.945;  110.000; 3778.000;    0.000
471.077;   76.000; 2113.000;    0.000
471.208;   90.000; 2888.000;    0.000
471.340;   94.000; 2313.000;    0.000
471.472;   79.000; 2489.000;    0.000
471.604;   74.000; 2208.000;    0.000
471.736;   87.000; 2563.000;    0.000
471.868;   77.000; 2294.000;    0.000
472.000;  175.000; 6359.000;    0.000
472.132;   75.000; 2197.000;    0.000
472.263;   64.000; 1672.000;    0.000
472.395;   84.000; 2601.000;    0.000
472.527;   72.000; 2198.000;    0.000
472.659;   93.000; 2407.000;    0.000
472.790;   72.000; 1993.000;    0.000
472.922;   90.000; 3034.000;    0.000
473.054;   71.000; 2199.000;    0.000
473.186;   85.000; 2653.000;    0.000
473.317;   78.000; 2617.000;    0.000
473.449;   79.000; 2386.000;    0.000
473.581;   80.000; 2250.000;    0.000
473.712;   87.000; 2672.000;    0.000
473.844;   95.000; 2636.000;    0.000
473.976;   93.000; 3013.000;    0.000
474.107;   92.000; 2681.000;    0.000
474.239;   91.000; 2920.000;    0.000
474.370;   94.000; 2768.000;    0.000
474.502;   79.000; 2260.000;    0.000
474.633;  102.000; 3351.000;    0.000
474.765;   79.000; 2217.000;    0.000
474.896;   84.000; 2595.000;    0.000
475.028;   83.000; 2340.000;    0.000
475.159;   88.000; 2840.000;    0.000
475.291;   83.000; 2402.000;    0.000
475.422;   81.000; 2496.000;    0.000
475.554;   70.000; 2236.000;    0.000
475.685;   80.000; 2215.000;    0.000
475.817;   85.000; 2864.000;    0.000
475.948;   80.000; 2562.000;    0.000
476.079;   91.000; 2426.000;    0.000
476.211;   72.000; 2503.000;    0.000
476.342;   84.000; 2535.000;    0.000
476.473;   85.000; 2441.000;    0.000
476.605;   82.000; 2484.000;    0.000
476.736;  107.000; 3127.000;    0.000
476.867;   63.000; 2120.000;    0.000
476.999;   62.000; 1964.000;    0.000
477.130;   83.000; 2244.000;    0.000
477.261;   94.000; 2882.000;    0.000
477.392;   68.000; 2159.000;    0.000
477.524;   92.000; 2939.000;    0.000
477.655;   98.000; 3279.000;    0.000
477.786;   73.000; 2385.000;    0.000
477.917;  134.000; 4339.000;    0.000
478.048;  111.000; 3566.000;    0.000
478.179;   82.000; 2034.000;    0.000
478.311;   76.000; 2003.000;    0.000
478.442;   97.000; 2898.000;    0.000
478.573;  105.000; 3003.000;    0.000
478.704;   92.000; 2708.000;    0.000
478.835;   79.000; 2615.000;    0.000
478.966;   93.000; 2636.000;    0.000
479.097;   86.000; 2936.000;    0.000
479.228;   90.000; 2623.000;    0.000
479.359;   89.000; 2506.000;    0.000
479.490;   83.000; 2601.000;    0.000
479.621;   73.000; 2086.000;    0.000
479.752;  114.000; 3698.000;    0.000
479.883;   73.000; 2327.000;    0.000
480.014;   99.000; 2965.000;    0.000
480.145;   89.000; 2500.000;    0.000
480.276;   91.000; 2869.000;    0.000
480.407;   92.000; 2752.000;    0.000
480.537;   93.000; 2999.000;    0.000
480.668;   88.000; 2552.000;    0.000
480.799;   67.000; 2254.000;    0.000
480.930;   87.000; 2741.000;    0.000
481.061;   73.000; 2283.000;    0.000
481.191;   88.000; 2857.000;    0.000
481.322;   88.000; 2768.000;    0.000
481.453;   78.000; 2589.000;    0.000
481.584;  102.000; 3486.000;    0.000
481.715;  103.000; 3477.000;    0.000
481.845;   90.000; 3186.000;    0.000
481.976;   87.000; 2677.000;    0.000
482.107;   81.000; 2605.000;    0.000
482.237;   85.000; 2554.000;    0.000
482.368;   95.000; 3079.000;    0.000
482.499;   99.000; 3283.000;    0.000
482.629;   73.000; 2049.000;    0.000
482.760;  106.000; 3706.000;    0.000
482.890;   67.000; 1748.000;    0.000
483.021;   81.000; 2605.000;    0.000
483.152;   74.000; 2544.000;    0.000
483.282;   97.000; 2932.000;    0.000
483.413;   89.000; 2892.000;    0.000
483.543;   74.000; 2178.000;    0.000
483.674;   79.000; 2473.000;    0.000
483.804;   97.000; 3000.000;    0.000
483.935;  107.000; 3313.000;    0.000
484.065;   74.000; 2318.000;    0.000
484.196;   99.000; 2860.000;    0.000
484.326;   90.000; 2694.000;    0.000
484.456;   91.000; 2344.000;    0.000
484.587;   89.000; 2566.000;    0.000
484.717;   91.000; 2797.000;    0.000
484.847;   77.000; 2544.000;    0.000
484.978;   83.000; 2230.000;    0.000
485.108;   82.000; 2642.000;    0.000
485.239;   77.000; 2428.000;    0.000
485.369;   61.000; 2198.000;    0.000
485.499;   85.000; 2613.000;    0.000
485.629;   90.000; 2697.000;    0.000
485.760;   86.000; 2986.000;    0.000
485.890;   73.000; 2196.000;    0.000
486.020;   76.000; 2605.000;    0.000
486.150;   95.000; 2554.000;    0.000
486.281;   70.000; 2411.000;    0.000
486.411;   78.000; 2505.000;    0.000
486.541;   71.000; 2168.000;    0.000
486.671;   96.000; 3092.000;    0.000
486.801;   80.000; 2506.000;    0.000
486.931;   90.000; 2657.000;    0.000
487.061;   82.000; 2719.000;    0.000
487.191;   80.000; 2378.000;    0.000
487.322;   75.000; 2644.000;    0.000
487.452;   75.000; 2157.000;    0.000
487.582;   81.000; 2159.000;    0.000
487.712;   79.000; 2380.000;    0.000
487.842;   69.000; 2011.000;    0.000
487.972;   59.000; 2069.000;    0.000
488.102;   59.000; 1919.000;    0.000
488.232;   66.000; 2169.000;    0.000
488.362;   80.000; 2524.000;    0.000
488.492;   60.000; 1683.000;    0.000
488.621;   70.000; 2193.000;    0.000
488.751;  126.000; 3977.000;    0.000
488.881;  103.000; 3247.000;    0.000
489.011;   67.000; 1888.000;    0.000
489.141;   91.000; 2701.000;    0.000
489.271;   97.000; 3229.000;    0.000
489.401;   68.000; 1706.000;    0.000
489.531;   89.000; 2863.000;    0.000
489.660;   63.000; 2106.000;    0.000
489.790;   82.000; 2459.000;    0.000
489.920;   61.000; 1968.000;    0.000
490.050;   69.000; 1973.000;    0.000
490.179;   56.000; 1817.000;    0.000
490.309;   75.000; 2413.000;    0.000
490.439;   83.000; 2447.000;    0.000
490.569;   66.000; 1997.000;    0.000
490.698;   74.000; 2384.000;    0.000
490.828;   71.000; 2299.000;    0.000
490.958;   63.000; 2286.000;    0.000
491.087;   92.000; 3039.000;    0.000
491.217;   82.000; 2627.000;    0.000
491.346;   77.000; 2353.000;    0.000
491.476;   88.000; 2792.000;    0.000
491.606;   74.000; 2414.000;    0.000
491.735;  108.000; 3376.000;    0.000
491.865;   84.000; 2863.000;    0.000
491.994;   77.000; 2299.000;    0.000
492.124;   95.000; 3320.000;    0.000
492.253;   70.000; 2220.000;    0.000
492.383;   86.000; 2820.000;    0.000
492.512;   72.000; 2102.000;    0.000
492.642;   54.000; 1729.000;    0.000
492.771;   41.000; 1334.000;    0.000
492.900;   95.000; 3179.000;    0.000
493.030;   66.000; 2299.000;    0.000
493.159;   70.000; 2509.000;    0.000
493.289;   72.000; 2249.000;    0.000
493.418;   88.000; 2789.000;    0.000
493.547;   82.000; 2718.000;    0.000
493.677;   75.000; 2520.000;    0.000
493.806;   72.000; 2205.000;    0.000
493.935;   76.000; 2417.000;    0.000
494.064;   76.000; 2479.000;    0.000
494.194;   63.000; 2155.000;    0.000
494.323;   76.000; 2374.000;    0.000
494.452;   83.000; 2520.000;    0.000
494.581;   82.000; 2823.000;    0.000
494.711;   90.000; 3088.000;    0.000
494.840;   72.000; 2536.000;    0.000
494.969;   90.000; 2564.000;    0.000
495.098;   69.000; 1986.000;    0.000
495.227;   88.000; 2947.000;    0.000
495.356;   83.000; 2427.000;    0.000
495.486;   69.000; 2267.000;    0.000
495.615;   94.000; 2889.000;    0.000
495.744;   71.000; 2397.000;    0.000
495.873;   77.000; 2366.000;    0.000
496.002;   65.000; 1803.000;    0.000
496.131;   69.000; 2507.000;    0.000
496.260;   85.000; 2911.000;    0.000
496.389;   98.000; 3620.000;    0.000
496.518;   75.000; 3003.000;    0.000
496.647;   85.000; 2439.000;    0.000
496.776;   55.000; 2156.000;    0.000
496.905;   98.000; 3181.000;    0.000
497.034;   82.000; 2200.000;    0.000
497.163;   76.000; 2315.000;    0.000
497.291;   79.000; 2463.000;    0.000
497.420;   68.000; 2619.000;    0.000
497.549;   50.000; 1668.000;    0.000
497.678;   82.000; 2494.000;    0.000
497.807;   70.000; 2252.000;    0.000
497.936;   84.000; 2542.000;    0.000
498.064;  124.000; 4733.000;    0.000
498.193;   78.000; 2532.000;    0.000
498.322;   81.000; 2301.000;    0.000
498.451;  104.000; 3476.000;    0.000
498.580;  102.000; 3663.000;    0.000
498.708;   77.000; 3804.000;    0.000
498.837;   71.000; 3513.000;    0.000
498.966;   79.000; 2955.000;    0.000
499.094;   74.000; 2251.000;    0.000
499.223;   56.000; 1544.000;    0.000
499.352;   81.000; 2934.000;    0.000
499.480;   67.000; 2188.000;    0.000
499.609;   80.000; 2418.000;    0.000
499.737;  440.000; 7406.000;    0.000
499.866;  108.000; 3250.000;    0.000
499.995;   76.000; 2198.000;    0.000
500.123;   89.000; 2865.000;    0.000
500.252;   66.000; 2042.000;    0.000
500.380;   87.000; 2600.000;    0.000
500.509;   74.000; 2376.000;    0.000
500.637;   87.000; 2766.000;    0.000
500.766;   83.000; 2656.000;    0.000
500.894;  107.000; 3556.000;    0.000
501.023;   65.000; 2010.000;    0.000
501.151;   98.000; 3073.000;    0.000
501.279;   91.000; 3011.000;    0.000
501.408;   92.000; 3228.000;    0.000
501.536;   86.000; 2687.000;    0.000
501.665;   92.000; 2902.000;    0.000
501.793;  126.000; 4126.000;    0.000
501.921;   80.000; 2614.000;    0.000
502.050;   82.000; 2367.000;    0.000
502.178;   60.000; 2247.000;    0.000
502.306;   67.000; 2565.000;    0.000
502.434;   81.000; 2251.000;    0.000
502.563;   80.000; 2901.000;    0.000
502.691;   88.000; 2788.000;    0.000
502.819;   77.000; 2698.000;    0.000
502.947;   84.000; 2426.000;    0.000
503.076;   85.000; 2755.000;    0.000
503.204;   85.000; 2649.000;    0.000
503.332;   78.000; 2545.000;    0.000
503.460;   61.000; 2225.000;    0.000
503.588;   84.000; 2675.000;    0.000
503.716;   97.000; 2745.000;    0.000
503.844;   71.000; 2276.000;    0.000
503.972;   60.000; 1942.000;    0.000
504.101;   62.000; 1889.000;    0.000
504.229;   82.000; 2489.000;    0.000
504.357;   86.000; 2762.000;    0.000
504.485;   88.000; 2740.000;    0.000
504.613;   70.000; 2127.000;    0.000
504.741;   71.000; 2292.000;    0.000
504.869;   93.000; 2958.000;    0.000
504.997;   72.000; 2344.000;    0.000
505.125;   75.000; 2461.000;    0.000
505.252;  105.000; 3055.000;    0.000
505.380;   82.000; 2643.000;    0.000
505.508;   81.000; 2681.000;    0.000
505.636;   98.000; 3051.000;    0.000
505.764;  102.000; 3099.000;    0.000
505.892;  101.000; 2938.000;    0.000
506.020;   95.000; 2833.000;    0.000
506.147;   80.000; 2558.000;    0.000
506.275;   89.000; 2862.000;    0.000
506.403;   83.000; 2445.000;    0.000
506.531;   90.000; 2705.000;    0.000
506.659;   71.000; 2464.000;    0.000
506.786;   79.000; 2950.000;    0.000
506.914;   71.000; 2298.000;    0.000
507.042;   95.000; 3246.000;    0.000
507.169;   96.000; 3287.000;    0.000
507.297;   74.000; 2502.000;    0.000
507.425;   84.000; 2994.000;    0.000
507.552;   69.000; 2214.000;    0.000
507.680;   72.000; 2236.000;    0.000
507.808;   83.000; 2691.000;    0.000
507.935;   87.000; 3003.000;    0.000
508.063;   84.000; 3173.000;    0.000
508.190;   69.000; 2330.000;    0.000
508.318;   77.000; 2605.000;    0.000
508.446;   82.000; 2691.000;    0.000
508.573;   88.000; 2611.000;    0.000
508.701;   56.000; 1888.000;    0.000
508.828;   95.000; 3310.000;    0.000
508.955;   73.000; 2477.000;    0.000
509.083;   76.000; 2347.000;    0.000
509.210;   95.000; 3178.000;    0.000
509.338;   86.000; 2529.000;    0.000
509.465;   71.000; 2434.000;    0.000
509.593;   92.000; 2876.000;    0.000
509.720;   82.000; 2280.000;    0.000
509.847;   76.000; 2593.000;    0.000
509.975;   63.000; 2081.000;    0.000
510.102;   81.000; 2643.000;    0.000
510.229;  103.000; 3731.000;    0.000
510.357;   90.000; 2473.000;    0.000
510.484;   69.000; 2657.000;    0.000
510.611;   81.000; 2485.000;    0.000
510.738;   96.000; 3087.000;    0.000
510.866;   75.000; 2407.000;    0.000
510.993;   79.000; 2529.000;    0.000
511.120;   78.000; 2642.000;    0.000
511.247;   80.000; 2495.000;    0.000
511.374;   78.000; 2796.000;    0.000
511.502;   76.000; 2713.000;    0.000
511.629;   93.000; 3097.000;    0.000
511.756;   85.000; 3043.000;    0.000
511.883;   54.000; 1439.000;    0.000
512.010;   77.000; 2222.000;    0.000
512.137;   69.000; 2313.000;    0.000
512.264;   80.000; 2654.000;    0.000
512.391;   62.000; 2454.000;    0.000
512.518;  100.000; 2770.000;    0.000
512.645;   95.000; 3200.000;    0.000
512.772;   86.000; 2378.000;    0.000
512.899;   77.000; 2711.000;    0.000
513.026;   75.000; 2616.000;    0.000
513.153;   93.000; 3084.000;    0.000
513.280;   71.000; 2447.000;    0.000
513.407;   87.000; 2491.000;    0.000
513.534;   84.000; 2444.000;    0.000
513.661;   83.000; 2692.000;    0.000
513.788;   88.000; 3021.000;    0.000
513.915;   58.000; 2127.000;    0.000
514.041;   81.000; 2861.000;    0.000
514.168;   88.000; 2771.000;    0.000
514.295;   57.000; 1743.000;    0.000
514.422;   79.000; 2713.000;    0.000
514.549;   77.000; 2209.000;    0.000
514.675;   82.000; 2526.000;    0.000
514.802;   74.000; 2251.000;    0.000
514.929;   74.000; 2341.000;    0.000
515.056;   92.000; 2925.000;    0.000
515.182;   92.000; 2862.000;    0.000
515.309;   63.000; 1806.000;    0.000
515.436;   86.000; 3065.000;    0.000
515.562;   85.000; 3126.000;    0.000
515.689;   78.000; 2851.000;    0.000
515.815;   74.000; 2487.000;    0.000
515.942;   82.000; 2387.000;    0.000
516.069;   71.000; 2291.000;    0.000
516.195;   86.000; 2592.000;    0.000
516.322;   68.000; 2280.000;    0.000
516.448;  112.000; 3710.000;    0.000
516.575;   61.000; 1703.000;    0.000
516.701;   86.000; 2722.000;    0.000
516.828;   69.000; 2110.000;    0.000
516.954;   79.000; 2087.000;    0.000
517.081;  100.000; 3022.000;    0.000
517.207;  108.000; 2962.000;    0.000
517.334;   75.000; 2499.000;    0.000
517.460;   73.000; 2163.000;    0.000
517.586;  100.000; 3801.000;    0.000
517.713;   81.000; 2615.000;    0.000
517.839;   82.000; 2668.000;    0.000
517.966;   81.000; 2519.000;    0.000
518.092;   66.000; 2029.000;    0.000
518.218;   77.000; 2551.000;    0.000
518.344;   91.000; 2973.000;    0.000
518.471;  106.000; 3739.000;    0.000
518.597;   73.000; 2511.000;    0.000
518.723;  102.000; 3321.000;    0.000
518.849;   87.000; 2690.000;    0.000
518.976;   68.000; 2269.000;    0.000
519.102;   93.000; 3003.000;    0.000
519.228;   91.000; 2990.000;    0.000
519.354;   92.000; 3329.000;    0.000
519.480;   89.000; 2892.000;    0.000
519.607;   98.000; 2905.000;    0.000
519.733;   82.000; 2195.000;    0.000
519.859;   81.000; 2293.000;    0.000
519.985;   97.000; 2892.000;    0.000
520.111;   97.000; 2998.000;    0.000
520.237;  120.000; 3907.000;    0.000
520.363;   81.000; 2360.000;    0.000
520.489;   91.000; 2555.000;    0.000
520.615;  113.000; 3319.000;    0.000
520.741;   97.000; 2849.000;    0.000
520.867;  107.000; 3202.000;    0.000
520.993;   91.000; 2551.000;    0.000
521.119;   81.000; 2518.000;    0.000
521.245;   91.000; 2800.000;    0.000
521.371;   72.000; 1971.000;    0.000
521.497;   66.000; 1651.000;    0.000
521.623;   95.000; 2736.000;    0.000
521.748;  104.000; 2843.000;    0.000
521.874;   83.000; 2230.000;    0.000
522.000;   89.000; 2923.000;    0.000
522.126;   93.000; 2772.000;    0.000
522.252;   97.000; 2631.000;    0.000
522.378;  105.000; 3396.000;    0.000
522.503;   76.000; 2045.000;    0.000
522.629;   99.000; 3144.000;    0.000
522.755;   96.000; 2901.000;    0.000
522.880;   81.000; 2521.000;    0.000
523.006;   77.000; 2452.000;    0.000
523.132;   80.000; 2585.000;    0.000
523.258;  101.000; 3153.000;    0.000
523.383;   94.000; 2583.000;    0.000
523.509;   73.000; 2154.000;    0.000
523.634;   77.000; 2518.000;    0.000
523.760;  100.000; 3185.000;    0.000
523.886;   72.000; 1825.000;    0.000
524.011;   91.000; 2661.000;    0.000
524.137;   97.000; 3002.000;    0.000
524.262;  100.000; 3035.000;    0.000
524.388;   90.000; 2435.000;    0.000
524.513;   90.000; 2512.000;    0.000
524.639;   86.000; 2311.000;    0.000
524.764;   80.000; 2073.000;    0.000
524.890;   69.000; 1750.000;    0.000
525.015;   98.000; 2758.000;    0.000
525.141;  109.000; 3285.000;    0.000
525.266;   85.000; 2486.000;    0.000
525.392;   89.000; 2389.000;    0.000
525.517;   90.000; 2681.000;    0.000
525.642;   73.000; 2008.000;    0.000
525.768;  101.000; 2963.000;    0.000
525.893;  104.000; 2784.000;    0.000
526.018;   83.000; 2765.000;    0.000
526.144;   84.000; 2545.000;    0.000
526.269;   76.000; 2086.000;    0.000
526.394;  118.000; 3121.000;    0.000
526.519;   73.000; 1763.000;    0.000
526.645;   98.000; 2417.000;    0.000
526.770;  105.000; 3511.000;    0.000
526.895;  105.000; 2604.000;    0.000
527.020;   89.000; 2679.000;    0.000
527.145;   90.000; 2448.000;    0.000
527.271;  105.000; 2926.000;    0.000
527.396;   96.000; 2757.000;    0.000
527.521;   82.000; 2257.000;    0.000
527.646;  107.000; 3226.000;    0.000
527.771;  113.000; 3045.000;    0.000
527.896;   97.000; 2854.000;    0.000
528.021;   88.000; 2242.000;    0.000
528.146;  109.000; 2978.000;    0.000
528.271;   94.000; 2696.000;    0.000
528.396;  109.000; 3312.000;    0.000
528.521;  113.000; 3320.000;    0.000
528.646;   69.000; 1789.000;    0.000
528.771;  130.000; 4100.000;    0.000
528.896;   96.000; 2787.000;    0.000
529.021;   89.000; 2826.000;    0.000
529.146;  104.000; 2629.000;    0.000
529.271;   89.000; 2717.000;    0.000
529.396;   93.000; 2386.000;    0.000
529.521;   83.000; 2006.000;    0.000
529.645;  101.000; 2754.000;    0.000
529.770;  103.000; 2665.000;    0.000
529.895;  103.000; 2693.000;    0.000
530.020;  111.000; 3066.000;    0.000
530.145;   92.000; 2742.000;    0.000
530.269;  108.000; 3072.000;    0.000
530.394;   91.000; 2189.000;    0.000
530.519;  110.000; 2658.000;    0.000
530.644;   91.000; 2175.000;    0.000
530.768;   82.000; 2253.000;    0.000
530.893;   79.000; 1874.000;    0.000
531.018;  105.000; 3085.000;    0.000
531.142;  110.000; 2542.000;    0.000
531.267;  110.000; 3016.000;    0.000
531.392;  117.000; 2984.000;    0.000
531.516;   99.000; 2340.000;    0.000
531.641;  114.000; 2664.000;    0.000
531.765;  111.000; 2861.000;    0.000
531.890;  134.000; 2687.000;    0.000
532.014;  176.000; 2311.000;    0.000
532.139;  349.000; 2603.000;    0.000
532.264;  603.000; 2863.000;    0.000
532.388;  607.000; 2262.000;    0.000
532.512;  473.000; 7105.000;    0.000
532.637;  152.000; 2291.000;    0.000
532.761;  119.000; 2595.000;    0.000
532.886;  124.000; 3005.000;    0.000
533.010;  117.000; 3146.000;    0.000
533.135;  123.000; 2931.000;    0.000
533.259;  117.000; 2788.000;    0.000
533.383;  115.000; 2711.000;    0.000
533.508;  105.000; 2415.000;    0.000
533.632;  110.000; 2348.000;    0.000
533.756;  114.000; 2516.000;    0.000
533.881;  115.000; 2305.000;    0.000
534.005;  103.000; 2243.000;    0.000
534.129;  119.000; 2488.000;    0.000
534.253;  103.000; 2117.000;    0.000
534.378;  118.000; 2851.000;    0.000
534.502;  114.000; 2242.000;    0.000
534.626;  111.000; 2208.000;    0.000
534.750;  137.000; 3162.000;    0.000
534.874;  122.000; 2920.000;    0.000
534.999;  148.000; 3413.000;    0.000
535.123;  144.000; 3149.000;    0.000
535.247;  127.000; 2666.000;    0.000
535.371;  153.000; 2778.000;    0.000
535.495;  138.000; 3079.000;    0.000
535.619;  144.000; 2646.000;    0.000
535.743;  152.000; 2313.000;    0.000
535.867;  187.000; 2430.000;    0.000
535.991;  275.000; 1631.000;    0.000
536.115;  477.000; 2962.000;    0.000
536.239;  766.000; 2083.000;    0.000
536.363; 1233.000; 2856.000;    0.000
536.487; 1813.000; 2547.000;    0.000
536.611; 2377.000; 2706.000;    0.000
536.735; 2871.000; 2512.000;    0.000
536.859; 3258.000; 2274.000;    0.000
536.983; 3572.000; 2518.000;    0.000
537.107; 3699.000; 2938.000;    0.000
537.230; 3758.000; 1826.000;    0.000
537.354; 3841.000; 2215.000;    0.000
537.478; 3844.000; 2197.000;    0.000
537.602; 3931.000; 2629.000;    0.000
537.726; 3941.000; 2391.000;    0.000
537.849; 4014.000; 2325.000;    0.000
537.973; 3947.000; 2241.000;    0.000
538.097; 4019.000; 2466.000;    0.000
538.221; 4082.000; 4146.000;    0.000
538.344; 4111.000; 3202.000;    0.000
538.468; 4136.000; 2552.000;    0.000
538.592; 4103.000; 3312.000;    0.000
538.715; 4102.000; 3243.000;    0.000
538.839; 4140.000; 3352.000;    0.000
538.963; 4173.000; 2153.000;    0.000
539.086; 4180.000; 2516.000;    0.000
539.210; 4217.000; 2745.000;    0.000
539.333; 4247.000; 1900.000;    0.000
539.457; 4242.000; 2890.000;    0.000
539.580; 4209.000; 2048.000;    0.000
539.704; 4294.000; 2353.000;    0.000
539.827; 4314.000; 2564.000;    0.000
539.951; 4329.000; 3130.000;    0.000
540.074; 4348.000; 2728.000;    0.000
540.198; 4352.000; 2159.000;    0.000
540.321; 4340.000; 2463.000;    0.000
540.445; 4384.000; 2508.000;    0.000
540.568; 4351.000; 1884.000;    0.000
540.692; 4505.000; 2904.000;    0.000
540.815; 4522.000; 2388.000;    0.000
540.938; 4504.000; 2442.000;    0.000
541.062; 4482.000; 2412.000;    0.000
541.185; 4623.000; 3528.000;    0.000
541.308; 4593.000; 2805.000;    0.000
541.432; 4649.000; 2696.000;    0.000
541.555; 4675.000; 2634.000;    0.000
541.678; 4694.000; 2040.000;    0.000
541.801; 4751.000; 2262.000;    0.000
541.925; 4705.000; 2362.000;    0.000
542.048; 4790.000; 2490.000;    0.000
542.171; 4722.000; 3553.000;    0.000
542.294; 4741.000; 2700.000;    0.000
542.417; 4715.000; 2669.000;    0.000
542.540; 4835.000; 3003.000;    0.000
542.664; 4714.000; 1822.000;    0.000
542.787; 4790.000; 3001.000;    0.000
542.910; 4834.000; 2523.000;    0.000
543.033; 4780.000; 2790.000;    0.000
543.156; 4807.000; 2606.000;    0.000
543.279; 4882.000; 3085.000;    0.000
543.402; 4865.000; 2438.000;    0.000
543.525; 4901.000; 2477.000;    0.000
543.648; 4928.000; 2482.000;    0.000
543.771; 4928.000; 2529.000;    0.000
543.894; 4875.000; 2118.000;    0.000
544.017; 4998.000; 2766.000;    0.000
544.140; 4969.000; 2925.000;    0.000
544.263; 5026.000; 2078.000;    0.000
544.386; 4983.000; 3365.000;    0.000
544.509; 4872.000; 2131.000;    0.000
544.631; 4958.000; 2576.000;    0.000
544.754; 5007.000; 2215.000;    0.000
544.877; 5050.000; 2841.000;    0.000
545.000; 5001.000; 3192.000;    0.000
545.123; 5093.000; 2399.000;    0.000
545.245; 5053.000; 2073.000;    0.000
545.368; 5092.000; 2604.000;    0.000
545.491; 5117.000; 1927.000;    0.000
545.614; 5180.000; 2696.000;    0.000
545.736; 5153.000; 2220.000;    0.000
545.859; 5201.000; 2756.000;    0.000
545.982; 5240.000; 3425.000;    0.000
546.104; 5237.000; 2478.000;    0.000
546.227; 5262.000; 2355.000;    0.000
546.350; 5283.000; 2587.000;    0.000
546.472; 5261.000; 2176.000;    0.000
546.595; 5389.000; 3147.000;    0.000
546.717; 5295.000; 2339.000;    0.000
546.840; 5304.000; 2444.000;    0.000
546.963; 5274.000; 2273.000;    0.000
547.085; 5325.000; 2034.000;    0.000
547.208; 5373.000; 2190.000;    0.000
547.330; 5285.000; 2514.000;    0.000
547.453; 5387.000; 2173.000;    0.000
547.575; 5382.000; 2376.000;    0.000
547.698; 5372.000; 2249.000;    0.000
547.820; 5342.000; 2870.000;    0.000
547.942; 5394.000; 3085.000;    0.000
548.065; 5334.000; 2053.000;    0.000
548.187; 5460.000; 2386.000;    0.000
548.310; 5524.000; 2796.000;    0.000
548.432; 5473.000; 2983.000;    0.000
548.554; 5540.000; 2620.000;    0.000
548.677; 5573.000; 2448.000;    0.000
548.799; 5513.000; 1926.000;    0.000
548.921; 5548.000; 2495.000;    0.000
549.043; 5585.000; 3114.000;    0.000
549.166; 5664.000; 2671.000;    0.000
549.288; 5649.000; 2745.000;    0.000
549.410; 5718.000; 2173.000;    0.000
549.532; 5701.000; 2761.000;    0.000
549.654; 5732.000; 2117.000;    0.000
549.777; 5781.000; 2894.000;    0.000
549.899; 5754.000; 2548.000;    0.000
550.021; 5876.000; 3084.000;    0.000
550.143; 5824.000; 2778.000;    0.000
550.265; 5888.000; 2732.000;    0.000
550.387; 5885.000; 2294.000;    0.000
550.509; 5992.000; 3497.000;    0.000
550.631; 5959.000; 3186.000;    0.000
550.753; 5943.000; 2965.000;    0.000
550.875; 5922.000; 3302.000;    0.000
550.997; 5970.000; 3237.000;    0.000
551.119; 5952.000; 1902.000;    0.000
551.241; 5880.000; 2483.000;    0.000
551.363; 5874.000; 2566.000;    0.000
551.485; 5915.000; 3074.000;    0.000
551.607; 5865.000; 2268.000;    0.000
551.729; 5869.000; 2697.000;    0.000
551.851; 5785.000; 2863.000;    0.000
551.973; 5829.000; 1940.000;    0.000
552.094; 5864.000; 1930.000;    0.000
552.216; 5909.000; 3027.000;    0.000
552.338; 5929.000; 2334.000;    0.000
552.460; 5955.000; 2622.000;    0.000
552.582; 5945.000; 2511.000;    0.000
552.703; 5911.000; 2440.000;    0.000
552.825; 5954.000; 3730.000;    0.000
552.947; 5981.000; 2334.000;    0.000
553.069; 6016.000; 2094.000;    0.000
553.190; 6006.000; 2605.000;    0.000
553.312; 6042.000; 2434.000;    0.000
553.434; 6016.000; 2188.000;    0.000
553.555; 6011.000; 2212.000;    0.000
553.677; 6039.000; 2415.000;    0.000
553.799; 6016.000; 2890.000;    0.000
553.920; 6016.000; 2151.000;    0.000
554.042; 6068.000; 2475.000;    0.000
554.163; 6047.000; 3363.000;    0.000
554.285; 6096.000; 2644.000;    0.000
554.406; 6084.000; 2422.000;    0.000
554.528; 6094.000; 2441.000;    0.000
554.649; 6067.000; 2481.000;    0.000
554.771; 6100.000; 2305.000;    0.000
554.892; 6082.000; 2970.000;    0.000
555.014; 6033.000; 2538.000;    0.000
555.135; 6059.000; 3008.000;    0.000
555.257; 6098.000; 2544.000;    0.000
555.378; 6193.000; 3742.000;    0.000
555.499; 6093.000; 2451.000;    0.000
555.621; 6156.000; 2294.000;    0.000
555.742; 6212.000; 2030.000;    0.000
555.863; 6186.000; 2128.000;    0.000
555.985; 6152.000; 2715.000;    0.000
556.106; 6231.000; 2669.000;    0.000
556.227; 6165.000; 2071.000;    0.000
556.348; 6210.000; 2192.000;    0.000
556.470; 6289.000; 1925.000;    0.000
556.591; 6260.000; 2410.000;    0.000
556.712; 6306.000; 2548.000;    0.000
556.833; 6354.000; 1961.000;    0.000
556.955; 6349.000; 2674.000;    0.000
557.076; 6266.000; 2148.000;    0.000
557.197; 6344.000; 2643.000;    0.000
557.318; 6421.000; 2358.000;    0.000
557.439; 6489.000; 2435.000;    0.000
557.560; 6468.000; 3006.000;    0.000
557.681; 6535.000; 2863.000;    0.000
557.802; 6550.000; 2663.000;    0.000
557.923; 6495.000; 2715.000;    0.000
558.044; 6438.000; 2175.000;    0.000
558.165; 6467.000; 3181.000;    0.000
558.286; 6463.000; 2382.000;    0.000
558.407; 6419.000; 2274.000;    0.000
558.528; 6419.000; 3445.000;    0.000
558.649; 6435.000; 3235.000;    0.000
558.770; 6456.000; 2822.000;    0.000
558.891; 6444.000; 1915.000;    0.000
559.012; 6505.000; 3090.000;    0.000
559.133; 6472.000; 2400.000;    0.000
559.254; 6484.000; 1954.000;    0.000
559.374; 6566.000; 3065.000;    0.000
559.495; 6548.000; 2306.000;    0.000
559.616; 6552.000; 1889.000;    0.000
559.737; 6598.000; 3277.000;    0.000
559.858; 6457.000; 2163.000;    0.000
559.978; 6570.000; 2608.000;    0.000
560.099; 6548.000; 2226.000;    0.000
560.220; 6616.000; 2407.000;    0.000
560.340; 6622.000; 2678.000;    0.000
560.461; 6559.000; 2636.000;    0.000
560.582; 6641.000; 2427.000;    0.000
560.702; 6683.000; 2958.000;    0.000
560.823; 6619.000; 2307.000;    0.000
560.944; 6803.000; 3884.000;    0.000
561.064; 6685.000; 2219.000;    0.000
561.185; 6720.000; 3548.000;    0.000
561.305; 6669.000; 2427.000;    0.000
561.426; 6658.000; 2237.000;    0.000
561.547; 6742.000; 2483.000;    0.000
561.667; 6731.000; 2578.000;    0.000
561.788; 6783.000; 1924.000;    0.000
561.908; 6793.000; 2471.000;    0.000
562.028; 6780.000; 2965.000;    0.000
562.149; 6756.000; 2353.000;    0.000
562.269; 6748.000; 2400.000;    0.000
562.390; 6866.000; 2759.000;    0.000
562.510; 6749.000; 2810.000;    0.000
562.631; 6723.000; 2146.000;    0.000
562.751; 6769.000; 2176.000;    0.000
562.871; 6712.000; 2256.000;    0.000
562.992; 6776.000; 2290.000;    0.000
563.112; 6814.000; 2582.000;    0.000
563.232; 6760.000; 3043.000;    0.000
563.352; 6852.000; 2295.000;    0.000
563.473; 6819.000; 2522.000;    0.000
563.593; 6795.000; 3225.000;    0.000
563.713; 6800.000; 3431.000;    0.000
563.833; 6777.000; 2535.000;    0.000
563.954; 6775.000; 2057.000;    0.000
564.074; 6755.000; 2285.000;    0.000
564.194; 6849.000; 2713.000;    0.000
564.314; 6896.000; 2890.000;    0.000
564.434; 6916.000; 3216.000;    0.000
564.554; 6963.000; 2455.000;    0.000
564.674; 6982.000; 2579.000;    0.000
564.794; 6964.000; 2487.000;    0.000
564.914; 6953.000; 1835.000;    0.000
565.034; 7014.000; 3203.000;    0.000
565.154; 7074.000; 2836.000;    0.000
565.274; 6970.000; 2338.000;    0.000
565.394; 7064.000; 2452.000;    0.000
565.514; 7005.000; 2824.000;    0.000
565.634; 7059.000; 3037.000;    0.000
565.754; 7006.000; 2849.000;    0.000
565.874; 7021.000; 2362.000;    0.000
565.994; 6994.000; 1882.000;    0.000
566.114; 7113.000; 2084.000;    0.000
566.234; 7093.000; 1810.000;    0.000
566.354; 7050.000; 2859.000;    0.000
566.474; 7062.000; 1818.000;    0.000
566.593; 7084.000; 2489.000;    0.000
566.713; 7137.000; 2900.000;    0.000
566.833; 7211.000; 3508.000;    0.000
566.953; 7167.000; 2211.000;    0.000
567.072; 7157.000; 2326.000;    0.000
567.192; 7166.000; 2314.000;    0.000
567.312; 7158.000; 2702.000;    0.000
567.432; 7119.000; 2515.000;    0.000
567.551; 7118.000; 2153.000;    0.000
567.671; 7121.000; 2117.000;    0.000
567.791; 7075.000; 3611.000;    0.000
567.910; 7112.000; 2729.000;    0.000
568.030; 7078.000; 2806.000;    0.000
568.149; 7078.000; 1969.000;    0.000
568.269; 7141.000; 2481.000;    0.000
568.388; 7214.000; 2565.000;    0.000
568.508; 7165.000; 2327.000;    0.000
568.628; 7106.000; 2669.000;    0.000
568.747; 7203.000; 2764.000;    0.000
568.867; 7237.000; 3152.000;    0.000
568.986; 7125.000; 2167.000;    0.000
569.105; 7079.000; 2442.000;    0.000
569.225; 7173.000; 2260.000;    0.000
569.344; 7156.000; 2318.000;    0.000
569.464; 7161.000; 2881.000;    0.000
569.583; 7222.000; 2567.000;    0.000
569.702; 7228.000; 2689.000;    0.000
569.822; 7168.000; 3007.000;    0.000
569.941; 7311.000; 1655.000;    0.000
570.060; 7323.000; 1901.000;    0.000
570.180; 7315.000; 2282.000;    0.000
570.299; 7363.000; 2664.000;    0.000
570.418; 7436.000; 2555.000;    0.000
570.538; 7392.000; 2729.000;    0.000
570.657; 7469.000; 2327.000;    0.000
570.776; 7429.000; 3057.000;    0.000
570.895; 7448.000; 3531.000;    0.000
571.014; 7366.000; 2480.000;    0.000
571.134; 7346.000; 2897.000;    0.000
571.253; 7460.000; 3336.000;    0.000
571.372; 7426.000; 3052.000;    0.000
571.491; 7501.000; 2498.000;    0.000
571.610; 7396.000; 2275.000;    0.000
571.729; 7461.000; 2993.000;    0.000
571.848; 7546.000; 3138.000;    0.000
571.967; 7452.000; 2854.000;    0.000
572.086; 7488.000; 2272.000;    0.000
572.205; 7430.000; 2853.000;    0.000
572.324; 7470.000; 2271.000;    0.000
572.443; 7484.000; 3007.000;    0.000
572.562; 7584.000; 2696.000;    0.000
572.681; 7517.000; 2417.000;    0.000
572.800; 7396.000; 1942.000;    0.000
572.919; 7475.000; 2763.000;    0.000
573.038; 7523.000; 3390.000;    0.000
573.157; 7446.000; 2407.000;    0.000
573.275; 7499.000; 2523.000;    0.000
573.394; 7562.000; 3017.000;    0.000
573.513; 7548.000; 2117.000;    0.000
573.632; 7543.000; 2538.000;    0.000
573.751; 7430.000; 2075.000;    0.000
573.869; 7514.000; 2796.000;    0.000
573.988; 7459.000; 2410.000;    0.000
574.107; 7550.000; 2137.000;    0.000
574.226; 7492.000; 2362.000;    0.000
574.344; 7586.000; 2840.000;    0.000
574.463; 7603.000; 2536.000;    0.000
574.582; 7522.000; 2619.000;    0.000
574.700; 7662.000; 2343.000;    0.000
574.819; 7632.000; 3064.000;    0.000
574.938; 7594.000; 2107.000;    0.000
575.056; 7598.000; 2459.000;    0.000
575.175; 7679.000; 2406.000;    0.000
575.293; 7601.000; 2615.000;    0.000
575.412; 7741.000; 2212.000;    0.000
575.530; 7688.000; 1860.000;    0.000
575.649; 7754.000; 3038.000;    0.000
575.767; 7800.000; 3902.000;    0.000
575.886; 7744.000; 3387.000;    0.000
576.004; 7760.000; 2728.000;    0.000
576.123; 7759.000; 2498.000;    0.000
576.241; 7756.000; 2140.000;    0.000
576.359; 7736.000; 2580.000;    0.000
576.478; 7754.000; 2778.000;    0.000
576.596; 7776.000; 2144.000;    0.000
576.715; 7793.000; 2073.000;    0.000
576.833; 7829.000; 3057.000;    0.000
576.951; 7857.000; 2465.000;    0.000
577.069; 7851.000; 2408.000;    0.000
577.188; 7837.000; 3152.000;    0.000
577.306; 7811.000; 3400.000;    0.000
577.424; 7829.000; 3043.000;    0.000
577.542; 7669.000; 2545.000;    0.000
577.661; 7762.000; 2519.000;    0.000
577.779; 7745.000; 3193.000;    0.000
577.897; 7817.000; 3538.000;    0.000
578.015; 7739.000; 3875.000;    0.000
578.133; 7752.000; 3700.000;    0.000
578.251; 7787.000; 2669.000;    0.000
578.370; 7738.000; 3075.000;    0.000
578.488; 7684.000; 2838.000;    0.000
578.606; 7656.000; 1943.000;    0.000
578.724; 7721.000; 2694.000;    0.000
578.842; 7704.000; 2620.000;    0.000
578.960; 7810.000; 2730.000;    0.000
579.078; 7655.000; 2899.000;    0.000
579.196; 7835.000; 3952.000;    0.000
579.314; 7791.000; 2679.000;    0.000
579.432; 7718.000; 2608.000;    0.000
579.550; 7672.000; 2950.000;    0.000
579.668; 7747.000; 3168.000;    0.000
579.785; 7739.000; 2758.000;    0.000
579.903; 7830.000; 3567.000;    0.000
580.021; 7736.000; 2995.000;    0.000
580.139; 7816.000; 2927.000;    0.000
580.257; 7969.000; 2889.000;    0.000
580.375; 7878.000; 3656.000;    0.000
580.492; 7844.000; 2986.000;    0.000
580.610; 7901.000; 3190.000;    0.000
580.728; 7940.000; 2885.000;    0.000
580.846; 7880.000; 3282.000;    0.000
580.963; 7928.000; 4222.000;    0.000
581.081; 7878.000; 2791.000;    0.000
581.199; 7933.000; 2152.000;    0.000
581.316; 7931.000; 3449.000;    0.000
581.434; 7941.000; 2736.000;    0.000
581.552; 7897.000; 3089.000;    0.000
581.669; 7934.000; 2995.000;    0.000
581.787; 8068.000; 3178.000;    0.000
581.905; 8014.000; 2979.000;    0.000
582.022; 8015.000; 2761.000;    0.000
582.140; 8026.000; 3714.000;    0.000
582.257; 7959.000; 3232.000;    0.000
582.375; 8019.000; 3818.000;    0.000
582.492; 7969.000; 2629.000;    0.000
582.610; 7896.000; 2824.000;    0.000
582.727; 7969.000; 2665.000;    0.000
582.845; 8035.000; 3460.000;    0.000
582.962; 7996.000; 2046.000;    0.000
583.079; 7920.000; 3701.000;    0.000
583.197; 8057.000; 2993.000;    0.000
583.314; 7982.000; 2435.000;    0.000
583.432; 8019.000; 2790.000;    0.000
583.549; 8042.000; 2563.000;    0.000
583.666; 7886.000; 2272.000;    0.000
583.783; 7864.000; 2979.000;    0.000
583.901; 7857.000; 2756.000;    0.000
584.018; 7895.000; 3154.000;    0.000
584.135; 7885.000; 2506.000;    0.000
584.252; 7915.000; 2689.000;    0.000
584.370; 7961.000; 3182.000;    0.000
584.487; 7890.000; 2564.000;    0.000
584.604; 7836.000; 3081.000;    0.000
584.721; 7835.000; 2554.000;    0.000
584.838; 7885.000; 2438.000;    0.000
584.955; 7787.000; 2398.000;    0.000
585.073; 7823.000; 2988.000;    0.000
585.190; 7796.000; 3805.000;    0.000
585.307; 7722.000; 2497.000;    0.000
585.424; 7753.000; 2652.000;    0.000
585.541; 7743.000; 2851.000;    0.000
585.658; 7763.000; 3133.000;    0.000
585.775; 7764.000; 2345.000;    0.000
585.892; 7768.000; 2425.000;    0.000
586.009; 7686.000; 2627.000;    0.000
586.126; 7715.000; 2771.000;    0.000
586.243; 7713.000; 2506.000;    0.000
586.360; 7660.000; 3329.000;    0.000
586.477; 7764.000; 2620.000;    0.000
586.593; 7576.000; 2484.000;    0.000
586.710; 7680.000; 3348.000;    0.000
586.827; 7655.000; 2427.000;    0.000
586.944; 7719.000; 1911.000;    0.000
587.061; 7684.000; 2340.000;    0.000
587.178; 7749.000; 2957.000;    0.000
587.294; 7739.000; 2519.000;    0.000
587.411; 7720.000; 2247.000;    0.000
587.528; 7657.000; 2344.000;    0.000
587.644; 7708.000; 4066.000;    0.000
587.761; 7655.000; 2623.000;    0.000
587.878; 7583.000; 2287.000;    0.000
587.995; 7556.000; 2060.000;    0.000
588.111; 7624.000; 2656.000;    0.000
588.228; 7631.000; 2405.000;    0.000
588.344; 7594.000; 2279.000;    0.000
588.461; 7648.000; 2545.000;    0.000
588.578; 7639.000; 2648.000;    0.000
588.694; 7628.000; 2982.000;    0.000
588.811; 7605.000; 2126.000;    0.000
588.927; 7705.000; 2664.000;    0.000
589.044; 7611.000; 2049.000;    0.000
589.160; 7625.000; 2138.000;    0.000
589.277; 7593.000; 3036.000;    0.000
589.393; 7660.000; 2826.000;    0.000
589.510; 7635.000; 2687.000;    0.000
589.626; 7678.000; 2633.000;    0.000
589.742; 7672.000; 2355.000;    0.000
589.859; 7646.000; 2784.000;    0.000
589.975; 7597.000; 2565.000;    0.000
590.092; 7670.000; 1689.000;    0.000
590.208; 7640.000; 2247.000;    0.000
590.324; 7639.000; 2135.000;    0.000
590.440; 7644.000; 2645.000;    0.000
590.557; 7607.000; 2683.000;    0.000
590.673; 7680.000; 1858.000;    0.000
590.789; 7703.000; 2088.000;    0.000
590.905; 7680.000; 2714.000;    0.000
591.022; 7627.000; 2256.000;    0.000
591.138; 7718.000; 3300.000;    0.000
591.254; 7763.000; 2786.000;    0.000
591.370; 7762.000; 2751.000;    0.000
591.486; 7734.000; 3472.000;    0.000
591.602; 7699.000; 2805.000;    0.000
591.719; 7738.000; 2318.000;    0.000
591.835; 7778.000; 2620.000;    0.000
591.951; 7833.000; 3098.000;    0.000
592.067; 7803.000; 2267.000;    0.000
592.183; 7887.000; 3469.000;    0.000
592.299; 7896.000; 2143.000;    0.000
592.415; 7923.000; 2565.000;    0.000
592.531; 7934.000; 3086.000;    0.000
592.647; 7942.000; 2081.000;    0.000
592.763; 7907.000; 2380.000;    0.000
592.879; 7987.000; 3260.000;    0.000
592.994; 7911.000; 2561.000;    0.000
593.110; 7913.000; 2289.000;    0.000
593.226; 7931.000; 2596.000;    0.000
593.342; 7952.000; 2243.000;    0.000
593.458; 7969.000; 3014.000;    0.000
593.574; 7850.000; 1519.000;    0.000
593.690; 7957.000; 2564.000;    0.000
593.805; 7906.000; 3462.000;    0.000
593.921; 7883.000; 2321.000;    0.000
594.037; 7880.000; 2524.000;    0.000
594.153; 7935.000; 2941.000;    0.000
594.268; 7898.000; 2842.000;    0.000
594.384; 7925.000; 2663.000;    0.000
594.500; 7922.000; 3071.000;    0.000
594.615; 7923.000; 2677.000;    0.000
594.731; 7999.000; 2858.000;    0.000
594.847; 8011.000; 2494.000;    0.000
594.962; 8056.000; 2454.000;    0.000
595.078; 8007.000; 3217.000;    0.000
595.193; 8020.000; 2382.000;    0.000
595.309; 7946.000; 2617.000;    0.000
595.424; 7978.000; 2500.000;    0.000
595.540; 7934.000; 2524.000;    0.000
595.655; 7922.000; 2196.000;    0.000
595.771; 7900.000; 2200.000;    0.000
595.886; 7810.000; 1963.000;    0.000
596.002; 7842.000; 3218.000;    0.000
596.117; 7830.000; 2451.000;    0.000
596.233; 7873.000; 2614.000;    0.000
596.348; 7789.000; 2999.000;    0.000
596.463; 7767.000; 3180.000;    0.000
596.579; 7786.000; 2541.000;    0.000
596.694; 7670.000; 2366.000;    0.000
596.809; 7688.000; 2287.000;    0.000
596.925; 7730.000; 7046.000;    0.000
597.040; 7721.000; 2732.000;    0.000
597.155; 7706.000; 1817.000;    0.000
597.270; 7644.000; 2721.000;    0.000
597.386; 7681.000; 2490.000;    0.000
597.501; 7646.000; 2355.000;    0.000
597.616; 7756.000; 3445.000;    0.000
597.731; 7710.000; 2225.000;    0.000
597.846; 7687.000; 2836.000;    0.000
597.962; 7693.000; 2437.000;    0.000
598.077; 7770.000; 2661.000;    0.000
598.192; 7671.000; 2637.000;    0.000
598.307; 7716.000; 2414.000;    0.000
598.422; 7779.000; 2761.000;    0.000
598.537; 7751.000; 2977.000;    0.000
598.652; 7935.000; 5261.000;    0.000
598.767; 7689.000; 2270.000;    0.000
598.882; 7733.000; 3118.000;    0.000
598.997; 7660.000; 2088.000;    0.000
599.112; 7784.000; 3334.000;    0.000
599.227; 7704.000; 2643.000;    0.000
599.342; 7763.000; 3961.000;    0.000
599.457; 7862.000; 2953.000;    0.000
599.572; 7814.000; 3310.000;    0.000
599.686; 7834.000; 2491.000;    0.000
599.801; 7826.000; 2340.000;    0.000
599.916; 7830.000; 2828.000;    0.000
600.031; 7823.000; 2613.000;    0.000
600.146; 7787.000; 2316.000;    0.000
600.261; 7799.000; 1874.000;    0.000
600.375; 7737.000; 3445.000;    0.000
600.490; 7782.000; 2752.000;    0.000
600.605; 7777.000; 2695.000;    0.000
600.719; 7793.000; 2282.000;    0.000
600.834; 7761.000; 2498.000;    0.000
600.949; 7776.000; 2328.000;    0.000
601.064; 7756.000; 2809.000;    0.000
601.178; 7721.000; 2213.000;    0.000
601.293; 7710.000; 2076.000;    0.000
601.407; 7690.000; 1953.000;    0.000
601.522; 7698.000; 2459.000;    0.000
601.637; 7674.000; 3294.000;    0.000
601.751; 7691.000; 2929.000;    0.000
601.866; 7681.000; 2932.000;    0.000
601.980; 7742.000; 2607.000;    0.000
602.095; 7626.000; 3176.000;    0.000
602.209; 7560.000; 2282.000;    0.000
602.324; 7580.000; 3023.000;    0.000
602.438; 7573.000; 2597.000;    0.000
602.552; 7558.000; 1672.000;    0.000
602.667; 7565.000; 2414.000;    0.000
602.781; 7489.000; 1934.000;    0.000
602.896; 7406.000; 2020.000;    0.000
603.010; 7480.000; 3028.000;    0.000
603.124; 7517.000; 2241.000;    0.000
603.239; 7421.000; 2400.000;    0.000
603.353; 7466.000; 2389.000;    0.000
603.467; 7497.000; 3130.000;    0.000
603.581; 7508.000; 3238.000;    0.000
603.696; 7563.000; 2693.000;    0.000
603.810; 7500.000; 2255.000;    0.000
603.924; 7480.000; 2161.000;    0.000
604.038; 7430.000; 3599.000;    0.000
604.152; 7445.000; 3066.000;    0.000
604.267; 7404.000; 2145.000;    0.000
604.381; 7367.000; 3151.000;    0.000
604.495; 7367.000; 2934.000;    0.000
604.609; 7361.000; 3069.000;    0.000
604.723; 7311.000; 2349.000;    0.000
604.837; 7409.000; 2770.000;    0.000
604.951; 7351.000; 2511.000;    0.000
605.065; 7353.000; 2755.000;    0.000
605.179; 7336.000; 2712.000;    0.000
605.293; 7305.000; 3013.000;    0.000
605.407; 7319.000; 2682.000;    0.000
605.521; 7273.000; 3761.000;    0.000
605.635; 7271.000; 2225.000;    0.000
605.749; 7272.000; 2982.000;    0.000
605.863; 7188.000; 2841.000;    0.000
605.977; 7200.000; 2453.000;    0.000
606.090; 7175.000; 2692.000;    0.000
606.204; 7197.000; 2532.000;    0.000
606.318; 7189.000; 2615.000;    0.000
606.432; 7239.000; 3151.000;    0.000
606.546; 7153.000; 2799.000;    0.000
606.659; 7223.000; 3145.000;    0.000
606.773; 7243.000; 2859.000;    0.000
606.887; 7211.000; 2264.000;    0.000
607.001; 7250.000; 3249.000;    0.000
607.114; 7242.000; 3544.000;    0.000
607.228; 7155.000; 2109.000;    0.000
607.342; 7260.000; 3087.000;    0.000
607.455; 7234.000; 2510.000;    0.000
607.569; 7150.000; 2435.000;    0.000
607.683; 7165.000; 2345.000;    0.000
607.796; 7165.000; 2520.000;    0.000
607.910; 7101.000; 2713.000;    0.000
608.023; 7067.000; 2099.000;    0.000
608.137; 7105.000; 2565.000;    0.000
608.250; 7071.000; 2136.000;    0.000
608.364; 7170.000; 2606.000;    0.000
608.477; 7129.000; 3851.000;    0.000
608.591; 7225.000; 3000.000;    0.000
608.704; 7118.000; 2502.000;    0.000
608.818; 7081.000; 4008.000;    0.000
608.931; 7074.000; 3219.000;    0.000
609.044; 7101.000; 2691.000;    0.000
609.158; 7098.000; 2914.000;    0.000
609.271; 7169.000; 3429.000;    0.000
609.385; 7002.000; 1928.000;    0.000
609.498; 7081.000; 2553.000;    0.000
609.611; 7112.000; 1992.000;    0.000
609.724; 7116.000; 2091.000;    0.000
609.838; 7165.000; 2925.000;    0.000
609.951; 7067.000; 2044.000;    0.000
610.064; 7033.000; 3145.000;    0.000
610.177; 6978.000; 2341.000;    0.000
610.291; 7016.000; 3195.000;    0.000
610.404; 7051.000; 2266.000;    0.000
610.517; 7041.000; 2999.000;    0.000
610.630; 6962.000; 2489.000;    0.000
610.743; 6961.000; 2769.000;    0.000
610.856; 6900.000; 2510.000;    0.000
610.969; 6861.000; 3169.000;    0.000
611.082; 6858.000; 2424.000;    0.000
611.195; 6867.000; 2660.000;    0.000
611.308; 6896.000; 2980.000;    0.000
611.421; 6959.000; 2882.000;    0.000
611.534; 7022.000; 4042.000;    0.000
611.647; 6927.000; 2714.000;    0.000
611.760; 6908.000; 2157.000;    0.000
611.873; 6982.000; 2889.000;    0.000
611.986; 6960.000; 2446.000;    0.000
612.099; 6944.000; 2076.000;    0.000
612.212; 6937.000; 3601.000;    0.000
612.325; 6931.000; 2886.000;    0.000
612.438; 6848.000; 2274.000;    0.000
612.550; 6827.000; 2334.000;    0.000
612.663; 6801.000; 2151.000;    0.000
612.776; 6870.000; 2197.000;    0.000
612.889; 6933.000; 2915.000;    0.000
613.002; 6982.000; 2932.000;    0.000
613.114; 6939.000; 3329.000;    0.000
613.227; 6871.000; 3213.000;    0.000
613.340; 6848.000; 2886.000;    0.000
613.452; 6854.000; 3096.000;    0.000
613.565; 6886.000; 2317.000;    0.000
613.678; 6832.000; 2881.000;    0.000
613.790; 6778.000; 2594.000;    0.000
613.903; 6808.000; 2445.000;    0.000
614.016; 6764.000; 2423.000;    0.000
614.128; 6865.000; 3248.000;    0.000
614.241; 6729.000; 2822.000;    0.000
614.353; 6738.000; 2466.000;    0.000
614.466; 6669.000; 2485.000;    0.000
614.578; 6697.000; 3897.000;    0.000
614.691; 6616.000; 2542.000;    0.000
614.803; 6580.000; 2226.000;    0.000
614.916; 6647.000; 3465.000;    0.000
615.028; 6588.000; 2051.000;    0.000
615.140; 6638.000; 2485.000;    0.000
615.253; 6638.000; 2712.000;    0.000
615.365; 6692.000; 3464.000;    0.000
615.477; 6672.000; 3538.000;    0.000
615.590; 6643.000; 3235.000;    0.000
615.702; 6625.000; 2793.000;    0.000
615.814; 6675.000; 2445.000;    0.000
615.927; 6643.000; 2513.000;    0.000
616.039; 6666.000; 2250.000;    0.000
616.151; 6599.000; 2618.000;    0.000
616.263; 6572.000; 2230.000;    0.000
616.376; 6652.000; 3302.000;    0.000
616.488; 6634.000; 3504.000;    0.000
616.600; 6644.000; 2401.000;    0.000
616.712; 6659.000; 3112.000;    0.000
616.824; 6594.000; 3589.000;    0.000
616.936; 6672.000; 2717.000;    0.000
617.048; 6605.000; 2917.000;    0.000
617.161; 6670.000; 2443.000;    0.000
617.273; 6687.000; 2970.000;    0.000
617.385; 6639.000; 3399.000;    0.000
617.497; 6678.000; 3507.000;    0.000
617.609; 6647.000; 2745.000;    0.000
617.721; 6595.000; 2633.000;    0.000
617.833; 6628.000; 3217.000;    0.000
617.944; 6580.000; 2187.000;    0.000
618.056; 6604.000; 2479.000;    0.000
618.168; 6548.000; 2908.000;    0.000
618.280; 6541.000; 2504.000;    0.000
618.392; 6542.000; 2011.000;    0.000
618.504; 6559.000; 2782.000;    0.000
618.616; 6571.000; 3162.000;    0.000
618.728; 6550.000; 2621.000;    0.000
618.839; 6511.000; 2379.000;    0.000
618.951; 6561.000; 2983.000;    0.000
619.063; 6588.000; 2466.000;    0.000
619.175; 6530.000; 2446.000;    0.000
619.286; 6567.000; 2801.000;    0.000
619.398; 6609.000; 2491.000;    0.000
619.510; 6678.000; 2059.000;    0.000
619.621; 6715.000; 2922.000;    0.000
619.733; 6626.000; 2968.000;    0.000
619.845; 6677.000; 4386.000;    0.000
619.956; 6590.000; 1530.000;    0.000
620.068; 6557.000; 3326.000;    0.000
620.180; 6579.000; 2924.000;    0.000
620.291; 6584.000; 2993.000;    0.000
620.403; 6666.000; 3622.000;    0.000
620.514; 6593.000; 2899.000;    0.000
620.626; 6499.000; 3066.000;    0.000
620.737; 6554.000; 2710.000;    0.000
620.849; 6419.000; 2756.000;    0.000
620.960; 6441.000; 1994.000;    0.000
621.071; 6378.000; 2611.000;    0.000
621.183; 6368.000; 3057.000;    0.000
621.294; 6246.000; 2933.000;    0.000
621.406; 6387.000; 2523.000;    0.000
621.517; 6289.000; 2711.000;    0.000
621.628; 6309.000; 2416.000;    0.000
621.740; 6250.000; 2370.000;    0.000
621.851; 6203.000; 2142.000;    0.000
621.962; 6184.000; 2524.000;    0.000
622.073; 6270.000; 2613.000;    0.000
622.185; 6204.000; 3590.000;    0.000
622.296; 6191.000; 2285.000;    0.000
622.407; 6292.000; 3068.000;    0.000
622.518; 6165.000; 2513.000;    0.000
622.629; 6116.000; 2494.000;    0.000
622.741; 6127.000; 2642.000;    0.000
622.852; 6157.000; 2521.000;    0.000
622.963; 6214.000; 2828.000;    0.000
623.074; 6152.000; 2962.000;    0.000
623.185; 6165.000; 2680.000;    0.000
623.296; 6134.000; 3359.000;    0.000
623.407; 6135.000; 2269.000;    0.000
623.518; 6076.000; 3117.000;    0.000
623.629; 6056.000; 2685.000;    0.000
623.740; 6070.000; 2761.000;    0.000
623.851; 6040.000; 1712.000;    0.000
623.962; 6043.000; 4161.000;    0.000
624.073; 6113.000; 4189.000;    0.000
624.184; 6026.000; 2766.000;    0.000
624.295; 6052.000; 3417.000;    0.000
624.406; 6008.000; 2949.000;    0.000
624.516; 6061.000; 2334.000;    0.000
624.627; 5970.000; 2960.000;    0.000
624.738; 6011.000; 2494.000;    0.000
624.849; 6006.000; 2400.000;    0.000
624.960; 5971.000; 2279.000;    0.000
625.070; 6043.000; 3022.000;    0.000
625.181; 5939.000; 2225.000;    0.000
625.292; 6012.000; 2783.000;    0.000
625.403; 6012.000; 2629.000;    0.000
625.513; 5916.000; 1748.000;    0.000
625.624; 5923.000; 2954.000;    0.000
625.735; 5948.000; 2828.000;    0.000
625.845; 5962.000; 2714.000;    0.000
625.956; 5915.000; 2599.000;    0.000
626.066; 5899.000; 1955.000;    0.000
626.177; 5905.000; 2114.000;    0.000
626.288; 5978.000; 2490.000;    0.000
626.398; 5909.000; 2292.000;    0.000
626.509; 5876.000; 3089.000;    0.000
626.619; 5971.000; 2653.000;    0.000
626.730; 5903.000; 2466.000;    0.000
626.840; 5929.000; 3121.000;    0.000
626.951; 5777.000; 1971.000;    0.000
627.061; 5913.000; 3074.000;    0.000
627.171; 5843.000; 2710.000;    0.000
627.282; 5816.000; 3486.000;    0.000
627.392; 5861.000; 3134.000;    0.000
627.502; 5856.000; 3156.000;    0.000
627.613; 5846.000; 3451.000;    0.000
627.723; 5908.000; 2196.000;    0.000
627.833; 5822.000; 2280.000;    0.000
627.944; 5871.000; 3297.000;    0.000
628.054; 5786.000; 2811.000;    0.000
628.164; 5804.000; 3197.000;    0.000
628.274; 5860.000; 3400.000;    0.000
628.385; 5862.000; 3542.000;    0.000
628.495; 5754.000; 2523.000;    0.000
628.605; 5861.000; 2929.000;    0.000
628.715; 5764.000; 2434.000;    0.000
628.825; 5800.000; 3038.000;    0.000
628.935; 5733.000; 2237.000;    0.000
629.045; 5819.000; 2328.000;    0.000
629.155; 5723.000; 2806.000;    0.000
629.266; 5823.000; 3206.000;    0.000
629.376; 5818.000; 3276.000;    0.000
629.486; 5718.000; 3092.000;    0.000
629.596; 5750.000; 2360.000;    0.000
629.706; 5809.000; 3568.000;    0.000
629.816; 5737.000; 2843.000;    0.000
629.925; 5779.000; 2484.000;    0.000
630.035; 5818.000; 3210.000;    0.000
630.145; 5745.000; 3033.000;    0.000
630.255; 5767.000; 2776.000;    0.000
630.365; 5712.000; 2719.000;    0.000
630.475; 5668.000; 3126.000;    0.000
630.585; 5665.000; 3004.000;    0.000
630.694; 5649.000; 2206.000;    0.000
630.804; 5674.000; 2549.000;    0.000
630.914; 5666.000; 2478.000;    0.000
631.024; 5701.000; 1987.000;    0.000
631.134; 5668.000; 2579.000;    0.000
631.243; 5727.000; 2621.000;    0.000
631.353; 5684.000; 2027.000;    0.000
631.463; 5667.000; 2473.000;    0.000
631.572; 5684.000; 3746.000;    0.000
631.682; 5642.000; 2134.000;    0.000
631.792; 5714.000; 3085.000;    0.000
631.901; 5579.000; 2759.000;    0.000
632.011; 5545.000; 2525.000;    0.000
632.120; 5678.000; 3113.000;    0.000
632.230; 5580.000; 2933.000;    0.000
632.339; 5565.000; 2475.000;    0.000
632.449; 5555.000; 1862.000;    0.000
632.558; 5579.000; 4009.000;    0.000
632.668; 5617.000; 2325.000;    0.000
632.777; 5622.000; 2471.000;    0.000
632.887; 5560.000; 2248.000;    0.000
632.996; 5573.000; 1988.000;    0.000
633.106; 5551.000; 2359.000;    0.000
633.215; 5607.000; 2867.000;    0.000
633.324; 5555.000; 2430.000;    0.000
633.434; 5574.000; 2529.000;    0.000
633.543; 5584.000; 1970.000;    0.000
633.652; 5532.000; 3543.000;    0.000
633.761; 5504.000; 2262.000;    0.000
633.871; 5481.000; 2104.000;    0.000
633.980; 5568.000; 3008.000;    0.000
634.089; 5409.000; 2638.000;    0.000
634.198; 5467.000; 2194.000;    0.000
634.308; 5409.000; 3316.000;    0.000
634.417; 5403.000; 2991.000;    0.000
634.526; 5438.000; 2568.000;    0.000
634.635; 5444.000; 3316.000;    0.000
634.744; 5330.000; 2646.000;    0.000
634.853; 5323.000; 2952.000;    0.000
634.962; 5352.000; 3822.000;    0.000
635.071; 5266.000; 2156.000;    0.000
635.180; 5284.000; 2866.000;    0.000
635.289; 5347.000; 4179.000;    0.000
635.398; 5285.000; 2629.000;    0.000
635.507; 5226.000; 2782.000;    0.000
635.616; 5227.000; 2387.000;    0.000
635.725; 5245.000; 2456.000;    0.000
635.834; 5244.000; 2721.000;    0.000
635.943; 5180.000; 2947.000;    0.000
636.052; 5284.000; 3206.000;    0.000
636.161; 5237.000; 2393.000;    0.000
636.270; 5215.000; 2793.000;    0.000
636.379; 5241.000; 3075.000;    0.000
636.487; 5296.000; 2800.000;    0.000
636.596; 5166.000; 2085.000;    0.000
636.705; 5280.000; 2630.000;    0.000
636.814; 5295.000; 2947.000;    0.000
636.922; 5296.000; 2590.000;    0.000
637.031; 5537.000; 7416.000;    0.000
637.140; 5222.000; 1844.000;    0.000
637.249; 5262.000; 2509.000;    0.000
637.357; 5332.000; 3904.000;    0.000
637.466; 5289.000; 2739.000;    0.000
637.574; 5298.000; 3399.000;    0.000
637.683; 5187.000; 2535.000;    0.000
637.792; 5185.000; 2842.000;    0.000
637.900; 5173.000; 2924.000;    0.000
638.009; 5135.000; 2671.000;    0.000
638.117; 5135.000; 2239.000;    0.000
638.226; 5047.000; 2462.000;    0.000
638.334; 5067.000; 2753.000;    0.000
638.443; 5010.000; 2401.000;    0.000
638.551; 5066.000; 3009.000;    0.000
638.660; 5128.000; 3549.000;    0.000
638.768; 5111.000; 3460.000;    0.000
638.876; 5109.000; 2398.000;    0.000
638.985; 5087.000; 2531.000;    0.000
639.093; 5053.000; 2808.000;    0.000
639.201; 5085.000; 2878.000;    0.000
639.310; 5009.000; 2091.000;    0.000
639.418; 5060.000; 2882.000;    0.000
639.526; 5077.000; 2222.000;    0.000
639.635; 5047.000; 2492.000;    0.000
639.743; 5073.000; 3386.000;    0.000
639.851; 5062.000; 2728.000;    0.000
639.959; 5094.000; 2465.000;    0.000
640.067; 5077.000; 3640.000;    0.000
640.176; 4964.000; 2612.000;    0.000
640.284; 5025.000; 2556.000;    0.000
640.392; 4953.000; 2840.000;    0.000
640.500; 5003.000; 2471.000;    0.000
640.608; 5071.000; 3398.000;    0.000
640.716; 5022.000; 3713.000;    0.000
640.824; 5040.000; 2216.000;    0.000
640.932; 5008.000; 3656.000;    0.000
641.040; 4981.000; 2547.000;    0.000
641.148; 4990.000; 3134.000;    0.000
641.256; 4934.000; 2248.000;    0.000
641.364; 4893.000; 3073.000;    0.000
641.472; 4915.000; 2276.000;    0.000
641.580; 4943.000; 3345.000;    0.000
641.688; 4878.000; 2577.000;    0.000
641.796; 4975.000; 2315.000;    0.000
641.904; 4918.000; 3067.000;    0.000
642.012; 4978.000; 2987.000;    0.000
642.119; 5016.000; 3791.000;    0.000
642.227; 4984.000; 2794.000;    0.000
642.335; 4968.000; 1930.000;    0.000
642.443; 4886.000; 2801.000;    0.000
642.550; 4963.000; 3003.000;    0.000
642.658; 4924.000; 2738.000;    0.000
642.766; 4917.000; 3094.000;    0.000
642.874; 4979.000; 2288.000;    0.000
642.981; 4945.000; 2818.000;    0.000
643.089; 4985.000; 3400.000;    0.000
643.197; 4957.000; 2033.000;    0.000
643.304; 4957.000; 2909.000;    0.000
643.412; 4933.000; 2576.000;    0.000
643.519; 4964.000; 2655.000;    0.000
643.627; 4886.000; 2354.000;    0.000
643.734; 4904.000; 2811.000;    0.000
643.842; 4881.000; 2861.000;    0.000
643.949; 4881.000; 2949.000;    0.000
644.057; 4808.000; 1616.000;    0.000
644.164; 4878.000; 3629.000;    0.000
644.272; 4890.000; 2122.000;    0.000
644.379; 4861.000; 3070.000;    0.000
644.487; 4845.000; 2489.000;    0.000
644.594; 4821.000; 2465.000;    0.000
644.701; 4795.000; 3253.000;    0.000
644.809; 4769.000; 2302.000;    0.000
644.916; 4838.000; 2622.000;    0.000
645.023; 4747.000; 2619.000;    0.000
645.131; 4823.000; 3747.000;    0.000
645.238; 4787.000; 2740.000;    0.000
645.345; 4761.000; 2740.000;    0.000
645.452; 4696.000; 2979.000;    0.000
645.560; 4666.000; 3545.000;    0.000
645.667; 4570.000; 2481.000;    0.000
645.774; 4645.000; 2854.000;    0.000
645.881; 4646.000; 2364.000;    0.000
645.988; 4615.000; 3054.000;    0.000
646.095; 4595.000; 2522.000;    0.000
646.203; 4613.000; 2487.000;    0.000
646.310; 4606.000; 1528.000;    0.000
646.417; 4632.000; 2654.000;    0.000
646.524; 4564.000; 2305.000;    0.000
646.631; 4574.000; 3084.000;    0.000
646.738; 4627.000; 2765.000;    0.000
646.845; 4570.000; 2957.000;    0.000
646.952; 4582.000; 2625.000;    0.000
647.059; 4513.000; 2497.000;    0.000
647.166; 4563.000; 3031.000;    0.000
647.272; 4541.000; 2651.000;    0.000
647.379; 4490.000; 2939.000;    0.000
647.486; 4487.000; 2134.000;    0.000
647.593; 4486.000; 2478.000;    0.000
647.700; 4478.000; 2639.000;    0.000
647.807; 4439.000; 3140.000;    0.000
647.913; 4427.000; 2334.000;    0.000
648.020; 4420.000; 2407.000;    0.000
648.127; 4419.000; 2497.000;    0.000
648.234; 4460.000; 3154.000;    0.000
648.340; 4395.000; 2593.000;    0.000
648.447; 4418.000; 2816.000;    0.000
648.554; 4439.000; 2948.000;    0.000
648.660; 4379.000; 2760.000;    0.000
648.767; 4404.000; 2788.000;    0.000
648.874; 4330.000; 2824.000;    0.000
648.980; 4301.000; 2669.000;    0.000
649.087; 4406.000; 3497.000;    0.000
649.193; 4279.000; 2988.000;    0.000
649.300; 4279.000; 2300.000;    0.000
649.407; 4292.000; 2179.000;    0.000
649.513; 4308.000; 2059.000;    0.000
649.619; 4268.000; 2353.000;    0.000
649.726; 4329.000; 2545.000;    0.000
649.832; 4339.000; 2707.000;    0.000
649.939; 4309.000; 2248.000;    0.000
650.045; 4365.000; 2802.000;    0.000
650.152; 4348.000; 2689.000;    0.000
650.258; 4387.000; 5117.000;    0.000
650.364; 4333.000; 2670.000;    0.000
650.471; 4269.000; 2763.000;    0.000
650.577; 4346.000; 2112.000;    0.000
650.683; 4310.000; 2498.000;    0.000
650.790; 4349.000; 2331.000;    0.000
650.896; 4315.000; 2536.000;    0.000
651.002; 4289.000; 2350.000;    0.000
651.108; 4289.000; 2847.000;    0.000
651.214; 4289.000; 2908.000;    0.000
651.321; 4218.000; 2173.000;    0.000
651.427; 4263.000; 2131.000;    0.000
651.533; 4227.000; 2262.000;    0.000
651.639; 4264.000; 2673.000;    0.000
651.745; 4248.000; 2196.000;    0.000
651.851; 4203.000; 2674.000;    0.000
651.957; 4228.000; 2402.000;    0.000
652.063; 4243.000; 2803.000;    0.000
652.169; 4205.000; 2400.000;    0.000
652.275; 4264.000; 2655.000;    0.000
652.381; 4180.000; 2605.000;    0.000
652.487; 4174.000; 2738.000;    0.000
652.593; 4202.000; 2735.000;    0.000
652.699; 4159.000; 2578.000;    0.000
652.805; 4222.000; 2518.000;    0.000
652.911; 4183.000; 2456.000;    0.000
653.017; 4143.000; 2757.000;    0.000
653.123; 4065.000; 1615.000;    0.000
653.228; 4150.000; 2648.000;    0.000
653.334; 4191.000; 3067.000;    0.000
653.440; 4086.000; 2948.000;    0.000
653.546; 4109.000; 2634.000;    0.000
653.652; 4113.000; 1921.000;    0.000
653.757; 4063.000; 2463.000;    0.000
653.863; 4146.000; 1867.000;    0.000
653.969; 4071.000; 2755.000;    0.000
654.074; 4072.000; 3141.000;    0.000
654.180; 4038.000; 2592.000;    0.000
654.286; 4026.000; 2998.000;    0.000
654.391; 4092.000; 2565.000;    0.000
654.497; 3968.000; 2866.000;    0.000
654.602; 4022.000; 2396.000;    0.000
654.708; 4028.000; 2561.000;    0.000
654.813; 4017.000; 2476.000;    0.000
654.919; 3975.000; 2363.000;    0.000
655.025; 3979.000; 2534.000;    0.000
655.130; 3976.000; 1790.000;    0.000
655.235; 3952.000; 2718.000;    0.000
655.341; 3991.000; 3013.000;    0.000
655.446; 4012.000; 2983.000;    0.000
655.552; 4017.000; 2855.000;    0.000
655.657; 3923.000; 2861.000;    0.000
655.762; 3954.000; 2295.000;    0.000
655.868; 3921.000; 2604.000;    0.000
655.973; 3950.000; 2586.000;    0.000
656.078; 3912.000; 2759.000;    0.000
656.184; 3926.000; 3251.000;    0.000
656.289; 3903.000; 2442.000;    0.000
656.394; 3856.000; 2608.000;    0.000
656.499; 3870.000; 2236.000;    0.000
656.605; 3866.000; 2128.000;    0.000
656.710; 3881.000; 2828.000;    0.000
656.815; 3840.000; 2642.000;    0.000
656.920; 3853.000; 3284.000;    0.000
657.025; 3816.000; 4096.000;    0.000
657.130; 3773.000; 2297.000;    0.000
657.235; 3821.000; 3422.000;    0.000
657.341; 3789.000; 2402.000;    0.000
657.446; 3867.000; 3677.000;    0.000
657.551; 3858.000; 2746.000;    0.000
657.656; 3820.000; 3330.000;    0.000
657.761; 3801.000; 2674.000;    0.000
657.866; 3795.000; 2847.000;    0.000
657.971; 3801.000; 2981.000;    0.000
658.075; 3741.000; 3394.000;    0.000
658.180; 3682.000; 2436.000;    0.000
658.285; 3687.000; 3604.000;    0.000
658.390; 3691.000; 2557.000;    0.000
658.495; 3665.000; 2019.000;    0.000
658.600; 3624.000; 2487.000;    0.000
658.705; 3698.000; 3313.000;    0.000
658.809; 3626.000; 2409.000;    0.000
658.914; 3660.000; 2724.000;    0.000
659.019; 3698.000; 2875.000;    0.000
659.124; 3656.000; 2010.000;    0.000
659.228; 3639.000; 3307.000;    0.000
659.333; 3613.000; 2440.000;    0.000
659.438; 3645.000; 2689.000;    0.000
659.542; 3684.000; 2398.000;    0.000
659.647; 3632.000; 2380.000;    0.000
659.752; 3634.000; 2308.000;    0.000
659.856; 3695.000; 2371.000;    0.000
659.961; 3626.000; 2638.000;    0.000
660.065; 3618.000; 2753.000;    0.000
660.170; 3625.000; 2560.000;    0.000
660.275; 3643.000; 2528.000;    0.000
660.379; 3605.000; 2295.000;    0.000
660.484; 3614.000; 3221.000;    0.000
660.588; 3613.000; 2965.000;    0.000
660.692; 3537.000; 2415.000;    0.000
660.797; 3558.000; 2515.000;    0.000
660.901; 3589.000; 2679.000;    0.000
661.006; 3595.000; 2858.000;    0.000
661.110; 3510.000; 2641.000;    0.000
661.214; 3560.000; 2759.000;    0.000
661.319; 3504.000; 1932.000;    0.000
661.423; 3557.000; 2996.000;    0.000
661.527; 3532.000; 2847.000;    0.000
661.632; 3618.000; 3161.000;    0.000
661.736; 3556.000; 2749.000;    0.000
661.840; 3507.000; 2819.000;    0.000
661.944; 3509.000; 2423.000;    0.000
662.048; 3527.000; 2297.000;    0.000
662.153; 3513.000; 1989.000;    0.000
662.257; 3502.000; 2562.000;    0.000
662.361; 3480.000; 2498.000;    0.000
662.465; 3506.000; 2340.000;    0.000
662.569; 3492.000; 2720.000;    0.000
662.673; 3486.000; 3368.000;    0.000
662.777; 3480.000; 2665.000;    0.000
662.881; 3431.000; 2183.000;    0.000
662.985; 3471.000; 3507.000;    0.000
663.089; 3398.000; 1884.000;    0.000
663.193; 3466.000; 2338.000;    0.000
663.297; 3482.000; 2586.000;    0.000
663.401; 3396.000; 2121.000;    0.000
663.505; 3418.000; 2604.000;    0.000
663.609; 3430.000; 2801.000;    0.000
663.713; 3444.000; 3241.000;    0.000
663.817; 3414.000; 2057.000;    0.000
663.920; 3390.000; 2351.000;    0.000
664.024; 3415.000; 2859.000;    0.000
664.128; 3424.000; 2597.000;    0.000
664.232; 3387.000; 2444.000;    0.000
664.336; 3400.000; 2506.000;    0.000
664.439; 3351.000; 2676.000;    0.000
664.543; 3318.000; 2662.000;    0.000
664.647; 3355.000; 2974.000;    0.000
664.750; 3408.000; 2948.000;    0.000
664.854; 3451.000; 2513.000;    0.000
664.958; 3406.000; 2923.000;    0.000
665.061; 3362.000; 2286.000;    0.000
665.165; 3386.000; 2717.000;    0.000
665.269; 3406.000; 3641.000;    0.000
665.372; 3385.000; 3207.000;    0.000
665.476; 3417.000; 3446.000;    0.000
665.579; 3394.000; 2403.000;    0.000
665.683; 3333.000; 3019.000;    0.000
665.786; 3329.000; 2037.000;    0.000
665.890; 3389.000; 3041.000;    0.000
665.993; 3325.000; 3327.000;    0.000
666.097; 3387.000; 3023.000;    0.000
666.200; 3350.000; 3022.000;    0.000
666.303; 3334.000; 2517.000;    0.000
666.407; 3344.000; 2479.000;    0.000
666.510; 3362.000; 2956.000;    0.000
666.613; 3340.000; 2872.000;    0.000
666.717; 3323.000; 2550.000;    0.000
666.820; 3308.000; 3544.000;    0.000
666.923; 3329.000; 3373.000;    0.000
667.026; 3272.000; 2410.000;    0.000
667.130; 3366.000; 3389.000;    0.000
667.233; 3289.000; 2634.000;    0.000
667.336; 3249.000; 3107.000;    0.000
667.439; 3261.000; 2612.000;    0.000
667.542; 3297.000; 2053.000;    0.000
667.646; 3257.000; 2668.000;    0.000
667.749; 3258.000; 2380.000;    0.000
667.852; 3213.000; 2675.000;    0.000
667.955; 3211.000; 2843.000;    0.000
668.058; 3222.000; 2823.000;    0.000
668.161; 3170.000; 2657.000;    0.000
668.264; 3190.000; 2262.000;    0.000
668.367; 3219.000; 2529.000;    0.000
668.470; 3181.000; 2816.000;    0.000
668.573; 3142.000; 3039.000;    0.000
668.676; 3163.000; 2329.000;    0.000
668.779; 3205.000; 3486.000;    0.000
668.882; 3177.000; 2628.000;    0.000
668.984; 3201.000; 2548.000;    0.000
669.087; 3130.000; 3069.000;    0.000
669.190; 3127.000; 2626.000;    0.000
669.293; 3119.000; 3566.000;    0.000
669.396; 3120.000; 2402.000;    0.000
669.498; 3165.000; 2935.000;    0.000
669.601; 3064.000; 1961.000;    0.000
669.704; 3064.000; 2030.000;    0.000
669.807; 3013.000; 2429.000;    0.000
669.909; 3018.000; 2599.000;    0.000
670.012; 3130.000; 2117.000;    0.000
670.115; 3030.000; 2768.000;    0.000
670.217; 3094.000; 2702.000;    0.000
670.320; 3037.000; 2784.000;    0.000
670.422; 3101.000; 2697.000;    0.000
670.525; 3076.000; 2866.000;    0.000
670.628; 3100.000; 2700.000;    0.000
670.730; 3067.000; 3103.000;    0.000
670.833; 3061.000; 2232.000;    0.000
670.935; 3083.000; 3053.000;    0.000
671.038; 3061.000; 3107.000;    0.000
671.140; 3065.000; 2611.000;    0.000
671.243; 3048.000; 2714.000;    0.000
671.345; 3016.000; 2317.000;    0.000
671.447; 2965.000; 2426.000;    0.000
671.550; 3065.000; 2575.000;    0.000
671.652; 2960.000; 2521.000;    0.000
671.754; 2980.000; 3253.000;    0.000
671.857; 2938.000; 2149.000;    0.000
671.959; 2970.000; 3244.000;    0.000
672.061; 2935.000; 2613.000;    0.000
672.164; 2914.000; 2720.000;    0.000
672.266; 2994.000; 2573.000;    0.000
672.368; 2957.000; 2863.000;    0.000
672.470; 2901.000; 2272.000;    0.000
672.572; 2932.000; 2278.000;    0.000
672.675; 2925.000; 2659.000;    0.000
672.777; 2917.000; 2695.000;    0.000
672.879; 2921.000; 2946.000;    0.000
672.981; 2919.000; 1936.000;    0.000
673.083; 2870.000; 2256.000;    0.000
673.185; 2809.000; 1882.000;    0.000
673.287; 2858.000; 3908.000;    0.000
673.389; 2859.000; 2686.000;    0.000
673.491; 2873.000; 3247.000;    0.000
673.593; 2838.000; 2256.000;    0.000
673.695; 2846.000; 2537.000;    0.000
673.797; 2858.000; 2237.000;    0.000
673.899; 2863.000; 2974.000;    0.000
674.001; 2847.000; 2343.000;    0.000
674.103; 2888.000; 2691.000;    0.000
674.204; 2804.000; 2497.000;    0.000
674.306; 2863.000; 2434.000;    0.000
674.408; 2847.000; 2425.000;    0.000
674.510; 2853.000; 3268.000;    0.000
674.612; 2796.000; 2412.000;    0.000
674.713; 2781.000; 2529.000;    0.000
674.815; 2799.000; 2410.000;    0.000
674.917; 2819.000; 3062.000;    0.000
675.019; 2755.000; 2658.000;    0.000
675.120; 2780.000; 3177.000;    0.000
675.222; 2794.000; 2989.000;    0.000
675.324; 2740.000; 2672.000;    0.000
675.425; 2779.000; 2905.000;    0.000
675.527; 2750.000; 2585.000;    0.000
675.628; 2783.000; 3087.000;    0.000
675.730; 2711.000; 2742.000;    0.000
675.831; 2772.000; 3708.000;    0.000
675.933; 2759.000; 2934.000;    0.000
676.034; 2782.000; 2269.000;    0.000
676.136; 2747.000; 2884.000;    0.000
676.237; 2711.000; 2628.000;    0.000
676.339; 2738.000; 2709.000;    0.000
676.440; 2744.000; 2904.000;    0.000
676.542; 2719.000; 2338.000;    0.000
676.643; 2704.000; 2406.000;    0.000
676.744; 2743.000; 2610.000;    0.000
676.846; 2712.000; 2725.000;    0.000
676.947; 2699.000; 2677.000;    0.000
677.048; 2756.000; 5169.000;    0.000
677.150; 2663.000; 2394.000;    0.000
677.251; 2728.000; 2979.000;    0.000
677.352; 2636.000; 2040.000;    0.000
677.453; 2689.000; 2884.000;    0.000
677.555; 2640.000; 2293.000;    0.000
677.656; 2625.000; 2155.000;    0.000
677.757; 2691.000; 4798.000;    0.000
677.858; 2655.000; 3866.000;    0.000
677.959; 2600.000; 2710.000;    0.000
678.060; 2614.000; 3068.000;    0.000
678.161; 2591.000; 2240.000;    0.000
678.262; 2608.000; 1881.000;    0.000
678.363; 2625.000; 2166.000;    0.000
678.464; 2673.000; 2649.000;    0.000
678.565; 2626.000; 3208.000;    0.000
678.666; 2621.000; 2506.000;    0.000
678.767; 2662.000; 4845.000;    0.000
678.868; 2566.000; 2584.000;    0.000
678.969; 2550.000; 2749.000;    0.000
679.070; 2558.000; 2349.000;    0.000
679.171; 2561.000; 2980.000;    0.000
679.272; 2564.000; 2219.000;    0.000
679.373; 2519.000; 2332.000;    0.000
679.473; 2539.000; 2357.000;    0.000
679.574; 2591.000; 2826.000;    0.000
679.675; 2534.000; 3269.000;    0.000
679.776; 2512.000; 2190.000;    0.000
679.877; 2567.000; 2769.000;    0.000
679.977; 2606.000; 2982.000;    0.000
680.078; 2493.000; 2247.000;    0.000
680.179; 2530.000; 2692.000;    0.000
680.279; 2482.000; 2367.000;    0.000
680.380; 2496.000; 2629.000;    0.000
680.481; 2527.000; 2818.000;    0.000
680.581; 2519.000; 3088.000;    0.000
680.682; 2481.000; 2987.000;    0.000
680.782; 2456.000; 3117.000;    0.000
680.883; 2407.000; 2781.000;    0.000
680.983; 2464.000; 3745.000;    0.000
681.084; 2425.000; 3188.000;    0.000
681.184; 2433.000; 3529.000;    0.000
681.285; 2444.000; 2700.000;    0.000
681.385; 2490.000; 3270.000;    0.000
681.486; 2452.000; 3314.000;    0.000
681.586; 2441.000; 2785.000;    0.000
681.686; 2479.000; 3558.000;    0.000
681.787; 2398.000; 2437.000;    0.000
681.887; 2428.000; 2862.000;    0.000
681.987; 2404.000; 2421.000;    0.000
682.088; 2365.000; 1789.000;    0.000
682.188; 2340.000; 2305.000;    0.000
682.288; 2356.000; 2498.000;    0.000
682.388; 2364.000; 3013.000;    0.000
682.489; 2385.000; 2214.000;    0.000
682.589; 2318.000; 2451.000;    0.000
682.689; 2382.000; 3107.000;    0.000
682.789; 2353.000; 3210.000;    0.000
682.889; 2347.000; 3323.000;    0.000
682.989; 2317.000; 2651.000;    0.000
683.089; 2394.000; 3217.000;    0.000
683.190; 2308.000; 2427.000;    0.000
683.290; 2300.000; 2457.000;    0.000
683.390; 2340.000; 2915.000;    0.000
683.490; 2306.000; 2883.000;    0.000
683.590; 2329.000; 2560.000;    0.000
683.690; 2277.000; 2351.000;    0.000
683.790; 2321.000; 3460.000;    0.000
683.889; 2252.000; 3072.000;    0.000
683.989; 2284.000; 2876.000;    0.000
684.089; 2230.000; 2949.000;    0.000
684.189; 2277.000; 3141.000;    0.000
684.289; 2272.000; 2939.000;    0.000
684.389; 2246.000; 2639.000;    0.000
684.489; 2350.000; 7138.000;    0.000
684.588; 2269.000; 3336.000;    0.000
684.688; 2270.000; 3208.000;    0.000
684.788; 2195.000; 2618.000;    0.000
684.888; 2282.000; 3785.000;    0.000
684.987; 2245.000; 2349.000;    0.000
685.087; 2264.000; 2856.000;    0.000
685.187; 2236.000; 2385.000;    0.000
685.286; 2226.000; 2694.000;    0.000
685.386; 2237.000; 2722.000;    0.000
685.486; 2221.000; 3484.000;    0.000
685.585; 2254.000; 2693.000;    0.000
685.685; 2181.000; 2549.000;    0.000
685.784; 2240.000; 3307.000;    0.000
685.884; 2227.000; 3250.000;    0.000
685.983; 2172.000; 2979.000;    0.000
686.083; 2211.000; 3243.000;    0.000
686.182; 2208.000; 2980.000;    0.000
686.282; 2195.000; 3038.000;    0.000
686.381; 2194.000; 2134.000;    0.000
686.480; 2168.000; 3570.000;    0.000
686.580; 2181.000; 3131.000;    0.000
686.679; 2170.000; 3081.000;    0.000
686.779; 2125.000; 2042.000;    0.000
686.878; 2126.000; 3493.000;    0.000
686.977; 2102.000; 2160.000;    0.000
687.076; 2141.000; 2502.000;    0.000
687.176; 2148.000; 2912.000;    0.000
687.275; 2167.000; 2690.000;    0.000
687.374; 2081.000; 3444.000;    0.000
687.473; 2100.000; 2899.000;    0.000
687.573; 2101.000; 2270.000;    0.000
687.672; 2078.000; 1757.000;    0.000
687.771; 2115.000; 3004.000;    0.000
687.870; 2139.000; 3005.000;    0.000
687.969; 2162.000; 3054.000;    0.000
688.068; 2184.000; 3802.000;    0.000
688.167; 2172.000; 3231.000;    0.000
688.266; 2143.000; 3929.000;    0.000
688.365; 2132.000; 3620.000;    0.000
688.464; 2112.000; 2640.000;    0.000
688.563; 2093.000; 2482.000;    0.000
688.662; 2140.000; 3314.000;    0.000
688.761; 2135.000; 2544.000;    0.000
688.860; 2126.000; 2595.000;    0.000
688.959; 2121.000; 3005.000;    0.000
689.058; 2127.000; 2535.000;    0.000
689.157; 2101.000; 2857.000;    0.000
689.255; 2110.000; 3842.000;    0.000
689.354; 2045.000; 2514.000;    0.000
689.453; 2040.000; 2319.000;    0.000
689.552; 1999.000; 2694.000;    0.000
689.651; 2013.000; 3092.000;    0.000
689.749; 1980.000; 2740.000;    0.000
689.848; 1942.000; 2199.000;    0.000
689.947; 1940.000; 3860.000;    0.000
690.045; 1866.000; 2554.000;    0.000
690.144; 1810.000; 2574.000;    0.000
690.243; 1849.000; 3459.000;    0.000
690.341; 1741.000; 2082.000;    0.000
690.440; 1737.000; 2076.000;    0.000
690.538; 1728.000; 3511.000;    0.000
690.637; 1690.000; 2796.000;    0.000
690.736; 1680.000; 2957.000;    0.000
690.834; 1625.000; 2757.000;    0.000
690.933; 1607.000; 2559.000;    0.000
691.031; 1560.000; 1953.000;    0.000
691.129; 1545.000; 3665.000;    0.000
691.228; 1548.000; 3270.000;    0.000
691.326; 1469.000; 3209.000;    0.000
691.425; 1436.000; 2597.000;    0.000
691.523; 1395.000; 2132.000;    0.000
691.621; 1349.000; 2595.000;    0.000
691.720; 1312.000; 2239.000;    0.000
691.818; 1244.000; 1850.000;    0.000
691.916; 1265.000; 2202.000;    0.000
692.015; 1224.000; 2076.000;    0.000
692.113; 1152.000; 2410.000;    0.000
692.211; 1133.000; 2718.000;    0.000
692.309; 1104.000; 2989.000;    0.000
692.407; 1057.000; 2959.000;    0.000
692.506; 1021.000; 1798.000;    0.000
692.604;  982.000; 2200.000;    0.000
692.702;  990.000; 2562.000;    0.000
692.800;  974.000; 3026.000;    0.000
692.898;  929.000; 2986.000;    0.000
692.996;  912.000; 2782.000;    0.000
693.094;  851.000; 2575.000;    0.000
693.192;  837.000; 3102.000;    0.000
693.290;  765.000; 2788.000;    0.000
693.388;  770.000; 3210.000;    0.000
693.486;  744.000; 2123.000;    0.000
693.584;  735.000; 3166.000;    0.000
693.682;  723.000; 4240.000;    0.000
693.780;  653.000; 2532.000;    0.000
693.878;  631.000; 2984.000;    0.000
693.975;  622.000; 2704.000;    0.000
694.073;  588.000; 2728.000;    0.000
694.171;  558.000; 3480.000;    0.000
694.269;  510.000; 2193.000;    0.000
694.367;  487.000; 2361.000;    0.000
694.464;  499.000; 3351.000;    0.000
694.562;  460.000; 3235.000;    0.000
694.660;  475.000; 3337.000;    0.000
694.758;  420.000; 2546.000;    0.000
694.855;  429.000; 2975.000;    0.000
694.953;  397.000; 3198.000;    0.000
695.050;  383.000; 2763.000;    0.000
695.148;  375.000; 3049.000;    0.000
695.246;  347.000; 2257.000;    0.000
695.343;  339.000; 2639.000;    0.000
695.441;  320.000; 3230.000;    0.000
695.538;  332.000; 3643.000;    0.000
695.636;  292.000; 2459.000;    0.000
695.733;  280.000; 2704.000;    0.000
695.831;  307.000; 3723.000;    0.000
695.928;  257.000; 2393.000;    0.000
696.026;  245.000; 2392.000;    0.000
696.123;  228.000; 1802.000;    0.000
696.220;  226.000; 2174.000;    0.000
696.318;  218.000; 2266.000;    0.000
696.415;  200.000; 2702.000;    0.000
696.512;  239.000; 3988.000;    0.000
696.610;  181.000; 2228.000;    0.000
696.707;  215.000; 4079.000;    0.000
696.804;  175.000; 2550.000;    0.000
696.901;  167.000; 2325.000;    0.000
696.999;  184.000; 3345.000;    0.000
697.096;  211.000; 4156.000;    0.000
697.193;  168.000; 2921.000;    0.000
697.290;  149.000; 2146.000;    0.000
697.387;  171.000; 3348.000;    0.000
697.484;  176.000; 3489.000;    0.000
697.581;  145.000; 2332.000;    0.000
697.679;  162.000; 3018.000;    0.000
697.776;  159.000; 3265.000;    0.000
697.873;  132.000; 2534.000;    0.000
697.970;  139.000; 2792.000;    0.000
698.067;  140.000; 3165.000;    0.000
698.164;  122.000; 2854.000;    0.000
698.261;  110.000; 2404.000;    0.000
698.357;  139.000; 3180.000;    0.000
698.454;  134.000; 3028.000;    0.000
698.551;  113.000; 2699.000;    0.000
698.648;  120.000; 2603.000;    0.000
698.745;  115.000; 2171.000;    0.000
698.842;  173.000; 4857.000;    0.000
698.939;   82.000; 1383.000;    0.000
699.035;  118.000; 2799.000;    0.000
699.132;   91.000; 2570.000;    0.000
699.229;  135.000; 3709.000;    0.000
699.326;   95.000; 2105.000;    0.000
699.422;   93.000; 2249.000;    0.000
699.519;  100.000; 2004.000;    0.000
699.616;   82.000; 2146.000;    0.000
699.712;   87.000; 2483.000;    0.000
699.809;  104.000; 2763.000;    0.000
699.905;   77.000; 1904.000;    0.000
700.002;   96.000; 3003.000;    0.000
700.099;   86.000; 2381.000;    0.000
700.195;   80.000; 2102.000;    0.000
700.292;   88.000; 2495.000;    0.000
700.388;   96.000; 2487.000;    0.000
700.485;   73.000; 1712.000;    0.000
700.581;  120.000; 4283.000;    0.000
700.677;   70.000; 1876.000;    0.000
700.774;  112.000; 2886.000;    0.000
700.870;  104.000; 2925.000;    0.000
700.967;   68.000; 1681.000;    0.000
701.063;   68.000; 1970.000;    0.000
701.159;   68.000; 2171.000;    0.000
701.256;   74.000; 1828.000;    0.000
701.352;   66.000; 2031.000;    0.000
701.448;   89.000; 2397.000;    0.000
701.544;   79.000; 2420.000;    0.000
701.641;   80.000; 2263.000;    0.000
701.737;   78.000; 2192.000;    0.000
701.833;   44.000; 1125.000;    0.000
701.929;   78.000; 1741.000;    0.000
702.025;   50.000; 1111.000;    0.000
702.121;   57.000; 1703.000;    0.000
702.217;   49.000; 1283.000;    0.000

