Pellet-T1_position1_Burst5_n5
Integration time [ms]:   1.000
Averaging Nr. [scans]: 1
Smoothing Nr. [pixels]: 0
Data measured with spectrometer [name]: NIR
Wave   ;Sample   ;Dark     ;Reference
[nm]   ;[counts] ;[counts] ;[counts] 

691.496;    2.800;    0.000;    0.000
691.696;   43.800;    0.000;    0.000
691.896;   -0.200;    0.000;    0.000
692.096;   27.800;    0.000;    0.000
692.296;   16.800;    0.000;    0.000
692.496;   70.800;    0.000;    0.000
692.695;    0.800;    0.000;    0.000
692.895;   50.800;    0.000;    0.000
693.095;   -5.200;    0.000;    0.000
693.295;   89.800;    0.000;    0.000
693.495;   36.800;    0.000;    0.000
693.695;   35.800;    0.000;    0.000
693.894;   30.800;    0.000;    0.000
694.094;   66.800;    0.000;    0.000
694.294;   55.800;    0.000;    0.000
694.494;  191.800;    0.000;    0.000
694.693; 1360.800;    0.000;    0.000
694.893; 1450.800;    0.000;    0.000
695.093; 1456.800;    0.000;    0.000
695.293; 1492.800;    0.000;    0.000
695.492; 1458.800;    0.000;    0.000
695.692; 1523.800;    0.000;    0.000
695.891; 1506.800;    0.000;    0.000
696.091; 1575.800;    0.000;    0.000
696.291; 1453.800;    0.000;    0.000
696.490; 1476.800;    0.000;    0.000
696.690; 1490.800;    0.000;    0.000
696.889; 1524.800;    0.000;    0.000
697.089; 1470.800;    0.000;    0.000
697.288; 1555.800;    0.000;    0.000
697.488; 1529.800;    0.000;    0.000
697.687; 1532.800;    0.000;    0.000
697.887; 1523.800;    0.000;    0.000
698.086; 1512.800;    0.000;    0.000
698.286; 1502.800;    0.000;    0.000
698.485; 1571.800;    0.000;    0.000
698.684; 1565.800;    0.000;    0.000
698.884; 1576.800;    0.000;    0.000
699.083; 1547.800;    0.000;    0.000
699.282; 1636.800;    0.000;    0.000
699.482; 1582.800;    0.000;    0.000
699.681; 1581.800;    0.000;    0.000
699.880; 1625.800;    0.000;    0.000
700.080; 1602.800;    0.000;    0.000
700.279; 1559.800;    0.000;    0.000
700.478; 1576.800;    0.000;    0.000
700.677; 1623.800;    0.000;    0.000
700.877; 1647.800;    0.000;    0.000
701.076; 1644.800;    0.000;    0.000
701.275; 1616.800;    0.000;    0.000
701.474; 1587.800;    0.000;    0.000
701.673; 1524.800;    0.000;    0.000
701.872; 1652.800;    0.000;    0.000
702.071; 1623.800;    0.000;    0.000
702.271; 1717.800;    0.000;    0.000
702.470; 1672.800;    0.000;    0.000
702.669; 1623.800;    0.000;    0.000
702.868; 1677.800;    0.000;    0.000
703.067; 1608.800;    0.000;    0.000
703.266; 1639.800;    0.000;    0.000
703.465; 1689.800;    0.000;    0.000
703.664; 1644.800;    0.000;    0.000
703.863; 1695.800;    0.000;    0.000
704.062; 1603.800;    0.000;    0.000
704.260; 1652.800;    0.000;    0.000
704.459; 1689.800;    0.000;    0.000
704.658; 1663.800;    0.000;    0.000
704.857; 1704.800;    0.000;    0.000
705.056; 1636.800;    0.000;    0.000
705.255; 1641.800;    0.000;    0.000
705.454; 1649.800;    0.000;    0.000
705.652; 1738.800;    0.000;    0.000
705.851; 1693.800;    0.000;    0.000
706.050; 1777.800;    0.000;    0.000
706.249; 1681.800;    0.000;    0.000
706.447; 1865.800;    0.000;    0.000
706.646; 1680.800;    0.000;    0.000
706.845; 1705.800;    0.000;    0.000
707.043; 1729.800;    0.000;    0.000
707.242; 1781.800;    0.000;    0.000
707.441; 1769.800;    0.000;    0.000
707.639; 1737.800;    0.000;    0.000
707.838; 1785.800;    0.000;    0.000
708.037; 1617.800;    0.000;    0.000
708.235; 1737.800;    0.000;    0.000
708.434; 1807.800;    0.000;    0.000
708.632; 1777.800;    0.000;    0.000
708.831; 1835.800;    0.000;    0.000
709.029; 1761.800;    0.000;    0.000
709.228; 1805.800;    0.000;    0.000
709.426; 1816.800;    0.000;    0.000
709.625; 1827.800;    0.000;    0.000
709.823; 1832.800;    0.000;    0.000
710.022; 1775.800;    0.000;    0.000
710.220; 1877.800;    0.000;    0.000
710.418; 1785.800;    0.000;    0.000
710.617; 1914.800;    0.000;    0.000
710.815; 1805.800;    0.000;    0.000
711.013; 1824.800;    0.000;    0.000
711.212; 1861.800;    0.000;    0.000
711.410; 1877.800;    0.000;    0.000
711.608; 1896.800;    0.000;    0.000
711.807; 1809.800;    0.000;    0.000
712.005; 1893.800;    0.000;    0.000
712.203; 1881.800;    0.000;    0.000
712.401; 1885.800;    0.000;    0.000
712.599; 1917.800;    0.000;    0.000
712.798; 1907.800;    0.000;    0.000
712.996; 1889.800;    0.000;    0.000
713.194; 1931.800;    0.000;    0.000
713.392; 1967.800;    0.000;    0.000
713.590; 1965.800;    0.000;    0.000
713.788; 1978.800;    0.000;    0.000
713.986; 2011.800;    0.000;    0.000
714.184; 1928.800;    0.000;    0.000
714.382; 2010.800;    0.000;    0.000
714.580; 1983.800;    0.000;    0.000
714.778; 1992.800;    0.000;    0.000
714.976; 1980.800;    0.000;    0.000
715.174; 2001.800;    0.000;    0.000
715.372; 2000.800;    0.000;    0.000
715.570; 2074.800;    0.000;    0.000
715.768; 2185.800;    0.000;    0.000
715.966; 2137.800;    0.000;    0.000
716.164; 2209.800;    0.000;    0.000
716.362; 2137.800;    0.000;    0.000
716.560; 2092.800;    0.000;    0.000
716.758; 2137.800;    0.000;    0.000
716.955; 2097.800;    0.000;    0.000
717.153; 2023.800;    0.000;    0.000
717.351; 2077.800;    0.000;    0.000
717.549; 2111.800;    0.000;    0.000
717.746; 2137.800;    0.000;    0.000
717.944; 2121.800;    0.000;    0.000
718.142; 2180.800;    0.000;    0.000
718.340; 2121.800;    0.000;    0.000
718.537; 2176.800;    0.000;    0.000
718.735; 2161.800;    0.000;    0.000
718.933; 2137.800;    0.000;    0.000
719.130; 2109.800;    0.000;    0.000
719.328; 2147.800;    0.000;    0.000
719.525; 2139.800;    0.000;    0.000
719.723; 2121.800;    0.000;    0.000
719.920; 2135.800;    0.000;    0.000
720.118; 2145.800;    0.000;    0.000
720.316; 2156.800;    0.000;    0.000
720.513; 2114.800;    0.000;    0.000
720.711; 2097.800;    0.000;    0.000
720.908; 2144.800;    0.000;    0.000
721.105; 2201.800;    0.000;    0.000
721.303; 2265.800;    0.000;    0.000
721.500; 2170.800;    0.000;    0.000
721.698; 2201.800;    0.000;    0.000
721.895; 2107.800;    0.000;    0.000
722.092; 2047.800;    0.000;    0.000
722.290; 2169.800;    0.000;    0.000
722.487; 2218.800;    0.000;    0.000
722.684; 2161.800;    0.000;    0.000
722.882; 2140.800;    0.000;    0.000
723.079; 2204.800;    0.000;    0.000
723.276; 2173.800;    0.000;    0.000
723.473; 2168.800;    0.000;    0.000
723.671; 2167.800;    0.000;    0.000
723.868; 2171.800;    0.000;    0.000
724.065; 2205.800;    0.000;    0.000
724.262; 2269.800;    0.000;    0.000
724.459; 2275.800;    0.000;    0.000
724.656; 2240.800;    0.000;    0.000
724.854; 2260.800;    0.000;    0.000
725.051; 2261.800;    0.000;    0.000
725.248; 2289.800;    0.000;    0.000
725.445; 2278.800;    0.000;    0.000
725.642; 2241.800;    0.000;    0.000
725.839; 2247.800;    0.000;    0.000
726.036; 2173.800;    0.000;    0.000
726.233; 2291.800;    0.000;    0.000
726.430; 2232.800;    0.000;    0.000
726.627; 2281.800;    0.000;    0.000
726.824; 2256.800;    0.000;    0.000
727.021; 2327.800;    0.000;    0.000
727.218; 2272.800;    0.000;    0.000
727.414; 2347.800;    0.000;    0.000
727.611; 2389.800;    0.000;    0.000
727.808; 2373.800;    0.000;    0.000
728.005; 2334.800;    0.000;    0.000
728.202; 2379.800;    0.000;    0.000
728.399; 2360.800;    0.000;    0.000
728.595; 2335.800;    0.000;    0.000
728.792; 2365.800;    0.000;    0.000
728.989; 2324.800;    0.000;    0.000
729.186; 2340.800;    0.000;    0.000
729.382; 2391.800;    0.000;    0.000
729.579; 2380.800;    0.000;    0.000
729.776; 2355.800;    0.000;    0.000
729.972; 2373.800;    0.000;    0.000
730.169; 2355.800;    0.000;    0.000
730.366; 2410.800;    0.000;    0.000
730.562; 2427.800;    0.000;    0.000
730.759; 2430.800;    0.000;    0.000
730.955; 2361.800;    0.000;    0.000
731.152; 2358.800;    0.000;    0.000
731.348; 2414.800;    0.000;    0.000
731.545; 2332.800;    0.000;    0.000
731.741; 2418.800;    0.000;    0.000
731.938; 2495.800;    0.000;    0.000
732.134; 2388.800;    0.000;    0.000
732.331; 2480.800;    0.000;    0.000
732.527; 2407.800;    0.000;    0.000
732.724; 2464.800;    0.000;    0.000
732.920; 2476.800;    0.000;    0.000
733.116; 2515.800;    0.000;    0.000
733.313; 2461.800;    0.000;    0.000
733.509; 2490.800;    0.000;    0.000
733.705; 2535.800;    0.000;    0.000
733.902; 2513.800;    0.000;    0.000
734.098; 2502.800;    0.000;    0.000
734.294; 2515.800;    0.000;    0.000
734.490; 2506.800;    0.000;    0.000
734.687; 2620.800;    0.000;    0.000
734.883; 2515.800;    0.000;    0.000
735.079; 2552.800;    0.000;    0.000
735.275; 2618.800;    0.000;    0.000
735.471; 2560.800;    0.000;    0.000
735.667; 2597.800;    0.000;    0.000
735.863; 2524.800;    0.000;    0.000
736.060; 2609.800;    0.000;    0.000
736.256; 2556.800;    0.000;    0.000
736.452; 2537.800;    0.000;    0.000
736.648; 2635.800;    0.000;    0.000
736.844; 2661.800;    0.000;    0.000
737.040; 2645.800;    0.000;    0.000
737.236; 2601.800;    0.000;    0.000
737.432; 2585.800;    0.000;    0.000
737.628; 2612.800;    0.000;    0.000
737.824; 2611.800;    0.000;    0.000
738.019; 2717.800;    0.000;    0.000
738.215; 2669.800;    0.000;    0.000
738.411; 2657.800;    0.000;    0.000
738.607; 2609.800;    0.000;    0.000
738.803; 2754.800;    0.000;    0.000
738.999; 2719.800;    0.000;    0.000
739.195; 2685.800;    0.000;    0.000
739.390; 2747.800;    0.000;    0.000
739.586; 2767.800;    0.000;    0.000
739.782; 2786.800;    0.000;    0.000
739.978; 2788.800;    0.000;    0.000
740.173; 2743.800;    0.000;    0.000
740.369; 2748.800;    0.000;    0.000
740.565; 2792.800;    0.000;    0.000
740.760; 2804.800;    0.000;    0.000
740.956; 2843.800;    0.000;    0.000
741.152; 2816.800;    0.000;    0.000
741.347; 2817.800;    0.000;    0.000
741.543; 2927.800;    0.000;    0.000
741.738; 2897.800;    0.000;    0.000
741.934; 2960.800;    0.000;    0.000
742.129; 3051.800;    0.000;    0.000
742.325; 3121.800;    0.000;    0.000
742.520; 3256.800;    0.000;    0.000
742.716; 3171.800;    0.000;    0.000
742.911; 3173.800;    0.000;    0.000
743.107; 3178.800;    0.000;    0.000
743.302; 3103.800;    0.000;    0.000
743.498; 3025.800;    0.000;    0.000
743.693; 3160.800;    0.000;    0.000
743.888; 3201.800;    0.000;    0.000
744.084; 3386.800;    0.000;    0.000
744.279; 3530.800;    0.000;    0.000
744.474; 3733.800;    0.000;    0.000
744.670; 3671.800;    0.000;    0.000
744.865; 3449.800;    0.000;    0.000
745.060; 3410.800;    0.000;    0.000
745.255; 3406.800;    0.000;    0.000
745.451; 3401.800;    0.000;    0.000
745.646; 3372.800;    0.000;    0.000
745.841; 3333.800;    0.000;    0.000
746.036; 3344.800;    0.000;    0.000
746.231; 3444.800;    0.000;    0.000
746.426; 3425.800;    0.000;    0.000
746.622; 3805.800;    0.000;    0.000
746.817; 4109.800;    0.000;    0.000
747.012; 4265.800;    0.000;    0.000
747.207; 4169.800;    0.000;    0.000
747.402; 3915.800;    0.000;    0.000
747.597; 3917.800;    0.000;    0.000
747.792; 3821.800;    0.000;    0.000
747.987; 3683.800;    0.000;    0.000
748.182; 3679.800;    0.000;    0.000
748.377; 3582.800;    0.000;    0.000
748.572; 3579.800;    0.000;    0.000
748.767; 3525.800;    0.000;    0.000
748.961; 3500.800;    0.000;    0.000
749.156; 3562.800;    0.000;    0.000
749.351; 3498.800;    0.000;    0.000
749.546; 3412.800;    0.000;    0.000
749.741; 3385.800;    0.000;    0.000
749.936; 3359.800;    0.000;    0.000
750.130; 3338.800;    0.000;    0.000
750.325; 3404.800;    0.000;    0.000
750.520; 3393.800;    0.000;    0.000
750.715; 3421.800;    0.000;    0.000
750.909; 3440.800;    0.000;    0.000
751.104; 3372.800;    0.000;    0.000
751.299; 3369.800;    0.000;    0.000
751.493; 3313.800;    0.000;    0.000
751.688; 3323.800;    0.000;    0.000
751.882; 3353.800;    0.000;    0.000
752.077; 3317.800;    0.000;    0.000
752.272; 3241.800;    0.000;    0.000
752.466; 3263.800;    0.000;    0.000
752.661; 3262.800;    0.000;    0.000
752.855; 3245.800;    0.000;    0.000
753.050; 3291.800;    0.000;    0.000
753.244; 3403.800;    0.000;    0.000
753.439; 3236.800;    0.000;    0.000
753.633; 3334.800;    0.000;    0.000
753.827; 3265.800;    0.000;    0.000
754.022; 3282.800;    0.000;    0.000
754.216; 3332.800;    0.000;    0.000
754.411; 3299.800;    0.000;    0.000
754.605; 3216.800;    0.000;    0.000
754.799; 3243.800;    0.000;    0.000
754.994; 3194.800;    0.000;    0.000
755.188; 3325.800;    0.000;    0.000
755.382; 3280.800;    0.000;    0.000
755.576; 3253.800;    0.000;    0.000
755.771; 3156.800;    0.000;    0.000
755.965; 3314.800;    0.000;    0.000
756.159; 3325.800;    0.000;    0.000
756.353; 3293.800;    0.000;    0.000
756.547; 3291.800;    0.000;    0.000
756.742; 3291.800;    0.000;    0.000
756.936; 3254.800;    0.000;    0.000
757.130; 3321.800;    0.000;    0.000
757.324; 3325.800;    0.000;    0.000
757.518; 3320.800;    0.000;    0.000
757.712; 3276.800;    0.000;    0.000
757.906; 3312.800;    0.000;    0.000
758.100; 3471.800;    0.000;    0.000
758.294; 3427.800;    0.000;    0.000
758.488; 3411.800;    0.000;    0.000
758.682; 3343.800;    0.000;    0.000
758.876; 3347.800;    0.000;    0.000
759.070; 3314.800;    0.000;    0.000
759.264; 3324.800;    0.000;    0.000
759.457; 3400.800;    0.000;    0.000
759.651; 3406.800;    0.000;    0.000
759.845; 3398.800;    0.000;    0.000
760.039; 3260.800;    0.000;    0.000
760.233; 3391.800;    0.000;    0.000
760.427; 3417.800;    0.000;    0.000
760.620; 3424.800;    0.000;    0.000
760.814; 3368.800;    0.000;    0.000
761.008; 3343.800;    0.000;    0.000
761.202; 3398.800;    0.000;    0.000
761.395; 3403.800;    0.000;    0.000
761.589; 3383.800;    0.000;    0.000
761.783; 3463.800;    0.000;    0.000
761.976; 3488.800;    0.000;    0.000
762.170; 3328.800;    0.000;    0.000
762.363; 3434.800;    0.000;    0.000
762.557; 3538.800;    0.000;    0.000
762.750; 3462.800;    0.000;    0.000
762.944; 3361.800;    0.000;    0.000
763.138; 3441.800;    0.000;    0.000
763.331; 3352.800;    0.000;    0.000
763.524; 3462.800;    0.000;    0.000
763.718; 3610.800;    0.000;    0.000
763.911; 3433.800;    0.000;    0.000
764.105; 3463.800;    0.000;    0.000
764.298; 3449.800;    0.000;    0.000
764.492; 3488.800;    0.000;    0.000
764.685; 3526.800;    0.000;    0.000
764.878; 3529.800;    0.000;    0.000
765.072; 3586.800;    0.000;    0.000
765.265; 3551.800;    0.000;    0.000
765.458; 3535.800;    0.000;    0.000
765.651; 3638.800;    0.000;    0.000
765.845; 3769.800;    0.000;    0.000
766.038; 3984.800;    0.000;    0.000
766.231; 5170.800;    0.000;    0.000
766.424; 7330.800;    0.000;    0.000
766.618; 6832.800;    0.000;    0.000
766.811; 4715.800;    0.000;    0.000
767.004; 4011.800;    0.000;    0.000
767.197; 3750.800;    0.000;    0.000
767.390; 3778.800;    0.000;    0.000
767.583; 3731.800;    0.000;    0.000
767.776; 3710.800;    0.000;    0.000
767.969; 3614.800;    0.000;    0.000
768.162; 3756.800;    0.000;    0.000
768.355; 3712.800;    0.000;    0.000
768.548; 3750.800;    0.000;    0.000
768.741; 3804.800;    0.000;    0.000
768.934; 3716.800;    0.000;    0.000
769.127; 3713.800;    0.000;    0.000
769.320; 3959.800;    0.000;    0.000
769.513; 4060.800;    0.000;    0.000
769.706; 5439.800;    0.000;    0.000
769.898; 6513.800;    0.000;    0.000
770.091; 5579.800;    0.000;    0.000
770.284; 4234.800;    0.000;    0.000
770.477; 3997.800;    0.000;    0.000
770.670; 3982.800;    0.000;    0.000
770.862; 3965.800;    0.000;    0.000
771.055; 4000.800;    0.000;    0.000
771.248; 4016.800;    0.000;    0.000
771.441; 3943.800;    0.000;    0.000
771.633; 3980.800;    0.000;    0.000
771.826; 4045.800;    0.000;    0.000
772.018; 4053.800;    0.000;    0.000
772.211; 4041.800;    0.000;    0.000
772.404; 4082.800;    0.000;    0.000
772.596; 4039.800;    0.000;    0.000
772.789; 4101.800;    0.000;    0.000
772.981; 4133.800;    0.000;    0.000
773.174; 4121.800;    0.000;    0.000
773.366; 4270.800;    0.000;    0.000
773.559; 4190.800;    0.000;    0.000
773.751; 4289.800;    0.000;    0.000
773.944; 4399.800;    0.000;    0.000
774.136; 4371.800;    0.000;    0.000
774.329; 4438.800;    0.000;    0.000
774.521; 4472.800;    0.000;    0.000
774.713; 4553.800;    0.000;    0.000
774.906; 4696.800;    0.000;    0.000
775.098; 4738.800;    0.000;    0.000
775.290; 4976.800;    0.000;    0.000
775.483; 4983.800;    0.000;    0.000
775.675; 5171.800;    0.000;    0.000
775.867; 5373.800;    0.000;    0.000
776.059; 5676.800;    0.000;    0.000
776.251; 6127.800;    0.000;    0.000
776.444; 6688.800;    0.000;    0.000
776.636; 7210.800;    0.000;    0.000
776.828; 8587.800;    0.000;    0.000
777.020;10749.800;    0.000;    0.000
777.212;13242.800;    0.000;    0.000
777.404;14335.800;    0.000;    0.000
777.596;13162.800;    0.000;    0.000
777.788;10962.800;    0.000;    0.000
777.980; 9397.800;    0.000;    0.000
778.172; 8196.800;    0.000;    0.000
778.364; 7536.800;    0.000;    0.000
778.556; 6746.800;    0.000;    0.000
778.748; 6606.800;    0.000;    0.000
778.940; 6111.800;    0.000;    0.000
779.132; 5919.800;    0.000;    0.000
779.324; 5575.800;    0.000;    0.000
779.516; 5412.800;    0.000;    0.000
779.708; 5278.800;    0.000;    0.000
779.900; 5032.800;    0.000;    0.000
780.091; 4820.800;    0.000;    0.000
780.283; 4810.800;    0.000;    0.000
780.475; 4865.800;    0.000;    0.000
780.667; 4672.800;    0.000;    0.000
780.859; 4567.800;    0.000;    0.000
781.050; 4561.800;    0.000;    0.000
781.242; 4468.800;    0.000;    0.000
781.434; 4365.800;    0.000;    0.000
781.625; 4401.800;    0.000;    0.000
781.817; 4306.800;    0.000;    0.000
782.009; 4245.800;    0.000;    0.000
782.200; 4223.800;    0.000;    0.000
782.392; 4095.800;    0.000;    0.000
782.583; 4183.800;    0.000;    0.000
782.775; 4126.800;    0.000;    0.000
782.966; 4139.800;    0.000;    0.000
783.158; 3994.800;    0.000;    0.000
783.349; 4068.800;    0.000;    0.000
783.541; 3928.800;    0.000;    0.000
783.732; 4050.800;    0.000;    0.000
783.924; 3936.800;    0.000;    0.000
784.115; 3818.800;    0.000;    0.000
784.306; 3945.800;    0.000;    0.000
784.498; 3905.800;    0.000;    0.000
784.689; 3952.800;    0.000;    0.000
784.880; 3909.800;    0.000;    0.000
785.072; 3772.800;    0.000;    0.000
785.263; 3901.800;    0.000;    0.000
785.454; 3737.800;    0.000;    0.000
785.645; 3731.800;    0.000;    0.000
785.837; 3837.800;    0.000;    0.000
786.028; 3679.800;    0.000;    0.000
786.219; 3737.800;    0.000;    0.000
786.410; 3811.800;    0.000;    0.000
786.601; 3764.800;    0.000;    0.000
786.793; 3767.800;    0.000;    0.000
786.984; 3712.800;    0.000;    0.000
787.175; 3709.800;    0.000;    0.000
787.366; 3676.800;    0.000;    0.000
787.557; 3699.800;    0.000;    0.000
787.748; 3654.800;    0.000;    0.000
787.939; 3645.800;    0.000;    0.000
788.130; 3745.800;    0.000;    0.000
788.321; 3695.800;    0.000;    0.000
788.512; 3726.800;    0.000;    0.000
788.703; 3656.800;    0.000;    0.000
788.894; 3747.800;    0.000;    0.000
789.084; 3625.800;    0.000;    0.000
789.275; 3700.800;    0.000;    0.000
789.466; 3644.800;    0.000;    0.000
789.657; 3677.800;    0.000;    0.000
789.848; 3622.800;    0.000;    0.000
790.039; 3705.800;    0.000;    0.000
790.229; 3803.800;    0.000;    0.000
790.420; 3687.800;    0.000;    0.000
790.611; 3723.800;    0.000;    0.000
790.801; 3666.800;    0.000;    0.000
790.992; 3787.800;    0.000;    0.000
791.183; 3666.800;    0.000;    0.000
791.373; 3624.800;    0.000;    0.000
791.564; 3734.800;    0.000;    0.000
791.755; 3662.800;    0.000;    0.000
791.945; 3686.800;    0.000;    0.000
792.136; 3584.800;    0.000;    0.000
792.326; 3647.800;    0.000;    0.000
792.517; 3708.800;    0.000;    0.000
792.707; 3718.800;    0.000;    0.000
792.898; 3692.800;    0.000;    0.000
793.088; 3733.800;    0.000;    0.000
793.279; 3766.800;    0.000;    0.000
793.469; 3653.800;    0.000;    0.000
793.660; 3730.800;    0.000;    0.000
793.850; 3745.800;    0.000;    0.000
794.040; 3783.800;    0.000;    0.000
794.231; 3960.800;    0.000;    0.000
794.421; 4095.800;    0.000;    0.000
794.611; 4264.800;    0.000;    0.000
794.802; 4463.800;    0.000;    0.000
794.992; 4556.800;    0.000;    0.000
795.182; 4637.800;    0.000;    0.000
795.372; 4372.800;    0.000;    0.000
795.563; 4379.800;    0.000;    0.000
795.753; 4160.800;    0.000;    0.000
795.943; 4085.800;    0.000;    0.000
796.133; 3927.800;    0.000;    0.000
796.323; 3803.800;    0.000;    0.000
796.513; 3892.800;    0.000;    0.000
796.703; 3995.800;    0.000;    0.000
796.893; 3855.800;    0.000;    0.000
797.083; 3970.800;    0.000;    0.000
797.273; 3904.800;    0.000;    0.000
797.463; 3833.800;    0.000;    0.000
797.653; 3776.800;    0.000;    0.000
797.843; 3774.800;    0.000;    0.000
798.033; 3714.800;    0.000;    0.000
798.223; 3675.800;    0.000;    0.000
798.413; 3575.800;    0.000;    0.000
798.603; 3595.800;    0.000;    0.000
798.793; 3446.800;    0.000;    0.000
798.983; 3294.800;    0.000;    0.000
799.172; 3502.800;    0.000;    0.000
799.362; 3448.800;    0.000;    0.000
799.552; 3422.800;    0.000;    0.000
799.742; 3434.800;    0.000;    0.000
799.932; 3344.800;    0.000;    0.000
800.121; 3484.800;    0.000;    0.000
800.311; 3333.800;    0.000;    0.000
800.501; 3374.800;    0.000;    0.000
800.690; 3360.800;    0.000;    0.000
800.880; 3377.800;    0.000;    0.000
801.070; 3365.800;    0.000;    0.000
801.259; 3287.800;    0.000;    0.000
801.449; 3362.800;    0.000;    0.000
801.638; 3423.800;    0.000;    0.000
801.828; 3231.800;    0.000;    0.000
802.017; 3283.800;    0.000;    0.000
802.207; 3362.800;    0.000;    0.000
802.396; 3346.800;    0.000;    0.000
802.586; 3320.800;    0.000;    0.000
802.775; 3296.800;    0.000;    0.000
802.965; 3200.800;    0.000;    0.000
803.154; 3296.800;    0.000;    0.000
803.343; 3268.800;    0.000;    0.000
803.533; 3199.800;    0.000;    0.000
803.722; 3225.800;    0.000;    0.000
803.911; 3281.800;    0.000;    0.000
804.101; 3177.800;    0.000;    0.000
804.290; 3295.800;    0.000;    0.000
804.479; 3262.800;    0.000;    0.000
804.668; 3295.800;    0.000;    0.000
804.857; 3237.800;    0.000;    0.000
805.047; 3269.800;    0.000;    0.000
805.236; 3294.800;    0.000;    0.000
805.425; 3290.800;    0.000;    0.000
805.614; 3270.800;    0.000;    0.000
805.803; 3339.800;    0.000;    0.000
805.992; 3321.800;    0.000;    0.000
806.181; 3320.800;    0.000;    0.000
806.370; 3216.800;    0.000;    0.000
806.559; 3200.800;    0.000;    0.000
806.748; 3262.800;    0.000;    0.000
806.937; 3319.800;    0.000;    0.000
807.126; 3187.800;    0.000;    0.000
807.315; 3285.800;    0.000;    0.000
807.504; 3337.800;    0.000;    0.000
807.693; 3190.800;    0.000;    0.000
807.882; 3220.800;    0.000;    0.000
808.071; 3260.800;    0.000;    0.000
808.260; 3187.800;    0.000;    0.000
808.448; 3295.800;    0.000;    0.000
808.637; 3150.800;    0.000;    0.000
808.826; 3259.800;    0.000;    0.000
809.015; 3283.800;    0.000;    0.000
809.203; 3230.800;    0.000;    0.000
809.392; 3308.800;    0.000;    0.000
809.581; 3238.800;    0.000;    0.000
809.770; 3166.800;    0.000;    0.000
809.958; 3252.800;    0.000;    0.000
810.147; 3366.800;    0.000;    0.000
810.335; 3283.800;    0.000;    0.000
810.524; 3206.800;    0.000;    0.000
810.713; 3344.800;    0.000;    0.000
810.901; 3391.800;    0.000;    0.000
811.090; 3378.800;    0.000;    0.000
811.278; 3342.800;    0.000;    0.000
811.467; 3406.800;    0.000;    0.000
811.655; 3415.800;    0.000;    0.000
811.844; 3496.800;    0.000;    0.000
812.032; 3580.800;    0.000;    0.000
812.220; 3536.800;    0.000;    0.000
812.409; 3460.800;    0.000;    0.000
812.597; 3454.800;    0.000;    0.000
812.785; 3591.800;    0.000;    0.000
812.974; 3525.800;    0.000;    0.000
813.162; 3581.800;    0.000;    0.000
813.350; 3493.800;    0.000;    0.000
813.539; 3630.800;    0.000;    0.000
813.727; 3656.800;    0.000;    0.000
813.915; 3585.800;    0.000;    0.000
814.103; 3673.800;    0.000;    0.000
814.291; 3817.800;    0.000;    0.000
814.480; 3572.800;    0.000;    0.000
814.668; 3715.800;    0.000;    0.000
814.856; 3803.800;    0.000;    0.000
815.044; 3921.800;    0.000;    0.000
815.232; 3941.800;    0.000;    0.000
815.420; 3987.800;    0.000;    0.000
815.608; 4112.800;    0.000;    0.000
815.796; 4080.800;    0.000;    0.000
815.984; 4175.800;    0.000;    0.000
816.172; 4295.800;    0.000;    0.000
816.360; 4454.800;    0.000;    0.000
816.548; 4561.800;    0.000;    0.000
816.736; 4695.800;    0.000;    0.000
816.924; 4818.800;    0.000;    0.000
817.111; 5004.800;    0.000;    0.000
817.299; 5362.800;    0.000;    0.000
817.487; 5767.800;    0.000;    0.000
817.675; 6430.800;    0.000;    0.000
817.863; 7508.800;    0.000;    0.000
818.050;10005.800;    0.000;    0.000
818.238;15218.800;    0.000;    0.000
818.426;16948.800;    0.000;    0.000
818.613;14300.800;    0.000;    0.000
818.801;12339.800;    0.000;    0.000
818.989;11975.800;    0.000;    0.000
819.176;13716.800;    0.000;    0.000
819.364;18675.800;    0.000;    0.000
819.552;21177.800;    0.000;    0.000
819.739;17736.800;    0.000;    0.000
819.927;14192.800;    0.000;    0.000
820.114;12117.800;    0.000;    0.000
820.302;10926.800;    0.000;    0.000
820.489; 9863.800;    0.000;    0.000
820.677; 9219.800;    0.000;    0.000
820.864; 8709.800;    0.000;    0.000
821.051; 8425.800;    0.000;    0.000
821.239; 8092.800;    0.000;    0.000
821.426; 8092.800;    0.000;    0.000
821.614; 8328.800;    0.000;    0.000
821.801; 8159.800;    0.000;    0.000
821.988; 7595.800;    0.000;    0.000
822.176; 7535.800;    0.000;    0.000
822.363; 7341.800;    0.000;    0.000
822.550; 6925.800;    0.000;    0.000
822.737; 6544.800;    0.000;    0.000
822.924; 6240.800;    0.000;    0.000
823.112; 6138.800;    0.000;    0.000
823.299; 5849.800;    0.000;    0.000
823.486; 5665.800;    0.000;    0.000
823.673; 5511.800;    0.000;    0.000
823.860; 5377.800;    0.000;    0.000
824.047; 5298.800;    0.000;    0.000
824.234; 5445.800;    0.000;    0.000
824.421; 5219.800;    0.000;    0.000
824.608; 5298.800;    0.000;    0.000
824.795; 4775.800;    0.000;    0.000
824.982; 4646.800;    0.000;    0.000
825.169; 4627.800;    0.000;    0.000
825.356; 4438.800;    0.000;    0.000
825.543; 4424.800;    0.000;    0.000
825.730; 4244.800;    0.000;    0.000
825.917; 4130.800;    0.000;    0.000
826.104; 4058.800;    0.000;    0.000
826.290; 3942.800;    0.000;    0.000
826.477; 3951.800;    0.000;    0.000
826.664; 3715.800;    0.000;    0.000
826.851; 3754.800;    0.000;    0.000
827.038; 3692.800;    0.000;    0.000
827.224; 3714.800;    0.000;    0.000
827.411; 3668.800;    0.000;    0.000
827.598; 3636.800;    0.000;    0.000
827.784; 3540.800;    0.000;    0.000
827.971; 3465.800;    0.000;    0.000
828.157; 3506.800;    0.000;    0.000
828.344; 3375.800;    0.000;    0.000
828.531; 3367.800;    0.000;    0.000
828.717; 3449.800;    0.000;    0.000
828.904; 3279.800;    0.000;    0.000
829.090; 3384.800;    0.000;    0.000
829.277; 3316.800;    0.000;    0.000
829.463; 3232.800;    0.000;    0.000
829.650; 3267.800;    0.000;    0.000
829.836; 3226.800;    0.000;    0.000
830.022; 3293.800;    0.000;    0.000
830.209; 3127.800;    0.000;    0.000
830.395; 3191.800;    0.000;    0.000
830.581; 3072.800;    0.000;    0.000
830.768; 3024.800;    0.000;    0.000
830.954; 3125.800;    0.000;    0.000
831.140; 3030.800;    0.000;    0.000
831.327; 2948.800;    0.000;    0.000
831.513; 2983.800;    0.000;    0.000
831.699; 2989.800;    0.000;    0.000
831.885; 2939.800;    0.000;    0.000
832.071; 3004.800;    0.000;    0.000
832.257; 2951.800;    0.000;    0.000
832.444; 2978.800;    0.000;    0.000
832.630; 2887.800;    0.000;    0.000
832.816; 3014.800;    0.000;    0.000
833.002; 2933.800;    0.000;    0.000
833.188; 2886.800;    0.000;    0.000
833.374; 2856.800;    0.000;    0.000
833.560; 2866.800;    0.000;    0.000
833.746; 2806.800;    0.000;    0.000
833.932; 2719.800;    0.000;    0.000
834.118; 2852.800;    0.000;    0.000
834.303; 2729.800;    0.000;    0.000
834.489; 2764.800;    0.000;    0.000
834.675; 2760.800;    0.000;    0.000
834.861; 2734.800;    0.000;    0.000
835.047; 2883.800;    0.000;    0.000
835.233; 2775.800;    0.000;    0.000
835.418; 2725.800;    0.000;    0.000
835.604; 2683.800;    0.000;    0.000
835.790; 2662.800;    0.000;    0.000
835.976; 2662.800;    0.000;    0.000
836.161; 2766.800;    0.000;    0.000
836.347; 2611.800;    0.000;    0.000
836.533; 2724.800;    0.000;    0.000
836.718; 2710.800;    0.000;    0.000
836.904; 2696.800;    0.000;    0.000
837.089; 2706.800;    0.000;    0.000
837.275; 2700.800;    0.000;    0.000
837.460; 2595.800;    0.000;    0.000
837.646; 2698.800;    0.000;    0.000
837.831; 2685.800;    0.000;    0.000
838.017; 2678.800;    0.000;    0.000
838.202; 2579.800;    0.000;    0.000
838.388; 2670.800;    0.000;    0.000
838.573; 2662.800;    0.000;    0.000
838.759; 2713.800;    0.000;    0.000
838.944; 2534.800;    0.000;    0.000
839.129; 2666.800;    0.000;    0.000
839.315; 2726.800;    0.000;    0.000
839.500; 2642.800;    0.000;    0.000
839.685; 2553.800;    0.000;    0.000
839.870; 2584.800;    0.000;    0.000
840.056; 2558.800;    0.000;    0.000
840.241; 2656.800;    0.000;    0.000
840.426; 2620.800;    0.000;    0.000
840.611; 2695.800;    0.000;    0.000
840.796; 2693.800;    0.000;    0.000
840.981; 2582.800;    0.000;    0.000
841.166; 2663.800;    0.000;    0.000
841.352; 2627.800;    0.000;    0.000
841.537; 2686.800;    0.000;    0.000
841.722; 2653.800;    0.000;    0.000
841.907; 2624.800;    0.000;    0.000
842.092; 2664.800;    0.000;    0.000
842.277; 2664.800;    0.000;    0.000
842.462; 2782.800;    0.000;    0.000
842.646; 2633.800;    0.000;    0.000
842.831; 2831.800;    0.000;    0.000
843.016; 2801.800;    0.000;    0.000
843.201; 2837.800;    0.000;    0.000
843.386; 2938.800;    0.000;    0.000
843.571; 2953.800;    0.000;    0.000
843.755; 3046.800;    0.000;    0.000
843.940; 3063.800;    0.000;    0.000
844.125; 3385.800;    0.000;    0.000
844.310; 3640.800;    0.000;    0.000
844.494; 4165.800;    0.000;    0.000
844.679; 4596.800;    0.000;    0.000
844.864; 4592.800;    0.000;    0.000
845.048; 4207.800;    0.000;    0.000
845.233; 3937.800;    0.000;    0.000
845.418; 3603.800;    0.000;    0.000
845.602; 3369.800;    0.000;    0.000
845.787; 3151.800;    0.000;    0.000
845.971; 3070.800;    0.000;    0.000
846.156; 2983.800;    0.000;    0.000
846.340; 3008.800;    0.000;    0.000
846.525; 2959.800;    0.000;    0.000
846.709; 2804.800;    0.000;    0.000
846.894; 2802.800;    0.000;    0.000
847.078; 2778.800;    0.000;    0.000
847.262; 2725.800;    0.000;    0.000
847.447; 2628.800;    0.000;    0.000
847.631; 2605.800;    0.000;    0.000
847.815; 2582.800;    0.000;    0.000
848.000; 2476.800;    0.000;    0.000
848.184; 2569.800;    0.000;    0.000
848.368; 2539.800;    0.000;    0.000
848.552; 2571.800;    0.000;    0.000
848.736; 2532.800;    0.000;    0.000
848.921; 2521.800;    0.000;    0.000
849.105; 2495.800;    0.000;    0.000
849.289; 2608.800;    0.000;    0.000
849.473; 2426.800;    0.000;    0.000
849.657; 2443.800;    0.000;    0.000
849.841; 2379.800;    0.000;    0.000
850.025; 2368.800;    0.000;    0.000
850.209; 2383.800;    0.000;    0.000
850.393; 2354.800;    0.000;    0.000
850.577; 2308.800;    0.000;    0.000
850.761; 2354.800;    0.000;    0.000
850.945; 2307.800;    0.000;    0.000
851.129; 2352.800;    0.000;    0.000
851.313; 2284.800;    0.000;    0.000
851.497; 2359.800;    0.000;    0.000
851.680; 2314.800;    0.000;    0.000
851.864; 2366.800;    0.000;    0.000
852.048; 2261.800;    0.000;    0.000
852.232; 2329.800;    0.000;    0.000
852.416; 2272.800;    0.000;    0.000
852.599; 2266.800;    0.000;    0.000
852.783; 2328.800;    0.000;    0.000
852.967; 2347.800;    0.000;    0.000
853.150; 2237.800;    0.000;    0.000
853.334; 2285.800;    0.000;    0.000
853.518; 2334.800;    0.000;    0.000
853.701; 2317.800;    0.000;    0.000
853.885; 2174.800;    0.000;    0.000
854.068; 2311.800;    0.000;    0.000
854.252; 2321.800;    0.000;    0.000
854.435; 2300.800;    0.000;    0.000
854.619; 2213.800;    0.000;    0.000
854.802; 2304.800;    0.000;    0.000
854.986; 2228.800;    0.000;    0.000
855.169; 2161.800;    0.000;    0.000
855.353; 2343.800;    0.000;    0.000
855.536; 2229.800;    0.000;    0.000
855.719; 2219.800;    0.000;    0.000
855.903; 2299.800;    0.000;    0.000
856.086; 2331.800;    0.000;    0.000
856.269; 2194.800;    0.000;    0.000
856.452; 2287.800;    0.000;    0.000
856.636; 2198.800;    0.000;    0.000
856.819; 2260.800;    0.000;    0.000
857.002; 2342.800;    0.000;    0.000
857.185; 2322.800;    0.000;    0.000
857.368; 2288.800;    0.000;    0.000
857.552; 2304.800;    0.000;    0.000
857.735; 2265.800;    0.000;    0.000
857.918; 2250.800;    0.000;    0.000
858.101; 2228.800;    0.000;    0.000
858.284; 2193.800;    0.000;    0.000
858.467; 2343.800;    0.000;    0.000
858.650; 2283.800;    0.000;    0.000
858.833; 2272.800;    0.000;    0.000
859.016; 2305.800;    0.000;    0.000
859.199; 2297.800;    0.000;    0.000
859.382; 2422.800;    0.000;    0.000
859.564; 2468.800;    0.000;    0.000
859.747; 2455.800;    0.000;    0.000
859.930; 2397.800;    0.000;    0.000
860.113; 2399.800;    0.000;    0.000
860.296; 2428.800;    0.000;    0.000
860.478; 2325.800;    0.000;    0.000
860.661; 2324.800;    0.000;    0.000
860.844; 2339.800;    0.000;    0.000
861.027; 2320.800;    0.000;    0.000
861.209; 2293.800;    0.000;    0.000
861.392; 2309.800;    0.000;    0.000
861.575; 2391.800;    0.000;    0.000
861.757; 2450.800;    0.000;    0.000
861.940; 2331.800;    0.000;    0.000
862.122; 2413.800;    0.000;    0.000
862.305; 2409.800;    0.000;    0.000
862.487; 2464.800;    0.000;    0.000
862.670; 2466.800;    0.000;    0.000
862.852; 2704.800;    0.000;    0.000
863.035; 2859.800;    0.000;    0.000
863.217; 2815.800;    0.000;    0.000
863.400; 2771.800;    0.000;    0.000
863.582; 2684.800;    0.000;    0.000
863.764; 2623.800;    0.000;    0.000
863.947; 2610.800;    0.000;    0.000
864.129; 2558.800;    0.000;    0.000
864.311; 2454.800;    0.000;    0.000
864.493; 2605.800;    0.000;    0.000
864.676; 2530.800;    0.000;    0.000
864.858; 2558.800;    0.000;    0.000
865.040; 2564.800;    0.000;    0.000
865.222; 2452.800;    0.000;    0.000
865.404; 2507.800;    0.000;    0.000
865.587; 2662.800;    0.000;    0.000
865.769; 2622.800;    0.000;    0.000
865.951; 2683.800;    0.000;    0.000
866.133; 2647.800;    0.000;    0.000
866.315; 2694.800;    0.000;    0.000
866.497; 2666.800;    0.000;    0.000
866.679; 2690.800;    0.000;    0.000
866.861; 2800.800;    0.000;    0.000
867.043; 2862.800;    0.000;    0.000
867.225; 2900.800;    0.000;    0.000
867.407; 3026.800;    0.000;    0.000
867.589; 3198.800;    0.000;    0.000
867.770; 3729.800;    0.000;    0.000
867.952; 4288.800;    0.000;    0.000
868.134; 4895.800;    0.000;    0.000
868.316; 4832.800;    0.000;    0.000
868.498; 4638.800;    0.000;    0.000
868.679; 4429.800;    0.000;    0.000
868.861; 4017.800;    0.000;    0.000
869.043; 3576.800;    0.000;    0.000
869.224; 3403.800;    0.000;    0.000
869.406; 3276.800;    0.000;    0.000
869.588; 3103.800;    0.000;    0.000
869.769; 3055.800;    0.000;    0.000
869.951; 3105.800;    0.000;    0.000
870.132; 3052.800;    0.000;    0.000
870.314; 3193.800;    0.000;    0.000
870.495; 3260.800;    0.000;    0.000
870.677; 3052.800;    0.000;    0.000
870.858; 3123.800;    0.000;    0.000
871.040; 3121.800;    0.000;    0.000
871.221; 3179.800;    0.000;    0.000
871.403; 3155.800;    0.000;    0.000
871.584; 3113.800;    0.000;    0.000
871.765; 3144.800;    0.000;    0.000
871.947; 3143.800;    0.000;    0.000
872.128; 2948.800;    0.000;    0.000
872.309; 2760.800;    0.000;    0.000
872.491; 2695.800;    0.000;    0.000
872.672; 2591.800;    0.000;    0.000
872.853; 2552.800;    0.000;    0.000
873.034; 2587.800;    0.000;    0.000
873.215; 2439.800;    0.000;    0.000
873.396; 2384.800;    0.000;    0.000
873.578; 2422.800;    0.000;    0.000
873.759; 2377.800;    0.000;    0.000
873.940; 2444.800;    0.000;    0.000
874.121; 2334.800;    0.000;    0.000
874.302; 2323.800;    0.000;    0.000
874.483; 2300.800;    0.000;    0.000
874.664; 2273.800;    0.000;    0.000
874.845; 2231.800;    0.000;    0.000
875.026; 2212.800;    0.000;    0.000
875.207; 2202.800;    0.000;    0.000
875.388; 2229.800;    0.000;    0.000
875.568; 2169.800;    0.000;    0.000
875.749; 2146.800;    0.000;    0.000
875.930; 2169.800;    0.000;    0.000
876.111; 2184.800;    0.000;    0.000
876.292; 2141.800;    0.000;    0.000
876.472; 2153.800;    0.000;    0.000
876.653; 2130.800;    0.000;    0.000
876.834; 2117.800;    0.000;    0.000
877.015; 2169.800;    0.000;    0.000
877.195; 1981.800;    0.000;    0.000
877.376; 2093.800;    0.000;    0.000
877.556; 2172.800;    0.000;    0.000
877.737; 2163.800;    0.000;    0.000
877.918; 2153.800;    0.000;    0.000
878.098; 2025.800;    0.000;    0.000
878.279; 2139.800;    0.000;    0.000
878.459; 2073.800;    0.000;    0.000
878.640; 2094.800;    0.000;    0.000
878.820; 2093.800;    0.000;    0.000
879.000; 2053.800;    0.000;    0.000
879.181; 2054.800;    0.000;    0.000
879.361; 2119.800;    0.000;    0.000
879.542; 2048.800;    0.000;    0.000
879.722; 1993.800;    0.000;    0.000
879.902; 2061.800;    0.000;    0.000
880.083; 2080.800;    0.000;    0.000
880.263; 2082.800;    0.000;    0.000
880.443; 2317.800;    0.000;    0.000
880.623; 2331.800;    0.000;    0.000
880.803; 2481.800;    0.000;    0.000
880.984; 2357.800;    0.000;    0.000
881.164; 2238.800;    0.000;    0.000
881.344; 2181.800;    0.000;    0.000
881.524; 2188.800;    0.000;    0.000
881.704; 2139.800;    0.000;    0.000
881.884; 2193.800;    0.000;    0.000
882.064; 2240.800;    0.000;    0.000
882.244; 2157.800;    0.000;    0.000
882.424; 2137.800;    0.000;    0.000
882.604; 2186.800;    0.000;    0.000
882.784; 2095.800;    0.000;    0.000
882.964; 2041.800;    0.000;    0.000
883.144; 1969.800;    0.000;    0.000
883.324; 2111.800;    0.000;    0.000
883.504; 2100.800;    0.000;    0.000
883.683; 2066.800;    0.000;    0.000
883.863; 2099.800;    0.000;    0.000
884.043; 2029.800;    0.000;    0.000
884.223; 1998.800;    0.000;    0.000
884.402; 2077.800;    0.000;    0.000
884.582; 2058.800;    0.000;    0.000
884.762; 2042.800;    0.000;    0.000
884.941; 2005.800;    0.000;    0.000
885.121; 2052.800;    0.000;    0.000
885.301; 2033.800;    0.000;    0.000
885.480; 2000.800;    0.000;    0.000
885.660; 2016.800;    0.000;    0.000
885.839; 1985.800;    0.000;    0.000
886.019; 2041.800;    0.000;    0.000
886.198; 1955.800;    0.000;    0.000
886.378; 2037.800;    0.000;    0.000
886.557; 1963.800;    0.000;    0.000
886.737; 1975.800;    0.000;    0.000
886.916; 1965.800;    0.000;    0.000
887.095; 2078.800;    0.000;    0.000
887.275; 2033.800;    0.000;    0.000
887.454; 1936.800;    0.000;    0.000
887.633; 2014.800;    0.000;    0.000
887.813; 1985.800;    0.000;    0.000
887.992; 1928.800;    0.000;    0.000
888.171; 2009.800;    0.000;    0.000
888.350; 1975.800;    0.000;    0.000
888.530; 1966.800;    0.000;    0.000
888.709; 1881.800;    0.000;    0.000
888.888; 1985.800;    0.000;    0.000
889.067; 1971.800;    0.000;    0.000
889.246; 1990.800;    0.000;    0.000
889.425; 1992.800;    0.000;    0.000
889.604; 2029.800;    0.000;    0.000
889.783; 2025.800;    0.000;    0.000
889.962; 1952.800;    0.000;    0.000
890.141; 1994.800;    0.000;    0.000
890.320; 1993.800;    0.000;    0.000
890.499; 1987.800;    0.000;    0.000
890.678; 1933.800;    0.000;    0.000
890.857; 2001.800;    0.000;    0.000
891.036; 1984.800;    0.000;    0.000
891.214; 2003.800;    0.000;    0.000
891.393; 1900.800;    0.000;    0.000
891.572; 1989.800;    0.000;    0.000
891.751; 1945.800;    0.000;    0.000
891.930; 1917.800;    0.000;    0.000
892.108; 1894.800;    0.000;    0.000
892.287; 1895.800;    0.000;    0.000
892.466; 1895.800;    0.000;    0.000
892.644; 1905.800;    0.000;    0.000
892.823; 1891.800;    0.000;    0.000
893.001; 1968.800;    0.000;    0.000
893.180; 1942.800;    0.000;    0.000
893.359; 1888.800;    0.000;    0.000
893.537; 1963.800;    0.000;    0.000
893.716; 1926.800;    0.000;    0.000
893.894; 1897.800;    0.000;    0.000
894.073; 1962.800;    0.000;    0.000
894.251; 1905.800;    0.000;    0.000
894.429; 1922.800;    0.000;    0.000
894.608; 1946.800;    0.000;    0.000
894.786; 1881.800;    0.000;    0.000
894.964; 1966.800;    0.000;    0.000
895.143; 1907.800;    0.000;    0.000
895.321; 1848.800;    0.000;    0.000
895.499; 1916.800;    0.000;    0.000
895.677; 1863.800;    0.000;    0.000
895.856; 1892.800;    0.000;    0.000
896.034; 1874.800;    0.000;    0.000
896.212; 1971.800;    0.000;    0.000
896.390; 1955.800;    0.000;    0.000
896.568; 1962.800;    0.000;    0.000
896.746; 1889.800;    0.000;    0.000
896.924; 1950.800;    0.000;    0.000
897.102; 1950.800;    0.000;    0.000
897.280; 1934.800;    0.000;    0.000
897.458; 1890.800;    0.000;    0.000
897.636; 1897.800;    0.000;    0.000
897.814; 1928.800;    0.000;    0.000
897.992; 2040.800;    0.000;    0.000
898.170; 1946.800;    0.000;    0.000
898.348; 1966.800;    0.000;    0.000
898.526; 1969.800;    0.000;    0.000
898.704; 1977.800;    0.000;    0.000
898.882; 1857.800;    0.000;    0.000
899.059; 1892.800;    0.000;    0.000
899.237; 1888.800;    0.000;    0.000
899.415; 1983.800;    0.000;    0.000
899.593; 1905.800;    0.000;    0.000
899.770; 2017.800;    0.000;    0.000
899.948; 2027.800;    0.000;    0.000
900.125; 1977.800;    0.000;    0.000
900.303; 1902.800;    0.000;    0.000
900.481; 1897.800;    0.000;    0.000
900.658; 1971.800;    0.000;    0.000
900.836; 1940.800;    0.000;    0.000
901.013; 2001.800;    0.000;    0.000
901.191; 1954.800;    0.000;    0.000
901.368; 2017.800;    0.000;    0.000
901.546; 1994.800;    0.000;    0.000
901.723; 2059.800;    0.000;    0.000
901.901; 1991.800;    0.000;    0.000
902.078; 2086.800;    0.000;    0.000
902.255; 1951.800;    0.000;    0.000
902.433; 2028.800;    0.000;    0.000
902.610; 2006.800;    0.000;    0.000
902.787; 2042.800;    0.000;    0.000
902.964; 2092.800;    0.000;    0.000
903.142; 2120.800;    0.000;    0.000
903.319; 2115.800;    0.000;    0.000
903.496; 2188.800;    0.000;    0.000
903.673; 2184.800;    0.000;    0.000
903.850; 2141.800;    0.000;    0.000
904.027; 2149.800;    0.000;    0.000
904.204; 2262.800;    0.000;    0.000
904.381; 2247.800;    0.000;    0.000
904.558; 2347.800;    0.000;    0.000
904.735; 2451.800;    0.000;    0.000
904.912; 2445.800;    0.000;    0.000
905.089; 2388.800;    0.000;    0.000
905.266; 2352.800;    0.000;    0.000
905.443; 2286.800;    0.000;    0.000
905.620; 2248.800;    0.000;    0.000
905.797; 2167.800;    0.000;    0.000
905.974; 2201.800;    0.000;    0.000
906.151; 2217.800;    0.000;    0.000
906.327; 2338.800;    0.000;    0.000
906.504; 2193.800;    0.000;    0.000
906.681; 2064.800;    0.000;    0.000
906.858; 2193.800;    0.000;    0.000
907.034; 2159.800;    0.000;    0.000
907.211; 2072.800;    0.000;    0.000
907.388; 2109.800;    0.000;    0.000
907.564; 2165.800;    0.000;    0.000
907.741; 2103.800;    0.000;    0.000
907.917; 2120.800;    0.000;    0.000
908.094; 2103.800;    0.000;    0.000
908.270; 2059.800;    0.000;    0.000
908.447; 2055.800;    0.000;    0.000
908.623; 2148.800;    0.000;    0.000
908.800; 2039.800;    0.000;    0.000
908.976; 2082.800;    0.000;    0.000
909.153; 2090.800;    0.000;    0.000
909.329; 2082.800;    0.000;    0.000
909.505; 2045.800;    0.000;    0.000
909.682; 1994.800;    0.000;    0.000
909.858; 1942.800;    0.000;    0.000
910.034; 2020.800;    0.000;    0.000
910.211; 1980.800;    0.000;    0.000
910.387; 2069.800;    0.000;    0.000
910.563; 2048.800;    0.000;    0.000
910.739; 1990.800;    0.000;    0.000
910.915; 2043.800;    0.000;    0.000
911.091; 1953.800;    0.000;    0.000
911.268; 1917.800;    0.000;    0.000
911.444; 1879.800;    0.000;    0.000
911.620; 2018.800;    0.000;    0.000
911.796; 1992.800;    0.000;    0.000
911.972; 1963.800;    0.000;    0.000
912.148; 1985.800;    0.000;    0.000
912.324; 1946.800;    0.000;    0.000
912.500; 2066.800;    0.000;    0.000
912.676; 1973.800;    0.000;    0.000
912.851; 1944.800;    0.000;    0.000
913.027; 1955.800;    0.000;    0.000
913.203; 1972.800;    0.000;    0.000
913.379; 1978.800;    0.000;    0.000
913.555; 1985.800;    0.000;    0.000
913.730; 1937.800;    0.000;    0.000
913.906; 1968.800;    0.000;    0.000
914.082; 1919.800;    0.000;    0.000
914.258; 1958.800;    0.000;    0.000
914.433; 1949.800;    0.000;    0.000
914.609; 1963.800;    0.000;    0.000
914.785; 1971.800;    0.000;    0.000
914.960; 1984.800;    0.000;    0.000
915.136; 1910.800;    0.000;    0.000
915.311; 1961.800;    0.000;    0.000
915.487; 1926.800;    0.000;    0.000
915.662; 2012.800;    0.000;    0.000
915.838; 1909.800;    0.000;    0.000
916.013; 1970.800;    0.000;    0.000
916.189; 2023.800;    0.000;    0.000
916.364; 2044.800;    0.000;    0.000
916.539; 1985.800;    0.000;    0.000
916.715; 1955.800;    0.000;    0.000
916.890; 1904.800;    0.000;    0.000
917.065; 1984.800;    0.000;    0.000
917.240; 1951.800;    0.000;    0.000
917.416; 1995.800;    0.000;    0.000
917.591; 2020.800;    0.000;    0.000
917.766; 2047.800;    0.000;    0.000
917.941; 1967.800;    0.000;    0.000
918.116; 1966.800;    0.000;    0.000
918.292; 2044.800;    0.000;    0.000
918.467; 1973.800;    0.000;    0.000
918.642; 2020.800;    0.000;    0.000
918.817; 2072.800;    0.000;    0.000
918.992; 1960.800;    0.000;    0.000
919.167; 2031.800;    0.000;    0.000
919.342; 2055.800;    0.000;    0.000
919.517; 2015.800;    0.000;    0.000
919.692; 2037.800;    0.000;    0.000
919.867; 2033.800;    0.000;    0.000
920.041; 2026.800;    0.000;    0.000
920.216; 2084.800;    0.000;    0.000
920.391; 2150.800;    0.000;    0.000
920.566; 2089.800;    0.000;    0.000
920.741; 2161.800;    0.000;    0.000
920.915; 2204.800;    0.000;    0.000
921.090; 2301.800;    0.000;    0.000
921.265; 2498.800;    0.000;    0.000
921.439; 2565.800;    0.000;    0.000
921.614; 2429.800;    0.000;    0.000
921.789; 2461.800;    0.000;    0.000
921.963; 2303.800;    0.000;    0.000
922.138; 2270.800;    0.000;    0.000
922.312; 2251.800;    0.000;    0.000
922.487; 2303.800;    0.000;    0.000
922.661; 2413.800;    0.000;    0.000
922.836; 2476.800;    0.000;    0.000
923.010; 2422.800;    0.000;    0.000
923.185; 2330.800;    0.000;    0.000
923.359; 2302.800;    0.000;    0.000
923.534; 2299.800;    0.000;    0.000
923.708; 2335.800;    0.000;    0.000
923.882; 2296.800;    0.000;    0.000
924.057; 2352.800;    0.000;    0.000
924.231; 2222.800;    0.000;    0.000
924.405; 2234.800;    0.000;    0.000
924.579; 2268.800;    0.000;    0.000
924.753; 2207.800;    0.000;    0.000
924.928; 2213.800;    0.000;    0.000
925.102; 2226.800;    0.000;    0.000
925.276; 2268.800;    0.000;    0.000
925.450; 2181.800;    0.000;    0.000
925.624; 2210.800;    0.000;    0.000
925.798; 2275.800;    0.000;    0.000
925.972; 2178.800;    0.000;    0.000
926.146; 2247.800;    0.000;    0.000
926.320; 2217.800;    0.000;    0.000
926.494; 2362.800;    0.000;    0.000
926.668; 2386.800;    0.000;    0.000
926.842; 2404.800;    0.000;    0.000
927.016; 2446.800;    0.000;    0.000
927.190; 2355.800;    0.000;    0.000
927.363; 2436.800;    0.000;    0.000
927.537; 2296.800;    0.000;    0.000
927.711; 2299.800;    0.000;    0.000
927.885; 2294.800;    0.000;    0.000
928.058; 2288.800;    0.000;    0.000
928.232; 2323.800;    0.000;    0.000
928.406; 2209.800;    0.000;    0.000
928.579; 2184.800;    0.000;    0.000
928.753; 2194.800;    0.000;    0.000
928.927; 2171.800;    0.000;    0.000
929.100; 2174.800;    0.000;    0.000
929.274; 2121.800;    0.000;    0.000
929.447; 2117.800;    0.000;    0.000
929.621; 2130.800;    0.000;    0.000
929.794; 2114.800;    0.000;    0.000
929.968; 2148.800;    0.000;    0.000
930.141; 2135.800;    0.000;    0.000
930.315; 2037.800;    0.000;    0.000
930.488; 2048.800;    0.000;    0.000
930.661; 2104.800;    0.000;    0.000
930.835; 2089.800;    0.000;    0.000
931.008; 2088.800;    0.000;    0.000
931.181; 2077.800;    0.000;    0.000
931.354; 2103.800;    0.000;    0.000
931.528; 2021.800;    0.000;    0.000
931.701; 1991.800;    0.000;    0.000
931.874; 2001.800;    0.000;    0.000
932.047; 1929.800;    0.000;    0.000
932.220; 1966.800;    0.000;    0.000
932.393; 1997.800;    0.000;    0.000
932.566; 1928.800;    0.000;    0.000
932.739; 1983.800;    0.000;    0.000
932.912; 1951.800;    0.000;    0.000
933.085; 1954.800;    0.000;    0.000
933.258; 2011.800;    0.000;    0.000
933.431; 1993.800;    0.000;    0.000
933.604; 1958.800;    0.000;    0.000
933.777; 2036.800;    0.000;    0.000
933.950; 1964.800;    0.000;    0.000
934.123; 1906.800;    0.000;    0.000
934.296; 1945.800;    0.000;    0.000
934.468; 1946.800;    0.000;    0.000
934.641; 1825.800;    0.000;    0.000
934.814; 1981.800;    0.000;    0.000
934.987; 1928.800;    0.000;    0.000
935.159; 1919.800;    0.000;    0.000
935.332; 1884.800;    0.000;    0.000
935.505; 1871.800;    0.000;    0.000
935.677; 1931.800;    0.000;    0.000
935.850; 1961.800;    0.000;    0.000
936.022; 1884.800;    0.000;    0.000
936.195; 1921.800;    0.000;    0.000
936.367; 1908.800;    0.000;    0.000
936.540; 1904.800;    0.000;    0.000
936.712; 1967.800;    0.000;    0.000
936.885; 1911.800;    0.000;    0.000
937.057; 1981.800;    0.000;    0.000
937.229; 1955.800;    0.000;    0.000
937.402; 1961.800;    0.000;    0.000
937.574; 1926.800;    0.000;    0.000
937.746; 1932.800;    0.000;    0.000
937.919; 2025.800;    0.000;    0.000
938.091; 1952.800;    0.000;    0.000
938.263; 2003.800;    0.000;    0.000
938.435; 2070.800;    0.000;    0.000
938.608; 2069.800;    0.000;    0.000
938.780; 2263.800;    0.000;    0.000
938.952; 2279.800;    0.000;    0.000
939.124; 2288.800;    0.000;    0.000
939.296; 2366.800;    0.000;    0.000
939.468; 2253.800;    0.000;    0.000
939.640; 2244.800;    0.000;    0.000
939.812; 2170.800;    0.000;    0.000
939.984; 2195.800;    0.000;    0.000
940.156; 2096.800;    0.000;    0.000
940.328; 2053.800;    0.000;    0.000
940.500; 2027.800;    0.000;    0.000
940.672; 2026.800;    0.000;    0.000
940.843; 1876.800;    0.000;    0.000
941.015; 1953.800;    0.000;    0.000
941.187; 1975.800;    0.000;    0.000
941.359; 1902.800;    0.000;    0.000
941.531; 2026.800;    0.000;    0.000
941.702; 1937.800;    0.000;    0.000
941.874; 1891.800;    0.000;    0.000
942.046; 1978.800;    0.000;    0.000
942.217; 1866.800;    0.000;    0.000
942.389; 1956.800;    0.000;    0.000
942.560; 1909.800;    0.000;    0.000
942.732; 1944.800;    0.000;    0.000
942.904; 1900.800;    0.000;    0.000
943.075; 1828.800;    0.000;    0.000
943.247; 1875.800;    0.000;    0.000
943.418; 1825.800;    0.000;    0.000
943.589; 1821.800;    0.000;    0.000
943.761; 1851.800;    0.000;    0.000
943.932; 1893.800;    0.000;    0.000
944.104; 1802.800;    0.000;    0.000
944.275; 1833.800;    0.000;    0.000
944.446; 1835.800;    0.000;    0.000
944.617; 1888.800;    0.000;    0.000
944.789; 1831.800;    0.000;    0.000
944.960; 1864.800;    0.000;    0.000
945.131; 1907.800;    0.000;    0.000
945.302; 1902.800;    0.000;    0.000
945.473; 1875.800;    0.000;    0.000
945.645; 1804.800;    0.000;    0.000
945.816; 1877.800;    0.000;    0.000
945.987; 1894.800;    0.000;    0.000
946.158; 1834.800;    0.000;    0.000
946.329; 1910.800;    0.000;    0.000
946.500; 1879.800;    0.000;    0.000
946.671; 1789.800;    0.000;    0.000
946.842; 1880.800;    0.000;    0.000
947.013; 1894.800;    0.000;    0.000
947.183; 1876.800;    0.000;    0.000
947.354; 1872.800;    0.000;    0.000
947.525; 1893.800;    0.000;    0.000
947.696; 1897.800;    0.000;    0.000
947.867; 1898.800;    0.000;    0.000
948.037; 1891.800;    0.000;    0.000
948.208; 1831.800;    0.000;    0.000
948.379; 1875.800;    0.000;    0.000
948.550; 1819.800;    0.000;    0.000
948.720; 1882.800;    0.000;    0.000
948.891; 1914.800;    0.000;    0.000
949.061; 1788.800;    0.000;    0.000
949.232; 1818.800;    0.000;    0.000
949.403; 1810.800;    0.000;    0.000
949.573; 1838.800;    0.000;    0.000
949.744; 1808.800;    0.000;    0.000
949.914; 1827.800;    0.000;    0.000
950.085; 1810.800;    0.000;    0.000
950.255; 1744.800;    0.000;    0.000
950.425; 1834.800;    0.000;    0.000
950.596; 1851.800;    0.000;    0.000
950.766; 1848.800;    0.000;    0.000
950.936; 1820.800;    0.000;    0.000
951.107; 1849.800;    0.000;    0.000
951.277; 1886.800;    0.000;    0.000
951.447; 1908.800;    0.000;    0.000
951.617; 1835.800;    0.000;    0.000
951.788; 1783.800;    0.000;    0.000
951.958; 1855.800;    0.000;    0.000
952.128; 1752.800;    0.000;    0.000
952.298; 1829.800;    0.000;    0.000
952.468; 1824.800;    0.000;    0.000
952.638; 1876.800;    0.000;    0.000
952.808; 1794.800;    0.000;    0.000
952.978; 1885.800;    0.000;    0.000
953.148; 1741.800;    0.000;    0.000
953.318; 1823.800;    0.000;    0.000
953.488; 1795.800;    0.000;    0.000
953.658; 1812.800;    0.000;    0.000
953.828; 1813.800;    0.000;    0.000
953.998; 1801.800;    0.000;    0.000
954.167; 1800.800;    0.000;    0.000
954.337; 1912.800;    0.000;    0.000
954.507; 1901.800;    0.000;    0.000
954.677; 1851.800;    0.000;    0.000
954.846; 1923.800;    0.000;    0.000
955.016; 1847.800;    0.000;    0.000
955.186; 1901.800;    0.000;    0.000
955.355; 1871.800;    0.000;    0.000
955.525; 1936.800;    0.000;    0.000
955.695; 1866.800;    0.000;    0.000
955.864; 1890.800;    0.000;    0.000
956.034; 1879.800;    0.000;    0.000
956.203; 1950.800;    0.000;    0.000
956.373; 1873.800;    0.000;    0.000
956.542; 1958.800;    0.000;    0.000
956.712; 1844.800;    0.000;    0.000
956.881; 1832.800;    0.000;    0.000
957.050; 1892.800;    0.000;    0.000
957.220; 1871.800;    0.000;    0.000
957.389; 1824.800;    0.000;    0.000
957.558; 1895.800;    0.000;    0.000
957.727; 1911.800;    0.000;    0.000
957.897; 1837.800;    0.000;    0.000
958.066; 1880.800;    0.000;    0.000
958.235; 1825.800;    0.000;    0.000
958.404; 1790.800;    0.000;    0.000
958.573; 1894.800;    0.000;    0.000
958.743; 1763.800;    0.000;    0.000
958.912; 1819.800;    0.000;    0.000
959.081; 1921.800;    0.000;    0.000
959.250; 1866.800;    0.000;    0.000
959.419; 1874.800;    0.000;    0.000
959.588; 1888.800;    0.000;    0.000
959.757; 1786.800;    0.000;    0.000
959.926; 1857.800;    0.000;    0.000
960.094; 1862.800;    0.000;    0.000
960.263; 1880.800;    0.000;    0.000
960.432; 1739.800;    0.000;    0.000
960.601; 1832.800;    0.000;    0.000
960.770; 1779.800;    0.000;    0.000
960.939; 1822.800;    0.000;    0.000
961.107; 1785.800;    0.000;    0.000
961.276; 1870.800;    0.000;    0.000
961.445; 1761.800;    0.000;    0.000
961.613; 1896.800;    0.000;    0.000
961.782; 1886.800;    0.000;    0.000
961.951; 1847.800;    0.000;    0.000
962.119; 1842.800;    0.000;    0.000
962.288; 1799.800;    0.000;    0.000
962.456; 1747.800;    0.000;    0.000
962.625; 1792.800;    0.000;    0.000
962.793; 1742.800;    0.000;    0.000
962.962; 1836.800;    0.000;    0.000
963.130; 1756.800;    0.000;    0.000
963.298; 1824.800;    0.000;    0.000
963.467; 1881.800;    0.000;    0.000
963.635; 1790.800;    0.000;    0.000
963.803; 1823.800;    0.000;    0.000
963.972; 1811.800;    0.000;    0.000
964.140; 1923.800;    0.000;    0.000
964.308; 1867.800;    0.000;    0.000
964.476; 1910.800;    0.000;    0.000
964.645; 1856.800;    0.000;    0.000
964.813; 1848.800;    0.000;    0.000
964.981; 1884.800;    0.000;    0.000
965.149; 1838.800;    0.000;    0.000
965.317; 1840.800;    0.000;    0.000
965.485; 1889.800;    0.000;    0.000
965.653; 1843.800;    0.000;    0.000
965.821; 1871.800;    0.000;    0.000
965.989; 1868.800;    0.000;    0.000
966.157; 1793.800;    0.000;    0.000
966.325; 1943.800;    0.000;    0.000
966.493; 1864.800;    0.000;    0.000
966.661; 1878.800;    0.000;    0.000
966.829; 1797.800;    0.000;    0.000
966.996; 1843.800;    0.000;    0.000
967.164; 1876.800;    0.000;    0.000
967.332; 1915.800;    0.000;    0.000
967.500; 1802.800;    0.000;    0.000
967.667; 1887.800;    0.000;    0.000
967.835; 1924.800;    0.000;    0.000
968.003; 1825.800;    0.000;    0.000
968.170; 1824.800;    0.000;    0.000
968.338; 1818.800;    0.000;    0.000
968.505; 1786.800;    0.000;    0.000
968.673; 1835.800;    0.000;    0.000
968.841; 1751.800;    0.000;    0.000
969.008; 1857.800;    0.000;    0.000
969.175; 1856.800;    0.000;    0.000
969.343; 1904.800;    0.000;    0.000
969.510; 1754.800;    0.000;    0.000
969.678; 1788.800;    0.000;    0.000
969.845; 1831.800;    0.000;    0.000
970.012; 1877.800;    0.000;    0.000
970.180; 1865.800;    0.000;    0.000
970.347; 1886.800;    0.000;    0.000
970.514; 1863.800;    0.000;    0.000
970.681; 1890.800;    0.000;    0.000
970.849; 1863.800;    0.000;    0.000
971.016; 1883.800;    0.000;    0.000
971.183; 1900.800;    0.000;    0.000
971.350; 1946.800;    0.000;    0.000
971.517; 1870.800;    0.000;    0.000
971.684; 1886.800;    0.000;    0.000
971.851; 1918.800;    0.000;    0.000
972.018; 1899.800;    0.000;    0.000
972.185; 1850.800;    0.000;    0.000
972.352; 1858.800;    0.000;    0.000
972.519; 1956.800;    0.000;    0.000
972.686; 1922.800;    0.000;    0.000
972.853; 1942.800;    0.000;    0.000
973.020; 1946.800;    0.000;    0.000
973.186; 1870.800;    0.000;    0.000
973.353; 1909.800;    0.000;    0.000
973.520; 1914.800;    0.000;    0.000
973.687; 1906.800;    0.000;    0.000
973.853; 1940.800;    0.000;    0.000
974.020; 1908.800;    0.000;    0.000
974.187; 1883.800;    0.000;    0.000
974.353; 1838.800;    0.000;    0.000
974.520; 1848.800;    0.000;    0.000
974.687; 1901.800;    0.000;    0.000
974.853; 1931.800;    0.000;    0.000
975.020; 1856.800;    0.000;    0.000
975.186; 2000.800;    0.000;    0.000
975.353; 1887.800;    0.000;    0.000
975.519; 1949.800;    0.000;    0.000
975.685; 1884.800;    0.000;    0.000
975.852; 1865.800;    0.000;    0.000
976.018; 1889.800;    0.000;    0.000
976.184; 1854.800;    0.000;    0.000
976.351; 1813.800;    0.000;    0.000
976.517; 1861.800;    0.000;    0.000
976.683; 1811.800;    0.000;    0.000
976.849; 1869.800;    0.000;    0.000
977.016; 1810.800;    0.000;    0.000
977.182; 1789.800;    0.000;    0.000
977.348; 1841.800;    0.000;    0.000
977.514; 1840.800;    0.000;    0.000
977.680; 1763.800;    0.000;    0.000
977.846; 1836.800;    0.000;    0.000
978.012; 1863.800;    0.000;    0.000
978.178; 1873.800;    0.000;    0.000
978.344; 1795.800;    0.000;    0.000
978.510; 1736.800;    0.000;    0.000
978.676; 1821.800;    0.000;    0.000
978.842; 1804.800;    0.000;    0.000
979.008; 1785.800;    0.000;    0.000
979.174; 1904.800;    0.000;    0.000
979.340; 1865.800;    0.000;    0.000
979.505; 1855.800;    0.000;    0.000
979.671; 1841.800;    0.000;    0.000
979.837; 1915.800;    0.000;    0.000
980.003; 1913.800;    0.000;    0.000
980.168; 1901.800;    0.000;    0.000
980.334; 1844.800;    0.000;    0.000
980.499; 1885.800;    0.000;    0.000
980.665; 1862.800;    0.000;    0.000
980.831; 1875.800;    0.000;    0.000
980.996; 1893.800;    0.000;    0.000
981.162; 1899.800;    0.000;    0.000
981.327; 1831.800;    0.000;    0.000
981.493; 1908.800;    0.000;    0.000
981.658; 1914.800;    0.000;    0.000
981.823; 1891.800;    0.000;    0.000
981.989; 1986.800;    0.000;    0.000
982.154; 1934.800;    0.000;    0.000
982.319; 1877.800;    0.000;    0.000
982.485; 1950.800;    0.000;    0.000
982.650; 1956.800;    0.000;    0.000
982.815; 1972.800;    0.000;    0.000
982.980; 1860.800;    0.000;    0.000
983.146; 1927.800;    0.000;    0.000
983.311; 1912.800;    0.000;    0.000
983.476; 1903.800;    0.000;    0.000
983.641; 1831.800;    0.000;    0.000
983.806; 1833.800;    0.000;    0.000
983.971; 1934.800;    0.000;    0.000
984.136; 1845.800;    0.000;    0.000
984.301; 1794.800;    0.000;    0.000
984.466; 1846.800;    0.000;    0.000
984.631; 1941.800;    0.000;    0.000
984.796; 1864.800;    0.000;    0.000
984.961; 1845.800;    0.000;    0.000
985.126; 1876.800;    0.000;    0.000
985.291; 1856.800;    0.000;    0.000
985.455; 1901.800;    0.000;    0.000
985.620; 1859.800;    0.000;    0.000
985.785; 1837.800;    0.000;    0.000
985.950; 1831.800;    0.000;    0.000
986.114; 1817.800;    0.000;    0.000
986.279; 1843.800;    0.000;    0.000
986.444; 1864.800;    0.000;    0.000
986.608; 1871.800;    0.000;    0.000
986.773; 1822.800;    0.000;    0.000
986.937; 1917.800;    0.000;    0.000
987.102; 1966.800;    0.000;    0.000
987.266; 1837.800;    0.000;    0.000
987.431; 1904.800;    0.000;    0.000
987.595; 1872.800;    0.000;    0.000
987.760; 1907.800;    0.000;    0.000
987.924; 1886.800;    0.000;    0.000
988.088; 1925.800;    0.000;    0.000
988.253; 1921.800;    0.000;    0.000
988.417; 1931.800;    0.000;    0.000
988.581; 1886.800;    0.000;    0.000
988.746; 1988.800;    0.000;    0.000
988.910; 1909.800;    0.000;    0.000
989.074; 1893.800;    0.000;    0.000
989.238; 1858.800;    0.000;    0.000
989.402; 1868.800;    0.000;    0.000
989.566; 1931.800;    0.000;    0.000
989.731; 1863.800;    0.000;    0.000
989.895; 1847.800;    0.000;    0.000
990.059; 1894.800;    0.000;    0.000
990.223; 1823.800;    0.000;    0.000
990.387; 1872.800;    0.000;    0.000
990.551; 1876.800;    0.000;    0.000
990.714; 1828.800;    0.000;    0.000
990.878; 1826.800;    0.000;    0.000
991.042; 1804.800;    0.000;    0.000
991.206; 1855.800;    0.000;    0.000
991.370; 1927.800;    0.000;    0.000
991.534; 1875.800;    0.000;    0.000
991.697; 1884.800;    0.000;    0.000
991.861; 1867.800;    0.000;    0.000
992.025; 1884.800;    0.000;    0.000
992.188; 1906.800;    0.000;    0.000
992.352; 1868.800;    0.000;    0.000
992.516; 1887.800;    0.000;    0.000
992.679; 1862.800;    0.000;    0.000
992.843; 1907.800;    0.000;    0.000
993.006; 1892.800;    0.000;    0.000
993.170; 1895.800;    0.000;    0.000
993.333; 1840.800;    0.000;    0.000
993.497; 1874.800;    0.000;    0.000
993.660; 1840.800;    0.000;    0.000
993.824; 1917.800;    0.000;    0.000
993.987; 1950.800;    0.000;    0.000
994.150; 1915.800;    0.000;    0.000
994.314; 1926.800;    0.000;    0.000
994.477; 1927.800;    0.000;    0.000
994.640; 1913.800;    0.000;    0.000
994.803; 1994.800;    0.000;    0.000
994.967; 1912.800;    0.000;    0.000
995.130; 2010.800;    0.000;    0.000
995.293; 1946.800;    0.000;    0.000
995.456; 1873.800;    0.000;    0.000
995.619; 1886.800;    0.000;    0.000
995.782; 1911.800;    0.000;    0.000
995.945; 1910.800;    0.000;    0.000
996.108; 1906.800;    0.000;    0.000
996.271; 1893.800;    0.000;    0.000
996.434; 2042.800;    0.000;    0.000
996.597; 1918.800;    0.000;    0.000
996.760; 1936.800;    0.000;    0.000
996.923; 1942.800;    0.000;    0.000
997.086; 1923.800;    0.000;    0.000
997.248; 1982.800;    0.000;    0.000
997.411; 1928.800;    0.000;    0.000
997.574; 1861.800;    0.000;    0.000
997.737; 1966.800;    0.000;    0.000
997.899; 1906.800;    0.000;    0.000
998.062; 1896.800;    0.000;    0.000
998.225; 1847.800;    0.000;    0.000
998.387; 1897.800;    0.000;    0.000
998.550; 1842.800;    0.000;    0.000
998.712; 1910.800;    0.000;    0.000
998.875; 1937.800;    0.000;    0.000
999.037; 1892.800;    0.000;    0.000
999.200; 1917.800;    0.000;    0.000
999.362; 1916.800;    0.000;    0.000
999.525; 1942.800;    0.000;    0.000
999.687; 1909.800;    0.000;    0.000
999.849; 1903.800;    0.000;    0.000
1000.012; 1957.800;    0.000;    0.000
1000.174; 1969.800;    0.000;    0.000
1000.336; 1896.800;    0.000;    0.000
1000.499; 2005.800;    0.000;    0.000
1000.661; 1972.800;    0.000;    0.000
1000.823; 1911.800;    0.000;    0.000
1000.985; 1903.800;    0.000;    0.000
1001.147; 2031.800;    0.000;    0.000
1001.309; 1973.800;    0.000;    0.000
1001.471; 1915.800;    0.000;    0.000
1001.633; 1960.800;    0.000;    0.000
1001.796; 2072.800;    0.000;    0.000
1001.957; 1962.800;    0.000;    0.000
1002.119; 2067.800;    0.000;    0.000
1002.281; 2084.800;    0.000;    0.000
1002.443; 2077.800;    0.000;    0.000
1002.605; 2115.800;    0.000;    0.000
1002.767; 2170.800;    0.000;    0.000
1002.929; 2232.800;    0.000;    0.000
1003.091; 2307.800;    0.000;    0.000
1003.252; 2409.800;    0.000;    0.000
1003.414; 2458.800;    0.000;    0.000
1003.576; 2590.800;    0.000;    0.000
1003.738; 2549.800;    0.000;    0.000
1003.899; 2758.800;    0.000;    0.000
1004.061; 2685.800;    0.000;    0.000
1004.222; 2776.800;    0.000;    0.000
1004.384; 2902.800;    0.000;    0.000
1004.546; 2891.800;    0.000;    0.000
1004.707; 2958.800;    0.000;    0.000
1004.869; 2943.800;    0.000;    0.000
1005.030; 2857.800;    0.000;    0.000
1005.191; 2818.800;    0.000;    0.000
1005.353; 2712.800;    0.000;    0.000
1005.514; 2716.800;    0.000;    0.000
1005.675; 2658.800;    0.000;    0.000
1005.837; 2633.800;    0.000;    0.000
1005.998; 2594.800;    0.000;    0.000
1006.159; 2461.800;    0.000;    0.000
1006.321; 2579.800;    0.000;    0.000
1006.482; 2652.800;    0.000;    0.000
1006.643; 2593.800;    0.000;    0.000
1006.804; 2802.800;    0.000;    0.000
1006.965; 2835.800;    0.000;    0.000
1007.126; 2868.800;    0.000;    0.000
1007.287; 2841.800;    0.000;    0.000
1007.448; 2741.800;    0.000;    0.000
1007.609; 2790.800;    0.000;    0.000
1007.770; 2632.800;    0.000;    0.000
1007.931; 2769.800;    0.000;    0.000
1008.092; 2775.800;    0.000;    0.000
1008.253; 2747.800;    0.000;    0.000
1008.414; 2852.800;    0.000;    0.000
1008.575; 2883.800;    0.000;    0.000
1008.736; 2853.800;    0.000;    0.000
1008.896; 2906.800;    0.000;    0.000
1009.057; 2912.800;    0.000;    0.000
1009.218; 2833.800;    0.000;    0.000
1009.379; 2880.800;    0.000;    0.000
1009.539; 2855.800;    0.000;    0.000
1009.700; 3042.800;    0.000;    0.000
1009.860; 2779.800;    0.000;    0.000
1010.021; 2823.800;    0.000;    0.000
1010.182; 2877.800;    0.000;    0.000
1010.342; 2848.800;    0.000;    0.000
1010.503; 2966.800;    0.000;    0.000
1010.663; 2960.800;    0.000;    0.000
1010.823; 2918.800;    0.000;    0.000
1010.984; 3015.800;    0.000;    0.000
1011.144; 3099.800;    0.000;    0.000
1011.305; 2992.800;    0.000;    0.000
1011.465; 3045.800;    0.000;    0.000
1011.625; 3016.800;    0.000;    0.000
1011.785; 3118.800;    0.000;    0.000
1011.946; 3076.800;    0.000;    0.000
1012.106; 3073.800;    0.000;    0.000
1012.266; 3027.800;    0.000;    0.000
1012.426; 2983.800;    0.000;    0.000
1012.586; 3154.800;    0.000;    0.000
1012.746; 3213.800;    0.000;    0.000
1012.906; 3051.800;    0.000;    0.000
1013.066; 3154.800;    0.000;    0.000
1013.226; 3210.800;    0.000;    0.000
1013.386; 3198.800;    0.000;    0.000
1013.546; 3193.800;    0.000;    0.000
1013.706; 3146.800;    0.000;    0.000
1013.866; 3082.800;    0.000;    0.000
1014.026; 3112.800;    0.000;    0.000
1014.186; 3072.800;    0.000;    0.000
1014.346; 3015.800;    0.000;    0.000
1014.505; 3064.800;    0.000;    0.000
1014.665; 3234.800;    0.000;    0.000
1014.825; 3223.800;    0.000;    0.000
1014.985; 3071.800;    0.000;    0.000
1015.144; 3162.800;    0.000;    0.000
1015.304; 3507.800;    0.000;    0.000
1015.463; 3500.800;    0.000;    0.000
1015.623; 3268.800;    0.000;    0.000
1015.783; 3432.800;    0.000;    0.000
1015.942; 3810.800;    0.000;    0.000
1016.102; 3734.800;    0.000;    0.000
1016.261; 3523.800;    0.000;    0.000
1016.420; 3817.800;    0.000;    0.000
1016.580; 4097.800;    0.000;    0.000
1016.739; 4110.800;    0.000;    0.000
1016.899; 3996.800;    0.000;    0.000
1017.058; 3942.800;    0.000;    0.000
1017.217; 4409.800;    0.000;    0.000
1017.376; 4329.800;    0.000;    0.000
1017.536; 4012.800;    0.000;    0.000
1017.695; 3851.800;    0.000;    0.000
1017.854; 3892.800;    0.000;    0.000
1018.013; 3893.800;    0.000;    0.000
1018.172; 3671.800;    0.000;    0.000
1018.331; 3677.800;    0.000;    0.000
1018.490; 3886.800;    0.000;    0.000
1018.649; 4165.800;    0.000;    0.000
1018.808; 4293.800;    0.000;    0.000
1018.967; 4186.800;    0.000;    0.000
1019.126; 4095.800;    0.000;    0.000
1019.285; 4294.800;    0.000;    0.000
1019.444; 4207.800;    0.000;    0.000
1019.603; 4031.800;    0.000;    0.000
1019.762; 3894.800;    0.000;    0.000
1019.921; 3798.800;    0.000;    0.000
1020.079; 4070.800;    0.000;    0.000
1020.238; 4504.800;    0.000;    0.000
1020.397; 4316.800;    0.000;    0.000
1020.556; 4034.800;    0.000;    0.000
1020.714; 3962.800;    0.000;    0.000
1020.873; 4228.800;    0.000;    0.000
1021.031; 4371.800;    0.000;    0.000
1021.190; 4083.800;    0.000;    0.000
1021.348; 4100.800;    0.000;    0.000
1021.507; 4316.800;    0.000;    0.000
1021.665; 4517.800;    0.000;    0.000
1021.824; 4312.800;    0.000;    0.000
1021.982; 3978.800;    0.000;    0.000
1022.141; 4183.800;    0.000;    0.000
1022.299; 4573.800;    0.000;    0.000
1022.457; 4793.800;    0.000;    0.000
1022.616; 4527.800;    0.000;    0.000
1022.774; 4162.800;    0.000;    0.000
1022.932; 4272.800;    0.000;    0.000
1023.090; 4777.800;    0.000;    0.000
1023.249; 4873.800;    0.000;    0.000
1023.407; 4640.800;    0.000;    0.000
1023.565; 4108.800;    0.000;    0.000
1023.723; 4331.800;    0.000;    0.000
1023.881; 4763.800;    0.000;    0.000
1024.039; 4793.800;    0.000;    0.000
1024.197; 4587.800;    0.000;    0.000
1024.355; 4369.800;    0.000;    0.000
1024.513; 4520.800;    0.000;    0.000
1024.671; 4768.800;    0.000;    0.000
1024.829; 4993.800;    0.000;    0.000
1024.987; 4734.800;    0.000;    0.000
1025.145; 4383.800;    0.000;    0.000
1025.302; 4261.800;    0.000;    0.000
1025.460; 4651.800;    0.000;    0.000
1025.618; 5015.800;    0.000;    0.000
1025.776; 4980.800;    0.000;    0.000
1025.933; 4438.800;    0.000;    0.000
1026.091; 4285.800;    0.000;    0.000
1026.249; 4726.800;    0.000;    0.000
1026.406; 4976.800;    0.000;    0.000
1026.564; 4879.800;    0.000;    0.000
1026.721; 4794.800;    0.000;    0.000
1026.879; 4301.800;    0.000;    0.000
1027.036; 4660.800;    0.000;    0.000
1027.194; 5227.800;    0.000;    0.000
1027.351; 5206.800;    0.000;    0.000
1027.509; 4808.800;    0.000;    0.000
1027.666; 4617.800;    0.000;    0.000
1027.823; 4711.800;    0.000;    0.000
1027.981; 4944.800;    0.000;    0.000
1028.138; 5166.800;    0.000;    0.000
1028.295; 5237.800;    0.000;    0.000
1028.452; 4819.800;    0.000;    0.000
1028.610; 4662.800;    0.000;    0.000
1028.767; 4989.800;    0.000;    0.000
1028.924; 5292.800;    0.000;    0.000
1029.081; 5257.800;    0.000;    0.000
1029.238; 5252.800;    0.000;    0.000
1029.395; 4948.800;    0.000;    0.000
1029.552; 4987.800;    0.000;    0.000
1029.709; 5315.800;    0.000;    0.000
1029.866; 5423.800;    0.000;    0.000
1030.023; 5347.800;    0.000;    0.000
1030.180; 4901.800;    0.000;    0.000
1030.337; 5088.800;    0.000;    0.000
1030.494; 5070.800;    0.000;    0.000
1030.650; 5372.800;    0.000;    0.000
1030.807; 5622.800;    0.000;    0.000
1030.964; 5245.800;    0.000;    0.000
1031.121; 5315.800;    0.000;    0.000
1031.277; 5000.800;    0.000;    0.000
1031.434; 5325.800;    0.000;    0.000
1031.591; 5730.800;    0.000;    0.000
1031.747; 5859.800;    0.000;    0.000
1031.904; 5634.800;    0.000;    0.000
1032.060; 5249.800;    0.000;    0.000
1032.217; 5065.800;    0.000;    0.000
1032.373; 5678.800;    0.000;    0.000
1032.530; 5950.800;    0.000;    0.000
1032.686; 6316.800;    0.000;    0.000
1032.843; 6173.800;    0.000;    0.000
1032.999; 5867.800;    0.000;    0.000
1033.155; 5758.800;    0.000;    0.000
1033.312; 5738.800;    0.000;    0.000
1033.468; 6505.800;    0.000;    0.000
1033.624; 7475.800;    0.000;    0.000
1033.780; 7346.800;    0.000;    0.000
1033.937; 7424.800;    0.000;    0.000
1034.093; 6724.800;    0.000;    0.000
1034.249; 6459.800;    0.000;    0.000
1034.405; 6990.800;    0.000;    0.000
1034.561; 6950.800;    0.000;    0.000
1034.717; 7663.800;    0.000;    0.000
1034.873; 7513.800;    0.000;    0.000
1035.029; 7476.800;    0.000;    0.000
1035.185; 7038.800;    0.000;    0.000
1035.341; 6698.800;    0.000;    0.000
1035.497; 6978.800;    0.000;    0.000
1035.653; 7603.800;    0.000;    0.000
1035.809; 7817.800;    0.000;    0.000
1035.964; 8914.800;    0.000;    0.000
1036.120; 8268.800;    0.000;    0.000
1036.276; 8234.800;    0.000;    0.000
1036.432; 7812.800;    0.000;    0.000
1036.587; 7267.800;    0.000;    0.000
1036.743; 7282.800;    0.000;    0.000
1036.899; 8743.800;    0.000;    0.000
1037.054; 8376.800;    0.000;    0.000
1037.210; 9777.800;    0.000;    0.000
1037.365; 9968.800;    0.000;    0.000
1037.521; 9046.800;    0.000;    0.000
1037.676; 8500.800;    0.000;    0.000
1037.832; 8131.800;    0.000;    0.000
1037.987; 7771.800;    0.000;    0.000
1038.143; 7901.800;    0.000;    0.000
1038.298; 9738.800;    0.000;    0.000
1038.453; 9559.800;    0.000;    0.000
1038.609;10024.800;    0.000;    0.000
1038.764;11106.800;    0.000;    0.000
1038.919; 9587.800;    0.000;    0.000
1039.074; 8836.800;    0.000;    0.000
1039.229; 8686.800;    0.000;    0.000
1039.385; 8329.800;    0.000;    0.000
1039.540; 8758.800;    0.000;    0.000
1039.695; 9434.800;    0.000;    0.000
1039.850;10843.800;    0.000;    0.000
1040.005;10846.800;    0.000;    0.000
1040.160;11885.800;    0.000;    0.000
1040.315;11574.800;    0.000;    0.000
1040.470;10578.800;    0.000;    0.000
1040.625;10406.800;    0.000;    0.000
1040.780; 9858.800;    0.000;    0.000
1040.935; 9539.800;    0.000;    0.000
1041.089; 9632.800;    0.000;    0.000
1041.244;10986.800;    0.000;    0.000
1041.399;12420.800;    0.000;    0.000
1041.554;12364.800;    0.000;    0.000
1041.708;13568.800;    0.000;    0.000
1041.863;14021.800;    0.000;    0.000
1042.018;12060.800;    0.000;    0.000
1042.172;11913.800;    0.000;    0.000
1042.327;11993.800;    0.000;    0.000
1042.481;11045.800;    0.000;    0.000
1042.636;11717.800;    0.000;    0.000
1042.790;11311.800;    0.000;    0.000
1042.945;12611.800;    0.000;    0.000
1043.099;16193.800;    0.000;    0.000
1043.254;14935.800;    0.000;    0.000
1043.408;14805.800;    0.000;    0.000
1043.563;17782.800;    0.000;    0.000
1043.717;16448.800;    0.000;    0.000
1043.871;14601.800;    0.000;    0.000
1044.025;14294.800;    0.000;    0.000
1044.180;13653.800;    0.000;    0.000
1044.334;13360.800;    0.000;    0.000
1044.488;14155.800;    0.000;    0.000
1044.642;14505.800;    0.000;    0.000
1044.796;16382.800;    0.000;    0.000
1044.950;19197.800;    0.000;    0.000
1045.104;20451.800;    0.000;    0.000
1045.258;19640.800;    0.000;    0.000
1045.412;20201.800;    0.000;    0.000
1045.566;20060.800;    0.000;    0.000
1045.720;19185.800;    0.000;    0.000
1045.874;18124.800;    0.000;    0.000
1046.028;17321.800;    0.000;    0.000
1046.182;15099.800;    0.000;    0.000
1046.336;15815.800;    0.000;    0.000
1046.489;16945.800;    0.000;    0.000
1046.643;18157.800;    0.000;    0.000
1046.797;18599.800;    0.000;    0.000
1046.951;20550.800;    0.000;    0.000
1047.104;21594.800;    0.000;    0.000
1047.258;22293.800;    0.000;    0.000
1047.411;23841.800;    0.000;    0.000
1047.565;22856.800;    0.000;    0.000
1047.719;23392.800;    0.000;    0.000
1047.872;22460.800;    0.000;    0.000
1048.026;20345.800;    0.000;    0.000
1048.179;21171.800;    0.000;    0.000
1048.332;20319.800;    0.000;    0.000
1048.486;20071.800;    0.000;    0.000
1048.639;20331.800;    0.000;    0.000
1048.792;20909.800;    0.000;    0.000
1048.946;22586.800;    0.000;    0.000
1049.099;23096.800;    0.000;    0.000
1049.252;24952.800;    0.000;    0.000
1049.405;23588.800;    0.000;    0.000
1049.559;24771.800;    0.000;    0.000
1049.712;28562.800;    0.000;    0.000
1049.865;30089.800;    0.000;    0.000
1050.018;29211.800;    0.000;    0.000
1050.171;26781.800;    0.000;    0.000
1050.324;24710.800;    0.000;    0.000
1050.477;25946.800;    0.000;    0.000
1050.630;29403.800;    0.000;    0.000
1050.783;31170.800;    0.000;    0.000
1050.936;28275.800;    0.000;    0.000
1051.089;25912.800;    0.000;    0.000
1051.242;25600.800;    0.000;    0.000
1051.394;29300.800;    0.000;    0.000
1051.547;32714.800;    0.000;    0.000
1051.700;32770.800;    0.000;    0.000
1051.853;30375.800;    0.000;    0.000
1052.005;30573.800;    0.000;    0.000
1052.158;31751.800;    0.000;    0.000
1052.311;35992.800;    0.000;    0.000
1052.463;36926.800;    0.000;    0.000
1052.616;34060.800;    0.000;    0.000
1052.768;31811.800;    0.000;    0.000
1052.921;30218.800;    0.000;    0.000
1053.073;30367.800;    0.000;    0.000
1053.226;33596.800;    0.000;    0.000
1053.378;41121.800;    0.000;    0.000
1053.531;44290.800;    0.000;    0.000
1053.683;43454.800;    0.000;    0.000
1053.835;36944.800;    0.000;    0.000
1053.988;28411.800;    0.000;    0.000
1054.140; 4937.800;    0.000;    0.000
1054.292; 1220.800;    0.000;    0.000
1054.444; 1002.800;    0.000;    0.000
1054.596;  919.800;    0.000;    0.000
1054.749;  762.800;    0.000;    0.000
1054.901;  771.800;    0.000;    0.000
1055.053;  771.800;    0.000;    0.000
1055.205;  754.800;    0.000;    0.000
1055.357;  718.800;    0.000;    0.000
1055.509;  692.800;    0.000;    0.000
1055.661;  710.800;    0.000;    0.000
1055.813;  690.800;    0.000;    0.000
1055.965;  654.800;    0.000;    0.000
1056.116;  618.800;    0.000;    0.000
1056.268;  653.800;    0.000;    0.000
1056.420;  658.800;    0.000;    0.000

