
Integration time [ms]:   1.000
Averaging Nr. [scans]: 1
Smoothing Nr. [pixels]: 0
Data measured with spectrometer [name]: UV2
Wave   ;Sample   ;Dark     ;Reference
[nm]   ;[counts] ;[counts] ;[counts] 

353.533;  216.850;    0.000;    0.000
353.597;  229.850;    0.000;    0.000
353.660;  229.850;    0.000;    0.000
353.723;  234.850;    0.000;    0.000
353.786;  197.850;    0.000;    0.000
353.850;  244.850;    0.000;    0.000
353.913;  178.850;    0.000;    0.000
353.976;  198.850;    0.000;    0.000
354.039;  183.850;    0.000;    0.000
354.102;  192.850;    0.000;    0.000
354.166;  238.850;    0.000;    0.000
354.229;  229.850;    0.000;    0.000
354.292;  207.850;    0.000;    0.000
354.355;  209.850;    0.000;    0.000
354.418;  206.850;    0.000;    0.000
354.481;  217.850;    0.000;    0.000
354.545;  454.850;    0.000;    0.000
354.608;  463.850;    0.000;    0.000
354.671;  464.850;    0.000;    0.000
354.734;  463.850;    0.000;    0.000
354.797;  474.850;    0.000;    0.000
354.860;  495.850;    0.000;    0.000
354.923;  469.850;    0.000;    0.000
354.986;  442.850;    0.000;    0.000
355.050;  501.850;    0.000;    0.000
355.113;  509.850;    0.000;    0.000
355.176;  487.850;    0.000;    0.000
355.239;  522.850;    0.000;    0.000
355.302;  511.850;    0.000;    0.000
355.365;  528.850;    0.000;    0.000
355.428;  536.850;    0.000;    0.000
355.491;  529.850;    0.000;    0.000
355.554;  439.850;    0.000;    0.000
355.617;  537.850;    0.000;    0.000
355.680;  516.850;    0.000;    0.000
355.743;  476.850;    0.000;    0.000
355.806;  504.850;    0.000;    0.000
355.869;  569.850;    0.000;    0.000
355.932;  472.850;    0.000;    0.000
355.995;  530.850;    0.000;    0.000
356.058;  526.850;    0.000;    0.000
356.121;  502.850;    0.000;    0.000
356.184;  534.850;    0.000;    0.000
356.247;  528.850;    0.000;    0.000
356.310;  481.850;    0.000;    0.000
356.373;  559.850;    0.000;    0.000
356.436;  557.850;    0.000;    0.000
356.498;  543.850;    0.000;    0.000
356.561;  566.850;    0.000;    0.000
356.624;  520.850;    0.000;    0.000
356.687;  541.850;    0.000;    0.000
356.750;  544.850;    0.000;    0.000
356.813;  541.850;    0.000;    0.000
356.876;  589.850;    0.000;    0.000
356.939;  528.850;    0.000;    0.000
357.001;  550.850;    0.000;    0.000
357.064;  546.850;    0.000;    0.000
357.127;  516.850;    0.000;    0.000
357.190;  562.850;    0.000;    0.000
357.253;  566.850;    0.000;    0.000
357.316;  587.850;    0.000;    0.000
357.378;  577.850;    0.000;    0.000
357.441;  516.850;    0.000;    0.000
357.504;  529.850;    0.000;    0.000
357.567;  511.850;    0.000;    0.000
357.629;  609.850;    0.000;    0.000
357.692;  536.850;    0.000;    0.000
357.755;  582.850;    0.000;    0.000
357.818;  526.850;    0.000;    0.000
357.880;  585.850;    0.000;    0.000
357.943;  530.850;    0.000;    0.000
358.006;  586.850;    0.000;    0.000
358.069;  529.850;    0.000;    0.000
358.131;  553.850;    0.000;    0.000
358.194;  538.850;    0.000;    0.000
358.257;  555.850;    0.000;    0.000
358.319;  595.850;    0.000;    0.000
358.382;  608.850;    0.000;    0.000
358.445;  536.850;    0.000;    0.000
358.507;  587.850;    0.000;    0.000
358.570;  547.850;    0.000;    0.000
358.633;  543.850;    0.000;    0.000
358.695;  564.850;    0.000;    0.000
358.758;  528.850;    0.000;    0.000
358.821;  541.850;    0.000;    0.000
358.883;  557.850;    0.000;    0.000
358.946;  585.850;    0.000;    0.000
359.008;  582.850;    0.000;    0.000
359.071;  562.850;    0.000;    0.000
359.134;  550.850;    0.000;    0.000
359.196;  604.850;    0.000;    0.000
359.259;  558.850;    0.000;    0.000
359.321;  535.850;    0.000;    0.000
359.384;  623.850;    0.000;    0.000
359.446;  563.850;    0.000;    0.000
359.509;  560.850;    0.000;    0.000
359.571;  575.850;    0.000;    0.000
359.634;  513.850;    0.000;    0.000
359.696;  561.850;    0.000;    0.000
359.759;  633.850;    0.000;    0.000
359.821;  584.850;    0.000;    0.000
359.884;  595.850;    0.000;    0.000
359.946;  596.850;    0.000;    0.000
360.009;  604.850;    0.000;    0.000
360.071;  560.850;    0.000;    0.000
360.134;  556.850;    0.000;    0.000
360.196;  581.850;    0.000;    0.000
360.259;  590.850;    0.000;    0.000
360.321;  586.850;    0.000;    0.000
360.384;  636.850;    0.000;    0.000
360.446;  640.850;    0.000;    0.000
360.508;  636.850;    0.000;    0.000
360.571;  589.850;    0.000;    0.000
360.633;  527.850;    0.000;    0.000
360.696;  534.850;    0.000;    0.000
360.758;  600.850;    0.000;    0.000
360.820;  590.850;    0.000;    0.000
360.883;  564.850;    0.000;    0.000
360.945;  595.850;    0.000;    0.000
361.007;  601.850;    0.000;    0.000
361.070;  582.850;    0.000;    0.000
361.132;  649.850;    0.000;    0.000
361.194;  602.850;    0.000;    0.000
361.257;  621.850;    0.000;    0.000
361.319;  598.850;    0.000;    0.000
361.381;  623.850;    0.000;    0.000
361.443;  612.850;    0.000;    0.000
361.506;  587.850;    0.000;    0.000
361.568;  626.850;    0.000;    0.000
361.630;  637.850;    0.000;    0.000
361.693;  625.850;    0.000;    0.000
361.755;  650.850;    0.000;    0.000
361.817;  677.850;    0.000;    0.000
361.879;  653.850;    0.000;    0.000
361.941;  570.850;    0.000;    0.000
362.004;  648.850;    0.000;    0.000
362.066;  693.850;    0.000;    0.000
362.128;  626.850;    0.000;    0.000
362.190;  690.850;    0.000;    0.000
362.252;  629.850;    0.000;    0.000
362.315;  644.850;    0.000;    0.000
362.377;  612.850;    0.000;    0.000
362.439;  681.850;    0.000;    0.000
362.501;  673.850;    0.000;    0.000
362.563;  660.850;    0.000;    0.000
362.625;  648.850;    0.000;    0.000
362.688;  644.850;    0.000;    0.000
362.750;  674.850;    0.000;    0.000
362.812;  674.850;    0.000;    0.000
362.874;  662.850;    0.000;    0.000
362.936;  718.850;    0.000;    0.000
362.998;  598.850;    0.000;    0.000
363.060;  689.850;    0.000;    0.000
363.122;  627.850;    0.000;    0.000
363.184;  615.850;    0.000;    0.000
363.246;  679.850;    0.000;    0.000
363.308;  623.850;    0.000;    0.000
363.370;  678.850;    0.000;    0.000
363.432;  623.850;    0.000;    0.000
363.494;  651.850;    0.000;    0.000
363.556;  697.850;    0.000;    0.000
363.618;  659.850;    0.000;    0.000
363.680;  629.850;    0.000;    0.000
363.742;  665.850;    0.000;    0.000
363.804;  631.850;    0.000;    0.000
363.866;  670.850;    0.000;    0.000
363.928;  635.850;    0.000;    0.000
363.990;  658.850;    0.000;    0.000
364.052;  674.850;    0.000;    0.000
364.114;  673.850;    0.000;    0.000
364.176;  729.850;    0.000;    0.000
364.238;  697.850;    0.000;    0.000
364.300;  703.850;    0.000;    0.000
364.362;  631.850;    0.000;    0.000
364.424;  616.850;    0.000;    0.000
364.486;  662.850;    0.000;    0.000
364.548;  646.850;    0.000;    0.000
364.609;  741.850;    0.000;    0.000
364.671;  679.850;    0.000;    0.000
364.733;  642.850;    0.000;    0.000
364.795;  675.850;    0.000;    0.000
364.857;  695.850;    0.000;    0.000
364.919;  604.850;    0.000;    0.000
364.981;  715.850;    0.000;    0.000
365.042;  781.850;    0.000;    0.000
365.104;  687.850;    0.000;    0.000
365.166;  615.850;    0.000;    0.000
365.228;  692.850;    0.000;    0.000
365.290;  653.850;    0.000;    0.000
365.351;  682.850;    0.000;    0.000
365.413;  659.850;    0.000;    0.000
365.475;  665.850;    0.000;    0.000
365.537;  688.850;    0.000;    0.000
365.598;  688.850;    0.000;    0.000
365.660;  681.850;    0.000;    0.000
365.722;  713.850;    0.000;    0.000
365.784;  706.850;    0.000;    0.000
365.845;  726.850;    0.000;    0.000
365.907;  706.850;    0.000;    0.000
365.969;  682.850;    0.000;    0.000
366.030;  698.850;    0.000;    0.000
366.092;  695.850;    0.000;    0.000
366.154;  717.850;    0.000;    0.000
366.215;  695.850;    0.000;    0.000
366.277;  709.850;    0.000;    0.000
366.339;  707.850;    0.000;    0.000
366.400;  673.850;    0.000;    0.000
366.462;  692.850;    0.000;    0.000
366.524;  711.850;    0.000;    0.000
366.585;  706.850;    0.000;    0.000
366.647;  693.850;    0.000;    0.000
366.708;  690.850;    0.000;    0.000
366.770;  728.850;    0.000;    0.000
366.832;  727.850;    0.000;    0.000
366.893;  769.850;    0.000;    0.000
366.955;  644.850;    0.000;    0.000
367.016;  739.850;    0.000;    0.000
367.078;  714.850;    0.000;    0.000
367.139;  661.850;    0.000;    0.000
367.201;  728.850;    0.000;    0.000
367.262;  712.850;    0.000;    0.000
367.324;  739.850;    0.000;    0.000
367.385;  691.850;    0.000;    0.000
367.447;  778.850;    0.000;    0.000
367.508;  716.850;    0.000;    0.000
367.570;  738.850;    0.000;    0.000
367.631;  685.850;    0.000;    0.000
367.693;  753.850;    0.000;    0.000
367.754;  721.850;    0.000;    0.000
367.816;  750.850;    0.000;    0.000
367.877;  711.850;    0.000;    0.000
367.939;  728.850;    0.000;    0.000
368.000;  730.850;    0.000;    0.000
368.062;  714.850;    0.000;    0.000
368.123;  749.850;    0.000;    0.000
368.184;  721.850;    0.000;    0.000
368.246;  700.850;    0.000;    0.000
368.307;  767.850;    0.000;    0.000
368.369;  747.850;    0.000;    0.000
368.430;  700.850;    0.000;    0.000
368.491;  714.850;    0.000;    0.000
368.553;  728.850;    0.000;    0.000
368.614;  745.850;    0.000;    0.000
368.675;  733.850;    0.000;    0.000
368.737;  796.850;    0.000;    0.000
368.798;  821.850;    0.000;    0.000
368.859;  728.850;    0.000;    0.000
368.921;  778.850;    0.000;    0.000
368.982;  792.850;    0.000;    0.000
369.043;  774.850;    0.000;    0.000
369.104;  752.850;    0.000;    0.000
369.166;  820.850;    0.000;    0.000
369.227;  713.850;    0.000;    0.000
369.288;  738.850;    0.000;    0.000
369.349;  743.850;    0.000;    0.000
369.411;  806.850;    0.000;    0.000
369.472;  734.850;    0.000;    0.000
369.533;  784.850;    0.000;    0.000
369.594;  713.850;    0.000;    0.000
369.656;  801.850;    0.000;    0.000
369.717;  769.850;    0.000;    0.000
369.778;  795.850;    0.000;    0.000
369.839;  754.850;    0.000;    0.000
369.900;  796.850;    0.000;    0.000
369.961;  778.850;    0.000;    0.000
370.023;  776.850;    0.000;    0.000
370.084;  759.850;    0.000;    0.000
370.145;  771.850;    0.000;    0.000
370.206;  754.850;    0.000;    0.000
370.267;  825.850;    0.000;    0.000
370.328;  810.850;    0.000;    0.000
370.389;  829.850;    0.000;    0.000
370.451;  797.850;    0.000;    0.000
370.512;  791.850;    0.000;    0.000
370.573;  792.850;    0.000;    0.000
370.634;  801.850;    0.000;    0.000
370.695;  748.850;    0.000;    0.000
370.756;  816.850;    0.000;    0.000
370.817;  851.850;    0.000;    0.000
370.878;  820.850;    0.000;    0.000
370.939;  756.850;    0.000;    0.000
371.000;  800.850;    0.000;    0.000
371.061;  802.850;    0.000;    0.000
371.122;  765.850;    0.000;    0.000
371.183;  816.850;    0.000;    0.000
371.244;  786.850;    0.000;    0.000
371.305;  762.850;    0.000;    0.000
371.366;  809.850;    0.000;    0.000
371.427;  816.850;    0.000;    0.000
371.488;  862.850;    0.000;    0.000
371.549;  765.850;    0.000;    0.000
371.610;  777.850;    0.000;    0.000
371.671;  778.850;    0.000;    0.000
371.732;  844.850;    0.000;    0.000
371.793;  803.850;    0.000;    0.000
371.853;  798.850;    0.000;    0.000
371.914;  786.850;    0.000;    0.000
371.975;  763.850;    0.000;    0.000
372.036;  772.850;    0.000;    0.000
372.097;  771.850;    0.000;    0.000
372.158;  837.850;    0.000;    0.000
372.219;  807.850;    0.000;    0.000
372.280;  791.850;    0.000;    0.000
372.340;  904.850;    0.000;    0.000
372.401;  789.850;    0.000;    0.000
372.462;  814.850;    0.000;    0.000
372.523;  775.850;    0.000;    0.000
372.584;  831.850;    0.000;    0.000
372.645;  812.850;    0.000;    0.000
372.705;  850.850;    0.000;    0.000
372.766;  837.850;    0.000;    0.000
372.827;  815.850;    0.000;    0.000
372.888;  847.850;    0.000;    0.000
372.948;  846.850;    0.000;    0.000
373.009;  823.850;    0.000;    0.000
373.070;  850.850;    0.000;    0.000
373.131;  793.850;    0.000;    0.000
373.191;  855.850;    0.000;    0.000
373.252;  885.850;    0.000;    0.000
373.313;  835.850;    0.000;    0.000
373.373;  841.850;    0.000;    0.000
373.434;  902.850;    0.000;    0.000
373.495;  841.850;    0.000;    0.000
373.555;  796.850;    0.000;    0.000
373.616;  863.850;    0.000;    0.000
373.677;  826.850;    0.000;    0.000
373.737;  825.850;    0.000;    0.000
373.798;  798.850;    0.000;    0.000
373.859;  896.850;    0.000;    0.000
373.919;  901.850;    0.000;    0.000
373.980;  865.850;    0.000;    0.000
374.041;  814.850;    0.000;    0.000
374.101;  853.850;    0.000;    0.000
374.162;  920.850;    0.000;    0.000
374.222;  906.850;    0.000;    0.000
374.283;  856.850;    0.000;    0.000
374.343;  911.850;    0.000;    0.000
374.404;  878.850;    0.000;    0.000
374.465;  864.850;    0.000;    0.000
374.525;  899.850;    0.000;    0.000
374.586;  872.850;    0.000;    0.000
374.646;  869.850;    0.000;    0.000
374.707;  905.850;    0.000;    0.000
374.767;  876.850;    0.000;    0.000
374.828;  885.850;    0.000;    0.000
374.888;  842.850;    0.000;    0.000
374.949;  846.850;    0.000;    0.000
375.009;  872.850;    0.000;    0.000
375.070;  874.850;    0.000;    0.000
375.130;  886.850;    0.000;    0.000
375.190;  893.850;    0.000;    0.000
375.251;  947.850;    0.000;    0.000
375.311;  892.850;    0.000;    0.000
375.372;  913.850;    0.000;    0.000
375.432;  895.850;    0.000;    0.000
375.493;  906.850;    0.000;    0.000
375.553;  915.850;    0.000;    0.000
375.613;  906.850;    0.000;    0.000
375.674;  900.850;    0.000;    0.000
375.734;  919.850;    0.000;    0.000
375.794;  895.850;    0.000;    0.000
375.855;  899.850;    0.000;    0.000
375.915;  873.850;    0.000;    0.000
375.975;  874.850;    0.000;    0.000
376.036;  897.850;    0.000;    0.000
376.096;  875.850;    0.000;    0.000
376.156;  943.850;    0.000;    0.000
376.217;  916.850;    0.000;    0.000
376.277; 1005.850;    0.000;    0.000
376.337;  930.850;    0.000;    0.000
376.398;  855.850;    0.000;    0.000
376.458;  923.850;    0.000;    0.000
376.518;  906.850;    0.000;    0.000
376.578;  922.850;    0.000;    0.000
376.639;  905.850;    0.000;    0.000
376.699;  959.850;    0.000;    0.000
376.759;  935.850;    0.000;    0.000
376.819;  945.850;    0.000;    0.000
376.880; 1005.850;    0.000;    0.000
376.940;  942.850;    0.000;    0.000
377.000;  941.850;    0.000;    0.000
377.060;  963.850;    0.000;    0.000
377.120;  906.850;    0.000;    0.000
377.180;  944.850;    0.000;    0.000
377.241;  945.850;    0.000;    0.000
377.301; 1022.850;    0.000;    0.000
377.361;  945.850;    0.000;    0.000
377.421;  993.850;    0.000;    0.000
377.481;  938.850;    0.000;    0.000
377.541;  958.850;    0.000;    0.000
377.601;  941.850;    0.000;    0.000
377.661;  982.850;    0.000;    0.000
377.722;  948.850;    0.000;    0.000
377.782;  965.850;    0.000;    0.000
377.842; 1007.850;    0.000;    0.000
377.902; 1030.850;    0.000;    0.000
377.962;  945.850;    0.000;    0.000
378.022;  914.850;    0.000;    0.000
378.082; 1042.850;    0.000;    0.000
378.142; 1019.850;    0.000;    0.000
378.202; 1037.850;    0.000;    0.000
378.262; 1022.850;    0.000;    0.000
378.322;  971.850;    0.000;    0.000
378.382;  985.850;    0.000;    0.000
378.442; 1083.850;    0.000;    0.000
378.502; 1042.850;    0.000;    0.000
378.562;  965.850;    0.000;    0.000
378.622; 1059.850;    0.000;    0.000
378.682; 1090.850;    0.000;    0.000
378.742;  999.850;    0.000;    0.000
378.802;  991.850;    0.000;    0.000
378.862; 1124.850;    0.000;    0.000
378.921; 1099.850;    0.000;    0.000
378.981; 1127.850;    0.000;    0.000
379.041; 1081.850;    0.000;    0.000
379.101; 1071.850;    0.000;    0.000
379.161; 1030.850;    0.000;    0.000
379.221; 1097.850;    0.000;    0.000
379.281; 1159.850;    0.000;    0.000
379.341; 1074.850;    0.000;    0.000
379.401; 1091.850;    0.000;    0.000
379.460; 1089.850;    0.000;    0.000
379.520; 1080.850;    0.000;    0.000
379.580; 1115.850;    0.000;    0.000
379.640; 1071.850;    0.000;    0.000
379.700; 1147.850;    0.000;    0.000
379.759; 1194.850;    0.000;    0.000
379.819; 1090.850;    0.000;    0.000
379.879; 1151.850;    0.000;    0.000
379.939; 1119.850;    0.000;    0.000
379.999; 1123.850;    0.000;    0.000
380.058; 1221.850;    0.000;    0.000
380.118; 1159.850;    0.000;    0.000
380.178; 1165.850;    0.000;    0.000
380.237; 1187.850;    0.000;    0.000
380.297; 1211.850;    0.000;    0.000
380.357; 1202.850;    0.000;    0.000
380.417; 1195.850;    0.000;    0.000
380.476; 1178.850;    0.000;    0.000
380.536; 1231.850;    0.000;    0.000
380.596; 1219.850;    0.000;    0.000
380.655; 1203.850;    0.000;    0.000
380.715; 1245.850;    0.000;    0.000
380.775; 1221.850;    0.000;    0.000
380.834; 1225.850;    0.000;    0.000
380.894; 1243.850;    0.000;    0.000
380.954; 1185.850;    0.000;    0.000
381.013; 1268.850;    0.000;    0.000
381.073; 1210.850;    0.000;    0.000
381.132; 1246.850;    0.000;    0.000
381.192; 1227.850;    0.000;    0.000
381.252; 1202.850;    0.000;    0.000
381.311; 1258.850;    0.000;    0.000
381.371; 1233.850;    0.000;    0.000
381.430; 1223.850;    0.000;    0.000
381.490; 1269.850;    0.000;    0.000
381.549; 1237.850;    0.000;    0.000
381.609; 1267.850;    0.000;    0.000
381.668; 1292.850;    0.000;    0.000
381.728; 1319.850;    0.000;    0.000
381.787; 1350.850;    0.000;    0.000
381.847; 1378.850;    0.000;    0.000
381.906; 1327.850;    0.000;    0.000
381.966; 1342.850;    0.000;    0.000
382.025; 1409.850;    0.000;    0.000
382.085; 1385.850;    0.000;    0.000
382.144; 1401.850;    0.000;    0.000
382.204; 1389.850;    0.000;    0.000
382.263; 1399.850;    0.000;    0.000
382.323; 1438.850;    0.000;    0.000
382.382; 1522.850;    0.000;    0.000
382.441; 1464.850;    0.000;    0.000
382.501; 1524.850;    0.000;    0.000
382.560; 1587.850;    0.000;    0.000
382.619; 1695.850;    0.000;    0.000
382.679; 1733.850;    0.000;    0.000
382.738; 1798.850;    0.000;    0.000
382.798; 1968.850;    0.000;    0.000
382.857; 2135.850;    0.000;    0.000
382.916; 2299.850;    0.000;    0.000
382.976; 2194.850;    0.000;    0.000
383.035; 2177.850;    0.000;    0.000
383.094; 2306.850;    0.000;    0.000
383.154; 2625.850;    0.000;    0.000
383.213; 2619.850;    0.000;    0.000
383.272; 2407.850;    0.000;    0.000
383.331; 2140.850;    0.000;    0.000
383.391; 2149.850;    0.000;    0.000
383.450; 1988.850;    0.000;    0.000
383.509; 2083.850;    0.000;    0.000
383.568; 2133.850;    0.000;    0.000
383.628; 2232.850;    0.000;    0.000
383.687; 2488.850;    0.000;    0.000
383.746; 2788.850;    0.000;    0.000
383.805; 3013.850;    0.000;    0.000
383.864; 2694.850;    0.000;    0.000
383.924; 2280.850;    0.000;    0.000
383.983; 2046.850;    0.000;    0.000
384.042; 1818.850;    0.000;    0.000
384.101; 1864.850;    0.000;    0.000
384.160; 1649.850;    0.000;    0.000
384.219; 1578.850;    0.000;    0.000
384.279; 1569.850;    0.000;    0.000
384.338; 1545.850;    0.000;    0.000
384.397; 1570.850;    0.000;    0.000
384.456; 1452.850;    0.000;    0.000
384.515; 1445.850;    0.000;    0.000
384.574; 1486.850;    0.000;    0.000
384.633; 1414.850;    0.000;    0.000
384.692; 1425.850;    0.000;    0.000
384.751; 1472.850;    0.000;    0.000
384.810; 1392.850;    0.000;    0.000
384.869; 1427.850;    0.000;    0.000
384.929; 1447.850;    0.000;    0.000
384.988; 1428.850;    0.000;    0.000
385.047; 1346.850;    0.000;    0.000
385.106; 1382.850;    0.000;    0.000
385.165; 1337.850;    0.000;    0.000
385.224; 1411.850;    0.000;    0.000
385.283; 1296.850;    0.000;    0.000
385.342; 1347.850;    0.000;    0.000
385.401; 1315.850;    0.000;    0.000
385.459; 1396.850;    0.000;    0.000
385.518; 1359.850;    0.000;    0.000
385.577; 1326.850;    0.000;    0.000
385.636; 1307.850;    0.000;    0.000
385.695; 1283.850;    0.000;    0.000
385.754; 1326.850;    0.000;    0.000
385.813; 1387.850;    0.000;    0.000
385.872; 1383.850;    0.000;    0.000
385.931; 1365.850;    0.000;    0.000
385.990; 1395.850;    0.000;    0.000
386.049; 1401.850;    0.000;    0.000
386.107; 1273.850;    0.000;    0.000
386.166; 1337.850;    0.000;    0.000
386.225; 1280.850;    0.000;    0.000
386.284; 1319.850;    0.000;    0.000
386.343; 1314.850;    0.000;    0.000
386.402; 1366.850;    0.000;    0.000
386.460; 1354.850;    0.000;    0.000
386.519; 1330.850;    0.000;    0.000
386.578; 1341.850;    0.000;    0.000
386.637; 1285.850;    0.000;    0.000
386.696; 1407.850;    0.000;    0.000
386.754; 1231.850;    0.000;    0.000
386.813; 1299.850;    0.000;    0.000
386.872; 1318.850;    0.000;    0.000
386.931; 1292.850;    0.000;    0.000
386.989; 1303.850;    0.000;    0.000
387.048; 1295.850;    0.000;    0.000
387.107; 1295.850;    0.000;    0.000
387.165; 1259.850;    0.000;    0.000
387.224; 1272.850;    0.000;    0.000
387.283; 1199.850;    0.000;    0.000
387.342; 1289.850;    0.000;    0.000
387.400; 1279.850;    0.000;    0.000
387.459; 1305.850;    0.000;    0.000
387.517; 1362.850;    0.000;    0.000
387.576; 1285.850;    0.000;    0.000
387.635; 1336.850;    0.000;    0.000
387.693; 1369.850;    0.000;    0.000
387.752; 1278.850;    0.000;    0.000
387.811; 1303.850;    0.000;    0.000
387.869; 1288.850;    0.000;    0.000
387.928; 1284.850;    0.000;    0.000
387.986; 1302.850;    0.000;    0.000
388.045; 1241.850;    0.000;    0.000
388.103; 1265.850;    0.000;    0.000
388.162; 1254.850;    0.000;    0.000
388.221; 1328.850;    0.000;    0.000
388.279; 1283.850;    0.000;    0.000
388.338; 1314.850;    0.000;    0.000
388.396; 1192.850;    0.000;    0.000
388.455; 1287.850;    0.000;    0.000
388.513; 1288.850;    0.000;    0.000
388.572; 1287.850;    0.000;    0.000
388.630; 1225.850;    0.000;    0.000
388.689; 1288.850;    0.000;    0.000
388.747; 1257.850;    0.000;    0.000
388.806; 1256.850;    0.000;    0.000
388.864; 1221.850;    0.000;    0.000
388.922; 1290.850;    0.000;    0.000
388.981; 1244.850;    0.000;    0.000
389.039; 1240.850;    0.000;    0.000
389.098; 1312.850;    0.000;    0.000
389.156; 1266.850;    0.000;    0.000
389.214; 1205.850;    0.000;    0.000
389.273; 1242.850;    0.000;    0.000
389.331; 1350.850;    0.000;    0.000
389.390; 1262.850;    0.000;    0.000
389.448; 1211.850;    0.000;    0.000
389.506; 1226.850;    0.000;    0.000
389.565; 1241.850;    0.000;    0.000
389.623; 1331.850;    0.000;    0.000
389.681; 1275.850;    0.000;    0.000
389.740; 1263.850;    0.000;    0.000
389.798; 1257.850;    0.000;    0.000
389.856; 1352.850;    0.000;    0.000
389.914; 1233.850;    0.000;    0.000
389.973; 1279.850;    0.000;    0.000
390.031; 1221.850;    0.000;    0.000
390.089; 1246.850;    0.000;    0.000
390.147; 1238.850;    0.000;    0.000
390.206; 1284.850;    0.000;    0.000
390.264; 1239.850;    0.000;    0.000
390.322; 1254.850;    0.000;    0.000
390.380; 1245.850;    0.000;    0.000
390.439; 1281.850;    0.000;    0.000
390.497; 1278.850;    0.000;    0.000
390.555; 1305.850;    0.000;    0.000
390.613; 1227.850;    0.000;    0.000
390.671; 1300.850;    0.000;    0.000
390.729; 1226.850;    0.000;    0.000
390.788; 1259.850;    0.000;    0.000
390.846; 1260.850;    0.000;    0.000
390.904; 1203.850;    0.000;    0.000
390.962; 1254.850;    0.000;    0.000
391.020; 1253.850;    0.000;    0.000
391.078; 1237.850;    0.000;    0.000
391.136; 1280.850;    0.000;    0.000
391.194; 1213.850;    0.000;    0.000
391.253; 1273.850;    0.000;    0.000
391.311; 1206.850;    0.000;    0.000
391.369; 1236.850;    0.000;    0.000
391.427; 1326.850;    0.000;    0.000
391.485; 1290.850;    0.000;    0.000
391.543; 1226.850;    0.000;    0.000
391.601; 1235.850;    0.000;    0.000
391.659; 1294.850;    0.000;    0.000
391.717; 1289.850;    0.000;    0.000
391.775; 1231.850;    0.000;    0.000
391.833; 1267.850;    0.000;    0.000
391.891; 1293.850;    0.000;    0.000
391.949; 1245.850;    0.000;    0.000
392.007; 1260.850;    0.000;    0.000
392.065; 1203.850;    0.000;    0.000
392.123; 1275.850;    0.000;    0.000
392.180; 1270.850;    0.000;    0.000
392.238; 1350.850;    0.000;    0.000
392.296; 1242.850;    0.000;    0.000
392.354; 1241.850;    0.000;    0.000
392.412; 1313.850;    0.000;    0.000
392.470; 1167.850;    0.000;    0.000
392.528; 1203.850;    0.000;    0.000
392.586; 1173.850;    0.000;    0.000
392.644; 1242.850;    0.000;    0.000
392.701; 1240.850;    0.000;    0.000
392.759; 1267.850;    0.000;    0.000
392.817; 1321.850;    0.000;    0.000
392.875; 1262.850;    0.000;    0.000
392.933; 1323.850;    0.000;    0.000
392.991; 1272.850;    0.000;    0.000
393.048; 1323.850;    0.000;    0.000
393.106; 1318.850;    0.000;    0.000
393.164; 1359.850;    0.000;    0.000
393.222; 1265.850;    0.000;    0.000
393.279; 1336.850;    0.000;    0.000
393.337; 1301.850;    0.000;    0.000
393.395; 1265.850;    0.000;    0.000
393.453; 1285.850;    0.000;    0.000
393.510; 1278.850;    0.000;    0.000
393.568; 1302.850;    0.000;    0.000
393.626; 1272.850;    0.000;    0.000
393.684; 1272.850;    0.000;    0.000
393.741; 1310.850;    0.000;    0.000
393.799; 1269.850;    0.000;    0.000
393.857; 1203.850;    0.000;    0.000
393.914; 1262.850;    0.000;    0.000
393.972; 1264.850;    0.000;    0.000
394.030; 1281.850;    0.000;    0.000
394.087; 1284.850;    0.000;    0.000
394.145; 1265.850;    0.000;    0.000
394.202; 1303.850;    0.000;    0.000
394.260; 1322.850;    0.000;    0.000
394.318; 1298.850;    0.000;    0.000
394.375; 1242.850;    0.000;    0.000
394.433; 1264.850;    0.000;    0.000
394.490; 1241.850;    0.000;    0.000
394.548; 1285.850;    0.000;    0.000
394.605; 1381.850;    0.000;    0.000
394.663; 1347.850;    0.000;    0.000
394.720; 1258.850;    0.000;    0.000
394.778; 1292.850;    0.000;    0.000
394.836; 1256.850;    0.000;    0.000
394.893; 1246.850;    0.000;    0.000
394.951; 1293.850;    0.000;    0.000
395.008; 1271.850;    0.000;    0.000
395.065; 1330.850;    0.000;    0.000
395.123; 1248.850;    0.000;    0.000
395.180; 1315.850;    0.000;    0.000
395.238; 1246.850;    0.000;    0.000
395.295; 1313.850;    0.000;    0.000
395.353; 1289.850;    0.000;    0.000
395.410; 1334.850;    0.000;    0.000
395.468; 1341.850;    0.000;    0.000
395.525; 1293.850;    0.000;    0.000
395.582; 1368.850;    0.000;    0.000
395.640; 1282.850;    0.000;    0.000
395.697; 1309.850;    0.000;    0.000
395.754; 1336.850;    0.000;    0.000
395.812; 1368.850;    0.000;    0.000
395.869; 1398.850;    0.000;    0.000
395.927; 1345.850;    0.000;    0.000
395.984; 1300.850;    0.000;    0.000
396.041; 1322.850;    0.000;    0.000
396.098; 1348.850;    0.000;    0.000
396.156; 1283.850;    0.000;    0.000
396.213; 1354.850;    0.000;    0.000
396.270; 1368.850;    0.000;    0.000
396.328; 1355.850;    0.000;    0.000
396.385; 1334.850;    0.000;    0.000
396.442; 1347.850;    0.000;    0.000
396.499; 1307.850;    0.000;    0.000
396.557; 1322.850;    0.000;    0.000
396.614; 1289.850;    0.000;    0.000
396.671; 1295.850;    0.000;    0.000
396.728; 1355.850;    0.000;    0.000
396.785; 1335.850;    0.000;    0.000
396.843; 1429.850;    0.000;    0.000
396.900; 1384.850;    0.000;    0.000
396.957; 1371.850;    0.000;    0.000
397.014; 1451.850;    0.000;    0.000
397.071; 1465.850;    0.000;    0.000
397.128; 1344.850;    0.000;    0.000
397.186; 1366.850;    0.000;    0.000
397.243; 1407.850;    0.000;    0.000
397.300; 1375.850;    0.000;    0.000
397.357; 1326.850;    0.000;    0.000
397.414; 1340.850;    0.000;    0.000
397.471; 1275.850;    0.000;    0.000
397.528; 1351.850;    0.000;    0.000
397.585; 1375.850;    0.000;    0.000
397.642; 1407.850;    0.000;    0.000
397.699; 1400.850;    0.000;    0.000
397.756; 1467.850;    0.000;    0.000
397.814; 1431.850;    0.000;    0.000
397.871; 1453.850;    0.000;    0.000
397.928; 1391.850;    0.000;    0.000
397.985; 1374.850;    0.000;    0.000
398.042; 1413.850;    0.000;    0.000
398.099; 1393.850;    0.000;    0.000
398.156; 1416.850;    0.000;    0.000
398.212; 1495.850;    0.000;    0.000
398.269; 1417.850;    0.000;    0.000
398.326; 1438.850;    0.000;    0.000
398.383; 1376.850;    0.000;    0.000
398.440; 1422.850;    0.000;    0.000
398.497; 1413.850;    0.000;    0.000
398.554; 1408.850;    0.000;    0.000
398.611; 1435.850;    0.000;    0.000
398.668; 1424.850;    0.000;    0.000
398.725; 1407.850;    0.000;    0.000
398.782; 1350.850;    0.000;    0.000
398.839; 1460.850;    0.000;    0.000
398.895; 1431.850;    0.000;    0.000
398.952; 1480.850;    0.000;    0.000
399.009; 1475.850;    0.000;    0.000
399.066; 1459.850;    0.000;    0.000
399.123; 1442.850;    0.000;    0.000
399.180; 1483.850;    0.000;    0.000
399.236; 1514.850;    0.000;    0.000
399.293; 1419.850;    0.000;    0.000
399.350; 1481.850;    0.000;    0.000
399.407; 1509.850;    0.000;    0.000
399.463; 1445.850;    0.000;    0.000
399.520; 1467.850;    0.000;    0.000
399.577; 1437.850;    0.000;    0.000
399.634; 1552.850;    0.000;    0.000
399.690; 1496.850;    0.000;    0.000
399.747; 1572.850;    0.000;    0.000
399.804; 1571.850;    0.000;    0.000
399.861; 1498.850;    0.000;    0.000
399.917; 1566.850;    0.000;    0.000
399.974; 1464.850;    0.000;    0.000
400.031; 1526.850;    0.000;    0.000
400.087; 1487.850;    0.000;    0.000
400.144; 1467.850;    0.000;    0.000
400.201; 1537.850;    0.000;    0.000
400.257; 1484.850;    0.000;    0.000
400.314; 1523.850;    0.000;    0.000
400.370; 1485.850;    0.000;    0.000
400.427; 1447.850;    0.000;    0.000
400.484; 1490.850;    0.000;    0.000
400.540; 1522.850;    0.000;    0.000
400.597; 1477.850;    0.000;    0.000
400.653; 1448.850;    0.000;    0.000
400.710; 1433.850;    0.000;    0.000
400.766; 1457.850;    0.000;    0.000
400.823; 1515.850;    0.000;    0.000
400.879; 1566.850;    0.000;    0.000
400.936; 1448.850;    0.000;    0.000
400.993; 1518.850;    0.000;    0.000
401.049; 1500.850;    0.000;    0.000
401.105; 1501.850;    0.000;    0.000
401.162; 1545.850;    0.000;    0.000
401.218; 1532.850;    0.000;    0.000
401.275; 1459.850;    0.000;    0.000
401.331; 1558.850;    0.000;    0.000
401.388; 1496.850;    0.000;    0.000
401.444; 1468.850;    0.000;    0.000
401.501; 1440.850;    0.000;    0.000
401.557; 1427.850;    0.000;    0.000
401.614; 1463.850;    0.000;    0.000
401.670; 1504.850;    0.000;    0.000
401.726; 1466.850;    0.000;    0.000
401.783; 1400.850;    0.000;    0.000
401.839; 1589.850;    0.000;    0.000
401.895; 1525.850;    0.000;    0.000
401.952; 1496.850;    0.000;    0.000
402.008; 1423.850;    0.000;    0.000
402.064; 1480.850;    0.000;    0.000
402.121; 1500.850;    0.000;    0.000
402.177; 1422.850;    0.000;    0.000
402.233; 1486.850;    0.000;    0.000
402.290; 1581.850;    0.000;    0.000
402.346; 1562.850;    0.000;    0.000
402.402; 1528.850;    0.000;    0.000
402.458; 1495.850;    0.000;    0.000
402.515; 1509.850;    0.000;    0.000
402.571; 1484.850;    0.000;    0.000
402.627; 1487.850;    0.000;    0.000
402.683; 1544.850;    0.000;    0.000
402.740; 1529.850;    0.000;    0.000
402.796; 1484.850;    0.000;    0.000
402.852; 1584.850;    0.000;    0.000
402.908; 1531.850;    0.000;    0.000
402.964; 1494.850;    0.000;    0.000
403.021; 1552.850;    0.000;    0.000
403.077; 1554.850;    0.000;    0.000
403.133; 1444.850;    0.000;    0.000
403.189; 1511.850;    0.000;    0.000
403.245; 1521.850;    0.000;    0.000
403.301; 1550.850;    0.000;    0.000
403.357; 1543.850;    0.000;    0.000
403.414; 1566.850;    0.000;    0.000
403.470; 1577.850;    0.000;    0.000
403.526; 1522.850;    0.000;    0.000
403.582; 1515.850;    0.000;    0.000
403.638; 1529.850;    0.000;    0.000
403.694; 1541.850;    0.000;    0.000
403.750; 1564.850;    0.000;    0.000
403.806; 1559.850;    0.000;    0.000
403.862; 1623.850;    0.000;    0.000
403.918; 1562.850;    0.000;    0.000
403.974; 1618.850;    0.000;    0.000
404.030; 1580.850;    0.000;    0.000
404.086; 1583.850;    0.000;    0.000
404.142; 1625.850;    0.000;    0.000
404.198; 1649.850;    0.000;    0.000
404.254; 1647.850;    0.000;    0.000
404.310; 1626.850;    0.000;    0.000
404.366; 1657.850;    0.000;    0.000
404.422; 1620.850;    0.000;    0.000
404.478; 1592.850;    0.000;    0.000
404.534; 1537.850;    0.000;    0.000
404.590; 1615.850;    0.000;    0.000
404.646; 1584.850;    0.000;    0.000
404.701; 1580.850;    0.000;    0.000
404.757; 1626.850;    0.000;    0.000
404.813; 1526.850;    0.000;    0.000
404.869; 1639.850;    0.000;    0.000
404.925; 1608.850;    0.000;    0.000
404.981; 1656.850;    0.000;    0.000
405.037; 1645.850;    0.000;    0.000
405.092; 1585.850;    0.000;    0.000
405.148; 1641.850;    0.000;    0.000
405.204; 1650.850;    0.000;    0.000
405.260; 1604.850;    0.000;    0.000
405.316; 1578.850;    0.000;    0.000
405.371; 1592.850;    0.000;    0.000
405.427; 1642.850;    0.000;    0.000
405.483; 1687.850;    0.000;    0.000
405.539; 1632.850;    0.000;    0.000
405.594; 1643.850;    0.000;    0.000
405.650; 1560.850;    0.000;    0.000
405.706; 1725.850;    0.000;    0.000
405.761; 1615.850;    0.000;    0.000
405.817; 1616.850;    0.000;    0.000
405.873; 1595.850;    0.000;    0.000
405.928; 1678.850;    0.000;    0.000
405.984; 1730.850;    0.000;    0.000
406.040; 1601.850;    0.000;    0.000
406.095; 1628.850;    0.000;    0.000
406.151; 1745.850;    0.000;    0.000
406.207; 1629.850;    0.000;    0.000
406.262; 1697.850;    0.000;    0.000
406.318; 1662.850;    0.000;    0.000
406.374; 1686.850;    0.000;    0.000
406.429; 1684.850;    0.000;    0.000
406.485; 1738.850;    0.000;    0.000
406.540; 1688.850;    0.000;    0.000
406.596; 1661.850;    0.000;    0.000
406.651; 1693.850;    0.000;    0.000
406.707; 1718.850;    0.000;    0.000
406.763; 1767.850;    0.000;    0.000
406.818; 1706.850;    0.000;    0.000
406.874; 1720.850;    0.000;    0.000
406.929; 1750.850;    0.000;    0.000
406.985; 1727.850;    0.000;    0.000
407.040; 1731.850;    0.000;    0.000
407.095; 1677.850;    0.000;    0.000
407.151; 1826.850;    0.000;    0.000
407.206; 1733.850;    0.000;    0.000
407.262; 1849.850;    0.000;    0.000
407.317; 1809.850;    0.000;    0.000
407.373; 1792.850;    0.000;    0.000
407.428; 1763.850;    0.000;    0.000
407.484; 1734.850;    0.000;    0.000
407.539; 1740.850;    0.000;    0.000
407.594; 1848.850;    0.000;    0.000
407.650; 1790.850;    0.000;    0.000
407.705; 1787.850;    0.000;    0.000
407.760; 1781.850;    0.000;    0.000
407.816; 1810.850;    0.000;    0.000
407.871; 1760.850;    0.000;    0.000
407.926; 1797.850;    0.000;    0.000
407.982; 1813.850;    0.000;    0.000
408.037; 1820.850;    0.000;    0.000
408.092; 1773.850;    0.000;    0.000
408.148; 1850.850;    0.000;    0.000
408.203; 1758.850;    0.000;    0.000
408.258; 1708.850;    0.000;    0.000
408.314; 1760.850;    0.000;    0.000
408.369; 1750.850;    0.000;    0.000
408.424; 1849.850;    0.000;    0.000
408.479; 1787.850;    0.000;    0.000
408.534; 1852.850;    0.000;    0.000
408.590; 1806.850;    0.000;    0.000
408.645; 1769.850;    0.000;    0.000
408.700; 1872.850;    0.000;    0.000
408.755; 1867.850;    0.000;    0.000
408.810; 1820.850;    0.000;    0.000
408.866; 1847.850;    0.000;    0.000
408.921; 1764.850;    0.000;    0.000
408.976; 1778.850;    0.000;    0.000
409.031; 1803.850;    0.000;    0.000
409.086; 1760.850;    0.000;    0.000
409.141; 1855.850;    0.000;    0.000
409.196; 1756.850;    0.000;    0.000
409.252; 1855.850;    0.000;    0.000
409.307; 1751.850;    0.000;    0.000
409.362; 1768.850;    0.000;    0.000
409.417; 1821.850;    0.000;    0.000
409.472; 1754.850;    0.000;    0.000
409.527; 1841.850;    0.000;    0.000
409.582; 1811.850;    0.000;    0.000
409.637; 1842.850;    0.000;    0.000
409.692; 1876.850;    0.000;    0.000
409.747; 1861.850;    0.000;    0.000
409.802; 1860.850;    0.000;    0.000
409.857; 1885.850;    0.000;    0.000
409.912; 1835.850;    0.000;    0.000
409.967; 1838.850;    0.000;    0.000
410.022; 1798.850;    0.000;    0.000
410.077; 1812.850;    0.000;    0.000
410.132; 1836.850;    0.000;    0.000
410.187; 1793.850;    0.000;    0.000
410.242; 1819.850;    0.000;    0.000
410.297; 1839.850;    0.000;    0.000
410.351; 1822.850;    0.000;    0.000
410.406; 1852.850;    0.000;    0.000
410.461; 1880.850;    0.000;    0.000
410.516; 1839.850;    0.000;    0.000
410.571; 1871.850;    0.000;    0.000
410.626; 1837.850;    0.000;    0.000
410.681; 1894.850;    0.000;    0.000
410.736; 1870.850;    0.000;    0.000
410.790; 1853.850;    0.000;    0.000
410.845; 1855.850;    0.000;    0.000
410.900; 1878.850;    0.000;    0.000
410.955; 1865.850;    0.000;    0.000
411.010; 1897.850;    0.000;    0.000
411.064; 1902.850;    0.000;    0.000
411.119; 1905.850;    0.000;    0.000
411.174; 1893.850;    0.000;    0.000
411.229; 1908.850;    0.000;    0.000
411.283; 1884.850;    0.000;    0.000
411.338; 1925.850;    0.000;    0.000
411.393; 1816.850;    0.000;    0.000
411.447; 1892.850;    0.000;    0.000
411.502; 1912.850;    0.000;    0.000
411.557; 1876.850;    0.000;    0.000
411.612; 1900.850;    0.000;    0.000
411.666; 1892.850;    0.000;    0.000
411.721; 1834.850;    0.000;    0.000
411.776; 1848.850;    0.000;    0.000
411.830; 1810.850;    0.000;    0.000
411.885; 1942.850;    0.000;    0.000
411.939; 1918.850;    0.000;    0.000
411.994; 1891.850;    0.000;    0.000
412.049; 1874.850;    0.000;    0.000
412.103; 1911.850;    0.000;    0.000
412.158; 1903.850;    0.000;    0.000
412.212; 1905.850;    0.000;    0.000
412.267; 1907.850;    0.000;    0.000
412.322; 1907.850;    0.000;    0.000
412.376; 1847.850;    0.000;    0.000
412.431; 1925.850;    0.000;    0.000
412.485; 1946.850;    0.000;    0.000
412.540; 1855.850;    0.000;    0.000
412.594; 1939.850;    0.000;    0.000
412.649; 1859.850;    0.000;    0.000
412.703; 1914.850;    0.000;    0.000
412.758; 1943.850;    0.000;    0.000
412.812; 1855.850;    0.000;    0.000
412.866; 1855.850;    0.000;    0.000
412.921; 1929.850;    0.000;    0.000
412.975; 1907.850;    0.000;    0.000
413.030; 1905.850;    0.000;    0.000
413.084; 1943.850;    0.000;    0.000
413.139; 1881.850;    0.000;    0.000
413.193; 1930.850;    0.000;    0.000
413.247; 1983.850;    0.000;    0.000
413.302; 1914.850;    0.000;    0.000
413.356; 1963.850;    0.000;    0.000
413.410; 1880.850;    0.000;    0.000
413.465; 1867.850;    0.000;    0.000
413.519; 1931.850;    0.000;    0.000
413.573; 1973.850;    0.000;    0.000
413.628; 1865.850;    0.000;    0.000
413.682; 1958.850;    0.000;    0.000
413.736; 1951.850;    0.000;    0.000
413.791; 1917.850;    0.000;    0.000
413.845; 1918.850;    0.000;    0.000
413.899; 1978.850;    0.000;    0.000
413.953; 1907.850;    0.000;    0.000
414.008; 1935.850;    0.000;    0.000
414.062; 1942.850;    0.000;    0.000
414.116; 1937.850;    0.000;    0.000
414.170; 1895.850;    0.000;    0.000
414.225; 1941.850;    0.000;    0.000
414.279; 1977.850;    0.000;    0.000
414.333; 1925.850;    0.000;    0.000
414.387; 1976.850;    0.000;    0.000
414.441; 1887.850;    0.000;    0.000
414.496; 1976.850;    0.000;    0.000
414.550; 2002.850;    0.000;    0.000
414.604; 1964.850;    0.000;    0.000
414.658; 1886.850;    0.000;    0.000
414.712; 1971.850;    0.000;    0.000
414.766; 1962.850;    0.000;    0.000
414.820; 1953.850;    0.000;    0.000
414.874; 2034.850;    0.000;    0.000
414.928; 1905.850;    0.000;    0.000
414.982; 1943.850;    0.000;    0.000
415.037; 1895.850;    0.000;    0.000
415.091; 1882.850;    0.000;    0.000
415.145; 1901.850;    0.000;    0.000
415.199; 1934.850;    0.000;    0.000
415.253; 2003.850;    0.000;    0.000
415.307; 1993.850;    0.000;    0.000
415.361; 1999.850;    0.000;    0.000
415.415; 1916.850;    0.000;    0.000
415.469; 1951.850;    0.000;    0.000
415.523; 1965.850;    0.000;    0.000
415.577; 1966.850;    0.000;    0.000
415.631; 1929.850;    0.000;    0.000
415.684; 1954.850;    0.000;    0.000
415.738; 1929.850;    0.000;    0.000
415.792; 2008.850;    0.000;    0.000
415.846; 1957.850;    0.000;    0.000
415.900; 1894.850;    0.000;    0.000
415.954; 1933.850;    0.000;    0.000
416.008; 1984.850;    0.000;    0.000
416.062; 1978.850;    0.000;    0.000
416.116; 2000.850;    0.000;    0.000
416.169; 1965.850;    0.000;    0.000
416.223; 2022.850;    0.000;    0.000
416.277; 2032.850;    0.000;    0.000
416.331; 1961.850;    0.000;    0.000
416.385; 2010.850;    0.000;    0.000
416.439; 2038.850;    0.000;    0.000
416.492; 2043.850;    0.000;    0.000
416.546; 1966.850;    0.000;    0.000
416.600; 1988.850;    0.000;    0.000
416.654; 1941.850;    0.000;    0.000
416.707; 1953.850;    0.000;    0.000
416.761; 1993.850;    0.000;    0.000
416.815; 1909.850;    0.000;    0.000
416.869; 1920.850;    0.000;    0.000
416.922; 2068.850;    0.000;    0.000
416.976; 1946.850;    0.000;    0.000
417.030; 2028.850;    0.000;    0.000
417.083; 1940.850;    0.000;    0.000
417.137; 1962.850;    0.000;    0.000
417.191; 1958.850;    0.000;    0.000
417.244; 2011.850;    0.000;    0.000
417.298; 1970.850;    0.000;    0.000
417.352; 1962.850;    0.000;    0.000
417.405; 1967.850;    0.000;    0.000
417.459; 2019.850;    0.000;    0.000
417.512; 2023.850;    0.000;    0.000
417.566; 1955.850;    0.000;    0.000
417.620; 1973.850;    0.000;    0.000
417.673; 1953.850;    0.000;    0.000
417.727; 1927.850;    0.000;    0.000
417.780; 1933.850;    0.000;    0.000
417.834; 1989.850;    0.000;    0.000
417.887; 1992.850;    0.000;    0.000
417.941; 1942.850;    0.000;    0.000
417.994; 2011.850;    0.000;    0.000
418.048; 1982.850;    0.000;    0.000
418.101; 1930.850;    0.000;    0.000
418.155; 2040.850;    0.000;    0.000
418.208; 1975.850;    0.000;    0.000
418.262; 1995.850;    0.000;    0.000
418.315; 1927.850;    0.000;    0.000
418.369; 1993.850;    0.000;    0.000
418.422; 1932.850;    0.000;    0.000
418.476; 1983.850;    0.000;    0.000
418.529; 2091.850;    0.000;    0.000
418.582; 2111.850;    0.000;    0.000
418.636; 1978.850;    0.000;    0.000
418.689; 1858.850;    0.000;    0.000
418.743; 2059.850;    0.000;    0.000
418.796; 1957.850;    0.000;    0.000
418.849; 2017.850;    0.000;    0.000
418.903; 2047.850;    0.000;    0.000
418.956; 2003.850;    0.000;    0.000
419.009; 1995.850;    0.000;    0.000
419.063; 2004.850;    0.000;    0.000
419.116; 1980.850;    0.000;    0.000
419.169; 2025.850;    0.000;    0.000
419.222; 2001.850;    0.000;    0.000
419.276; 1959.850;    0.000;    0.000
419.329; 2012.850;    0.000;    0.000
419.382; 1978.850;    0.000;    0.000
419.435; 2010.850;    0.000;    0.000
419.489; 1928.850;    0.000;    0.000
419.542; 1989.850;    0.000;    0.000
419.595; 1928.850;    0.000;    0.000
419.648; 1959.850;    0.000;    0.000
419.701; 1917.850;    0.000;    0.000
419.755; 1932.850;    0.000;    0.000
419.808; 1910.850;    0.000;    0.000
419.861; 1882.850;    0.000;    0.000
419.914; 2007.850;    0.000;    0.000
419.967; 1896.850;    0.000;    0.000
420.020; 1900.850;    0.000;    0.000
420.073; 1991.850;    0.000;    0.000
420.127; 2041.850;    0.000;    0.000
420.180; 1985.850;    0.000;    0.000
420.233; 1916.850;    0.000;    0.000
420.286; 1912.850;    0.000;    0.000
420.339; 2025.850;    0.000;    0.000
420.392; 1954.850;    0.000;    0.000
420.445; 1908.850;    0.000;    0.000
420.498; 1886.850;    0.000;    0.000
420.551; 1920.850;    0.000;    0.000
420.604; 1946.850;    0.000;    0.000
420.657; 1947.850;    0.000;    0.000
420.710; 1864.850;    0.000;    0.000
420.763; 1997.850;    0.000;    0.000
420.816; 1876.850;    0.000;    0.000
420.869; 1943.850;    0.000;    0.000
420.922; 1935.850;    0.000;    0.000
420.975; 1970.850;    0.000;    0.000
421.028; 2008.850;    0.000;    0.000
421.081; 1988.850;    0.000;    0.000
421.134; 1909.850;    0.000;    0.000
421.187; 1969.850;    0.000;    0.000
421.239; 1939.850;    0.000;    0.000
421.292; 1874.850;    0.000;    0.000
421.345; 1930.850;    0.000;    0.000
421.398; 1956.850;    0.000;    0.000
421.451; 1990.850;    0.000;    0.000
421.504; 1947.850;    0.000;    0.000
421.557; 1909.850;    0.000;    0.000
421.609; 1891.850;    0.000;    0.000
421.662; 2004.850;    0.000;    0.000
421.715; 1861.850;    0.000;    0.000
421.768; 1885.850;    0.000;    0.000
421.821; 1970.850;    0.000;    0.000
421.873; 1879.850;    0.000;    0.000
421.926; 1948.850;    0.000;    0.000
421.979; 1988.850;    0.000;    0.000
422.032; 1952.850;    0.000;    0.000
422.084; 1977.850;    0.000;    0.000
422.137; 1909.850;    0.000;    0.000
422.190; 1924.850;    0.000;    0.000
422.243; 1932.850;    0.000;    0.000
422.295; 1956.850;    0.000;    0.000
422.348; 1910.850;    0.000;    0.000
422.401; 1964.850;    0.000;    0.000
422.453; 1944.850;    0.000;    0.000
422.506; 1884.850;    0.000;    0.000
422.559; 1932.850;    0.000;    0.000
422.611; 1991.850;    0.000;    0.000
422.664; 1894.850;    0.000;    0.000
422.716; 1870.850;    0.000;    0.000
422.769; 1874.850;    0.000;    0.000
422.822; 2016.850;    0.000;    0.000
422.874; 1935.850;    0.000;    0.000
422.927; 1901.850;    0.000;    0.000
422.979; 1881.850;    0.000;    0.000
423.032; 1841.850;    0.000;    0.000
423.084; 1898.850;    0.000;    0.000
423.137; 1809.850;    0.000;    0.000
423.189; 1924.850;    0.000;    0.000
423.242; 1850.850;    0.000;    0.000
423.294; 1938.850;    0.000;    0.000
423.347; 1803.850;    0.000;    0.000
423.399; 1850.850;    0.000;    0.000
423.452; 1870.850;    0.000;    0.000
423.504; 1917.850;    0.000;    0.000
423.557; 1851.850;    0.000;    0.000
423.609; 1923.850;    0.000;    0.000
423.662; 1913.850;    0.000;    0.000
423.714; 1915.850;    0.000;    0.000
423.766; 1944.850;    0.000;    0.000
423.819; 1909.850;    0.000;    0.000
423.871; 1897.850;    0.000;    0.000
423.923; 1838.850;    0.000;    0.000
423.976; 1837.850;    0.000;    0.000
424.028; 1910.850;    0.000;    0.000
424.081; 1928.850;    0.000;    0.000
424.133; 1874.850;    0.000;    0.000
424.185; 1861.850;    0.000;    0.000
424.238; 1860.850;    0.000;    0.000
424.290; 1887.850;    0.000;    0.000
424.342; 1854.850;    0.000;    0.000
424.394; 1883.850;    0.000;    0.000
424.447; 1864.850;    0.000;    0.000
424.499; 1928.850;    0.000;    0.000
424.551; 1923.850;    0.000;    0.000
424.603; 1867.850;    0.000;    0.000
424.656; 1917.850;    0.000;    0.000
424.708; 1918.850;    0.000;    0.000
424.760; 1934.850;    0.000;    0.000
424.812; 1947.850;    0.000;    0.000
424.864; 1867.850;    0.000;    0.000
424.917; 1860.850;    0.000;    0.000
424.969; 1887.850;    0.000;    0.000
425.021; 1861.850;    0.000;    0.000
425.073; 1881.850;    0.000;    0.000
425.125; 1919.850;    0.000;    0.000
425.177; 1964.850;    0.000;    0.000
425.229; 1889.850;    0.000;    0.000
425.282; 1868.850;    0.000;    0.000
425.334; 1916.850;    0.000;    0.000
425.386; 1815.850;    0.000;    0.000
425.438; 1898.850;    0.000;    0.000
425.490; 1808.850;    0.000;    0.000
425.542; 1840.850;    0.000;    0.000
425.594; 1836.850;    0.000;    0.000
425.646; 1905.850;    0.000;    0.000
425.698; 1771.850;    0.000;    0.000
425.750; 1928.850;    0.000;    0.000
425.802; 1838.850;    0.000;    0.000
425.854; 1930.850;    0.000;    0.000
425.906; 1834.850;    0.000;    0.000
425.958; 1897.850;    0.000;    0.000
426.010; 1870.850;    0.000;    0.000
426.062; 1833.850;    0.000;    0.000
426.114; 1895.850;    0.000;    0.000
426.166; 1901.850;    0.000;    0.000
426.218; 1954.850;    0.000;    0.000
426.270; 1879.850;    0.000;    0.000
426.321; 1842.850;    0.000;    0.000
426.373; 1851.850;    0.000;    0.000
426.425; 1896.850;    0.000;    0.000
426.477; 1823.850;    0.000;    0.000
426.529; 1877.850;    0.000;    0.000
426.581; 1897.850;    0.000;    0.000
426.633; 1835.850;    0.000;    0.000
426.684; 1920.850;    0.000;    0.000
426.736; 1873.850;    0.000;    0.000
426.788; 1806.850;    0.000;    0.000
426.840; 1804.850;    0.000;    0.000
426.892; 1871.850;    0.000;    0.000
426.943; 1880.850;    0.000;    0.000
426.995; 1830.850;    0.000;    0.000
427.047; 1769.850;    0.000;    0.000
427.099; 1832.850;    0.000;    0.000
427.150; 1811.850;    0.000;    0.000
427.202; 1828.850;    0.000;    0.000
427.254; 1849.850;    0.000;    0.000
427.306; 1880.850;    0.000;    0.000
427.357; 1920.850;    0.000;    0.000
427.409; 1911.850;    0.000;    0.000
427.461; 1876.850;    0.000;    0.000
427.512; 1802.850;    0.000;    0.000
427.564; 1784.850;    0.000;    0.000
427.616; 1830.850;    0.000;    0.000
427.667; 1817.850;    0.000;    0.000
427.719; 1870.850;    0.000;    0.000
427.770; 1775.850;    0.000;    0.000
427.822; 1814.850;    0.000;    0.000
427.874; 1843.850;    0.000;    0.000
427.925; 1762.850;    0.000;    0.000
427.977; 1803.850;    0.000;    0.000
428.028; 1849.850;    0.000;    0.000
428.080; 1849.850;    0.000;    0.000
428.131; 1765.850;    0.000;    0.000
428.183; 1865.850;    0.000;    0.000
428.234; 1791.850;    0.000;    0.000
428.286; 1886.850;    0.000;    0.000
428.337; 1746.850;    0.000;    0.000
428.389; 1770.850;    0.000;    0.000
428.440; 1788.850;    0.000;    0.000
428.492; 1819.850;    0.000;    0.000
428.543; 1769.850;    0.000;    0.000
428.595; 1775.850;    0.000;    0.000
428.646; 1833.850;    0.000;    0.000
428.697; 1768.850;    0.000;    0.000
428.749; 1845.850;    0.000;    0.000
428.800; 1844.850;    0.000;    0.000
428.852; 1849.850;    0.000;    0.000
428.903; 1858.850;    0.000;    0.000
428.954; 1764.850;    0.000;    0.000
429.006; 1750.850;    0.000;    0.000
429.057; 1826.850;    0.000;    0.000
429.108; 1730.850;    0.000;    0.000
429.160; 1741.850;    0.000;    0.000
429.211; 1744.850;    0.000;    0.000
429.262; 1741.850;    0.000;    0.000
429.314; 1747.850;    0.000;    0.000
429.365; 1753.850;    0.000;    0.000
429.416; 1804.850;    0.000;    0.000
429.467; 1792.850;    0.000;    0.000
429.519; 1714.850;    0.000;    0.000
429.570; 1709.850;    0.000;    0.000
429.621; 1742.850;    0.000;    0.000
429.672; 1776.850;    0.000;    0.000
429.724; 1688.850;    0.000;    0.000
429.775; 1797.850;    0.000;    0.000
429.826; 1782.850;    0.000;    0.000
429.877; 1865.850;    0.000;    0.000
429.928; 1742.850;    0.000;    0.000
429.980; 1742.850;    0.000;    0.000
430.031; 1808.850;    0.000;    0.000
430.082; 1755.850;    0.000;    0.000
430.133; 1776.850;    0.000;    0.000
430.184; 1799.850;    0.000;    0.000
430.235; 1749.850;    0.000;    0.000
430.286; 1728.850;    0.000;    0.000
430.337; 1785.850;    0.000;    0.000
430.388; 1760.850;    0.000;    0.000
430.439; 1793.850;    0.000;    0.000
430.490; 1746.850;    0.000;    0.000
430.542; 1758.850;    0.000;    0.000
430.593; 1752.850;    0.000;    0.000
430.644; 1780.850;    0.000;    0.000
430.695; 1778.850;    0.000;    0.000
430.746; 1797.850;    0.000;    0.000
430.797; 1733.850;    0.000;    0.000
430.848; 1714.850;    0.000;    0.000
430.898; 1732.850;    0.000;    0.000
430.949; 1709.850;    0.000;    0.000
431.000; 1802.850;    0.000;    0.000
431.051; 1816.850;    0.000;    0.000
431.102; 1795.850;    0.000;    0.000
431.153; 1822.850;    0.000;    0.000
431.204; 1770.850;    0.000;    0.000
431.255; 1689.850;    0.000;    0.000
431.306; 1792.850;    0.000;    0.000
431.357; 1781.850;    0.000;    0.000
431.408; 1747.850;    0.000;    0.000
431.458; 1813.850;    0.000;    0.000
431.509; 1782.850;    0.000;    0.000
431.560; 1722.850;    0.000;    0.000
431.611; 1764.850;    0.000;    0.000
431.662; 1845.850;    0.000;    0.000
431.713; 1694.850;    0.000;    0.000
431.763; 1777.850;    0.000;    0.000
431.814; 1779.850;    0.000;    0.000
431.865; 1746.850;    0.000;    0.000
431.916; 1710.850;    0.000;    0.000
431.966; 1803.850;    0.000;    0.000
432.017; 1782.850;    0.000;    0.000
432.068; 1839.850;    0.000;    0.000
432.118; 1783.850;    0.000;    0.000
432.169; 1703.850;    0.000;    0.000
432.220; 1797.850;    0.000;    0.000
432.271; 1763.850;    0.000;    0.000
432.321; 1861.850;    0.000;    0.000
432.372; 1785.850;    0.000;    0.000
432.423; 1773.850;    0.000;    0.000
432.473; 1760.850;    0.000;    0.000
432.524; 1745.850;    0.000;    0.000
432.574; 1738.850;    0.000;    0.000
432.625; 1824.850;    0.000;    0.000
432.676; 1750.850;    0.000;    0.000
432.726; 1790.850;    0.000;    0.000
432.777; 1740.850;    0.000;    0.000
432.827; 1835.850;    0.000;    0.000
432.878; 1722.850;    0.000;    0.000
432.928; 1757.850;    0.000;    0.000
432.979; 1751.850;    0.000;    0.000
433.029; 1792.850;    0.000;    0.000
433.080; 1803.850;    0.000;    0.000
433.130; 1755.850;    0.000;    0.000
433.181; 1726.850;    0.000;    0.000
433.231; 1747.850;    0.000;    0.000
433.282; 1742.850;    0.000;    0.000
433.332; 1817.850;    0.000;    0.000
433.383; 1795.850;    0.000;    0.000
433.433; 1813.850;    0.000;    0.000
433.484; 1771.850;    0.000;    0.000
433.534; 1681.850;    0.000;    0.000
433.585; 1770.850;    0.000;    0.000
433.635; 1747.850;    0.000;    0.000
433.685; 1756.850;    0.000;    0.000
433.736; 1827.850;    0.000;    0.000
433.786; 1844.850;    0.000;    0.000
433.836; 1823.850;    0.000;    0.000
433.887; 1787.850;    0.000;    0.000
433.937; 1850.850;    0.000;    0.000
433.987; 1771.850;    0.000;    0.000
434.038; 1718.850;    0.000;    0.000
434.088; 1831.850;    0.000;    0.000
434.138; 1741.850;    0.000;    0.000
434.189; 1865.850;    0.000;    0.000
434.239; 1747.850;    0.000;    0.000
434.289; 1777.850;    0.000;    0.000
434.339; 1811.850;    0.000;    0.000
434.389; 1858.850;    0.000;    0.000
434.440; 1824.850;    0.000;    0.000
434.490; 1855.850;    0.000;    0.000
434.540; 1800.850;    0.000;    0.000
434.590; 1757.850;    0.000;    0.000
434.640; 1801.850;    0.000;    0.000
434.691; 1836.850;    0.000;    0.000
434.741; 1895.850;    0.000;    0.000
434.791; 1818.850;    0.000;    0.000
434.841; 1806.850;    0.000;    0.000
434.891; 1884.850;    0.000;    0.000
434.941; 1928.850;    0.000;    0.000
434.991; 1903.850;    0.000;    0.000
435.042; 1861.850;    0.000;    0.000
435.092; 1831.850;    0.000;    0.000
435.142; 1766.850;    0.000;    0.000
435.192; 1782.850;    0.000;    0.000
435.242; 1793.850;    0.000;    0.000
435.292; 1820.850;    0.000;    0.000
435.342; 1783.850;    0.000;    0.000
435.392; 1811.850;    0.000;    0.000
435.442; 1753.850;    0.000;    0.000
435.492; 1746.850;    0.000;    0.000
435.542; 1754.850;    0.000;    0.000
435.592; 1691.850;    0.000;    0.000
435.642; 1797.850;    0.000;    0.000
435.692; 1718.850;    0.000;    0.000
435.742; 1801.850;    0.000;    0.000
435.792; 1779.850;    0.000;    0.000
435.842; 1725.850;    0.000;    0.000
435.891; 1808.850;    0.000;    0.000
435.941; 1717.850;    0.000;    0.000
435.991; 1844.850;    0.000;    0.000
436.041; 1801.850;    0.000;    0.000
436.091; 1774.850;    0.000;    0.000
436.141; 1714.850;    0.000;    0.000
436.191; 1752.850;    0.000;    0.000
436.241; 1738.850;    0.000;    0.000
436.290; 1848.850;    0.000;    0.000
436.340; 1717.850;    0.000;    0.000
436.390; 1709.850;    0.000;    0.000
436.440; 1734.850;    0.000;    0.000
436.490; 1761.850;    0.000;    0.000
436.539; 1786.850;    0.000;    0.000
436.589; 1822.850;    0.000;    0.000
436.639; 1734.850;    0.000;    0.000
436.689; 1685.850;    0.000;    0.000
436.738; 1752.850;    0.000;    0.000
436.788; 1775.850;    0.000;    0.000
436.838; 1805.850;    0.000;    0.000
436.887; 1829.850;    0.000;    0.000
436.937; 1740.850;    0.000;    0.000
436.987; 1782.850;    0.000;    0.000
437.036; 1817.850;    0.000;    0.000
437.086; 1794.850;    0.000;    0.000
437.136; 1818.850;    0.000;    0.000
437.185; 1784.850;    0.000;    0.000
437.235; 1913.850;    0.000;    0.000
437.285; 1750.850;    0.000;    0.000
437.334; 1795.850;    0.000;    0.000
437.384; 1733.850;    0.000;    0.000
437.433; 1774.850;    0.000;    0.000
437.483; 1720.850;    0.000;    0.000
437.532; 1785.850;    0.000;    0.000
437.582; 1867.850;    0.000;    0.000
437.631; 1708.850;    0.000;    0.000
437.681; 1799.850;    0.000;    0.000
437.730; 1784.850;    0.000;    0.000
437.780; 1804.850;    0.000;    0.000
437.829; 1745.850;    0.000;    0.000
437.879; 1802.850;    0.000;    0.000
437.928; 1815.850;    0.000;    0.000
437.978; 1838.850;    0.000;    0.000
438.027; 1840.850;    0.000;    0.000
438.077; 1768.850;    0.000;    0.000
438.126; 1755.850;    0.000;    0.000
438.176; 1857.850;    0.000;    0.000
438.225; 1731.850;    0.000;    0.000
438.274; 1862.850;    0.000;    0.000
438.324; 1676.850;    0.000;    0.000
438.373; 1803.850;    0.000;    0.000
438.422; 1792.850;    0.000;    0.000
438.472; 1807.850;    0.000;    0.000
438.521; 1747.850;    0.000;    0.000
438.570; 1768.850;    0.000;    0.000
438.620; 1831.850;    0.000;    0.000
438.669; 1782.850;    0.000;    0.000
438.718; 1779.850;    0.000;    0.000
438.768; 1785.850;    0.000;    0.000
438.817; 1764.850;    0.000;    0.000
438.866; 1787.850;    0.000;    0.000
438.915; 1769.850;    0.000;    0.000
438.965; 1809.850;    0.000;    0.000
439.014; 1792.850;    0.000;    0.000
439.063; 1864.850;    0.000;    0.000
439.112; 1665.850;    0.000;    0.000
439.162; 1792.850;    0.000;    0.000
439.211; 1874.850;    0.000;    0.000
439.260; 1834.850;    0.000;    0.000
439.309; 1776.850;    0.000;    0.000
439.358; 1818.850;    0.000;    0.000
439.407; 1882.850;    0.000;    0.000
439.456; 1847.850;    0.000;    0.000
439.506; 1805.850;    0.000;    0.000
439.555; 1696.850;    0.000;    0.000
439.604; 1779.850;    0.000;    0.000
439.653; 1843.850;    0.000;    0.000
439.702; 1787.850;    0.000;    0.000
439.751; 1782.850;    0.000;    0.000
439.800; 1836.850;    0.000;    0.000
439.849; 1797.850;    0.000;    0.000
439.898; 1733.850;    0.000;    0.000
439.947; 1783.850;    0.000;    0.000
439.996; 1851.850;    0.000;    0.000
440.045; 1778.850;    0.000;    0.000
440.094; 1808.850;    0.000;    0.000
440.143; 1822.850;    0.000;    0.000
440.192; 1891.850;    0.000;    0.000
440.241; 1783.850;    0.000;    0.000
440.290; 1893.850;    0.000;    0.000
440.339; 1752.850;    0.000;    0.000
440.388; 1779.850;    0.000;    0.000
440.437; 1791.850;    0.000;    0.000
440.486; 1787.850;    0.000;    0.000
440.535; 1824.850;    0.000;    0.000
440.583; 1824.850;    0.000;    0.000
440.632; 1861.850;    0.000;    0.000
440.681; 1779.850;    0.000;    0.000
440.730; 1833.850;    0.000;    0.000
440.779; 1808.850;    0.000;    0.000
440.828; 1818.850;    0.000;    0.000
440.876; 1776.850;    0.000;    0.000
440.925; 1913.850;    0.000;    0.000
440.974; 1764.850;    0.000;    0.000
441.023; 1852.850;    0.000;    0.000
441.072; 1901.850;    0.000;    0.000
441.120; 1988.850;    0.000;    0.000
441.169; 1880.850;    0.000;    0.000
441.218; 1890.850;    0.000;    0.000
441.267; 1882.850;    0.000;    0.000
441.315; 1836.850;    0.000;    0.000
441.364; 1884.850;    0.000;    0.000
441.413; 1788.850;    0.000;    0.000
441.461; 1823.850;    0.000;    0.000
441.510; 1913.850;    0.000;    0.000
441.559; 1820.850;    0.000;    0.000
441.607; 1872.850;    0.000;    0.000
441.656; 1896.850;    0.000;    0.000
441.705; 1929.850;    0.000;    0.000
441.753; 1920.850;    0.000;    0.000
441.802; 1882.850;    0.000;    0.000
441.850; 1894.850;    0.000;    0.000
441.899; 1814.850;    0.000;    0.000
441.948; 1882.850;    0.000;    0.000
441.996; 1906.850;    0.000;    0.000
442.045; 1853.850;    0.000;    0.000
442.093; 1795.850;    0.000;    0.000
442.142; 1907.850;    0.000;    0.000
442.190; 1923.850;    0.000;    0.000
442.239; 1943.850;    0.000;    0.000
442.287; 1860.850;    0.000;    0.000
442.336; 1869.850;    0.000;    0.000
442.384; 1807.850;    0.000;    0.000
442.433; 1941.850;    0.000;    0.000
442.481; 1961.850;    0.000;    0.000
442.529; 1808.850;    0.000;    0.000
442.578; 1854.850;    0.000;    0.000
442.626; 1799.850;    0.000;    0.000
442.675; 1936.850;    0.000;    0.000
442.723; 1886.850;    0.000;    0.000
442.771; 1758.850;    0.000;    0.000
442.820; 1831.850;    0.000;    0.000
442.868; 1825.850;    0.000;    0.000
442.917; 1872.850;    0.000;    0.000
442.965; 1861.850;    0.000;    0.000
443.013; 1879.850;    0.000;    0.000
443.062; 1875.850;    0.000;    0.000
443.110; 1828.850;    0.000;    0.000
443.158; 1926.850;    0.000;    0.000
443.206; 1826.850;    0.000;    0.000
443.255; 1933.850;    0.000;    0.000
443.303; 1907.850;    0.000;    0.000
443.351; 1948.850;    0.000;    0.000
443.399; 1857.850;    0.000;    0.000
443.448; 1911.850;    0.000;    0.000
443.496; 1882.850;    0.000;    0.000
443.544; 1867.850;    0.000;    0.000
443.592; 1984.850;    0.000;    0.000
443.640; 1916.850;    0.000;    0.000
443.689; 1901.850;    0.000;    0.000
443.737; 1959.850;    0.000;    0.000
443.785; 2007.850;    0.000;    0.000
443.833; 1962.850;    0.000;    0.000
443.881; 1892.850;    0.000;    0.000
443.929; 1888.850;    0.000;    0.000
443.977; 1945.850;    0.000;    0.000
444.025; 1945.850;    0.000;    0.000
444.074; 1941.850;    0.000;    0.000
444.122; 1956.850;    0.000;    0.000
444.170; 2002.850;    0.000;    0.000
444.218; 1962.850;    0.000;    0.000
444.266; 1910.850;    0.000;    0.000
444.314; 1926.850;    0.000;    0.000
444.362; 1970.850;    0.000;    0.000
444.410; 1933.850;    0.000;    0.000
444.458; 2011.850;    0.000;    0.000
444.506; 2015.850;    0.000;    0.000
444.554; 2009.850;    0.000;    0.000
444.602; 1981.850;    0.000;    0.000
444.650; 2000.850;    0.000;    0.000
444.698; 1893.850;    0.000;    0.000
444.746; 1933.850;    0.000;    0.000
444.793; 1920.850;    0.000;    0.000
444.841; 1992.850;    0.000;    0.000
444.889; 1952.850;    0.000;    0.000
444.937; 1944.850;    0.000;    0.000
444.985; 2040.850;    0.000;    0.000
445.033; 1996.850;    0.000;    0.000
445.081; 1978.850;    0.000;    0.000
445.129; 1838.850;    0.000;    0.000
445.176; 1882.850;    0.000;    0.000
445.224; 1972.850;    0.000;    0.000
445.272; 2036.850;    0.000;    0.000
445.320; 1961.850;    0.000;    0.000
445.368; 1975.850;    0.000;    0.000
445.415; 1963.850;    0.000;    0.000
445.463; 1972.850;    0.000;    0.000
445.511; 1942.850;    0.000;    0.000
445.559; 2034.850;    0.000;    0.000
445.606; 1987.850;    0.000;    0.000
445.654; 1961.850;    0.000;    0.000
445.702; 2048.850;    0.000;    0.000
445.749; 2015.850;    0.000;    0.000
445.797; 1911.850;    0.000;    0.000
445.845; 1983.850;    0.000;    0.000
445.892; 2066.850;    0.000;    0.000
445.940; 2002.850;    0.000;    0.000
445.988; 2071.850;    0.000;    0.000
446.035; 2055.850;    0.000;    0.000
446.083; 2079.850;    0.000;    0.000
446.130; 1893.850;    0.000;    0.000
446.178; 2053.850;    0.000;    0.000
446.226; 2005.850;    0.000;    0.000
446.273; 2037.850;    0.000;    0.000
446.321; 1993.850;    0.000;    0.000
446.368; 2000.850;    0.000;    0.000
446.416; 2036.850;    0.000;    0.000
446.463; 2044.850;    0.000;    0.000
446.511; 1978.850;    0.000;    0.000
446.558; 2026.850;    0.000;    0.000
446.606; 2078.850;    0.000;    0.000
446.653; 2028.850;    0.000;    0.000
446.701; 2128.850;    0.000;    0.000
446.748; 2049.850;    0.000;    0.000
446.796; 2119.850;    0.000;    0.000
446.843; 2153.850;    0.000;    0.000
446.891; 2124.850;    0.000;    0.000
446.938; 2186.850;    0.000;    0.000
446.985; 2158.850;    0.000;    0.000
447.033; 2171.850;    0.000;    0.000
447.080; 2142.850;    0.000;    0.000
447.128; 2186.850;    0.000;    0.000
447.175; 2261.850;    0.000;    0.000
447.222; 2141.850;    0.000;    0.000
447.270; 2221.850;    0.000;    0.000
447.317; 2223.850;    0.000;    0.000
447.364; 2243.850;    0.000;    0.000
447.411; 2250.850;    0.000;    0.000
447.459; 2302.850;    0.000;    0.000
447.506; 2178.850;    0.000;    0.000
447.553; 2245.850;    0.000;    0.000
447.601; 2301.850;    0.000;    0.000
447.648; 2249.850;    0.000;    0.000
447.695; 2317.850;    0.000;    0.000
447.742; 2369.850;    0.000;    0.000
447.789; 2420.850;    0.000;    0.000
447.837; 2460.850;    0.000;    0.000
447.884; 2410.850;    0.000;    0.000
447.931; 2462.850;    0.000;    0.000
447.978; 2562.850;    0.000;    0.000
448.025; 2444.850;    0.000;    0.000
448.072; 2448.850;    0.000;    0.000
448.120; 2379.850;    0.000;    0.000
448.167; 2435.850;    0.000;    0.000
448.214; 2409.850;    0.000;    0.000
448.261; 2420.850;    0.000;    0.000
448.308; 2384.850;    0.000;    0.000
448.355; 2381.850;    0.000;    0.000
448.402; 2357.850;    0.000;    0.000
448.449; 2268.850;    0.000;    0.000
448.496; 2286.850;    0.000;    0.000
448.543; 2314.850;    0.000;    0.000
448.590; 2240.850;    0.000;    0.000
448.637; 2264.850;    0.000;    0.000
448.684; 2236.850;    0.000;    0.000
448.731; 2151.850;    0.000;    0.000
448.778; 2167.850;    0.000;    0.000
448.825; 2226.850;    0.000;    0.000
448.872; 2162.850;    0.000;    0.000
448.919; 2252.850;    0.000;    0.000
448.966; 2181.850;    0.000;    0.000
449.013; 2181.850;    0.000;    0.000
449.060; 2093.850;    0.000;    0.000
449.107; 2101.850;    0.000;    0.000
449.154; 2090.850;    0.000;    0.000
449.200; 2112.850;    0.000;    0.000
449.247; 2194.850;    0.000;    0.000
449.294; 2060.850;    0.000;    0.000
449.341; 2064.850;    0.000;    0.000
449.388; 2175.850;    0.000;    0.000
449.435; 2014.850;    0.000;    0.000
449.481; 2111.850;    0.000;    0.000
449.528; 2160.850;    0.000;    0.000
449.575; 2016.850;    0.000;    0.000
449.622; 2039.850;    0.000;    0.000
449.668; 2089.850;    0.000;    0.000
449.715; 2173.850;    0.000;    0.000
449.762; 2052.850;    0.000;    0.000
449.809; 2052.850;    0.000;    0.000
449.855; 2041.850;    0.000;    0.000
449.902; 2030.850;    0.000;    0.000
449.949; 2136.850;    0.000;    0.000
449.995; 2092.850;    0.000;    0.000
450.042; 2052.850;    0.000;    0.000
450.089; 2118.850;    0.000;    0.000
450.135; 2059.850;    0.000;    0.000
450.182; 2056.850;    0.000;    0.000
450.229; 1994.850;    0.000;    0.000
450.275; 2064.850;    0.000;    0.000
450.322; 2005.850;    0.000;    0.000
450.368; 2019.850;    0.000;    0.000
450.415; 2078.850;    0.000;    0.000
450.462; 2025.850;    0.000;    0.000
450.508; 2116.850;    0.000;    0.000
450.555; 2092.850;    0.000;    0.000
450.601; 1997.850;    0.000;    0.000
450.648; 1951.850;    0.000;    0.000
450.694; 2002.850;    0.000;    0.000
450.741; 2042.850;    0.000;    0.000
450.787; 2064.850;    0.000;    0.000
450.834; 1950.850;    0.000;    0.000
450.880; 1979.850;    0.000;    0.000
450.927; 2001.850;    0.000;    0.000
450.973; 1995.850;    0.000;    0.000
451.019; 1962.850;    0.000;    0.000
451.066; 2001.850;    0.000;    0.000
451.112; 1969.850;    0.000;    0.000
451.159; 1940.850;    0.000;    0.000
451.205; 2007.850;    0.000;    0.000
451.251; 1995.850;    0.000;    0.000
451.298; 1940.850;    0.000;    0.000
451.344; 1890.850;    0.000;    0.000
451.390; 1942.850;    0.000;    0.000
451.437; 1941.850;    0.000;    0.000
451.483; 2015.850;    0.000;    0.000
451.529; 1992.850;    0.000;    0.000
451.576; 1969.850;    0.000;    0.000
451.622; 2031.850;    0.000;    0.000
451.668; 1932.850;    0.000;    0.000
451.714; 1985.850;    0.000;    0.000
451.761; 1956.850;    0.000;    0.000
451.807; 1952.850;    0.000;    0.000
451.853; 1943.850;    0.000;    0.000
451.899; 1918.850;    0.000;    0.000
451.945; 1986.850;    0.000;    0.000
451.992; 1986.850;    0.000;    0.000
452.038; 2002.850;    0.000;    0.000
452.084; 1983.850;    0.000;    0.000
452.130; 1933.850;    0.000;    0.000
452.176; 1821.850;    0.000;    0.000
452.222; 1909.850;    0.000;    0.000
452.268; 1849.850;    0.000;    0.000
452.315; 1899.850;    0.000;    0.000
452.361; 1926.850;    0.000;    0.000
452.407; 1894.850;    0.000;    0.000
452.453; 1914.850;    0.000;    0.000
452.499; 1894.850;    0.000;    0.000
452.545; 1921.850;    0.000;    0.000
452.591; 1911.850;    0.000;    0.000
452.637; 1971.850;    0.000;    0.000
452.683; 1943.850;    0.000;    0.000
452.729; 1903.850;    0.000;    0.000
452.775; 2004.850;    0.000;    0.000
452.821; 1959.850;    0.000;    0.000
452.867; 1949.850;    0.000;    0.000
452.913; 1937.850;    0.000;    0.000
452.959; 1953.850;    0.000;    0.000
453.005; 1906.850;    0.000;    0.000
453.051; 1939.850;    0.000;    0.000
453.097; 1862.850;    0.000;    0.000
453.142; 1864.850;    0.000;    0.000
453.188; 1880.850;    0.000;    0.000
453.234; 1905.850;    0.000;    0.000
453.280; 1903.850;    0.000;    0.000
453.326; 1881.850;    0.000;    0.000
453.372; 1884.850;    0.000;    0.000
453.418; 1928.850;    0.000;    0.000
453.463; 1898.850;    0.000;    0.000
453.509; 1983.850;    0.000;    0.000
453.555; 1936.850;    0.000;    0.000
453.601; 1986.850;    0.000;    0.000
453.647; 1946.850;    0.000;    0.000
453.692; 1873.850;    0.000;    0.000
453.738; 1843.850;    0.000;    0.000
453.784; 1824.850;    0.000;    0.000
453.829; 1915.850;    0.000;    0.000
453.875; 1877.850;    0.000;    0.000
453.921; 1906.850;    0.000;    0.000
453.967; 1905.850;    0.000;    0.000
454.012; 1972.850;    0.000;    0.000
454.058; 1949.850;    0.000;    0.000
454.104; 1908.850;    0.000;    0.000
454.149; 1913.850;    0.000;    0.000
454.195; 1820.850;    0.000;    0.000
454.240; 1868.850;    0.000;    0.000
454.286; 1928.850;    0.000;    0.000
454.332; 1950.850;    0.000;    0.000
454.377; 1926.850;    0.000;    0.000
454.423; 1884.850;    0.000;    0.000
454.468; 1940.850;    0.000;    0.000
454.514; 1896.850;    0.000;    0.000
454.559; 1943.850;    0.000;    0.000
454.605; 1907.850;    0.000;    0.000
454.650; 1838.850;    0.000;    0.000
454.696; 1934.850;    0.000;    0.000
454.741; 1906.850;    0.000;    0.000
454.787; 1805.850;    0.000;    0.000
454.832; 1885.850;    0.000;    0.000
454.878; 1953.850;    0.000;    0.000
454.923; 1877.850;    0.000;    0.000
454.969; 1909.850;    0.000;    0.000
455.014; 1894.850;    0.000;    0.000
455.060; 1888.850;    0.000;    0.000
455.105; 1878.850;    0.000;    0.000
455.150; 1926.850;    0.000;    0.000
455.196; 1866.850;    0.000;    0.000
455.241; 1923.850;    0.000;    0.000
455.286; 1886.850;    0.000;    0.000
455.332; 1949.850;    0.000;    0.000
455.377; 1813.850;    0.000;    0.000
455.422; 1907.850;    0.000;    0.000
455.468; 1837.850;    0.000;    0.000
455.513; 1929.850;    0.000;    0.000
455.558; 1852.850;    0.000;    0.000
455.604; 1856.850;    0.000;    0.000
455.649; 1901.850;    0.000;    0.000
455.694; 1882.850;    0.000;    0.000
455.739; 1966.850;    0.000;    0.000
455.785; 1972.850;    0.000;    0.000
455.830; 1968.850;    0.000;    0.000
455.875; 1924.850;    0.000;    0.000
455.920; 1915.850;    0.000;    0.000
455.965; 1895.850;    0.000;    0.000
456.010; 1952.850;    0.000;    0.000
456.056; 1858.850;    0.000;    0.000
456.101; 1844.850;    0.000;    0.000
456.146; 1879.850;    0.000;    0.000
456.191; 1957.850;    0.000;    0.000
456.236; 1894.850;    0.000;    0.000
456.281; 1915.850;    0.000;    0.000
456.326; 1940.850;    0.000;    0.000
456.371; 1941.850;    0.000;    0.000
456.416; 1850.850;    0.000;    0.000
456.461; 1963.850;    0.000;    0.000
456.507; 1899.850;    0.000;    0.000
456.552; 1896.850;    0.000;    0.000
456.597; 1878.850;    0.000;    0.000
456.642; 1959.850;    0.000;    0.000
456.687; 1921.850;    0.000;    0.000
456.732; 1965.850;    0.000;    0.000
456.776; 1926.850;    0.000;    0.000
456.821; 1973.850;    0.000;    0.000
456.866; 1945.850;    0.000;    0.000
456.911; 1856.850;    0.000;    0.000
456.956; 1840.850;    0.000;    0.000
457.001; 1863.850;    0.000;    0.000
457.046; 1926.850;    0.000;    0.000
457.091; 1928.850;    0.000;    0.000
457.136; 1900.850;    0.000;    0.000
457.181; 1872.850;    0.000;    0.000
457.225; 1945.850;    0.000;    0.000
457.270; 1963.850;    0.000;    0.000
457.315; 1898.850;    0.000;    0.000
457.360; 1964.850;    0.000;    0.000
457.405; 1930.850;    0.000;    0.000
457.450; 1984.850;    0.000;    0.000
457.494; 1905.850;    0.000;    0.000
457.539; 1865.850;    0.000;    0.000
457.584; 1938.850;    0.000;    0.000
457.629; 1863.850;    0.000;    0.000
457.673; 1946.850;    0.000;    0.000
457.718; 2084.850;    0.000;    0.000
457.763; 2022.850;    0.000;    0.000
457.807; 2019.850;    0.000;    0.000
457.852; 2055.850;    0.000;    0.000
457.897; 2029.850;    0.000;    0.000
457.941; 1922.850;    0.000;    0.000
457.986; 1985.850;    0.000;    0.000
458.031; 1953.850;    0.000;    0.000
458.075; 1991.850;    0.000;    0.000
458.120; 1948.850;    0.000;    0.000
458.165; 1933.850;    0.000;    0.000
458.209; 1894.850;    0.000;    0.000
458.254; 1916.850;    0.000;    0.000
458.298; 1905.850;    0.000;    0.000
458.343; 1966.850;    0.000;    0.000
458.387; 1998.850;    0.000;    0.000
458.432; 1977.850;    0.000;    0.000
458.476; 2006.850;    0.000;    0.000
458.521; 1872.850;    0.000;    0.000
458.565; 2045.850;    0.000;    0.000
458.610; 1977.850;    0.000;    0.000
458.654; 1940.850;    0.000;    0.000
458.699; 2029.850;    0.000;    0.000
458.743; 1946.850;    0.000;    0.000
458.788; 1950.850;    0.000;    0.000
458.832; 2036.850;    0.000;    0.000
458.877; 1912.850;    0.000;    0.000
458.921; 1962.850;    0.000;    0.000
458.965; 1985.850;    0.000;    0.000
459.010; 1967.850;    0.000;    0.000
459.054; 1950.850;    0.000;    0.000
459.099; 2066.850;    0.000;    0.000
459.143; 1987.850;    0.000;    0.000
459.187; 1946.850;    0.000;    0.000
459.231; 2043.850;    0.000;    0.000
459.276; 2039.850;    0.000;    0.000
459.320; 1927.850;    0.000;    0.000
459.364; 1985.850;    0.000;    0.000
459.409; 1991.850;    0.000;    0.000
459.453; 1987.850;    0.000;    0.000
459.497; 2069.850;    0.000;    0.000
459.541; 2035.850;    0.000;    0.000
459.586; 1892.850;    0.000;    0.000
459.630; 2043.850;    0.000;    0.000
459.674; 1935.850;    0.000;    0.000
459.718; 2020.850;    0.000;    0.000
459.762; 2045.850;    0.000;    0.000
459.807; 2058.850;    0.000;    0.000
459.851; 2069.850;    0.000;    0.000
459.895; 1951.850;    0.000;    0.000
459.939; 2090.850;    0.000;    0.000
459.983; 1996.850;    0.000;    0.000
460.027; 1975.850;    0.000;    0.000
460.071; 2104.850;    0.000;    0.000
460.115; 2007.850;    0.000;    0.000
460.159; 1955.850;    0.000;    0.000
460.204; 2026.850;    0.000;    0.000
460.248; 2015.850;    0.000;    0.000
460.292; 2054.850;    0.000;    0.000
460.336; 2125.850;    0.000;    0.000
460.380; 2055.850;    0.000;    0.000
460.424; 2127.850;    0.000;    0.000
460.468; 2147.850;    0.000;    0.000
460.512; 2127.850;    0.000;    0.000
460.556; 2116.850;    0.000;    0.000
460.599; 2097.850;    0.000;    0.000
460.643; 2023.850;    0.000;    0.000
460.687; 2027.850;    0.000;    0.000
460.731; 2045.850;    0.000;    0.000
460.775; 2014.850;    0.000;    0.000
460.819; 2006.850;    0.000;    0.000
460.863; 2017.850;    0.000;    0.000
460.907; 1907.850;    0.000;    0.000
460.951; 1950.850;    0.000;    0.000
460.995; 2079.850;    0.000;    0.000
461.038; 2049.850;    0.000;    0.000
461.082; 2060.850;    0.000;    0.000
461.126; 2075.850;    0.000;    0.000
461.170; 2041.850;    0.000;    0.000
461.214; 2051.850;    0.000;    0.000
461.257; 2090.850;    0.000;    0.000
461.301; 2104.850;    0.000;    0.000
461.345; 2083.850;    0.000;    0.000
461.389; 2046.850;    0.000;    0.000
461.432; 2105.850;    0.000;    0.000
461.476; 2059.850;    0.000;    0.000
461.520; 2052.850;    0.000;    0.000
461.563; 2113.850;    0.000;    0.000
461.607; 2031.850;    0.000;    0.000
461.651; 2008.850;    0.000;    0.000
461.694; 2071.850;    0.000;    0.000
461.738; 2046.850;    0.000;    0.000
461.782; 2090.850;    0.000;    0.000
461.825; 2071.850;    0.000;    0.000
461.869; 2098.850;    0.000;    0.000
461.913; 2087.850;    0.000;    0.000
461.956; 2169.850;    0.000;    0.000
462.000; 2041.850;    0.000;    0.000
462.043; 2069.850;    0.000;    0.000
462.087; 2011.850;    0.000;    0.000
462.130; 2019.850;    0.000;    0.000
462.174; 2096.850;    0.000;    0.000
462.217; 2074.850;    0.000;    0.000
462.261; 2086.850;    0.000;    0.000
462.304; 2131.850;    0.000;    0.000
462.348; 2135.850;    0.000;    0.000
462.391; 2070.850;    0.000;    0.000
462.435; 1991.850;    0.000;    0.000
462.478; 2001.850;    0.000;    0.000
462.522; 2159.850;    0.000;    0.000
462.565; 2231.850;    0.000;    0.000
462.608; 2159.850;    0.000;    0.000
462.652; 2145.850;    0.000;    0.000
462.695; 2166.850;    0.000;    0.000
462.739; 2125.850;    0.000;    0.000
462.782; 2151.850;    0.000;    0.000
462.825; 2035.850;    0.000;    0.000
462.869; 2190.850;    0.000;    0.000
462.912; 2185.850;    0.000;    0.000
462.955; 2136.850;    0.000;    0.000
462.998; 2141.850;    0.000;    0.000
463.042; 2125.850;    0.000;    0.000
463.085; 2081.850;    0.000;    0.000
463.128; 2122.850;    0.000;    0.000
463.172; 2018.850;    0.000;    0.000
463.215;  474.850;    0.000;    0.000
463.258;  368.850;    0.000;    0.000
463.301;  346.850;    0.000;    0.000
463.344;  351.850;    0.000;    0.000
463.388;  343.850;    0.000;    0.000
463.431;  317.850;    0.000;    0.000
463.474;  350.850;    0.000;    0.000
463.517;  311.850;    0.000;    0.000
463.560;  353.850;    0.000;    0.000
463.603;  361.850;    0.000;    0.000
463.646;  354.850;    0.000;    0.000
463.690;  373.850;    0.000;    0.000
463.733;  369.850;    0.000;    0.000
463.776;  330.850;    0.000;    0.000
463.819;  348.850;    0.000;    0.000
463.862;  317.850;    0.000;    0.000

