
Integration time [ms]:   1.000
Averaging Nr. [scans]: 1
Smoothing Nr. [pixels]: 0
Data measured with spectrometer [name]: UV2
Wave   ;Sample   ;Dark     ;Reference
[nm]   ;[counts] ;[counts] ;[counts] 

353.533;  267.025;    0.000;    0.000
353.597;  261.025;    0.000;    0.000
353.660;  218.025;    0.000;    0.000
353.723;  210.025;    0.000;    0.000
353.786;  204.025;    0.000;    0.000
353.850;  274.025;    0.000;    0.000
353.913;  181.025;    0.000;    0.000
353.976;  217.025;    0.000;    0.000
354.039;  197.025;    0.000;    0.000
354.102;  246.025;    0.000;    0.000
354.166;  231.025;    0.000;    0.000
354.229;  221.025;    0.000;    0.000
354.292;  203.025;    0.000;    0.000
354.355;  231.025;    0.000;    0.000
354.418;  203.025;    0.000;    0.000
354.481;  212.025;    0.000;    0.000
354.545;  365.025;    0.000;    0.000
354.608;  380.025;    0.000;    0.000
354.671;  354.025;    0.000;    0.000
354.734;  402.025;    0.000;    0.000
354.797;  410.025;    0.000;    0.000
354.860;  393.025;    0.000;    0.000
354.923;  404.025;    0.000;    0.000
354.986;  409.025;    0.000;    0.000
355.050;  385.025;    0.000;    0.000
355.113;  365.025;    0.000;    0.000
355.176;  425.025;    0.000;    0.000
355.239;  424.025;    0.000;    0.000
355.302;  427.025;    0.000;    0.000
355.365;  433.025;    0.000;    0.000
355.428;  439.025;    0.000;    0.000
355.491;  459.025;    0.000;    0.000
355.554;  422.025;    0.000;    0.000
355.617;  424.025;    0.000;    0.000
355.680;  417.025;    0.000;    0.000
355.743;  424.025;    0.000;    0.000
355.806;  394.025;    0.000;    0.000
355.869;  487.025;    0.000;    0.000
355.932;  422.025;    0.000;    0.000
355.995;  435.025;    0.000;    0.000
356.058;  490.025;    0.000;    0.000
356.121;  475.025;    0.000;    0.000
356.184;  506.025;    0.000;    0.000
356.247;  447.025;    0.000;    0.000
356.310;  382.025;    0.000;    0.000
356.373;  467.025;    0.000;    0.000
356.436;  448.025;    0.000;    0.000
356.498;  457.025;    0.000;    0.000
356.561;  436.025;    0.000;    0.000
356.624;  433.025;    0.000;    0.000
356.687;  486.025;    0.000;    0.000
356.750;  452.025;    0.000;    0.000
356.813;  443.025;    0.000;    0.000
356.876;  464.025;    0.000;    0.000
356.939;  443.025;    0.000;    0.000
357.001;  419.025;    0.000;    0.000
357.064;  438.025;    0.000;    0.000
357.127;  450.025;    0.000;    0.000
357.190;  470.025;    0.000;    0.000
357.253;  442.025;    0.000;    0.000
357.316;  446.025;    0.000;    0.000
357.378;  469.025;    0.000;    0.000
357.441;  429.025;    0.000;    0.000
357.504;  421.025;    0.000;    0.000
357.567;  393.025;    0.000;    0.000
357.629;  449.025;    0.000;    0.000
357.692;  429.025;    0.000;    0.000
357.755;  417.025;    0.000;    0.000
357.818;  455.025;    0.000;    0.000
357.880;  479.025;    0.000;    0.000
357.943;  443.025;    0.000;    0.000
358.006;  457.025;    0.000;    0.000
358.069;  451.025;    0.000;    0.000
358.131;  448.025;    0.000;    0.000
358.194;  430.025;    0.000;    0.000
358.257;  458.025;    0.000;    0.000
358.319;  459.025;    0.000;    0.000
358.382;  500.025;    0.000;    0.000
358.445;  462.025;    0.000;    0.000
358.507;  449.025;    0.000;    0.000
358.570;  469.025;    0.000;    0.000
358.633;  412.025;    0.000;    0.000
358.695;  440.025;    0.000;    0.000
358.758;  447.025;    0.000;    0.000
358.821;  419.025;    0.000;    0.000
358.883;  427.025;    0.000;    0.000
358.946;  496.025;    0.000;    0.000
359.008;  500.025;    0.000;    0.000
359.071;  432.025;    0.000;    0.000
359.134;  424.025;    0.000;    0.000
359.196;  494.025;    0.000;    0.000
359.259;  462.025;    0.000;    0.000
359.321;  466.025;    0.000;    0.000
359.384;  494.025;    0.000;    0.000
359.446;  480.025;    0.000;    0.000
359.509;  451.025;    0.000;    0.000
359.571;  495.025;    0.000;    0.000
359.634;  469.025;    0.000;    0.000
359.696;  451.025;    0.000;    0.000
359.759;  478.025;    0.000;    0.000
359.821;  456.025;    0.000;    0.000
359.884;  426.025;    0.000;    0.000
359.946;  497.025;    0.000;    0.000
360.009;  446.025;    0.000;    0.000
360.071;  417.025;    0.000;    0.000
360.134;  506.025;    0.000;    0.000
360.196;  503.025;    0.000;    0.000
360.259;  475.025;    0.000;    0.000
360.321;  439.025;    0.000;    0.000
360.384;  491.025;    0.000;    0.000
360.446;  455.025;    0.000;    0.000
360.508;  448.025;    0.000;    0.000
360.571;  538.025;    0.000;    0.000
360.633;  502.025;    0.000;    0.000
360.696;  446.025;    0.000;    0.000
360.758;  492.025;    0.000;    0.000
360.820;  454.025;    0.000;    0.000
360.883;  465.025;    0.000;    0.000
360.945;  481.025;    0.000;    0.000
361.007;  473.025;    0.000;    0.000
361.070;  476.025;    0.000;    0.000
361.132;  485.025;    0.000;    0.000
361.194;  477.025;    0.000;    0.000
361.257;  469.025;    0.000;    0.000
361.319;  447.025;    0.000;    0.000
361.381;  514.025;    0.000;    0.000
361.443;  475.025;    0.000;    0.000
361.506;  495.025;    0.000;    0.000
361.568;  445.025;    0.000;    0.000
361.630;  470.025;    0.000;    0.000
361.693;  517.025;    0.000;    0.000
361.755;  488.025;    0.000;    0.000
361.817;  520.025;    0.000;    0.000
361.879;  491.025;    0.000;    0.000
361.941;  469.025;    0.000;    0.000
362.004;  549.025;    0.000;    0.000
362.066;  506.025;    0.000;    0.000
362.128;  518.025;    0.000;    0.000
362.190;  528.025;    0.000;    0.000
362.252;  495.025;    0.000;    0.000
362.315;  517.025;    0.000;    0.000
362.377;  495.025;    0.000;    0.000
362.439;  469.025;    0.000;    0.000
362.501;  492.025;    0.000;    0.000
362.563;  504.025;    0.000;    0.000
362.625;  557.025;    0.000;    0.000
362.688;  510.025;    0.000;    0.000
362.750;  539.025;    0.000;    0.000
362.812;  490.025;    0.000;    0.000
362.874;  520.025;    0.000;    0.000
362.936;  555.025;    0.000;    0.000
362.998;  485.025;    0.000;    0.000
363.060;  518.025;    0.000;    0.000
363.122;  469.025;    0.000;    0.000
363.184;  514.025;    0.000;    0.000
363.246;  542.025;    0.000;    0.000
363.308;  485.025;    0.000;    0.000
363.370;  549.025;    0.000;    0.000
363.432;  501.025;    0.000;    0.000
363.494;  511.025;    0.000;    0.000
363.556;  513.025;    0.000;    0.000
363.618;  461.025;    0.000;    0.000
363.680;  531.025;    0.000;    0.000
363.742;  563.025;    0.000;    0.000
363.804;  542.025;    0.000;    0.000
363.866;  553.025;    0.000;    0.000
363.928;  543.025;    0.000;    0.000
363.990;  528.025;    0.000;    0.000
364.052;  546.025;    0.000;    0.000
364.114;  495.025;    0.000;    0.000
364.176;  527.025;    0.000;    0.000
364.238;  542.025;    0.000;    0.000
364.300;  484.025;    0.000;    0.000
364.362;  527.025;    0.000;    0.000
364.424;  490.025;    0.000;    0.000
364.486;  546.025;    0.000;    0.000
364.548;  547.025;    0.000;    0.000
364.609;  604.025;    0.000;    0.000
364.671;  576.025;    0.000;    0.000
364.733;  551.025;    0.000;    0.000
364.795;  539.025;    0.000;    0.000
364.857;  518.025;    0.000;    0.000
364.919;  536.025;    0.000;    0.000
364.981;  540.025;    0.000;    0.000
365.042;  632.025;    0.000;    0.000
365.104;  594.025;    0.000;    0.000
365.166;  523.025;    0.000;    0.000
365.228;  542.025;    0.000;    0.000
365.290;  544.025;    0.000;    0.000
365.351;  518.025;    0.000;    0.000
365.413;  571.025;    0.000;    0.000
365.475;  532.025;    0.000;    0.000
365.537;  531.025;    0.000;    0.000
365.598;  564.025;    0.000;    0.000
365.660;  499.025;    0.000;    0.000
365.722;  528.025;    0.000;    0.000
365.784;  604.025;    0.000;    0.000
365.845;  534.025;    0.000;    0.000
365.907;  500.025;    0.000;    0.000
365.969;  578.025;    0.000;    0.000
366.030;  546.025;    0.000;    0.000
366.092;  572.025;    0.000;    0.000
366.154;  587.025;    0.000;    0.000
366.215;  582.025;    0.000;    0.000
366.277;  571.025;    0.000;    0.000
366.339;  571.025;    0.000;    0.000
366.400;  554.025;    0.000;    0.000
366.462;  522.025;    0.000;    0.000
366.524;  599.025;    0.000;    0.000
366.585;  518.025;    0.000;    0.000
366.647;  614.025;    0.000;    0.000
366.708;  521.025;    0.000;    0.000
366.770;  597.025;    0.000;    0.000
366.832;  576.025;    0.000;    0.000
366.893;  597.025;    0.000;    0.000
366.955;  551.025;    0.000;    0.000
367.016;  611.025;    0.000;    0.000
367.078;  559.025;    0.000;    0.000
367.139;  584.025;    0.000;    0.000
367.201;  581.025;    0.000;    0.000
367.262;  584.025;    0.000;    0.000
367.324;  614.025;    0.000;    0.000
367.385;  520.025;    0.000;    0.000
367.447;  584.025;    0.000;    0.000
367.508;  521.025;    0.000;    0.000
367.570;  532.025;    0.000;    0.000
367.631;  587.025;    0.000;    0.000
367.693;  568.025;    0.000;    0.000
367.754;  588.025;    0.000;    0.000
367.816;  537.025;    0.000;    0.000
367.877;  580.025;    0.000;    0.000
367.939;  624.025;    0.000;    0.000
368.000;  536.025;    0.000;    0.000
368.062;  590.025;    0.000;    0.000
368.123;  575.025;    0.000;    0.000
368.184;  594.025;    0.000;    0.000
368.246;  568.025;    0.000;    0.000
368.307;  582.025;    0.000;    0.000
368.369;  583.025;    0.000;    0.000
368.430;  510.025;    0.000;    0.000
368.491;  567.025;    0.000;    0.000
368.553;  622.025;    0.000;    0.000
368.614;  583.025;    0.000;    0.000
368.675;  578.025;    0.000;    0.000
368.737;  593.025;    0.000;    0.000
368.798;  560.025;    0.000;    0.000
368.859;  659.025;    0.000;    0.000
368.921;  576.025;    0.000;    0.000
368.982;  611.025;    0.000;    0.000
369.043;  609.025;    0.000;    0.000
369.104;  588.025;    0.000;    0.000
369.166;  606.025;    0.000;    0.000
369.227;  600.025;    0.000;    0.000
369.288;  616.025;    0.000;    0.000
369.349;  601.025;    0.000;    0.000
369.411;  626.025;    0.000;    0.000
369.472;  603.025;    0.000;    0.000
369.533;  558.025;    0.000;    0.000
369.594;  602.025;    0.000;    0.000
369.656;  645.025;    0.000;    0.000
369.717;  577.025;    0.000;    0.000
369.778;  626.025;    0.000;    0.000
369.839;  633.025;    0.000;    0.000
369.900;  577.025;    0.000;    0.000
369.961;  569.025;    0.000;    0.000
370.023;  665.025;    0.000;    0.000
370.084;  619.025;    0.000;    0.000
370.145;  615.025;    0.000;    0.000
370.206;  621.025;    0.000;    0.000
370.267;  621.025;    0.000;    0.000
370.328;  635.025;    0.000;    0.000
370.389;  606.025;    0.000;    0.000
370.451;  640.025;    0.000;    0.000
370.512;  597.025;    0.000;    0.000
370.573;  613.025;    0.000;    0.000
370.634;  608.025;    0.000;    0.000
370.695;  611.025;    0.000;    0.000
370.756;  630.025;    0.000;    0.000
370.817;  587.025;    0.000;    0.000
370.878;  619.025;    0.000;    0.000
370.939;  592.025;    0.000;    0.000
371.000;  590.025;    0.000;    0.000
371.061;  639.025;    0.000;    0.000
371.122;  668.025;    0.000;    0.000
371.183;  588.025;    0.000;    0.000
371.244;  616.025;    0.000;    0.000
371.305;  639.025;    0.000;    0.000
371.366;  660.025;    0.000;    0.000
371.427;  590.025;    0.000;    0.000
371.488;  650.025;    0.000;    0.000
371.549;  620.025;    0.000;    0.000
371.610;  622.025;    0.000;    0.000
371.671;  660.025;    0.000;    0.000
371.732;  659.025;    0.000;    0.000
371.793;  605.025;    0.000;    0.000
371.853;  610.025;    0.000;    0.000
371.914;  631.025;    0.000;    0.000
371.975;  660.025;    0.000;    0.000
372.036;  638.025;    0.000;    0.000
372.097;  647.025;    0.000;    0.000
372.158;  627.025;    0.000;    0.000
372.219;  664.025;    0.000;    0.000
372.280;  626.025;    0.000;    0.000
372.340;  617.025;    0.000;    0.000
372.401;  612.025;    0.000;    0.000
372.462;  668.025;    0.000;    0.000
372.523;  650.025;    0.000;    0.000
372.584;  687.025;    0.000;    0.000
372.645;  611.025;    0.000;    0.000
372.705;  684.025;    0.000;    0.000
372.766;  686.025;    0.000;    0.000
372.827;  649.025;    0.000;    0.000
372.888;  636.025;    0.000;    0.000
372.948;  652.025;    0.000;    0.000
373.009;  710.025;    0.000;    0.000
373.070;  651.025;    0.000;    0.000
373.131;  639.025;    0.000;    0.000
373.191;  742.025;    0.000;    0.000
373.252;  672.025;    0.000;    0.000
373.313;  661.025;    0.000;    0.000
373.373;  628.025;    0.000;    0.000
373.434;  680.025;    0.000;    0.000
373.495;  711.025;    0.000;    0.000
373.555;  666.025;    0.000;    0.000
373.616;  641.025;    0.000;    0.000
373.677;  694.025;    0.000;    0.000
373.737;  692.025;    0.000;    0.000
373.798;  674.025;    0.000;    0.000
373.859;  631.025;    0.000;    0.000
373.919;  687.025;    0.000;    0.000
373.980;  647.025;    0.000;    0.000
374.041;  658.025;    0.000;    0.000
374.101;  685.025;    0.000;    0.000
374.162;  702.025;    0.000;    0.000
374.222;  720.025;    0.000;    0.000
374.283;  678.025;    0.000;    0.000
374.343;  715.025;    0.000;    0.000
374.404;  723.025;    0.000;    0.000
374.465;  723.025;    0.000;    0.000
374.525;  740.025;    0.000;    0.000
374.586;  699.025;    0.000;    0.000
374.646;  726.025;    0.000;    0.000
374.707;  738.025;    0.000;    0.000
374.767;  692.025;    0.000;    0.000
374.828;  730.025;    0.000;    0.000
374.888;  722.025;    0.000;    0.000
374.949;  717.025;    0.000;    0.000
375.009;  721.025;    0.000;    0.000
375.070;  702.025;    0.000;    0.000
375.130;  735.025;    0.000;    0.000
375.190;  749.025;    0.000;    0.000
375.251;  771.025;    0.000;    0.000
375.311;  733.025;    0.000;    0.000
375.372;  733.025;    0.000;    0.000
375.432;  738.025;    0.000;    0.000
375.493;  677.025;    0.000;    0.000
375.553;  762.025;    0.000;    0.000
375.613;  687.025;    0.000;    0.000
375.674;  733.025;    0.000;    0.000
375.734;  739.025;    0.000;    0.000
375.794;  745.025;    0.000;    0.000
375.855;  699.025;    0.000;    0.000
375.915;  692.025;    0.000;    0.000
375.975;  669.025;    0.000;    0.000
376.036;  690.025;    0.000;    0.000
376.096;  763.025;    0.000;    0.000
376.156;  720.025;    0.000;    0.000
376.217;  692.025;    0.000;    0.000
376.277;  753.025;    0.000;    0.000
376.337;  699.025;    0.000;    0.000
376.398;  732.025;    0.000;    0.000
376.458;  750.025;    0.000;    0.000
376.518;  676.025;    0.000;    0.000
376.578;  665.025;    0.000;    0.000
376.639;  718.025;    0.000;    0.000
376.699;  716.025;    0.000;    0.000
376.759;  749.025;    0.000;    0.000
376.819;  704.025;    0.000;    0.000
376.880;  727.025;    0.000;    0.000
376.940;  749.025;    0.000;    0.000
377.000;  776.025;    0.000;    0.000
377.060;  721.025;    0.000;    0.000
377.120;  694.025;    0.000;    0.000
377.180;  762.025;    0.000;    0.000
377.241;  771.025;    0.000;    0.000
377.301;  732.025;    0.000;    0.000
377.361;  749.025;    0.000;    0.000
377.421;  775.025;    0.000;    0.000
377.481;  721.025;    0.000;    0.000
377.541;  742.025;    0.000;    0.000
377.601;  746.025;    0.000;    0.000
377.661;  767.025;    0.000;    0.000
377.722;  788.025;    0.000;    0.000
377.782;  763.025;    0.000;    0.000
377.842;  711.025;    0.000;    0.000
377.902;  741.025;    0.000;    0.000
377.962;  760.025;    0.000;    0.000
378.022;  792.025;    0.000;    0.000
378.082;  740.025;    0.000;    0.000
378.142;  794.025;    0.000;    0.000
378.202;  795.025;    0.000;    0.000
378.262;  784.025;    0.000;    0.000
378.322;  784.025;    0.000;    0.000
378.382;  750.025;    0.000;    0.000
378.442;  747.025;    0.000;    0.000
378.502;  754.025;    0.000;    0.000
378.562;  750.025;    0.000;    0.000
378.622;  782.025;    0.000;    0.000
378.682;  783.025;    0.000;    0.000
378.742;  776.025;    0.000;    0.000
378.802;  805.025;    0.000;    0.000
378.862;  855.025;    0.000;    0.000
378.921;  785.025;    0.000;    0.000
378.981;  814.025;    0.000;    0.000
379.041;  798.025;    0.000;    0.000
379.101;  785.025;    0.000;    0.000
379.161;  796.025;    0.000;    0.000
379.221;  765.025;    0.000;    0.000
379.281;  811.025;    0.000;    0.000
379.341;  775.025;    0.000;    0.000
379.401;  845.025;    0.000;    0.000
379.460;  850.025;    0.000;    0.000
379.520;  823.025;    0.000;    0.000
379.580;  876.025;    0.000;    0.000
379.640;  802.025;    0.000;    0.000
379.700;  797.025;    0.000;    0.000
379.759;  859.025;    0.000;    0.000
379.819;  750.025;    0.000;    0.000
379.879;  816.025;    0.000;    0.000
379.939;  849.025;    0.000;    0.000
379.999;  821.025;    0.000;    0.000
380.058;  870.025;    0.000;    0.000
380.118;  847.025;    0.000;    0.000
380.178;  864.025;    0.000;    0.000
380.237;  805.025;    0.000;    0.000
380.297;  843.025;    0.000;    0.000
380.357;  853.025;    0.000;    0.000
380.417;  816.025;    0.000;    0.000
380.476;  918.025;    0.000;    0.000
380.536;  875.025;    0.000;    0.000
380.596;  854.025;    0.000;    0.000
380.655;  843.025;    0.000;    0.000
380.715;  868.025;    0.000;    0.000
380.775;  941.025;    0.000;    0.000
380.834;  904.025;    0.000;    0.000
380.894;  901.025;    0.000;    0.000
380.954;  852.025;    0.000;    0.000
381.013;  886.025;    0.000;    0.000
381.073;  915.025;    0.000;    0.000
381.132;  896.025;    0.000;    0.000
381.192;  877.025;    0.000;    0.000
381.252;  854.025;    0.000;    0.000
381.311;  927.025;    0.000;    0.000
381.371;  906.025;    0.000;    0.000
381.430;  870.025;    0.000;    0.000
381.490;  905.025;    0.000;    0.000
381.549;  875.025;    0.000;    0.000
381.609;  928.025;    0.000;    0.000
381.668;  949.025;    0.000;    0.000
381.728;  949.025;    0.000;    0.000
381.787;  965.025;    0.000;    0.000
381.847;  950.025;    0.000;    0.000
381.906;  978.025;    0.000;    0.000
381.966;  961.025;    0.000;    0.000
382.025; 1019.025;    0.000;    0.000
382.085;  987.025;    0.000;    0.000
382.144;  987.025;    0.000;    0.000
382.204; 1013.025;    0.000;    0.000
382.263; 1029.025;    0.000;    0.000
382.323; 1026.025;    0.000;    0.000
382.382;  986.025;    0.000;    0.000
382.441; 1040.025;    0.000;    0.000
382.501; 1035.025;    0.000;    0.000
382.560; 1117.025;    0.000;    0.000
382.619; 1091.025;    0.000;    0.000
382.679; 1203.025;    0.000;    0.000
382.738; 1196.025;    0.000;    0.000
382.798; 1310.025;    0.000;    0.000
382.857; 1389.025;    0.000;    0.000
382.916; 1418.025;    0.000;    0.000
382.976; 1436.025;    0.000;    0.000
383.035; 1430.025;    0.000;    0.000
383.094; 1509.025;    0.000;    0.000
383.154; 1763.025;    0.000;    0.000
383.213; 1727.025;    0.000;    0.000
383.272; 1644.025;    0.000;    0.000
383.331; 1357.025;    0.000;    0.000
383.391; 1417.025;    0.000;    0.000
383.450; 1354.025;    0.000;    0.000
383.509; 1374.025;    0.000;    0.000
383.568; 1406.025;    0.000;    0.000
383.628; 1545.025;    0.000;    0.000
383.687; 1643.025;    0.000;    0.000
383.746; 1877.025;    0.000;    0.000
383.805; 1981.025;    0.000;    0.000
383.864; 1723.025;    0.000;    0.000
383.924; 1507.025;    0.000;    0.000
383.983; 1292.025;    0.000;    0.000
384.042; 1177.025;    0.000;    0.000
384.101; 1245.025;    0.000;    0.000
384.160; 1142.025;    0.000;    0.000
384.219; 1042.025;    0.000;    0.000
384.279; 1118.025;    0.000;    0.000
384.338; 1147.025;    0.000;    0.000
384.397; 1019.025;    0.000;    0.000
384.456; 1067.025;    0.000;    0.000
384.515; 1053.025;    0.000;    0.000
384.574; 1021.025;    0.000;    0.000
384.633; 1010.025;    0.000;    0.000
384.692;  970.025;    0.000;    0.000
384.751; 1074.025;    0.000;    0.000
384.810;  983.025;    0.000;    0.000
384.869;  943.025;    0.000;    0.000
384.929; 1007.025;    0.000;    0.000
384.988; 1005.025;    0.000;    0.000
385.047;  975.025;    0.000;    0.000
385.106;  984.025;    0.000;    0.000
385.165; 1004.025;    0.000;    0.000
385.224;  954.025;    0.000;    0.000
385.283; 1017.025;    0.000;    0.000
385.342;  958.025;    0.000;    0.000
385.401; 1026.025;    0.000;    0.000
385.459;  926.025;    0.000;    0.000
385.518;  983.025;    0.000;    0.000
385.577;  931.025;    0.000;    0.000
385.636; 1017.025;    0.000;    0.000
385.695;  945.025;    0.000;    0.000
385.754;  985.025;    0.000;    0.000
385.813;  998.025;    0.000;    0.000
385.872;  946.025;    0.000;    0.000
385.931; 1025.025;    0.000;    0.000
385.990;  971.025;    0.000;    0.000
386.049;  991.025;    0.000;    0.000
386.107;  985.025;    0.000;    0.000
386.166;  953.025;    0.000;    0.000
386.225; 1029.025;    0.000;    0.000
386.284;  982.025;    0.000;    0.000
386.343; 1004.025;    0.000;    0.000
386.402; 1023.025;    0.000;    0.000
386.460;  977.025;    0.000;    0.000
386.519;  957.025;    0.000;    0.000
386.578; 1005.025;    0.000;    0.000
386.637; 1010.025;    0.000;    0.000
386.696;  996.025;    0.000;    0.000
386.754;  943.025;    0.000;    0.000
386.813;  949.025;    0.000;    0.000
386.872;  917.025;    0.000;    0.000
386.931;  979.025;    0.000;    0.000
386.989;  982.025;    0.000;    0.000
387.048;  994.025;    0.000;    0.000
387.107; 1051.025;    0.000;    0.000
387.165;  967.025;    0.000;    0.000
387.224; 1000.025;    0.000;    0.000
387.283;  973.025;    0.000;    0.000
387.342;  977.025;    0.000;    0.000
387.400;  980.025;    0.000;    0.000
387.459;  962.025;    0.000;    0.000
387.517;  990.025;    0.000;    0.000
387.576;  987.025;    0.000;    0.000
387.635;  917.025;    0.000;    0.000
387.693; 1006.025;    0.000;    0.000
387.752;  963.025;    0.000;    0.000
387.811;  973.025;    0.000;    0.000
387.869;  918.025;    0.000;    0.000
387.928;  951.025;    0.000;    0.000
387.986;  945.025;    0.000;    0.000
388.045;  958.025;    0.000;    0.000
388.103;  943.025;    0.000;    0.000
388.162;  945.025;    0.000;    0.000
388.221;  944.025;    0.000;    0.000
388.279;  947.025;    0.000;    0.000
388.338; 1003.025;    0.000;    0.000
388.396;  948.025;    0.000;    0.000
388.455;  977.025;    0.000;    0.000
388.513;  894.025;    0.000;    0.000
388.572;  954.025;    0.000;    0.000
388.630;  898.025;    0.000;    0.000
388.689;  976.025;    0.000;    0.000
388.747;  943.025;    0.000;    0.000
388.806;  967.025;    0.000;    0.000
388.864;  959.025;    0.000;    0.000
388.922; 1023.025;    0.000;    0.000
388.981;  948.025;    0.000;    0.000
389.039;  912.025;    0.000;    0.000
389.098;  940.025;    0.000;    0.000
389.156;  964.025;    0.000;    0.000
389.214;  948.025;    0.000;    0.000
389.273;  952.025;    0.000;    0.000
389.331;  992.025;    0.000;    0.000
389.390;  904.025;    0.000;    0.000
389.448;  924.025;    0.000;    0.000
389.506;  946.025;    0.000;    0.000
389.565;  956.025;    0.000;    0.000
389.623;  986.025;    0.000;    0.000
389.681;  948.025;    0.000;    0.000
389.740; 1018.025;    0.000;    0.000
389.798;  953.025;    0.000;    0.000
389.856;  970.025;    0.000;    0.000
389.914;  979.025;    0.000;    0.000
389.973;  978.025;    0.000;    0.000
390.031;  933.025;    0.000;    0.000
390.089;  985.025;    0.000;    0.000
390.147;  895.025;    0.000;    0.000
390.206; 1040.025;    0.000;    0.000
390.264;  975.025;    0.000;    0.000
390.322;  947.025;    0.000;    0.000
390.380;  971.025;    0.000;    0.000
390.439;  924.025;    0.000;    0.000
390.497;  924.025;    0.000;    0.000
390.555;  992.025;    0.000;    0.000
390.613; 1000.025;    0.000;    0.000
390.671;  996.025;    0.000;    0.000
390.729;  912.025;    0.000;    0.000
390.788;  974.025;    0.000;    0.000
390.846;  924.025;    0.000;    0.000
390.904;  990.025;    0.000;    0.000
390.962;  970.025;    0.000;    0.000
391.020; 1002.025;    0.000;    0.000
391.078;  995.025;    0.000;    0.000
391.136;  962.025;    0.000;    0.000
391.194; 1061.025;    0.000;    0.000
391.253; 1031.025;    0.000;    0.000
391.311;  999.025;    0.000;    0.000
391.369; 1042.025;    0.000;    0.000
391.427; 1021.025;    0.000;    0.000
391.485;  977.025;    0.000;    0.000
391.543; 1002.025;    0.000;    0.000
391.601;  936.025;    0.000;    0.000
391.659;  983.025;    0.000;    0.000
391.717;  931.025;    0.000;    0.000
391.775; 1015.025;    0.000;    0.000
391.833; 1011.025;    0.000;    0.000
391.891;  952.025;    0.000;    0.000
391.949; 1008.025;    0.000;    0.000
392.007; 1048.025;    0.000;    0.000
392.065; 1018.025;    0.000;    0.000
392.123;  972.025;    0.000;    0.000
392.180; 1030.025;    0.000;    0.000
392.238; 1012.025;    0.000;    0.000
392.296; 1002.025;    0.000;    0.000
392.354;  965.025;    0.000;    0.000
392.412; 1056.025;    0.000;    0.000
392.470; 1027.025;    0.000;    0.000
392.528; 1032.025;    0.000;    0.000
392.586; 1021.025;    0.000;    0.000
392.644;  987.025;    0.000;    0.000
392.701; 1018.025;    0.000;    0.000
392.759; 1034.025;    0.000;    0.000
392.817; 1016.025;    0.000;    0.000
392.875; 1013.025;    0.000;    0.000
392.933; 1018.025;    0.000;    0.000
392.991; 1029.025;    0.000;    0.000
393.048; 1123.025;    0.000;    0.000
393.106; 1056.025;    0.000;    0.000
393.164; 1019.025;    0.000;    0.000
393.222; 1091.025;    0.000;    0.000
393.279; 1115.025;    0.000;    0.000
393.337; 1182.025;    0.000;    0.000
393.395; 1148.025;    0.000;    0.000
393.453; 1078.025;    0.000;    0.000
393.510; 1038.025;    0.000;    0.000
393.568; 1046.025;    0.000;    0.000
393.626;  999.025;    0.000;    0.000
393.684; 1060.025;    0.000;    0.000
393.741; 1009.025;    0.000;    0.000
393.799; 1009.025;    0.000;    0.000
393.857;  989.025;    0.000;    0.000
393.914;  984.025;    0.000;    0.000
393.972; 1014.025;    0.000;    0.000
394.030; 1007.025;    0.000;    0.000
394.087; 1091.025;    0.000;    0.000
394.145; 1115.025;    0.000;    0.000
394.202; 1040.025;    0.000;    0.000
394.260; 1057.025;    0.000;    0.000
394.318; 1038.025;    0.000;    0.000
394.375; 1038.025;    0.000;    0.000
394.433; 1046.025;    0.000;    0.000
394.490; 1064.025;    0.000;    0.000
394.548; 1003.025;    0.000;    0.000
394.605; 1069.025;    0.000;    0.000
394.663; 1051.025;    0.000;    0.000
394.720; 1017.025;    0.000;    0.000
394.778; 1120.025;    0.000;    0.000
394.836;  994.025;    0.000;    0.000
394.893; 1033.025;    0.000;    0.000
394.951; 1062.025;    0.000;    0.000
395.008; 1071.025;    0.000;    0.000
395.065; 1086.025;    0.000;    0.000
395.123; 1017.025;    0.000;    0.000
395.180; 1029.025;    0.000;    0.000
395.238; 1055.025;    0.000;    0.000
395.295; 1078.025;    0.000;    0.000
395.353; 1139.025;    0.000;    0.000
395.410; 1021.025;    0.000;    0.000
395.468; 1119.025;    0.000;    0.000
395.525; 1106.025;    0.000;    0.000
395.582; 1105.025;    0.000;    0.000
395.640; 1046.025;    0.000;    0.000
395.697; 1147.025;    0.000;    0.000
395.754; 1054.025;    0.000;    0.000
395.812; 1089.025;    0.000;    0.000
395.869; 1127.025;    0.000;    0.000
395.927; 1059.025;    0.000;    0.000
395.984; 1106.025;    0.000;    0.000
396.041; 1105.025;    0.000;    0.000
396.098; 1089.025;    0.000;    0.000
396.156; 1132.025;    0.000;    0.000
396.213; 1114.025;    0.000;    0.000
396.270; 1153.025;    0.000;    0.000
396.328; 1071.025;    0.000;    0.000
396.385; 1127.025;    0.000;    0.000
396.442; 1166.025;    0.000;    0.000
396.499; 1049.025;    0.000;    0.000
396.557; 1107.025;    0.000;    0.000
396.614; 1134.025;    0.000;    0.000
396.671; 1130.025;    0.000;    0.000
396.728; 1145.025;    0.000;    0.000
396.785; 1193.025;    0.000;    0.000
396.843; 1188.025;    0.000;    0.000
396.900; 1117.025;    0.000;    0.000
396.957; 1145.025;    0.000;    0.000
397.014; 1183.025;    0.000;    0.000
397.071; 1187.025;    0.000;    0.000
397.128; 1160.025;    0.000;    0.000
397.186; 1157.025;    0.000;    0.000
397.243; 1175.025;    0.000;    0.000
397.300; 1234.025;    0.000;    0.000
397.357; 1114.025;    0.000;    0.000
397.414; 1126.025;    0.000;    0.000
397.471; 1123.025;    0.000;    0.000
397.528; 1200.025;    0.000;    0.000
397.585; 1127.025;    0.000;    0.000
397.642; 1125.025;    0.000;    0.000
397.699; 1143.025;    0.000;    0.000
397.756; 1142.025;    0.000;    0.000
397.814; 1124.025;    0.000;    0.000
397.871; 1136.025;    0.000;    0.000
397.928; 1135.025;    0.000;    0.000
397.985; 1130.025;    0.000;    0.000
398.042; 1135.025;    0.000;    0.000
398.099; 1154.025;    0.000;    0.000
398.156; 1192.025;    0.000;    0.000
398.212; 1180.025;    0.000;    0.000
398.269; 1235.025;    0.000;    0.000
398.326; 1134.025;    0.000;    0.000
398.383; 1145.025;    0.000;    0.000
398.440; 1206.025;    0.000;    0.000
398.497; 1236.025;    0.000;    0.000
398.554; 1222.025;    0.000;    0.000
398.611; 1171.025;    0.000;    0.000
398.668; 1125.025;    0.000;    0.000
398.725; 1133.025;    0.000;    0.000
398.782; 1214.025;    0.000;    0.000
398.839; 1193.025;    0.000;    0.000
398.895; 1194.025;    0.000;    0.000
398.952; 1243.025;    0.000;    0.000
399.009; 1265.025;    0.000;    0.000
399.066; 1237.025;    0.000;    0.000
399.123; 1215.025;    0.000;    0.000
399.180; 1237.025;    0.000;    0.000
399.236; 1238.025;    0.000;    0.000
399.293; 1215.025;    0.000;    0.000
399.350; 1281.025;    0.000;    0.000
399.407; 1314.025;    0.000;    0.000
399.463; 1251.025;    0.000;    0.000
399.520; 1297.025;    0.000;    0.000
399.577; 1326.025;    0.000;    0.000
399.634; 1293.025;    0.000;    0.000
399.690; 1305.025;    0.000;    0.000
399.747; 1358.025;    0.000;    0.000
399.804; 1347.025;    0.000;    0.000
399.861; 1321.025;    0.000;    0.000
399.917; 1365.025;    0.000;    0.000
399.974; 1339.025;    0.000;    0.000
400.031; 1261.025;    0.000;    0.000
400.087; 1268.025;    0.000;    0.000
400.144; 1299.025;    0.000;    0.000
400.201; 1273.025;    0.000;    0.000
400.257; 1280.025;    0.000;    0.000
400.314; 1291.025;    0.000;    0.000
400.370; 1264.025;    0.000;    0.000
400.427; 1280.025;    0.000;    0.000
400.484; 1251.025;    0.000;    0.000
400.540; 1336.025;    0.000;    0.000
400.597; 1236.025;    0.000;    0.000
400.653; 1236.025;    0.000;    0.000
400.710; 1304.025;    0.000;    0.000
400.766; 1224.025;    0.000;    0.000
400.823; 1312.025;    0.000;    0.000
400.879; 1314.025;    0.000;    0.000
400.936; 1284.025;    0.000;    0.000
400.993; 1268.025;    0.000;    0.000
401.049; 1246.025;    0.000;    0.000
401.105; 1304.025;    0.000;    0.000
401.162; 1231.025;    0.000;    0.000
401.218; 1256.025;    0.000;    0.000
401.275; 1256.025;    0.000;    0.000
401.331; 1285.025;    0.000;    0.000
401.388; 1272.025;    0.000;    0.000
401.444; 1260.025;    0.000;    0.000
401.501; 1276.025;    0.000;    0.000
401.557; 1228.025;    0.000;    0.000
401.614; 1265.025;    0.000;    0.000
401.670; 1288.025;    0.000;    0.000
401.726; 1288.025;    0.000;    0.000
401.783; 1280.025;    0.000;    0.000
401.839; 1304.025;    0.000;    0.000
401.895; 1251.025;    0.000;    0.000
401.952; 1224.025;    0.000;    0.000
402.008; 1252.025;    0.000;    0.000
402.064; 1280.025;    0.000;    0.000
402.121; 1234.025;    0.000;    0.000
402.177; 1260.025;    0.000;    0.000
402.233; 1240.025;    0.000;    0.000
402.290; 1236.025;    0.000;    0.000
402.346; 1252.025;    0.000;    0.000
402.402; 1243.025;    0.000;    0.000
402.458; 1258.025;    0.000;    0.000
402.515; 1296.025;    0.000;    0.000
402.571; 1286.025;    0.000;    0.000
402.627; 1284.025;    0.000;    0.000
402.683; 1300.025;    0.000;    0.000
402.740; 1273.025;    0.000;    0.000
402.796; 1336.025;    0.000;    0.000
402.852; 1313.025;    0.000;    0.000
402.908; 1296.025;    0.000;    0.000
402.964; 1336.025;    0.000;    0.000
403.021; 1257.025;    0.000;    0.000
403.077; 1324.025;    0.000;    0.000
403.133; 1347.025;    0.000;    0.000
403.189; 1384.025;    0.000;    0.000
403.245; 1320.025;    0.000;    0.000
403.301; 1355.025;    0.000;    0.000
403.357; 1334.025;    0.000;    0.000
403.414; 1328.025;    0.000;    0.000
403.470; 1340.025;    0.000;    0.000
403.526; 1318.025;    0.000;    0.000
403.582; 1304.025;    0.000;    0.000
403.638; 1319.025;    0.000;    0.000
403.694; 1330.025;    0.000;    0.000
403.750; 1348.025;    0.000;    0.000
403.806; 1413.025;    0.000;    0.000
403.862; 1414.025;    0.000;    0.000
403.918; 1380.025;    0.000;    0.000
403.974; 1335.025;    0.000;    0.000
404.030; 1280.025;    0.000;    0.000
404.086; 1297.025;    0.000;    0.000
404.142; 1361.025;    0.000;    0.000
404.198; 1360.025;    0.000;    0.000
404.254; 1312.025;    0.000;    0.000
404.310; 1372.025;    0.000;    0.000
404.366; 1319.025;    0.000;    0.000
404.422; 1317.025;    0.000;    0.000
404.478; 1380.025;    0.000;    0.000
404.534; 1356.025;    0.000;    0.000
404.590; 1342.025;    0.000;    0.000
404.646; 1328.025;    0.000;    0.000
404.701; 1359.025;    0.000;    0.000
404.757; 1376.025;    0.000;    0.000
404.813; 1384.025;    0.000;    0.000
404.869; 1351.025;    0.000;    0.000
404.925; 1312.025;    0.000;    0.000
404.981; 1388.025;    0.000;    0.000
405.037; 1398.025;    0.000;    0.000
405.092; 1336.025;    0.000;    0.000
405.148; 1328.025;    0.000;    0.000
405.204; 1330.025;    0.000;    0.000
405.260; 1338.025;    0.000;    0.000
405.316; 1421.025;    0.000;    0.000
405.371; 1394.025;    0.000;    0.000
405.427; 1372.025;    0.000;    0.000
405.483; 1417.025;    0.000;    0.000
405.539; 1425.025;    0.000;    0.000
405.594; 1415.025;    0.000;    0.000
405.650; 1309.025;    0.000;    0.000
405.706; 1400.025;    0.000;    0.000
405.761; 1407.025;    0.000;    0.000
405.817; 1347.025;    0.000;    0.000
405.873; 1332.025;    0.000;    0.000
405.928; 1407.025;    0.000;    0.000
405.984; 1422.025;    0.000;    0.000
406.040; 1424.025;    0.000;    0.000
406.095; 1340.025;    0.000;    0.000
406.151; 1420.025;    0.000;    0.000
406.207; 1384.025;    0.000;    0.000
406.262; 1365.025;    0.000;    0.000
406.318; 1468.025;    0.000;    0.000
406.374; 1416.025;    0.000;    0.000
406.429; 1444.025;    0.000;    0.000
406.485; 1518.025;    0.000;    0.000
406.540; 1473.025;    0.000;    0.000
406.596; 1452.025;    0.000;    0.000
406.651; 1474.025;    0.000;    0.000
406.707; 1396.025;    0.000;    0.000
406.763; 1463.025;    0.000;    0.000
406.818; 1459.025;    0.000;    0.000
406.874; 1452.025;    0.000;    0.000
406.929; 1497.025;    0.000;    0.000
406.985; 1452.025;    0.000;    0.000
407.040; 1526.025;    0.000;    0.000
407.095; 1536.025;    0.000;    0.000
407.151; 1496.025;    0.000;    0.000
407.206; 1521.025;    0.000;    0.000
407.262; 1484.025;    0.000;    0.000
407.317; 1627.025;    0.000;    0.000
407.373; 1566.025;    0.000;    0.000
407.428; 1604.025;    0.000;    0.000
407.484; 1497.025;    0.000;    0.000
407.539; 1548.025;    0.000;    0.000
407.594; 1580.025;    0.000;    0.000
407.650; 1565.025;    0.000;    0.000
407.705; 1566.025;    0.000;    0.000
407.760; 1545.025;    0.000;    0.000
407.816; 1548.025;    0.000;    0.000
407.871; 1600.025;    0.000;    0.000
407.926; 1537.025;    0.000;    0.000
407.982; 1543.025;    0.000;    0.000
408.037; 1557.025;    0.000;    0.000
408.092; 1500.025;    0.000;    0.000
408.148; 1582.025;    0.000;    0.000
408.203; 1563.025;    0.000;    0.000
408.258; 1530.025;    0.000;    0.000
408.314; 1573.025;    0.000;    0.000
408.369; 1556.025;    0.000;    0.000
408.424; 1571.025;    0.000;    0.000
408.479; 1536.025;    0.000;    0.000
408.534; 1575.025;    0.000;    0.000
408.590; 1503.025;    0.000;    0.000
408.645; 1524.025;    0.000;    0.000
408.700; 1562.025;    0.000;    0.000
408.755; 1514.025;    0.000;    0.000
408.810; 1504.025;    0.000;    0.000
408.866; 1592.025;    0.000;    0.000
408.921; 1598.025;    0.000;    0.000
408.976; 1497.025;    0.000;    0.000
409.031; 1509.025;    0.000;    0.000
409.086; 1530.025;    0.000;    0.000
409.141; 1504.025;    0.000;    0.000
409.196; 1559.025;    0.000;    0.000
409.252; 1517.025;    0.000;    0.000
409.307; 1521.025;    0.000;    0.000
409.362; 1541.025;    0.000;    0.000
409.417; 1494.025;    0.000;    0.000
409.472; 1594.025;    0.000;    0.000
409.527; 1551.025;    0.000;    0.000
409.582; 1571.025;    0.000;    0.000
409.637; 1561.025;    0.000;    0.000
409.692; 1541.025;    0.000;    0.000
409.747; 1531.025;    0.000;    0.000
409.802; 1572.025;    0.000;    0.000
409.857; 1520.025;    0.000;    0.000
409.912; 1577.025;    0.000;    0.000
409.967; 1529.025;    0.000;    0.000
410.022; 1512.025;    0.000;    0.000
410.077; 1522.025;    0.000;    0.000
410.132; 1564.025;    0.000;    0.000
410.187; 1501.025;    0.000;    0.000
410.242; 1549.025;    0.000;    0.000
410.297; 1508.025;    0.000;    0.000
410.351; 1541.025;    0.000;    0.000
410.406; 1502.025;    0.000;    0.000
410.461; 1539.025;    0.000;    0.000
410.516; 1565.025;    0.000;    0.000
410.571; 1586.025;    0.000;    0.000
410.626; 1515.025;    0.000;    0.000
410.681; 1591.025;    0.000;    0.000
410.736; 1514.025;    0.000;    0.000
410.790; 1541.025;    0.000;    0.000
410.845; 1567.025;    0.000;    0.000
410.900; 1562.025;    0.000;    0.000
410.955; 1572.025;    0.000;    0.000
411.010; 1601.025;    0.000;    0.000
411.064; 1529.025;    0.000;    0.000
411.119; 1490.025;    0.000;    0.000
411.174; 1609.025;    0.000;    0.000
411.229; 1600.025;    0.000;    0.000
411.283; 1535.025;    0.000;    0.000
411.338; 1601.025;    0.000;    0.000
411.393; 1513.025;    0.000;    0.000
411.447; 1579.025;    0.000;    0.000
411.502; 1596.025;    0.000;    0.000
411.557; 1584.025;    0.000;    0.000
411.612; 1591.025;    0.000;    0.000
411.666; 1555.025;    0.000;    0.000
411.721; 1488.025;    0.000;    0.000
411.776; 1612.025;    0.000;    0.000
411.830; 1568.025;    0.000;    0.000
411.885; 1554.025;    0.000;    0.000
411.939; 1580.025;    0.000;    0.000
411.994; 1578.025;    0.000;    0.000
412.049; 1596.025;    0.000;    0.000
412.103; 1596.025;    0.000;    0.000
412.158; 1609.025;    0.000;    0.000
412.212; 1590.025;    0.000;    0.000
412.267; 1551.025;    0.000;    0.000
412.322; 1650.025;    0.000;    0.000
412.376; 1584.025;    0.000;    0.000
412.431; 1573.025;    0.000;    0.000
412.485; 1601.025;    0.000;    0.000
412.540; 1504.025;    0.000;    0.000
412.594; 1561.025;    0.000;    0.000
412.649; 1608.025;    0.000;    0.000
412.703; 1457.025;    0.000;    0.000
412.758; 1589.025;    0.000;    0.000
412.812; 1556.025;    0.000;    0.000
412.866; 1563.025;    0.000;    0.000
412.921; 1472.025;    0.000;    0.000
412.975; 1563.025;    0.000;    0.000
413.030; 1603.025;    0.000;    0.000
413.084; 1566.025;    0.000;    0.000
413.139; 1644.025;    0.000;    0.000
413.193; 1658.025;    0.000;    0.000
413.247; 1574.025;    0.000;    0.000
413.302; 1620.025;    0.000;    0.000
413.356; 1535.025;    0.000;    0.000
413.410; 1566.025;    0.000;    0.000
413.465; 1535.025;    0.000;    0.000
413.519; 1531.025;    0.000;    0.000
413.573; 1594.025;    0.000;    0.000
413.628; 1630.025;    0.000;    0.000
413.682; 1543.025;    0.000;    0.000
413.736; 1584.025;    0.000;    0.000
413.791; 1568.025;    0.000;    0.000
413.845; 1601.025;    0.000;    0.000
413.899; 1501.025;    0.000;    0.000
413.953; 1636.025;    0.000;    0.000
414.008; 1576.025;    0.000;    0.000
414.062; 1606.025;    0.000;    0.000
414.116; 1533.025;    0.000;    0.000
414.170; 1655.025;    0.000;    0.000
414.225; 1540.025;    0.000;    0.000
414.279; 1546.025;    0.000;    0.000
414.333; 1611.025;    0.000;    0.000
414.387; 1645.025;    0.000;    0.000
414.441; 1708.025;    0.000;    0.000
414.496; 1668.025;    0.000;    0.000
414.550; 1613.025;    0.000;    0.000
414.604; 1580.025;    0.000;    0.000
414.658; 1571.025;    0.000;    0.000
414.712; 1632.025;    0.000;    0.000
414.766; 1660.025;    0.000;    0.000
414.820; 1585.025;    0.000;    0.000
414.874; 1616.025;    0.000;    0.000
414.928; 1618.025;    0.000;    0.000
414.982; 1582.025;    0.000;    0.000
415.037; 1534.025;    0.000;    0.000
415.091; 1593.025;    0.000;    0.000
415.145; 1620.025;    0.000;    0.000
415.199; 1645.025;    0.000;    0.000
415.253; 1607.025;    0.000;    0.000
415.307; 1589.025;    0.000;    0.000
415.361; 1587.025;    0.000;    0.000
415.415; 1626.025;    0.000;    0.000
415.469; 1691.025;    0.000;    0.000
415.523; 1580.025;    0.000;    0.000
415.577; 1581.025;    0.000;    0.000
415.631; 1646.025;    0.000;    0.000
415.684; 1639.025;    0.000;    0.000
415.738; 1640.025;    0.000;    0.000
415.792; 1620.025;    0.000;    0.000
415.846; 1623.025;    0.000;    0.000
415.900; 1621.025;    0.000;    0.000
415.954; 1648.025;    0.000;    0.000
416.008; 1642.025;    0.000;    0.000
416.062; 1548.025;    0.000;    0.000
416.116; 1578.025;    0.000;    0.000
416.169; 1559.025;    0.000;    0.000
416.223; 1634.025;    0.000;    0.000
416.277; 1575.025;    0.000;    0.000
416.331; 1574.025;    0.000;    0.000
416.385; 1619.025;    0.000;    0.000
416.439; 1626.025;    0.000;    0.000
416.492; 1649.025;    0.000;    0.000
416.546; 1614.025;    0.000;    0.000
416.600; 1593.025;    0.000;    0.000
416.654; 1650.025;    0.000;    0.000
416.707; 1659.025;    0.000;    0.000
416.761; 1651.025;    0.000;    0.000
416.815; 1565.025;    0.000;    0.000
416.869; 1623.025;    0.000;    0.000
416.922; 1589.025;    0.000;    0.000
416.976; 1614.025;    0.000;    0.000
417.030; 1584.025;    0.000;    0.000
417.083; 1565.025;    0.000;    0.000
417.137; 1604.025;    0.000;    0.000
417.191; 1593.025;    0.000;    0.000
417.244; 1677.025;    0.000;    0.000
417.298; 1594.025;    0.000;    0.000
417.352; 1541.025;    0.000;    0.000
417.405; 1654.025;    0.000;    0.000
417.459; 1581.025;    0.000;    0.000
417.512; 1621.025;    0.000;    0.000
417.566; 1601.025;    0.000;    0.000
417.620; 1629.025;    0.000;    0.000
417.673; 1603.025;    0.000;    0.000
417.727; 1657.025;    0.000;    0.000
417.780; 1599.025;    0.000;    0.000
417.834; 1595.025;    0.000;    0.000
417.887; 1685.025;    0.000;    0.000
417.941; 1602.025;    0.000;    0.000
417.994; 1683.025;    0.000;    0.000
418.048; 1608.025;    0.000;    0.000
418.101; 1570.025;    0.000;    0.000
418.155; 1655.025;    0.000;    0.000
418.208; 1619.025;    0.000;    0.000
418.262; 1700.025;    0.000;    0.000
418.315; 1606.025;    0.000;    0.000
418.369; 1601.025;    0.000;    0.000
418.422; 1648.025;    0.000;    0.000
418.476; 1634.025;    0.000;    0.000
418.529; 1600.025;    0.000;    0.000
418.582; 1643.025;    0.000;    0.000
418.636; 1615.025;    0.000;    0.000
418.689; 1600.025;    0.000;    0.000
418.743; 1583.025;    0.000;    0.000
418.796; 1648.025;    0.000;    0.000
418.849; 1658.025;    0.000;    0.000
418.903; 1716.025;    0.000;    0.000
418.956; 1638.025;    0.000;    0.000
419.009; 1692.025;    0.000;    0.000
419.063; 1524.025;    0.000;    0.000
419.116; 1661.025;    0.000;    0.000
419.169; 1624.025;    0.000;    0.000
419.222; 1561.025;    0.000;    0.000
419.276; 1648.025;    0.000;    0.000
419.329; 1696.025;    0.000;    0.000
419.382; 1591.025;    0.000;    0.000
419.435; 1674.025;    0.000;    0.000
419.489; 1633.025;    0.000;    0.000
419.542; 1574.025;    0.000;    0.000
419.595; 1656.025;    0.000;    0.000
419.648; 1668.025;    0.000;    0.000
419.701; 1597.025;    0.000;    0.000
419.755; 1547.025;    0.000;    0.000
419.808; 1633.025;    0.000;    0.000
419.861; 1568.025;    0.000;    0.000
419.914; 1580.025;    0.000;    0.000
419.967; 1611.025;    0.000;    0.000
420.020; 1562.025;    0.000;    0.000
420.073; 1619.025;    0.000;    0.000
420.127; 1570.025;    0.000;    0.000
420.180; 1622.025;    0.000;    0.000
420.233; 1620.025;    0.000;    0.000
420.286; 1567.025;    0.000;    0.000
420.339; 1604.025;    0.000;    0.000
420.392; 1609.025;    0.000;    0.000
420.445; 1525.025;    0.000;    0.000
420.498; 1596.025;    0.000;    0.000
420.551; 1558.025;    0.000;    0.000
420.604; 1614.025;    0.000;    0.000
420.657; 1589.025;    0.000;    0.000
420.710; 1565.025;    0.000;    0.000
420.763; 1586.025;    0.000;    0.000
420.816; 1637.025;    0.000;    0.000
420.869; 1603.025;    0.000;    0.000
420.922; 1531.025;    0.000;    0.000
420.975; 1641.025;    0.000;    0.000
421.028; 1641.025;    0.000;    0.000
421.081; 1531.025;    0.000;    0.000
421.134; 1530.025;    0.000;    0.000
421.187; 1590.025;    0.000;    0.000
421.239; 1579.025;    0.000;    0.000
421.292; 1565.025;    0.000;    0.000
421.345; 1528.025;    0.000;    0.000
421.398; 1595.025;    0.000;    0.000
421.451; 1581.025;    0.000;    0.000
421.504; 1526.025;    0.000;    0.000
421.557; 1549.025;    0.000;    0.000
421.609; 1558.025;    0.000;    0.000
421.662; 1576.025;    0.000;    0.000
421.715; 1615.025;    0.000;    0.000
421.768; 1531.025;    0.000;    0.000
421.821; 1561.025;    0.000;    0.000
421.873; 1535.025;    0.000;    0.000
421.926; 1580.025;    0.000;    0.000
421.979; 1604.025;    0.000;    0.000
422.032; 1590.025;    0.000;    0.000
422.084; 1609.025;    0.000;    0.000
422.137; 1548.025;    0.000;    0.000
422.190; 1570.025;    0.000;    0.000
422.243; 1564.025;    0.000;    0.000
422.295; 1571.025;    0.000;    0.000
422.348; 1555.025;    0.000;    0.000
422.401; 1584.025;    0.000;    0.000
422.453; 1603.025;    0.000;    0.000
422.506; 1590.025;    0.000;    0.000
422.559; 1536.025;    0.000;    0.000
422.611; 1648.025;    0.000;    0.000
422.664; 1586.025;    0.000;    0.000
422.716; 1554.025;    0.000;    0.000
422.769; 1583.025;    0.000;    0.000
422.822; 1542.025;    0.000;    0.000
422.874; 1542.025;    0.000;    0.000
422.927; 1533.025;    0.000;    0.000
422.979; 1589.025;    0.000;    0.000
423.032; 1548.025;    0.000;    0.000
423.084; 1603.025;    0.000;    0.000
423.137; 1513.025;    0.000;    0.000
423.189; 1577.025;    0.000;    0.000
423.242; 1541.025;    0.000;    0.000
423.294; 1504.025;    0.000;    0.000
423.347; 1532.025;    0.000;    0.000
423.399; 1617.025;    0.000;    0.000
423.452; 1539.025;    0.000;    0.000
423.504; 1621.025;    0.000;    0.000
423.557; 1556.025;    0.000;    0.000
423.609; 1616.025;    0.000;    0.000
423.662; 1605.025;    0.000;    0.000
423.714; 1608.025;    0.000;    0.000
423.766; 1555.025;    0.000;    0.000
423.819; 1544.025;    0.000;    0.000
423.871; 1554.025;    0.000;    0.000
423.923; 1543.025;    0.000;    0.000
423.976; 1540.025;    0.000;    0.000
424.028; 1472.025;    0.000;    0.000
424.081; 1558.025;    0.000;    0.000
424.133; 1483.025;    0.000;    0.000
424.185; 1546.025;    0.000;    0.000
424.238; 1594.025;    0.000;    0.000
424.290; 1524.025;    0.000;    0.000
424.342; 1517.025;    0.000;    0.000
424.394; 1466.025;    0.000;    0.000
424.447; 1553.025;    0.000;    0.000
424.499; 1589.025;    0.000;    0.000
424.551; 1540.025;    0.000;    0.000
424.603; 1587.025;    0.000;    0.000
424.656; 1641.025;    0.000;    0.000
424.708; 1629.025;    0.000;    0.000
424.760; 1487.025;    0.000;    0.000
424.812; 1588.025;    0.000;    0.000
424.864; 1564.025;    0.000;    0.000
424.917; 1527.025;    0.000;    0.000
424.969; 1585.025;    0.000;    0.000
425.021; 1498.025;    0.000;    0.000
425.073; 1520.025;    0.000;    0.000
425.125; 1564.025;    0.000;    0.000
425.177; 1534.025;    0.000;    0.000
425.229; 1545.025;    0.000;    0.000
425.282; 1543.025;    0.000;    0.000
425.334; 1558.025;    0.000;    0.000
425.386; 1592.025;    0.000;    0.000
425.438; 1507.025;    0.000;    0.000
425.490; 1535.025;    0.000;    0.000
425.542; 1552.025;    0.000;    0.000
425.594; 1453.025;    0.000;    0.000
425.646; 1492.025;    0.000;    0.000
425.698; 1510.025;    0.000;    0.000
425.750; 1506.025;    0.000;    0.000
425.802; 1540.025;    0.000;    0.000
425.854; 1573.025;    0.000;    0.000
425.906; 1520.025;    0.000;    0.000
425.958; 1545.025;    0.000;    0.000
426.010; 1505.025;    0.000;    0.000
426.062; 1516.025;    0.000;    0.000
426.114; 1517.025;    0.000;    0.000
426.166; 1522.025;    0.000;    0.000
426.218; 1543.025;    0.000;    0.000
426.270; 1541.025;    0.000;    0.000
426.321; 1480.025;    0.000;    0.000
426.373; 1485.025;    0.000;    0.000
426.425; 1479.025;    0.000;    0.000
426.477; 1512.025;    0.000;    0.000
426.529; 1497.025;    0.000;    0.000
426.581; 1456.025;    0.000;    0.000
426.633; 1517.025;    0.000;    0.000
426.684; 1456.025;    0.000;    0.000
426.736; 1490.025;    0.000;    0.000
426.788; 1531.025;    0.000;    0.000
426.840; 1494.025;    0.000;    0.000
426.892; 1523.025;    0.000;    0.000
426.943; 1460.025;    0.000;    0.000
426.995; 1495.025;    0.000;    0.000
427.047; 1438.025;    0.000;    0.000
427.099; 1553.025;    0.000;    0.000
427.150; 1476.025;    0.000;    0.000
427.202; 1500.025;    0.000;    0.000
427.254; 1480.025;    0.000;    0.000
427.306; 1451.025;    0.000;    0.000
427.357; 1463.025;    0.000;    0.000
427.409; 1496.025;    0.000;    0.000
427.461; 1466.025;    0.000;    0.000
427.512; 1486.025;    0.000;    0.000
427.564; 1470.025;    0.000;    0.000
427.616; 1492.025;    0.000;    0.000
427.667; 1480.025;    0.000;    0.000
427.719; 1447.025;    0.000;    0.000
427.770; 1481.025;    0.000;    0.000
427.822; 1525.025;    0.000;    0.000
427.874; 1438.025;    0.000;    0.000
427.925; 1458.025;    0.000;    0.000
427.977; 1450.025;    0.000;    0.000
428.028; 1489.025;    0.000;    0.000
428.080; 1507.025;    0.000;    0.000
428.131; 1441.025;    0.000;    0.000
428.183; 1457.025;    0.000;    0.000
428.234; 1437.025;    0.000;    0.000
428.286; 1451.025;    0.000;    0.000
428.337; 1422.025;    0.000;    0.000
428.389; 1509.025;    0.000;    0.000
428.440; 1519.025;    0.000;    0.000
428.492; 1511.025;    0.000;    0.000
428.543; 1368.025;    0.000;    0.000
428.595; 1501.025;    0.000;    0.000
428.646; 1505.025;    0.000;    0.000
428.697; 1438.025;    0.000;    0.000
428.749; 1462.025;    0.000;    0.000
428.800; 1486.025;    0.000;    0.000
428.852; 1477.025;    0.000;    0.000
428.903; 1481.025;    0.000;    0.000
428.954; 1489.025;    0.000;    0.000
429.006; 1469.025;    0.000;    0.000
429.057; 1479.025;    0.000;    0.000
429.108; 1431.025;    0.000;    0.000
429.160; 1471.025;    0.000;    0.000
429.211; 1461.025;    0.000;    0.000
429.262; 1475.025;    0.000;    0.000
429.314; 1460.025;    0.000;    0.000
429.365; 1458.025;    0.000;    0.000
429.416; 1498.025;    0.000;    0.000
429.467; 1427.025;    0.000;    0.000
429.519; 1368.025;    0.000;    0.000
429.570; 1388.025;    0.000;    0.000
429.621; 1505.025;    0.000;    0.000
429.672; 1397.025;    0.000;    0.000
429.724; 1426.025;    0.000;    0.000
429.775; 1426.025;    0.000;    0.000
429.826; 1382.025;    0.000;    0.000
429.877; 1447.025;    0.000;    0.000
429.928; 1403.025;    0.000;    0.000
429.980; 1435.025;    0.000;    0.000
430.031; 1475.025;    0.000;    0.000
430.082; 1463.025;    0.000;    0.000
430.133; 1484.025;    0.000;    0.000
430.184; 1430.025;    0.000;    0.000
430.235; 1430.025;    0.000;    0.000
430.286; 1422.025;    0.000;    0.000
430.337; 1406.025;    0.000;    0.000
430.388; 1400.025;    0.000;    0.000
430.439; 1431.025;    0.000;    0.000
430.490; 1459.025;    0.000;    0.000
430.542; 1389.025;    0.000;    0.000
430.593; 1419.025;    0.000;    0.000
430.644; 1370.025;    0.000;    0.000
430.695; 1422.025;    0.000;    0.000
430.746; 1450.025;    0.000;    0.000
430.797; 1397.025;    0.000;    0.000
430.848; 1438.025;    0.000;    0.000
430.898; 1411.025;    0.000;    0.000
430.949; 1403.025;    0.000;    0.000
431.000; 1433.025;    0.000;    0.000
431.051; 1421.025;    0.000;    0.000
431.102; 1337.025;    0.000;    0.000
431.153; 1376.025;    0.000;    0.000
431.204; 1448.025;    0.000;    0.000
431.255; 1363.025;    0.000;    0.000
431.306; 1401.025;    0.000;    0.000
431.357; 1417.025;    0.000;    0.000
431.408; 1442.025;    0.000;    0.000
431.458; 1452.025;    0.000;    0.000
431.509; 1350.025;    0.000;    0.000
431.560; 1497.025;    0.000;    0.000
431.611; 1465.025;    0.000;    0.000
431.662; 1433.025;    0.000;    0.000
431.713; 1444.025;    0.000;    0.000
431.763; 1437.025;    0.000;    0.000
431.814; 1427.025;    0.000;    0.000
431.865; 1401.025;    0.000;    0.000
431.916; 1359.025;    0.000;    0.000
431.966; 1356.025;    0.000;    0.000
432.017; 1421.025;    0.000;    0.000
432.068; 1486.025;    0.000;    0.000
432.118; 1479.025;    0.000;    0.000
432.169; 1442.025;    0.000;    0.000
432.220; 1454.025;    0.000;    0.000
432.271; 1361.025;    0.000;    0.000
432.321; 1449.025;    0.000;    0.000
432.372; 1390.025;    0.000;    0.000
432.423; 1401.025;    0.000;    0.000
432.473; 1393.025;    0.000;    0.000
432.524; 1401.025;    0.000;    0.000
432.574; 1449.025;    0.000;    0.000
432.625; 1431.025;    0.000;    0.000
432.676; 1403.025;    0.000;    0.000
432.726; 1465.025;    0.000;    0.000
432.777; 1411.025;    0.000;    0.000
432.827; 1433.025;    0.000;    0.000
432.878; 1400.025;    0.000;    0.000
432.928; 1414.025;    0.000;    0.000
432.979; 1385.025;    0.000;    0.000
433.029; 1378.025;    0.000;    0.000
433.080; 1379.025;    0.000;    0.000
433.130; 1424.025;    0.000;    0.000
433.181; 1457.025;    0.000;    0.000
433.231; 1455.025;    0.000;    0.000
433.282; 1399.025;    0.000;    0.000
433.332; 1448.025;    0.000;    0.000
433.383; 1430.025;    0.000;    0.000
433.433; 1443.025;    0.000;    0.000
433.484; 1468.025;    0.000;    0.000
433.534; 1524.025;    0.000;    0.000
433.585; 1416.025;    0.000;    0.000
433.635; 1467.025;    0.000;    0.000
433.685; 1488.025;    0.000;    0.000
433.736; 1458.025;    0.000;    0.000
433.786; 1462.025;    0.000;    0.000
433.836; 1420.025;    0.000;    0.000
433.887; 1384.025;    0.000;    0.000
433.937; 1482.025;    0.000;    0.000
433.987; 1389.025;    0.000;    0.000
434.038; 1449.025;    0.000;    0.000
434.088; 1424.025;    0.000;    0.000
434.138; 1502.025;    0.000;    0.000
434.189; 1473.025;    0.000;    0.000
434.239; 1393.025;    0.000;    0.000
434.289; 1455.025;    0.000;    0.000
434.339; 1416.025;    0.000;    0.000
434.389; 1451.025;    0.000;    0.000
434.440; 1517.025;    0.000;    0.000
434.490; 1489.025;    0.000;    0.000
434.540; 1476.025;    0.000;    0.000
434.590; 1436.025;    0.000;    0.000
434.640; 1486.025;    0.000;    0.000
434.691; 1459.025;    0.000;    0.000
434.741; 1539.025;    0.000;    0.000
434.791; 1492.025;    0.000;    0.000
434.841; 1446.025;    0.000;    0.000
434.891; 1501.025;    0.000;    0.000
434.941; 1508.025;    0.000;    0.000
434.991; 1418.025;    0.000;    0.000
435.042; 1556.025;    0.000;    0.000
435.092; 1525.025;    0.000;    0.000
435.142; 1465.025;    0.000;    0.000
435.192; 1482.025;    0.000;    0.000
435.242; 1415.025;    0.000;    0.000
435.292; 1476.025;    0.000;    0.000
435.342; 1449.025;    0.000;    0.000
435.392; 1433.025;    0.000;    0.000
435.442; 1437.025;    0.000;    0.000
435.492; 1410.025;    0.000;    0.000
435.542; 1418.025;    0.000;    0.000
435.592; 1457.025;    0.000;    0.000
435.642; 1427.025;    0.000;    0.000
435.692; 1445.025;    0.000;    0.000
435.742; 1427.025;    0.000;    0.000
435.792; 1427.025;    0.000;    0.000
435.842; 1371.025;    0.000;    0.000
435.891; 1390.025;    0.000;    0.000
435.941; 1461.025;    0.000;    0.000
435.991; 1470.025;    0.000;    0.000
436.041; 1404.025;    0.000;    0.000
436.091; 1400.025;    0.000;    0.000
436.141; 1365.025;    0.000;    0.000
436.191; 1397.025;    0.000;    0.000
436.241; 1407.025;    0.000;    0.000
436.290; 1406.025;    0.000;    0.000
436.340; 1422.025;    0.000;    0.000
436.390; 1445.025;    0.000;    0.000
436.440; 1403.025;    0.000;    0.000
436.490; 1358.025;    0.000;    0.000
436.539; 1429.025;    0.000;    0.000
436.589; 1423.025;    0.000;    0.000
436.639; 1359.025;    0.000;    0.000
436.689; 1404.025;    0.000;    0.000
436.738; 1413.025;    0.000;    0.000
436.788; 1439.025;    0.000;    0.000
436.838; 1390.025;    0.000;    0.000
436.887; 1372.025;    0.000;    0.000
436.937; 1414.025;    0.000;    0.000
436.987; 1401.025;    0.000;    0.000
437.036; 1426.025;    0.000;    0.000
437.086; 1389.025;    0.000;    0.000
437.136; 1418.025;    0.000;    0.000
437.185; 1413.025;    0.000;    0.000
437.235; 1419.025;    0.000;    0.000
437.285; 1393.025;    0.000;    0.000
437.334; 1427.025;    0.000;    0.000
437.384; 1343.025;    0.000;    0.000
437.433; 1423.025;    0.000;    0.000
437.483; 1422.025;    0.000;    0.000
437.532; 1353.025;    0.000;    0.000
437.582; 1444.025;    0.000;    0.000
437.631; 1428.025;    0.000;    0.000
437.681; 1428.025;    0.000;    0.000
437.730; 1357.025;    0.000;    0.000
437.780; 1421.025;    0.000;    0.000
437.829; 1386.025;    0.000;    0.000
437.879; 1356.025;    0.000;    0.000
437.928; 1394.025;    0.000;    0.000
437.978; 1401.025;    0.000;    0.000
438.027; 1485.025;    0.000;    0.000
438.077; 1431.025;    0.000;    0.000
438.126; 1358.025;    0.000;    0.000
438.176; 1383.025;    0.000;    0.000
438.225; 1395.025;    0.000;    0.000
438.274; 1383.025;    0.000;    0.000
438.324; 1458.025;    0.000;    0.000
438.373; 1387.025;    0.000;    0.000
438.422; 1374.025;    0.000;    0.000
438.472; 1388.025;    0.000;    0.000
438.521; 1326.025;    0.000;    0.000
438.570; 1357.025;    0.000;    0.000
438.620; 1478.025;    0.000;    0.000
438.669; 1371.025;    0.000;    0.000
438.718; 1370.025;    0.000;    0.000
438.768; 1305.025;    0.000;    0.000
438.817; 1345.025;    0.000;    0.000
438.866; 1365.025;    0.000;    0.000
438.915; 1362.025;    0.000;    0.000
438.965; 1321.025;    0.000;    0.000
439.014; 1339.025;    0.000;    0.000
439.063; 1439.025;    0.000;    0.000
439.112; 1393.025;    0.000;    0.000
439.162; 1421.025;    0.000;    0.000
439.211; 1407.025;    0.000;    0.000
439.260; 1410.025;    0.000;    0.000
439.309; 1396.025;    0.000;    0.000
439.358; 1433.025;    0.000;    0.000
439.407; 1369.025;    0.000;    0.000
439.456; 1440.025;    0.000;    0.000
439.506; 1437.025;    0.000;    0.000
439.555; 1438.025;    0.000;    0.000
439.604; 1449.025;    0.000;    0.000
439.653; 1407.025;    0.000;    0.000
439.702; 1394.025;    0.000;    0.000
439.751; 1377.025;    0.000;    0.000
439.800; 1395.025;    0.000;    0.000
439.849; 1407.025;    0.000;    0.000
439.898; 1338.025;    0.000;    0.000
439.947; 1391.025;    0.000;    0.000
439.996; 1387.025;    0.000;    0.000
440.045; 1384.025;    0.000;    0.000
440.094; 1418.025;    0.000;    0.000
440.143; 1409.025;    0.000;    0.000
440.192; 1428.025;    0.000;    0.000
440.241; 1362.025;    0.000;    0.000
440.290; 1376.025;    0.000;    0.000
440.339; 1347.025;    0.000;    0.000
440.388; 1393.025;    0.000;    0.000
440.437; 1422.025;    0.000;    0.000
440.486; 1395.025;    0.000;    0.000
440.535; 1428.025;    0.000;    0.000
440.583; 1368.025;    0.000;    0.000
440.632; 1475.025;    0.000;    0.000
440.681; 1421.025;    0.000;    0.000
440.730; 1474.025;    0.000;    0.000
440.779; 1444.025;    0.000;    0.000
440.828; 1444.025;    0.000;    0.000
440.876; 1384.025;    0.000;    0.000
440.925; 1445.025;    0.000;    0.000
440.974; 1423.025;    0.000;    0.000
441.023; 1440.025;    0.000;    0.000
441.072; 1460.025;    0.000;    0.000
441.120; 1518.025;    0.000;    0.000
441.169; 1489.025;    0.000;    0.000
441.218; 1470.025;    0.000;    0.000
441.267; 1480.025;    0.000;    0.000
441.315; 1448.025;    0.000;    0.000
441.364; 1449.025;    0.000;    0.000
441.413; 1363.025;    0.000;    0.000
441.461; 1407.025;    0.000;    0.000
441.510; 1470.025;    0.000;    0.000
441.559; 1448.025;    0.000;    0.000
441.607; 1437.025;    0.000;    0.000
441.656; 1470.025;    0.000;    0.000
441.705; 1464.025;    0.000;    0.000
441.753; 1465.025;    0.000;    0.000
441.802; 1458.025;    0.000;    0.000
441.850; 1447.025;    0.000;    0.000
441.899; 1501.025;    0.000;    0.000
441.948; 1534.025;    0.000;    0.000
441.996; 1425.025;    0.000;    0.000
442.045; 1479.025;    0.000;    0.000
442.093; 1468.025;    0.000;    0.000
442.142; 1429.025;    0.000;    0.000
442.190; 1461.025;    0.000;    0.000
442.239; 1513.025;    0.000;    0.000
442.287; 1474.025;    0.000;    0.000
442.336; 1510.025;    0.000;    0.000
442.384; 1425.025;    0.000;    0.000
442.433; 1459.025;    0.000;    0.000
442.481; 1491.025;    0.000;    0.000
442.529; 1499.025;    0.000;    0.000
442.578; 1479.025;    0.000;    0.000
442.626; 1459.025;    0.000;    0.000
442.675; 1462.025;    0.000;    0.000
442.723; 1416.025;    0.000;    0.000
442.771; 1480.025;    0.000;    0.000
442.820; 1452.025;    0.000;    0.000
442.868; 1440.025;    0.000;    0.000
442.917; 1451.025;    0.000;    0.000
442.965; 1436.025;    0.000;    0.000
443.013; 1456.025;    0.000;    0.000
443.062; 1402.025;    0.000;    0.000
443.110; 1438.025;    0.000;    0.000
443.158; 1470.025;    0.000;    0.000
443.206; 1456.025;    0.000;    0.000
443.255; 1498.025;    0.000;    0.000
443.303; 1521.025;    0.000;    0.000
443.351; 1459.025;    0.000;    0.000
443.399; 1383.025;    0.000;    0.000
443.448; 1480.025;    0.000;    0.000
443.496; 1501.025;    0.000;    0.000
443.544; 1449.025;    0.000;    0.000
443.592; 1470.025;    0.000;    0.000
443.640; 1492.025;    0.000;    0.000
443.689; 1460.025;    0.000;    0.000
443.737; 1505.025;    0.000;    0.000
443.785; 1495.025;    0.000;    0.000
443.833; 1543.025;    0.000;    0.000
443.881; 1442.025;    0.000;    0.000
443.929; 1500.025;    0.000;    0.000
443.977; 1519.025;    0.000;    0.000
444.025; 1516.025;    0.000;    0.000
444.074; 1472.025;    0.000;    0.000
444.122; 1505.025;    0.000;    0.000
444.170; 1534.025;    0.000;    0.000
444.218; 1562.025;    0.000;    0.000
444.266; 1486.025;    0.000;    0.000
444.314; 1544.025;    0.000;    0.000
444.362; 1559.025;    0.000;    0.000
444.410; 1483.025;    0.000;    0.000
444.458; 1545.025;    0.000;    0.000
444.506; 1509.025;    0.000;    0.000
444.554; 1562.025;    0.000;    0.000
444.602; 1538.025;    0.000;    0.000
444.650; 1546.025;    0.000;    0.000
444.698; 1533.025;    0.000;    0.000
444.746; 1521.025;    0.000;    0.000
444.793; 1595.025;    0.000;    0.000
444.841; 1547.025;    0.000;    0.000
444.889; 1547.025;    0.000;    0.000
444.937; 1523.025;    0.000;    0.000
444.985; 1543.025;    0.000;    0.000
445.033; 1504.025;    0.000;    0.000
445.081; 1494.025;    0.000;    0.000
445.129; 1508.025;    0.000;    0.000
445.176; 1550.025;    0.000;    0.000
445.224; 1474.025;    0.000;    0.000
445.272; 1514.025;    0.000;    0.000
445.320; 1519.025;    0.000;    0.000
445.368; 1582.025;    0.000;    0.000
445.415; 1573.025;    0.000;    0.000
445.463; 1505.025;    0.000;    0.000
445.511; 1505.025;    0.000;    0.000
445.559; 1518.025;    0.000;    0.000
445.606; 1501.025;    0.000;    0.000
445.654; 1519.025;    0.000;    0.000
445.702; 1455.025;    0.000;    0.000
445.749; 1551.025;    0.000;    0.000
445.797; 1579.025;    0.000;    0.000
445.845; 1521.025;    0.000;    0.000
445.892; 1506.025;    0.000;    0.000
445.940; 1506.025;    0.000;    0.000
445.988; 1492.025;    0.000;    0.000
446.035; 1448.025;    0.000;    0.000
446.083; 1539.025;    0.000;    0.000
446.130; 1493.025;    0.000;    0.000
446.178; 1599.025;    0.000;    0.000
446.226; 1486.025;    0.000;    0.000
446.273; 1516.025;    0.000;    0.000
446.321; 1582.025;    0.000;    0.000
446.368; 1549.025;    0.000;    0.000
446.416; 1492.025;    0.000;    0.000
446.463; 1555.025;    0.000;    0.000
446.511; 1518.025;    0.000;    0.000
446.558; 1527.025;    0.000;    0.000
446.606; 1543.025;    0.000;    0.000
446.653; 1488.025;    0.000;    0.000
446.701; 1526.025;    0.000;    0.000
446.748; 1549.025;    0.000;    0.000
446.796; 1570.025;    0.000;    0.000
446.843; 1644.025;    0.000;    0.000
446.891; 1534.025;    0.000;    0.000
446.938; 1565.025;    0.000;    0.000
446.985; 1633.025;    0.000;    0.000
447.033; 1657.025;    0.000;    0.000
447.080; 1526.025;    0.000;    0.000
447.128; 1577.025;    0.000;    0.000
447.175; 1581.025;    0.000;    0.000
447.222; 1519.025;    0.000;    0.000
447.270; 1617.025;    0.000;    0.000
447.317; 1625.025;    0.000;    0.000
447.364; 1601.025;    0.000;    0.000
447.411; 1599.025;    0.000;    0.000
447.459; 1616.025;    0.000;    0.000
447.506; 1577.025;    0.000;    0.000
447.553; 1651.025;    0.000;    0.000
447.601; 1599.025;    0.000;    0.000
447.648; 1616.025;    0.000;    0.000
447.695; 1698.025;    0.000;    0.000
447.742; 1673.025;    0.000;    0.000
447.789; 1694.025;    0.000;    0.000
447.837; 1754.025;    0.000;    0.000
447.884; 1770.025;    0.000;    0.000
447.931; 1727.025;    0.000;    0.000
447.978; 1739.025;    0.000;    0.000
448.025; 1733.025;    0.000;    0.000
448.072; 1783.025;    0.000;    0.000
448.120; 1759.025;    0.000;    0.000
448.167; 1736.025;    0.000;    0.000
448.214; 1768.025;    0.000;    0.000
448.261; 1725.025;    0.000;    0.000
448.308; 1780.025;    0.000;    0.000
448.355; 1740.025;    0.000;    0.000
448.402; 1702.025;    0.000;    0.000
448.449; 1730.025;    0.000;    0.000
448.496; 1649.025;    0.000;    0.000
448.543; 1624.025;    0.000;    0.000
448.590; 1652.025;    0.000;    0.000
448.637; 1651.025;    0.000;    0.000
448.684; 1677.025;    0.000;    0.000
448.731; 1513.025;    0.000;    0.000
448.778; 1594.025;    0.000;    0.000
448.825; 1582.025;    0.000;    0.000
448.872; 1584.025;    0.000;    0.000
448.919; 1531.025;    0.000;    0.000
448.966; 1621.025;    0.000;    0.000
449.013; 1577.025;    0.000;    0.000
449.060; 1535.025;    0.000;    0.000
449.107; 1516.025;    0.000;    0.000
449.154; 1560.025;    0.000;    0.000
449.200; 1569.025;    0.000;    0.000
449.247; 1591.025;    0.000;    0.000
449.294; 1530.025;    0.000;    0.000
449.341; 1584.025;    0.000;    0.000
449.388; 1572.025;    0.000;    0.000
449.435; 1575.025;    0.000;    0.000
449.481; 1550.025;    0.000;    0.000
449.528; 1577.025;    0.000;    0.000
449.575; 1514.025;    0.000;    0.000
449.622; 1486.025;    0.000;    0.000
449.668; 1598.025;    0.000;    0.000
449.715; 1561.025;    0.000;    0.000
449.762; 1501.025;    0.000;    0.000
449.809; 1565.025;    0.000;    0.000
449.855; 1531.025;    0.000;    0.000
449.902; 1497.025;    0.000;    0.000
449.949; 1585.025;    0.000;    0.000
449.995; 1611.025;    0.000;    0.000
450.042; 1521.025;    0.000;    0.000
450.089; 1584.025;    0.000;    0.000
450.135; 1529.025;    0.000;    0.000
450.182; 1529.025;    0.000;    0.000
450.229; 1454.025;    0.000;    0.000
450.275; 1579.025;    0.000;    0.000
450.322; 1598.025;    0.000;    0.000
450.368; 1485.025;    0.000;    0.000
450.415; 1507.025;    0.000;    0.000
450.462; 1557.025;    0.000;    0.000
450.508; 1530.025;    0.000;    0.000
450.555; 1453.025;    0.000;    0.000
450.601; 1529.025;    0.000;    0.000
450.648; 1576.025;    0.000;    0.000
450.694; 1503.025;    0.000;    0.000
450.741; 1515.025;    0.000;    0.000
450.787; 1543.025;    0.000;    0.000
450.834; 1491.025;    0.000;    0.000
450.880; 1446.025;    0.000;    0.000
450.927; 1516.025;    0.000;    0.000
450.973; 1556.025;    0.000;    0.000
451.019; 1484.025;    0.000;    0.000
451.066; 1496.025;    0.000;    0.000
451.112; 1573.025;    0.000;    0.000
451.159; 1450.025;    0.000;    0.000
451.205; 1448.025;    0.000;    0.000
451.251; 1490.025;    0.000;    0.000
451.298; 1534.025;    0.000;    0.000
451.344; 1495.025;    0.000;    0.000
451.390; 1499.025;    0.000;    0.000
451.437; 1556.025;    0.000;    0.000
451.483; 1515.025;    0.000;    0.000
451.529; 1535.025;    0.000;    0.000
451.576; 1494.025;    0.000;    0.000
451.622; 1416.025;    0.000;    0.000
451.668; 1498.025;    0.000;    0.000
451.714; 1482.025;    0.000;    0.000
451.761; 1498.025;    0.000;    0.000
451.807; 1495.025;    0.000;    0.000
451.853; 1528.025;    0.000;    0.000
451.899; 1445.025;    0.000;    0.000
451.945; 1499.025;    0.000;    0.000
451.992; 1523.025;    0.000;    0.000
452.038; 1466.025;    0.000;    0.000
452.084; 1552.025;    0.000;    0.000
452.130; 1521.025;    0.000;    0.000
452.176; 1554.025;    0.000;    0.000
452.222; 1456.025;    0.000;    0.000
452.268; 1491.025;    0.000;    0.000
452.315; 1492.025;    0.000;    0.000
452.361; 1515.025;    0.000;    0.000
452.407; 1481.025;    0.000;    0.000
452.453; 1446.025;    0.000;    0.000
452.499; 1480.025;    0.000;    0.000
452.545; 1524.025;    0.000;    0.000
452.591; 1498.025;    0.000;    0.000
452.637; 1519.025;    0.000;    0.000
452.683; 1441.025;    0.000;    0.000
452.729; 1464.025;    0.000;    0.000
452.775; 1538.025;    0.000;    0.000
452.821; 1605.025;    0.000;    0.000
452.867; 1502.025;    0.000;    0.000
452.913; 1455.025;    0.000;    0.000
452.959; 1380.025;    0.000;    0.000
453.005; 1495.025;    0.000;    0.000
453.051; 1415.025;    0.000;    0.000
453.097; 1471.025;    0.000;    0.000
453.142; 1534.025;    0.000;    0.000
453.188; 1560.025;    0.000;    0.000
453.234; 1460.025;    0.000;    0.000
453.280; 1462.025;    0.000;    0.000
453.326; 1470.025;    0.000;    0.000
453.372; 1483.025;    0.000;    0.000
453.418; 1482.025;    0.000;    0.000
453.463; 1542.025;    0.000;    0.000
453.509; 1435.025;    0.000;    0.000
453.555; 1517.025;    0.000;    0.000
453.601; 1504.025;    0.000;    0.000
453.647; 1587.025;    0.000;    0.000
453.692; 1473.025;    0.000;    0.000
453.738; 1478.025;    0.000;    0.000
453.784; 1473.025;    0.000;    0.000
453.829; 1484.025;    0.000;    0.000
453.875; 1470.025;    0.000;    0.000
453.921; 1517.025;    0.000;    0.000
453.967; 1461.025;    0.000;    0.000
454.012; 1489.025;    0.000;    0.000
454.058; 1468.025;    0.000;    0.000
454.104; 1499.025;    0.000;    0.000
454.149; 1473.025;    0.000;    0.000
454.195; 1447.025;    0.000;    0.000
454.240; 1479.025;    0.000;    0.000
454.286; 1464.025;    0.000;    0.000
454.332; 1506.025;    0.000;    0.000
454.377; 1471.025;    0.000;    0.000
454.423; 1512.025;    0.000;    0.000
454.468; 1472.025;    0.000;    0.000
454.514; 1456.025;    0.000;    0.000
454.559; 1507.025;    0.000;    0.000
454.605; 1466.025;    0.000;    0.000
454.650; 1492.025;    0.000;    0.000
454.696; 1472.025;    0.000;    0.000
454.741; 1550.025;    0.000;    0.000
454.787; 1486.025;    0.000;    0.000
454.832; 1445.025;    0.000;    0.000
454.878; 1480.025;    0.000;    0.000
454.923; 1492.025;    0.000;    0.000
454.969; 1517.025;    0.000;    0.000
455.014; 1471.025;    0.000;    0.000
455.060; 1461.025;    0.000;    0.000
455.105; 1530.025;    0.000;    0.000
455.150; 1484.025;    0.000;    0.000
455.196; 1503.025;    0.000;    0.000
455.241; 1540.025;    0.000;    0.000
455.286; 1497.025;    0.000;    0.000
455.332; 1437.025;    0.000;    0.000
455.377; 1500.025;    0.000;    0.000
455.422; 1460.025;    0.000;    0.000
455.468; 1458.025;    0.000;    0.000
455.513; 1583.025;    0.000;    0.000
455.558; 1427.025;    0.000;    0.000
455.604; 1446.025;    0.000;    0.000
455.649; 1464.025;    0.000;    0.000
455.694; 1499.025;    0.000;    0.000
455.739; 1568.025;    0.000;    0.000
455.785; 1526.025;    0.000;    0.000
455.830; 1573.025;    0.000;    0.000
455.875; 1530.025;    0.000;    0.000
455.920; 1514.025;    0.000;    0.000
455.965; 1520.025;    0.000;    0.000
456.010; 1471.025;    0.000;    0.000
456.056; 1533.025;    0.000;    0.000
456.101; 1451.025;    0.000;    0.000
456.146; 1511.025;    0.000;    0.000
456.191; 1522.025;    0.000;    0.000
456.236; 1530.025;    0.000;    0.000
456.281; 1509.025;    0.000;    0.000
456.326; 1490.025;    0.000;    0.000
456.371; 1504.025;    0.000;    0.000
456.416; 1525.025;    0.000;    0.000
456.461; 1551.025;    0.000;    0.000
456.507; 1467.025;    0.000;    0.000
456.552; 1555.025;    0.000;    0.000
456.597; 1552.025;    0.000;    0.000
456.642; 1471.025;    0.000;    0.000
456.687; 1512.025;    0.000;    0.000
456.732; 1542.025;    0.000;    0.000
456.776; 1542.025;    0.000;    0.000
456.821; 1490.025;    0.000;    0.000
456.866; 1518.025;    0.000;    0.000
456.911; 1456.025;    0.000;    0.000
456.956; 1545.025;    0.000;    0.000
457.001; 1545.025;    0.000;    0.000
457.046; 1531.025;    0.000;    0.000
457.091; 1467.025;    0.000;    0.000
457.136; 1464.025;    0.000;    0.000
457.181; 1483.025;    0.000;    0.000
457.225; 1553.025;    0.000;    0.000
457.270; 1534.025;    0.000;    0.000
457.315; 1512.025;    0.000;    0.000
457.360; 1478.025;    0.000;    0.000
457.405; 1516.025;    0.000;    0.000
457.450; 1509.025;    0.000;    0.000
457.494; 1547.025;    0.000;    0.000
457.539; 1578.025;    0.000;    0.000
457.584; 1503.025;    0.000;    0.000
457.629; 1516.025;    0.000;    0.000
457.673; 1463.025;    0.000;    0.000
457.718; 1538.025;    0.000;    0.000
457.763; 1581.025;    0.000;    0.000
457.807; 1590.025;    0.000;    0.000
457.852; 1560.025;    0.000;    0.000
457.897; 1514.025;    0.000;    0.000
457.941; 1619.025;    0.000;    0.000
457.986; 1523.025;    0.000;    0.000
458.031; 1535.025;    0.000;    0.000
458.075; 1542.025;    0.000;    0.000
458.120; 1601.025;    0.000;    0.000
458.165; 1508.025;    0.000;    0.000
458.209; 1542.025;    0.000;    0.000
458.254; 1478.025;    0.000;    0.000
458.298; 1539.025;    0.000;    0.000
458.343; 1531.025;    0.000;    0.000
458.387; 1542.025;    0.000;    0.000
458.432; 1537.025;    0.000;    0.000
458.476; 1585.025;    0.000;    0.000
458.521; 1610.025;    0.000;    0.000
458.565; 1538.025;    0.000;    0.000
458.610; 1671.025;    0.000;    0.000
458.654; 1581.025;    0.000;    0.000
458.699; 1637.025;    0.000;    0.000
458.743; 1521.025;    0.000;    0.000
458.788; 1637.025;    0.000;    0.000
458.832; 1570.025;    0.000;    0.000
458.877; 1639.025;    0.000;    0.000
458.921; 1557.025;    0.000;    0.000
458.965; 1575.025;    0.000;    0.000
459.010; 1617.025;    0.000;    0.000
459.054; 1649.025;    0.000;    0.000
459.099; 1642.025;    0.000;    0.000
459.143; 1659.025;    0.000;    0.000
459.187; 1592.025;    0.000;    0.000
459.231; 1603.025;    0.000;    0.000
459.276; 1591.025;    0.000;    0.000
459.320; 1625.025;    0.000;    0.000
459.364; 1584.025;    0.000;    0.000
459.409; 1566.025;    0.000;    0.000
459.453; 1642.025;    0.000;    0.000
459.497; 1724.025;    0.000;    0.000
459.541; 1691.025;    0.000;    0.000
459.586; 1586.025;    0.000;    0.000
459.630; 1659.025;    0.000;    0.000
459.674; 1687.025;    0.000;    0.000
459.718; 1650.025;    0.000;    0.000
459.762; 1660.025;    0.000;    0.000
459.807; 1679.025;    0.000;    0.000
459.851; 1630.025;    0.000;    0.000
459.895; 1740.025;    0.000;    0.000
459.939; 1669.025;    0.000;    0.000
459.983; 1622.025;    0.000;    0.000
460.027; 1648.025;    0.000;    0.000
460.071; 1665.025;    0.000;    0.000
460.115; 1710.025;    0.000;    0.000
460.159; 1701.025;    0.000;    0.000
460.204; 1613.025;    0.000;    0.000
460.248; 1660.025;    0.000;    0.000
460.292; 1705.025;    0.000;    0.000
460.336; 1691.025;    0.000;    0.000
460.380; 1709.025;    0.000;    0.000
460.424; 1691.025;    0.000;    0.000
460.468; 1708.025;    0.000;    0.000
460.512; 1693.025;    0.000;    0.000
460.556; 1740.025;    0.000;    0.000
460.599; 1687.025;    0.000;    0.000
460.643; 1652.025;    0.000;    0.000
460.687; 1656.025;    0.000;    0.000
460.731; 1667.025;    0.000;    0.000
460.775; 1732.025;    0.000;    0.000
460.819; 1736.025;    0.000;    0.000
460.863; 1648.025;    0.000;    0.000
460.907; 1602.025;    0.000;    0.000
460.951; 1664.025;    0.000;    0.000
460.995; 1688.025;    0.000;    0.000
461.038; 1712.025;    0.000;    0.000
461.082; 1696.025;    0.000;    0.000
461.126; 1705.025;    0.000;    0.000
461.170; 1684.025;    0.000;    0.000
461.214; 1594.025;    0.000;    0.000
461.257; 1692.025;    0.000;    0.000
461.301; 1682.025;    0.000;    0.000
461.345; 1757.025;    0.000;    0.000
461.389; 1658.025;    0.000;    0.000
461.432; 1691.025;    0.000;    0.000
461.476; 1624.025;    0.000;    0.000
461.520; 1723.025;    0.000;    0.000
461.563; 1711.025;    0.000;    0.000
461.607; 1645.025;    0.000;    0.000
461.651; 1584.025;    0.000;    0.000
461.694; 1632.025;    0.000;    0.000
461.738; 1724.025;    0.000;    0.000
461.782; 1708.025;    0.000;    0.000
461.825; 1667.025;    0.000;    0.000
461.869; 1694.025;    0.000;    0.000
461.913; 1736.025;    0.000;    0.000
461.956; 1772.025;    0.000;    0.000
462.000; 1774.025;    0.000;    0.000
462.043; 1716.025;    0.000;    0.000
462.087; 1693.025;    0.000;    0.000
462.130; 1760.025;    0.000;    0.000
462.174; 1738.025;    0.000;    0.000
462.217; 1741.025;    0.000;    0.000
462.261; 1726.025;    0.000;    0.000
462.304; 1751.025;    0.000;    0.000
462.348; 1778.025;    0.000;    0.000
462.391; 1777.025;    0.000;    0.000
462.435; 1741.025;    0.000;    0.000
462.478; 1665.025;    0.000;    0.000
462.522; 1732.025;    0.000;    0.000
462.565; 1809.025;    0.000;    0.000
462.608; 1803.025;    0.000;    0.000
462.652; 1783.025;    0.000;    0.000
462.695; 1789.025;    0.000;    0.000
462.739; 1804.025;    0.000;    0.000
462.782; 1823.025;    0.000;    0.000
462.825; 1794.025;    0.000;    0.000
462.869; 1924.025;    0.000;    0.000
462.912; 1851.025;    0.000;    0.000
462.955; 1768.025;    0.000;    0.000
462.998; 1772.025;    0.000;    0.000
463.042; 1821.025;    0.000;    0.000
463.085; 1802.025;    0.000;    0.000
463.128; 1846.025;    0.000;    0.000
463.172; 1672.025;    0.000;    0.000
463.215;  406.025;    0.000;    0.000
463.258;  357.025;    0.000;    0.000
463.301;  315.025;    0.000;    0.000
463.344;  343.025;    0.000;    0.000
463.388;  338.025;    0.000;    0.000
463.431;  311.025;    0.000;    0.000
463.474;  369.025;    0.000;    0.000
463.517;  324.025;    0.000;    0.000
463.560;  358.025;    0.000;    0.000
463.603;  355.025;    0.000;    0.000
463.646;  328.025;    0.000;    0.000
463.690;  355.025;    0.000;    0.000
463.733;  352.025;    0.000;    0.000
463.776;  319.025;    0.000;    0.000
463.819;  332.025;    0.000;    0.000
463.862;  292.025;    0.000;    0.000

