
Integration time [ms]:   1.000
Averaging Nr. [scans]: 1
Smoothing Nr. [pixels]: 0
Data measured with spectrometer [name]: NIR
Wave   ;Sample   ;Dark     ;Reference
[nm]   ;[counts] ;[counts] ;[counts] 

691.496;   68.150;    0.000;    0.000
691.696;  112.150;    0.000;    0.000
691.896;   46.150;    0.000;    0.000
692.096;   97.150;    0.000;    0.000
692.296;   60.150;    0.000;    0.000
692.496;   72.150;    0.000;    0.000
692.695;   62.150;    0.000;    0.000
692.895;  101.150;    0.000;    0.000
693.095;   76.150;    0.000;    0.000
693.295;  102.150;    0.000;    0.000
693.495;   92.150;    0.000;    0.000
693.695;   81.150;    0.000;    0.000
693.894;   82.150;    0.000;    0.000
694.094;   82.150;    0.000;    0.000
694.294;   45.150;    0.000;    0.000
694.494;  242.150;    0.000;    0.000
694.693; 1822.150;    0.000;    0.000
694.893; 2059.150;    0.000;    0.000
695.093; 2009.150;    0.000;    0.000
695.293; 2030.150;    0.000;    0.000
695.492; 2037.150;    0.000;    0.000
695.692; 1987.150;    0.000;    0.000
695.891; 2059.150;    0.000;    0.000
696.091; 2044.150;    0.000;    0.000
696.291; 2033.150;    0.000;    0.000
696.490; 2098.150;    0.000;    0.000
696.690; 2111.150;    0.000;    0.000
696.889; 2021.150;    0.000;    0.000
697.089; 2024.150;    0.000;    0.000
697.288; 2070.150;    0.000;    0.000
697.488; 2023.150;    0.000;    0.000
697.687; 2011.150;    0.000;    0.000
697.887; 2134.150;    0.000;    0.000
698.086; 2070.150;    0.000;    0.000
698.286; 2171.150;    0.000;    0.000
698.485; 2137.150;    0.000;    0.000
698.684; 2135.150;    0.000;    0.000
698.884; 2163.150;    0.000;    0.000
699.083; 2111.150;    0.000;    0.000
699.282; 2149.150;    0.000;    0.000
699.482; 2160.150;    0.000;    0.000
699.681; 2167.150;    0.000;    0.000
699.880; 2189.150;    0.000;    0.000
700.080; 2161.150;    0.000;    0.000
700.279; 2146.150;    0.000;    0.000
700.478; 2178.150;    0.000;    0.000
700.677; 2193.150;    0.000;    0.000
700.877; 2250.150;    0.000;    0.000
701.076; 2216.150;    0.000;    0.000
701.275; 2215.150;    0.000;    0.000
701.474; 2253.150;    0.000;    0.000
701.673; 2194.150;    0.000;    0.000
701.872; 2229.150;    0.000;    0.000
702.071; 2208.150;    0.000;    0.000
702.271; 2179.150;    0.000;    0.000
702.470; 2194.150;    0.000;    0.000
702.669; 2267.150;    0.000;    0.000
702.868; 2256.150;    0.000;    0.000
703.067; 2190.150;    0.000;    0.000
703.266; 2263.150;    0.000;    0.000
703.465; 2293.150;    0.000;    0.000
703.664; 2329.150;    0.000;    0.000
703.863; 2232.150;    0.000;    0.000
704.062; 2191.150;    0.000;    0.000
704.260; 2235.150;    0.000;    0.000
704.459; 2282.150;    0.000;    0.000
704.658; 2254.150;    0.000;    0.000
704.857; 2308.150;    0.000;    0.000
705.056; 2291.150;    0.000;    0.000
705.255; 2171.150;    0.000;    0.000
705.454; 2269.150;    0.000;    0.000
705.652; 2373.150;    0.000;    0.000
705.851; 2348.150;    0.000;    0.000
706.050; 2389.150;    0.000;    0.000
706.249; 2261.150;    0.000;    0.000
706.447; 2298.150;    0.000;    0.000
706.646; 2230.150;    0.000;    0.000
706.845; 2388.150;    0.000;    0.000
707.043; 2368.150;    0.000;    0.000
707.242; 2372.150;    0.000;    0.000
707.441; 2315.150;    0.000;    0.000
707.639; 2371.150;    0.000;    0.000
707.838; 2382.150;    0.000;    0.000
708.037; 2392.150;    0.000;    0.000
708.235; 2412.150;    0.000;    0.000
708.434; 2401.150;    0.000;    0.000
708.632; 2317.150;    0.000;    0.000
708.831; 2433.150;    0.000;    0.000
709.029; 2410.150;    0.000;    0.000
709.228; 2416.150;    0.000;    0.000
709.426; 2410.150;    0.000;    0.000
709.625; 2442.150;    0.000;    0.000
709.823; 2478.150;    0.000;    0.000
710.022; 2485.150;    0.000;    0.000
710.220; 2472.150;    0.000;    0.000
710.418; 2463.150;    0.000;    0.000
710.617; 2463.150;    0.000;    0.000
710.815; 2525.150;    0.000;    0.000
711.013; 2488.150;    0.000;    0.000
711.212; 2522.150;    0.000;    0.000
711.410; 2445.150;    0.000;    0.000
711.608; 2621.150;    0.000;    0.000
711.807; 2496.150;    0.000;    0.000
712.005; 2488.150;    0.000;    0.000
712.203; 2489.150;    0.000;    0.000
712.401; 2624.150;    0.000;    0.000
712.599; 2540.150;    0.000;    0.000
712.798; 2560.150;    0.000;    0.000
712.996; 2530.150;    0.000;    0.000
713.194; 2522.150;    0.000;    0.000
713.392; 2460.150;    0.000;    0.000
713.590; 2590.150;    0.000;    0.000
713.788; 2636.150;    0.000;    0.000
713.986; 2627.150;    0.000;    0.000
714.184; 2677.150;    0.000;    0.000
714.382; 2676.150;    0.000;    0.000
714.580; 2657.150;    0.000;    0.000
714.778; 2730.150;    0.000;    0.000
714.976; 2733.150;    0.000;    0.000
715.174; 2746.150;    0.000;    0.000
715.372; 2840.150;    0.000;    0.000
715.570; 2898.150;    0.000;    0.000
715.768; 2991.150;    0.000;    0.000
715.966; 3042.150;    0.000;    0.000
716.164; 3093.150;    0.000;    0.000
716.362; 3094.150;    0.000;    0.000
716.560; 3039.150;    0.000;    0.000
716.758; 2951.150;    0.000;    0.000
716.955; 2895.150;    0.000;    0.000
717.153; 2834.150;    0.000;    0.000
717.351; 2809.150;    0.000;    0.000
717.549; 2897.150;    0.000;    0.000
717.746; 2835.150;    0.000;    0.000
717.944; 2779.150;    0.000;    0.000
718.142; 2849.150;    0.000;    0.000
718.340; 2880.150;    0.000;    0.000
718.537; 2852.150;    0.000;    0.000
718.735; 2903.150;    0.000;    0.000
718.933; 2901.150;    0.000;    0.000
719.130; 2872.150;    0.000;    0.000
719.328; 2898.150;    0.000;    0.000
719.525; 2764.150;    0.000;    0.000
719.723; 2805.150;    0.000;    0.000
719.920; 2872.150;    0.000;    0.000
720.118; 2926.150;    0.000;    0.000
720.316; 2889.150;    0.000;    0.000
720.513; 2760.150;    0.000;    0.000
720.711; 2898.150;    0.000;    0.000
720.908; 2758.150;    0.000;    0.000
721.105; 2893.150;    0.000;    0.000
721.303; 2970.150;    0.000;    0.000
721.500; 2822.150;    0.000;    0.000
721.698; 2941.150;    0.000;    0.000
721.895; 2865.150;    0.000;    0.000
722.092; 2870.150;    0.000;    0.000
722.290; 2937.150;    0.000;    0.000
722.487; 2787.150;    0.000;    0.000
722.684; 2928.150;    0.000;    0.000
722.882; 2820.150;    0.000;    0.000
723.079; 2881.150;    0.000;    0.000
723.276; 2910.150;    0.000;    0.000
723.473; 2935.150;    0.000;    0.000
723.671; 2890.150;    0.000;    0.000
723.868; 2886.150;    0.000;    0.000
724.065; 2982.150;    0.000;    0.000
724.262; 2985.150;    0.000;    0.000
724.459; 2885.150;    0.000;    0.000
724.656; 2935.150;    0.000;    0.000
724.854; 2983.150;    0.000;    0.000
725.051; 2975.150;    0.000;    0.000
725.248; 3012.150;    0.000;    0.000
725.445; 2926.150;    0.000;    0.000
725.642; 3031.150;    0.000;    0.000
725.839; 2975.150;    0.000;    0.000
726.036; 2935.150;    0.000;    0.000
726.233; 2932.150;    0.000;    0.000
726.430; 3011.150;    0.000;    0.000
726.627; 3055.150;    0.000;    0.000
726.824; 3069.150;    0.000;    0.000
727.021; 3085.150;    0.000;    0.000
727.218; 3042.150;    0.000;    0.000
727.414; 3077.150;    0.000;    0.000
727.611; 2965.150;    0.000;    0.000
727.808; 3024.150;    0.000;    0.000
728.005; 3068.150;    0.000;    0.000
728.202; 3023.150;    0.000;    0.000
728.399; 3082.150;    0.000;    0.000
728.595; 3040.150;    0.000;    0.000
728.792; 2964.150;    0.000;    0.000
728.989; 3078.150;    0.000;    0.000
729.186; 3109.150;    0.000;    0.000
729.382; 3069.150;    0.000;    0.000
729.579; 3076.150;    0.000;    0.000
729.776; 3150.150;    0.000;    0.000
729.972; 3091.150;    0.000;    0.000
730.169; 3112.150;    0.000;    0.000
730.366; 3126.150;    0.000;    0.000
730.562; 3176.150;    0.000;    0.000
730.759; 3239.150;    0.000;    0.000
730.955; 3131.150;    0.000;    0.000
731.152; 3158.150;    0.000;    0.000
731.348; 3193.150;    0.000;    0.000
731.545; 3234.150;    0.000;    0.000
731.741; 3191.150;    0.000;    0.000
731.938; 3263.150;    0.000;    0.000
732.134; 3169.150;    0.000;    0.000
732.331; 3170.150;    0.000;    0.000
732.527; 3149.150;    0.000;    0.000
732.724; 3233.150;    0.000;    0.000
732.920; 3263.150;    0.000;    0.000
733.116; 3200.150;    0.000;    0.000
733.313; 3147.150;    0.000;    0.000
733.509; 3250.150;    0.000;    0.000
733.705; 3302.150;    0.000;    0.000
733.902; 3245.150;    0.000;    0.000
734.098; 3228.150;    0.000;    0.000
734.294; 3265.150;    0.000;    0.000
734.490; 3339.150;    0.000;    0.000
734.687; 3335.150;    0.000;    0.000
734.883; 3324.150;    0.000;    0.000
735.079; 3280.150;    0.000;    0.000
735.275; 3326.150;    0.000;    0.000
735.471; 3293.150;    0.000;    0.000
735.667; 3365.150;    0.000;    0.000
735.863; 3430.150;    0.000;    0.000
736.060; 3294.150;    0.000;    0.000
736.256; 3445.150;    0.000;    0.000
736.452; 3376.150;    0.000;    0.000
736.648; 3390.150;    0.000;    0.000
736.844; 3401.150;    0.000;    0.000
737.040; 3435.150;    0.000;    0.000
737.236; 3442.150;    0.000;    0.000
737.432; 3486.150;    0.000;    0.000
737.628; 3557.150;    0.000;    0.000
737.824; 3506.150;    0.000;    0.000
738.019; 3553.150;    0.000;    0.000
738.215; 3525.150;    0.000;    0.000
738.411; 3521.150;    0.000;    0.000
738.607; 3476.150;    0.000;    0.000
738.803; 3433.150;    0.000;    0.000
738.999; 3588.150;    0.000;    0.000
739.195; 3622.150;    0.000;    0.000
739.390; 3608.150;    0.000;    0.000
739.586; 3646.150;    0.000;    0.000
739.782; 3622.150;    0.000;    0.000
739.978; 3594.150;    0.000;    0.000
740.173; 3603.150;    0.000;    0.000
740.369; 3568.150;    0.000;    0.000
740.565; 3739.150;    0.000;    0.000
740.760; 3753.150;    0.000;    0.000
740.956; 3699.150;    0.000;    0.000
741.152; 3831.150;    0.000;    0.000
741.347; 3796.150;    0.000;    0.000
741.543; 3759.150;    0.000;    0.000
741.738; 3868.150;    0.000;    0.000
741.934; 3913.150;    0.000;    0.000
742.129; 4187.150;    0.000;    0.000
742.325; 4628.150;    0.000;    0.000
742.520; 4783.150;    0.000;    0.000
742.716; 4652.150;    0.000;    0.000
742.911; 4498.150;    0.000;    0.000
743.107; 4511.150;    0.000;    0.000
743.302; 4274.150;    0.000;    0.000
743.498; 4413.150;    0.000;    0.000
743.693; 4454.150;    0.000;    0.000
743.888; 4677.150;    0.000;    0.000
744.084; 5255.150;    0.000;    0.000
744.279; 6017.150;    0.000;    0.000
744.474; 6086.150;    0.000;    0.000
744.670; 5581.150;    0.000;    0.000
744.865; 5326.150;    0.000;    0.000
745.060; 5005.150;    0.000;    0.000
745.255; 4948.150;    0.000;    0.000
745.451; 4811.150;    0.000;    0.000
745.646; 4934.150;    0.000;    0.000
745.841; 4847.150;    0.000;    0.000
746.036; 4912.150;    0.000;    0.000
746.231; 4938.150;    0.000;    0.000
746.426; 5103.150;    0.000;    0.000
746.622; 6003.150;    0.000;    0.000
746.817; 7013.150;    0.000;    0.000
747.012; 7632.150;    0.000;    0.000
747.207; 7069.150;    0.000;    0.000
747.402; 6523.150;    0.000;    0.000
747.597; 5973.150;    0.000;    0.000
747.792; 5796.150;    0.000;    0.000
747.987; 5534.150;    0.000;    0.000
748.182; 5600.150;    0.000;    0.000
748.377; 5361.150;    0.000;    0.000
748.572; 5164.150;    0.000;    0.000
748.767; 5164.150;    0.000;    0.000
748.961; 4929.150;    0.000;    0.000
749.156; 4768.150;    0.000;    0.000
749.351; 4784.150;    0.000;    0.000
749.546; 4650.150;    0.000;    0.000
749.741; 4630.150;    0.000;    0.000
749.936; 4576.150;    0.000;    0.000
750.130; 4552.150;    0.000;    0.000
750.325; 4536.150;    0.000;    0.000
750.520; 4519.150;    0.000;    0.000
750.715; 4567.150;    0.000;    0.000
750.909; 4452.150;    0.000;    0.000
751.104; 4432.150;    0.000;    0.000
751.299; 4480.150;    0.000;    0.000
751.493; 4441.150;    0.000;    0.000
751.688; 4401.150;    0.000;    0.000
751.882; 4378.150;    0.000;    0.000
752.077; 4382.150;    0.000;    0.000
752.272; 4402.150;    0.000;    0.000
752.466; 4350.150;    0.000;    0.000
752.661; 4290.150;    0.000;    0.000
752.855; 4445.150;    0.000;    0.000
753.050; 4267.150;    0.000;    0.000
753.244; 4267.150;    0.000;    0.000
753.439; 4223.150;    0.000;    0.000
753.633; 4235.150;    0.000;    0.000
753.828; 4240.150;    0.000;    0.000
754.022; 4257.150;    0.000;    0.000
754.216; 4199.150;    0.000;    0.000
754.411; 4285.150;    0.000;    0.000
754.605; 4193.150;    0.000;    0.000
754.799; 4276.150;    0.000;    0.000
754.994; 4200.150;    0.000;    0.000
755.188; 4235.150;    0.000;    0.000
755.382; 4276.150;    0.000;    0.000
755.576; 4188.150;    0.000;    0.000
755.771; 4218.150;    0.000;    0.000
755.965; 4226.150;    0.000;    0.000
756.159; 4249.150;    0.000;    0.000
756.353; 4236.150;    0.000;    0.000
756.547; 4260.150;    0.000;    0.000
756.742; 4163.150;    0.000;    0.000
756.936; 4127.150;    0.000;    0.000
757.130; 4240.150;    0.000;    0.000
757.324; 4190.150;    0.000;    0.000
757.518; 4306.150;    0.000;    0.000
757.712; 4313.150;    0.000;    0.000
757.906; 4227.150;    0.000;    0.000
758.100; 4276.150;    0.000;    0.000
758.294; 4313.150;    0.000;    0.000
758.488; 4255.150;    0.000;    0.000
758.682; 4350.150;    0.000;    0.000
758.876; 4275.150;    0.000;    0.000
759.070; 4440.150;    0.000;    0.000
759.264; 4254.150;    0.000;    0.000
759.458; 4281.150;    0.000;    0.000
759.651; 4211.150;    0.000;    0.000
759.845; 4291.150;    0.000;    0.000
760.039; 4350.150;    0.000;    0.000
760.233; 4257.150;    0.000;    0.000
760.427; 4246.150;    0.000;    0.000
760.620; 4305.150;    0.000;    0.000
760.814; 4265.150;    0.000;    0.000
761.008; 4253.150;    0.000;    0.000
761.202; 4316.150;    0.000;    0.000
761.395; 4275.150;    0.000;    0.000
761.589; 4290.150;    0.000;    0.000
761.783; 4378.150;    0.000;    0.000
761.976; 4430.150;    0.000;    0.000
762.170; 4378.150;    0.000;    0.000
762.363; 4457.150;    0.000;    0.000
762.557; 4415.150;    0.000;    0.000
762.750; 4479.150;    0.000;    0.000
762.944; 4481.150;    0.000;    0.000
763.138; 4337.150;    0.000;    0.000
763.331; 4448.150;    0.000;    0.000
763.524; 4463.150;    0.000;    0.000
763.718; 4665.150;    0.000;    0.000
763.911; 4356.150;    0.000;    0.000
764.105; 4350.150;    0.000;    0.000
764.298; 4572.150;    0.000;    0.000
764.492; 4525.150;    0.000;    0.000
764.685; 4422.150;    0.000;    0.000
764.878; 4640.150;    0.000;    0.000
765.072; 4535.150;    0.000;    0.000
765.265; 4716.150;    0.000;    0.000
765.458; 4634.150;    0.000;    0.000
765.651; 4745.150;    0.000;    0.000
765.845; 4888.150;    0.000;    0.000
766.038; 5477.150;    0.000;    0.000
766.231; 8254.150;    0.000;    0.000
766.424;12931.150;    0.000;    0.000
766.617;12040.150;    0.000;    0.000
766.811; 6866.150;    0.000;    0.000
767.004; 5394.150;    0.000;    0.000
767.197; 5031.150;    0.000;    0.000
767.390; 4909.150;    0.000;    0.000
767.583; 4824.150;    0.000;    0.000
767.776; 4741.150;    0.000;    0.000
767.969; 4803.150;    0.000;    0.000
768.162; 4671.150;    0.000;    0.000
768.355; 4758.150;    0.000;    0.000
768.548; 4770.150;    0.000;    0.000
768.741; 4854.150;    0.000;    0.000
768.934; 4867.150;    0.000;    0.000
769.127; 4983.150;    0.000;    0.000
769.320; 5041.150;    0.000;    0.000
769.513; 5685.150;    0.000;    0.000
769.706; 9109.150;    0.000;    0.000
769.898;11333.150;    0.000;    0.000
770.091; 8655.150;    0.000;    0.000
770.284; 5672.150;    0.000;    0.000
770.477; 5280.150;    0.000;    0.000
770.670; 5220.150;    0.000;    0.000
770.862; 5082.150;    0.000;    0.000
771.055; 5091.150;    0.000;    0.000
771.248; 5162.150;    0.000;    0.000
771.441; 5084.150;    0.000;    0.000
771.633; 5116.150;    0.000;    0.000
771.826; 5065.150;    0.000;    0.000
772.018; 5233.150;    0.000;    0.000
772.211; 5321.150;    0.000;    0.000
772.404; 5344.150;    0.000;    0.000
772.596; 5352.150;    0.000;    0.000
772.789; 5378.150;    0.000;    0.000
772.981; 5490.150;    0.000;    0.000
773.174; 5566.150;    0.000;    0.000
773.366; 5550.150;    0.000;    0.000
773.559; 5648.150;    0.000;    0.000
773.751; 5781.150;    0.000;    0.000
773.944; 5877.150;    0.000;    0.000
774.136; 5803.150;    0.000;    0.000
774.329; 6113.150;    0.000;    0.000
774.521; 6138.150;    0.000;    0.000
774.713; 6414.150;    0.000;    0.000
774.906; 6724.150;    0.000;    0.000
775.098; 6721.150;    0.000;    0.000
775.290; 7116.150;    0.000;    0.000
775.483; 7393.150;    0.000;    0.000
775.675; 7693.150;    0.000;    0.000
775.867; 8192.150;    0.000;    0.000
776.059; 8840.150;    0.000;    0.000
776.251; 9802.150;    0.000;    0.000
776.444;10762.150;    0.000;    0.000
776.636;12682.150;    0.000;    0.000
776.828;15902.150;    0.000;    0.000
777.020;22372.150;    0.000;    0.000
777.212;29733.150;    0.000;    0.000
777.404;32821.148;    0.000;    0.000
777.596;29091.150;    0.000;    0.000
777.788;22565.150;    0.000;    0.000
777.980;17804.150;    0.000;    0.000
778.172;14864.150;    0.000;    0.000
778.364;12760.150;    0.000;    0.000
778.556;11755.150;    0.000;    0.000
778.748;10380.150;    0.000;    0.000
778.940; 9746.150;    0.000;    0.000
779.132; 8926.150;    0.000;    0.000
779.324; 8552.150;    0.000;    0.000
779.516; 8001.150;    0.000;    0.000
779.708; 7746.150;    0.000;    0.000
779.900; 7335.150;    0.000;    0.000
780.091; 7263.150;    0.000;    0.000
780.283; 6882.150;    0.000;    0.000
780.475; 6740.150;    0.000;    0.000
780.667; 6509.150;    0.000;    0.000
780.859; 6301.150;    0.000;    0.000
781.050; 6159.150;    0.000;    0.000
781.242; 6085.150;    0.000;    0.000
781.434; 6016.150;    0.000;    0.000
781.625; 5768.150;    0.000;    0.000
781.817; 5696.150;    0.000;    0.000
782.008; 5591.150;    0.000;    0.000
782.200; 5554.150;    0.000;    0.000
782.392; 5552.150;    0.000;    0.000
782.583; 5502.150;    0.000;    0.000
782.775; 5464.150;    0.000;    0.000
782.966; 5315.150;    0.000;    0.000
783.158; 5149.150;    0.000;    0.000
783.349; 5290.150;    0.000;    0.000
783.541; 5107.150;    0.000;    0.000
783.732; 5004.150;    0.000;    0.000
783.924; 5087.150;    0.000;    0.000
784.115; 5020.150;    0.000;    0.000
784.306; 5005.150;    0.000;    0.000
784.498; 4983.150;    0.000;    0.000
784.689; 4952.150;    0.000;    0.000
784.880; 4905.150;    0.000;    0.000
785.072; 4864.150;    0.000;    0.000
785.263; 4756.150;    0.000;    0.000
785.454; 4895.150;    0.000;    0.000
785.645; 4826.150;    0.000;    0.000
785.837; 4888.150;    0.000;    0.000
786.028; 4886.150;    0.000;    0.000
786.219; 4904.150;    0.000;    0.000
786.410; 4885.150;    0.000;    0.000
786.601; 4799.150;    0.000;    0.000
786.792; 4802.150;    0.000;    0.000
786.984; 4813.150;    0.000;    0.000
787.175; 4724.150;    0.000;    0.000
787.366; 4752.150;    0.000;    0.000
787.557; 4641.150;    0.000;    0.000
787.748; 4755.150;    0.000;    0.000
787.939; 4726.150;    0.000;    0.000
788.130; 4726.150;    0.000;    0.000
788.321; 4772.150;    0.000;    0.000
788.512; 4846.150;    0.000;    0.000
788.703; 4759.150;    0.000;    0.000
788.894; 4679.150;    0.000;    0.000
789.084; 4799.150;    0.000;    0.000
789.275; 4920.150;    0.000;    0.000
789.466; 4763.150;    0.000;    0.000
789.657; 4797.150;    0.000;    0.000
789.848; 4885.150;    0.000;    0.000
790.039; 4883.150;    0.000;    0.000
790.229; 4842.150;    0.000;    0.000
790.420; 4741.150;    0.000;    0.000
790.611; 4794.150;    0.000;    0.000
790.801; 4842.150;    0.000;    0.000
790.992; 4917.150;    0.000;    0.000
791.183; 4863.150;    0.000;    0.000
791.373; 4772.150;    0.000;    0.000
791.564; 4713.150;    0.000;    0.000
791.755; 4823.150;    0.000;    0.000
791.945; 4728.150;    0.000;    0.000
792.136; 4717.150;    0.000;    0.000
792.326; 4824.150;    0.000;    0.000
792.517; 4760.150;    0.000;    0.000
792.707; 4799.150;    0.000;    0.000
792.898; 4926.150;    0.000;    0.000
793.088; 4912.150;    0.000;    0.000
793.279; 4942.150;    0.000;    0.000
793.469; 4944.150;    0.000;    0.000
793.660; 4979.150;    0.000;    0.000
793.850; 5145.150;    0.000;    0.000
794.040; 5402.150;    0.000;    0.000
794.231; 5411.150;    0.000;    0.000
794.421; 5832.150;    0.000;    0.000
794.611; 6539.150;    0.000;    0.000
794.802; 7134.150;    0.000;    0.000
794.992; 7463.150;    0.000;    0.000
795.182; 7483.150;    0.000;    0.000
795.372; 7142.150;    0.000;    0.000
795.563; 6637.150;    0.000;    0.000
795.753; 6063.150;    0.000;    0.000
795.943; 5871.150;    0.000;    0.000
796.133; 5595.150;    0.000;    0.000
796.323; 5379.150;    0.000;    0.000
796.513; 5216.150;    0.000;    0.000
796.703; 5191.150;    0.000;    0.000
796.893; 5021.150;    0.000;    0.000
797.083; 5033.150;    0.000;    0.000
797.273; 5027.150;    0.000;    0.000
797.463; 4974.150;    0.000;    0.000
797.653; 4893.150;    0.000;    0.000
797.843; 4776.150;    0.000;    0.000
798.033; 4724.150;    0.000;    0.000
798.223; 4513.150;    0.000;    0.000
798.413; 4543.150;    0.000;    0.000
798.603; 4510.150;    0.000;    0.000
798.793; 4386.150;    0.000;    0.000
798.983; 4346.150;    0.000;    0.000
799.172; 4364.150;    0.000;    0.000
799.362; 4383.150;    0.000;    0.000
799.552; 4407.150;    0.000;    0.000
799.742; 4465.150;    0.000;    0.000
799.932; 4219.150;    0.000;    0.000
800.121; 4294.150;    0.000;    0.000
800.311; 4309.150;    0.000;    0.000
800.501; 4243.150;    0.000;    0.000
800.690; 4368.150;    0.000;    0.000
800.880; 4147.150;    0.000;    0.000
801.070; 4237.150;    0.000;    0.000
801.259; 4190.150;    0.000;    0.000
801.449; 4035.150;    0.000;    0.000
801.638; 4204.150;    0.000;    0.000
801.828; 4055.150;    0.000;    0.000
802.017; 4196.150;    0.000;    0.000
802.207; 4105.150;    0.000;    0.000
802.396; 4091.150;    0.000;    0.000
802.586; 4088.150;    0.000;    0.000
802.775; 4157.150;    0.000;    0.000
802.965; 4048.150;    0.000;    0.000
803.154; 4046.150;    0.000;    0.000
803.343; 4101.150;    0.000;    0.000
803.533; 4102.150;    0.000;    0.000
803.722; 4034.150;    0.000;    0.000
803.911; 3990.150;    0.000;    0.000
804.101; 4019.150;    0.000;    0.000
804.290; 4134.150;    0.000;    0.000
804.479; 4059.150;    0.000;    0.000
804.668; 4091.150;    0.000;    0.000
804.857; 4009.150;    0.000;    0.000
805.047; 4049.150;    0.000;    0.000
805.236; 4013.150;    0.000;    0.000
805.425; 4045.150;    0.000;    0.000
805.614; 4007.150;    0.000;    0.000
805.803; 4042.150;    0.000;    0.000
805.992; 4150.150;    0.000;    0.000
806.181; 4056.150;    0.000;    0.000
806.370; 3974.150;    0.000;    0.000
806.559; 3947.150;    0.000;    0.000
806.748; 4007.150;    0.000;    0.000
806.937; 3971.150;    0.000;    0.000
807.126; 4048.150;    0.000;    0.000
807.315; 4017.150;    0.000;    0.000
807.504; 4059.150;    0.000;    0.000
807.693; 4021.150;    0.000;    0.000
807.882; 4071.150;    0.000;    0.000
808.071; 4048.150;    0.000;    0.000
808.260; 3926.150;    0.000;    0.000
808.448; 4079.150;    0.000;    0.000
808.637; 4038.150;    0.000;    0.000
808.826; 4115.150;    0.000;    0.000
809.015; 4000.150;    0.000;    0.000
809.203; 4089.150;    0.000;    0.000
809.392; 3957.150;    0.000;    0.000
809.581; 4215.150;    0.000;    0.000
809.770; 4037.150;    0.000;    0.000
809.958; 4136.150;    0.000;    0.000
810.147; 4056.150;    0.000;    0.000
810.335; 4096.150;    0.000;    0.000
810.524; 4175.150;    0.000;    0.000
810.713; 4234.150;    0.000;    0.000
810.901; 4236.150;    0.000;    0.000
811.090; 4322.150;    0.000;    0.000
811.278; 4304.150;    0.000;    0.000
811.467; 4337.150;    0.000;    0.000
811.655; 4459.150;    0.000;    0.000
811.844; 4338.150;    0.000;    0.000
812.032; 4333.150;    0.000;    0.000
812.220; 4320.150;    0.000;    0.000
812.409; 4316.150;    0.000;    0.000
812.597; 4395.150;    0.000;    0.000
812.785; 4485.150;    0.000;    0.000
812.974; 4570.150;    0.000;    0.000
813.162; 4276.150;    0.000;    0.000
813.350; 4456.150;    0.000;    0.000
813.539; 4533.150;    0.000;    0.000
813.727; 4524.150;    0.000;    0.000
813.915; 4623.150;    0.000;    0.000
814.103; 4578.150;    0.000;    0.000
814.291; 4744.150;    0.000;    0.000
814.479; 4678.150;    0.000;    0.000
814.668; 4792.150;    0.000;    0.000
814.856; 4817.150;    0.000;    0.000
815.044; 4915.150;    0.000;    0.000
815.232; 4970.150;    0.000;    0.000
815.420; 5057.150;    0.000;    0.000
815.608; 5074.150;    0.000;    0.000
815.796; 5278.150;    0.000;    0.000
815.984; 5389.150;    0.000;    0.000
816.172; 5571.150;    0.000;    0.000
816.360; 5728.150;    0.000;    0.000
816.548; 5745.150;    0.000;    0.000
816.736; 6021.150;    0.000;    0.000
816.924; 6350.150;    0.000;    0.000
817.111; 6693.150;    0.000;    0.000
817.299; 7044.150;    0.000;    0.000
817.487; 7738.150;    0.000;    0.000
817.675; 8596.150;    0.000;    0.000
817.863;10231.150;    0.000;    0.000
818.050;14808.150;    0.000;    0.000
818.238;24020.150;    0.000;    0.000
818.426;27527.150;    0.000;    0.000
818.613;22046.150;    0.000;    0.000
818.801;18685.150;    0.000;    0.000
818.989;18030.150;    0.000;    0.000
819.176;20902.150;    0.000;    0.000
819.364;29681.150;    0.000;    0.000
819.552;33235.148;    0.000;    0.000
819.739;27074.150;    0.000;    0.000
819.927;20671.150;    0.000;    0.000
820.114;17287.150;    0.000;    0.000
820.302;15122.150;    0.000;    0.000
820.489;13541.150;    0.000;    0.000
820.677;13075.150;    0.000;    0.000
820.864;12477.150;    0.000;    0.000
821.052;12481.150;    0.000;    0.000
821.239;12151.150;    0.000;    0.000
821.426;12878.150;    0.000;    0.000
821.614;14219.150;    0.000;    0.000
821.801;14418.150;    0.000;    0.000
821.988;13020.150;    0.000;    0.000
822.176;12637.150;    0.000;    0.000
822.363;12331.150;    0.000;    0.000
822.550;11583.150;    0.000;    0.000
822.737;10565.150;    0.000;    0.000
822.924;10134.150;    0.000;    0.000
823.112; 9482.150;    0.000;    0.000
823.299; 8895.150;    0.000;    0.000
823.486; 8435.150;    0.000;    0.000
823.673; 8206.150;    0.000;    0.000
823.860; 8051.150;    0.000;    0.000
824.047; 8189.150;    0.000;    0.000
824.234; 8687.150;    0.000;    0.000
824.421; 8351.150;    0.000;    0.000
824.608; 7689.150;    0.000;    0.000
824.795; 7183.150;    0.000;    0.000
824.982; 6864.150;    0.000;    0.000
825.169; 6523.150;    0.000;    0.000
825.356; 6451.150;    0.000;    0.000
825.543; 5792.150;    0.000;    0.000
825.730; 5813.150;    0.000;    0.000
825.917; 5642.150;    0.000;    0.000
826.104; 5585.150;    0.000;    0.000
826.290; 5385.150;    0.000;    0.000
826.477; 5302.150;    0.000;    0.000
826.664; 5144.150;    0.000;    0.000
826.851; 4955.150;    0.000;    0.000
827.038; 4926.150;    0.000;    0.000
827.224; 4818.150;    0.000;    0.000
827.411; 4801.150;    0.000;    0.000
827.598; 4706.150;    0.000;    0.000
827.784; 4611.150;    0.000;    0.000
827.971; 4515.150;    0.000;    0.000
828.157; 4497.150;    0.000;    0.000
828.344; 4478.150;    0.000;    0.000
828.531; 4331.150;    0.000;    0.000
828.717; 4219.150;    0.000;    0.000
828.904; 4335.150;    0.000;    0.000
829.090; 4324.150;    0.000;    0.000
829.277; 4225.150;    0.000;    0.000
829.463; 4259.150;    0.000;    0.000
829.650; 4211.150;    0.000;    0.000
829.836; 4081.150;    0.000;    0.000
830.022; 4006.150;    0.000;    0.000
830.209; 4002.150;    0.000;    0.000
830.395; 3831.150;    0.000;    0.000
830.581; 3879.150;    0.000;    0.000
830.768; 3798.150;    0.000;    0.000
830.954; 3833.150;    0.000;    0.000
831.140; 3687.150;    0.000;    0.000
831.327; 3737.150;    0.000;    0.000
831.513; 3753.150;    0.000;    0.000
831.699; 3907.150;    0.000;    0.000
831.885; 3690.150;    0.000;    0.000
832.071; 3685.150;    0.000;    0.000
832.257; 3636.150;    0.000;    0.000
832.444; 3590.150;    0.000;    0.000
832.630; 3619.150;    0.000;    0.000
832.816; 3641.150;    0.000;    0.000
833.002; 3550.150;    0.000;    0.000
833.188; 3552.150;    0.000;    0.000
833.374; 3493.150;    0.000;    0.000
833.560; 3491.150;    0.000;    0.000
833.746; 3456.150;    0.000;    0.000
833.932; 3483.150;    0.000;    0.000
834.118; 3414.150;    0.000;    0.000
834.303; 3470.150;    0.000;    0.000
834.489; 3457.150;    0.000;    0.000
834.675; 3414.150;    0.000;    0.000
834.861; 3283.150;    0.000;    0.000
835.047; 3405.150;    0.000;    0.000
835.233; 3339.150;    0.000;    0.000
835.418; 3300.150;    0.000;    0.000
835.604; 3303.150;    0.000;    0.000
835.790; 3355.150;    0.000;    0.000
835.976; 3392.150;    0.000;    0.000
836.161; 3367.150;    0.000;    0.000
836.347; 3168.150;    0.000;    0.000
836.533; 3227.150;    0.000;    0.000
836.718; 3345.150;    0.000;    0.000
836.904; 3214.150;    0.000;    0.000
837.089; 3143.150;    0.000;    0.000
837.275; 3300.150;    0.000;    0.000
837.460; 3179.150;    0.000;    0.000
837.646; 3238.150;    0.000;    0.000
837.831; 3215.150;    0.000;    0.000
838.017; 3189.150;    0.000;    0.000
838.202; 3214.150;    0.000;    0.000
838.388; 3221.150;    0.000;    0.000
838.573; 3249.150;    0.000;    0.000
838.759; 3279.150;    0.000;    0.000
838.944; 3170.150;    0.000;    0.000
839.129; 3143.150;    0.000;    0.000
839.315; 3186.150;    0.000;    0.000
839.500; 3300.150;    0.000;    0.000
839.685; 3177.150;    0.000;    0.000
839.870; 3251.150;    0.000;    0.000
840.056; 3171.150;    0.000;    0.000
840.241; 3167.150;    0.000;    0.000
840.426; 3284.150;    0.000;    0.000
840.611; 3252.150;    0.000;    0.000
840.796; 3301.150;    0.000;    0.000
840.981; 3189.150;    0.000;    0.000
841.166; 3247.150;    0.000;    0.000
841.352; 3250.150;    0.000;    0.000
841.537; 3310.150;    0.000;    0.000
841.722; 3462.150;    0.000;    0.000
841.907; 3312.150;    0.000;    0.000
842.092; 3365.150;    0.000;    0.000
842.277; 3379.150;    0.000;    0.000
842.461; 3529.150;    0.000;    0.000
842.646; 3459.150;    0.000;    0.000
842.831; 3514.150;    0.000;    0.000
843.016; 3724.150;    0.000;    0.000
843.201; 3853.150;    0.000;    0.000
843.386; 3890.150;    0.000;    0.000
843.571; 4097.150;    0.000;    0.000
843.755; 4345.150;    0.000;    0.000
843.940; 4682.150;    0.000;    0.000
844.125; 5004.150;    0.000;    0.000
844.310; 6049.150;    0.000;    0.000
844.494; 7748.150;    0.000;    0.000
844.679; 9440.150;    0.000;    0.000
844.864; 9009.150;    0.000;    0.000
845.048; 7386.150;    0.000;    0.000
845.233; 6524.150;    0.000;    0.000
845.418; 5804.150;    0.000;    0.000
845.602; 5324.150;    0.000;    0.000
845.787; 4850.150;    0.000;    0.000
845.971; 4673.150;    0.000;    0.000
846.156; 4264.150;    0.000;    0.000
846.340; 4074.150;    0.000;    0.000
846.525; 3958.150;    0.000;    0.000
846.709; 3797.150;    0.000;    0.000
846.893; 3782.150;    0.000;    0.000
847.078; 3646.150;    0.000;    0.000
847.262; 3625.150;    0.000;    0.000
847.447; 3415.150;    0.000;    0.000
847.631; 3410.150;    0.000;    0.000
847.815; 3311.150;    0.000;    0.000
848.000; 3247.150;    0.000;    0.000
848.184; 3258.150;    0.000;    0.000
848.368; 3215.150;    0.000;    0.000
848.552; 3177.150;    0.000;    0.000
848.736; 3111.150;    0.000;    0.000
848.921; 3123.150;    0.000;    0.000
849.105; 3101.150;    0.000;    0.000
849.289; 3063.150;    0.000;    0.000
849.473; 3002.150;    0.000;    0.000
849.657; 2965.150;    0.000;    0.000
849.841; 3045.150;    0.000;    0.000
850.025; 2942.150;    0.000;    0.000
850.209; 2967.150;    0.000;    0.000
850.393; 2847.150;    0.000;    0.000
850.577; 2924.150;    0.000;    0.000
850.761; 2938.150;    0.000;    0.000
850.945; 2931.150;    0.000;    0.000
851.129; 2839.150;    0.000;    0.000
851.313; 2815.150;    0.000;    0.000
851.497; 2782.150;    0.000;    0.000
851.680; 2815.150;    0.000;    0.000
851.864; 2821.150;    0.000;    0.000
852.048; 2671.150;    0.000;    0.000
852.232; 2811.150;    0.000;    0.000
852.416; 2775.150;    0.000;    0.000
852.599; 2725.150;    0.000;    0.000
852.783; 2642.150;    0.000;    0.000
852.967; 2827.150;    0.000;    0.000
853.150; 2687.150;    0.000;    0.000
853.334; 2691.150;    0.000;    0.000
853.518; 2698.150;    0.000;    0.000
853.701; 2735.150;    0.000;    0.000
853.885; 2669.150;    0.000;    0.000
854.068; 2763.150;    0.000;    0.000
854.252; 2657.150;    0.000;    0.000
854.435; 2761.150;    0.000;    0.000
854.619; 2721.150;    0.000;    0.000
854.802; 2674.150;    0.000;    0.000
854.986; 2727.150;    0.000;    0.000
855.169; 2720.150;    0.000;    0.000
855.353; 2726.150;    0.000;    0.000
855.536; 2670.150;    0.000;    0.000
855.719; 2739.150;    0.000;    0.000
855.903; 2677.150;    0.000;    0.000
856.086; 2794.150;    0.000;    0.000
856.269; 2703.150;    0.000;    0.000
856.452; 2765.150;    0.000;    0.000
856.636; 2825.150;    0.000;    0.000
856.819; 3038.150;    0.000;    0.000
857.002; 2991.150;    0.000;    0.000
857.185; 2953.150;    0.000;    0.000
857.368; 2842.150;    0.000;    0.000
857.552; 2918.150;    0.000;    0.000
857.735; 2935.150;    0.000;    0.000
857.918; 2857.150;    0.000;    0.000
858.101; 2778.150;    0.000;    0.000
858.284; 2861.150;    0.000;    0.000
858.467; 2867.150;    0.000;    0.000
858.650; 2905.150;    0.000;    0.000
858.833; 2920.150;    0.000;    0.000
859.016; 3041.150;    0.000;    0.000
859.199; 2970.150;    0.000;    0.000
859.382; 3403.150;    0.000;    0.000
859.564; 3442.150;    0.000;    0.000
859.747; 3312.150;    0.000;    0.000
859.930; 3248.150;    0.000;    0.000
860.113; 3263.150;    0.000;    0.000
860.296; 3179.150;    0.000;    0.000
860.478; 3095.150;    0.000;    0.000
860.661; 3008.150;    0.000;    0.000
860.844; 3050.150;    0.000;    0.000
861.027; 3037.150;    0.000;    0.000
861.209; 2891.150;    0.000;    0.000
861.392; 3035.150;    0.000;    0.000
861.575; 3018.150;    0.000;    0.000
861.757; 2977.150;    0.000;    0.000
861.940; 3084.150;    0.000;    0.000
862.122; 3187.150;    0.000;    0.000
862.305; 3149.150;    0.000;    0.000
862.487; 3401.150;    0.000;    0.000
862.670; 3528.150;    0.000;    0.000
862.852; 4070.150;    0.000;    0.000
863.035; 4553.150;    0.000;    0.000
863.217; 4396.150;    0.000;    0.000
863.400; 4040.150;    0.000;    0.000
863.582; 3860.150;    0.000;    0.000
863.764; 3765.150;    0.000;    0.000
863.947; 3592.150;    0.000;    0.000
864.129; 3610.150;    0.000;    0.000
864.311; 3532.150;    0.000;    0.000
864.493; 3372.150;    0.000;    0.000
864.676; 3288.150;    0.000;    0.000
864.858; 3430.150;    0.000;    0.000
865.040; 3469.150;    0.000;    0.000
865.222; 3484.150;    0.000;    0.000
865.404; 3502.150;    0.000;    0.000
865.587; 3664.150;    0.000;    0.000
865.769; 3769.150;    0.000;    0.000
865.951; 3776.150;    0.000;    0.000
866.133; 3774.150;    0.000;    0.000
866.315; 3731.150;    0.000;    0.000
866.497; 3814.150;    0.000;    0.000
866.679; 3884.150;    0.000;    0.000
866.861; 3940.150;    0.000;    0.000
867.043; 4143.150;    0.000;    0.000
867.225; 4307.150;    0.000;    0.000
867.407; 4773.150;    0.000;    0.000
867.589; 5278.150;    0.000;    0.000
867.770; 6546.150;    0.000;    0.000
867.952; 8691.150;    0.000;    0.000
868.134; 9977.150;    0.000;    0.000
868.316;10278.150;    0.000;    0.000
868.498; 9567.150;    0.000;    0.000
868.679; 8397.150;    0.000;    0.000
868.861; 7253.150;    0.000;    0.000
869.043; 6302.150;    0.000;    0.000
869.224; 5547.150;    0.000;    0.000
869.406; 5167.150;    0.000;    0.000
869.588; 4938.150;    0.000;    0.000
869.769; 4814.150;    0.000;    0.000
869.951; 4689.150;    0.000;    0.000
870.132; 4777.150;    0.000;    0.000
870.314; 5205.150;    0.000;    0.000
870.495; 5085.150;    0.000;    0.000
870.677; 4749.150;    0.000;    0.000
870.858; 4556.150;    0.000;    0.000
871.040; 4950.150;    0.000;    0.000
871.221; 5236.150;    0.000;    0.000
871.403; 4990.150;    0.000;    0.000
871.584; 4914.150;    0.000;    0.000
871.765; 4946.150;    0.000;    0.000
871.947; 4857.150;    0.000;    0.000
872.128; 4524.150;    0.000;    0.000
872.309; 4183.150;    0.000;    0.000
872.491; 3787.150;    0.000;    0.000
872.672; 3791.150;    0.000;    0.000
872.853; 3636.150;    0.000;    0.000
873.034; 3490.150;    0.000;    0.000
873.215; 3365.150;    0.000;    0.000
873.396; 3297.150;    0.000;    0.000
873.578; 3139.150;    0.000;    0.000
873.759; 3082.150;    0.000;    0.000
873.940; 3061.150;    0.000;    0.000
874.121; 2888.150;    0.000;    0.000
874.302; 2848.150;    0.000;    0.000
874.483; 2843.150;    0.000;    0.000
874.664; 2879.150;    0.000;    0.000
874.845; 2794.150;    0.000;    0.000
875.026; 2756.150;    0.000;    0.000
875.207; 2730.150;    0.000;    0.000
875.388; 2733.150;    0.000;    0.000
875.568; 2603.150;    0.000;    0.000
875.749; 2601.150;    0.000;    0.000
875.930; 2648.150;    0.000;    0.000
876.111; 2573.150;    0.000;    0.000
876.292; 2502.150;    0.000;    0.000
876.472; 2549.150;    0.000;    0.000
876.653; 2528.150;    0.000;    0.000
876.834; 2388.150;    0.000;    0.000
877.015; 2470.150;    0.000;    0.000
877.195; 2405.150;    0.000;    0.000
877.376; 2478.150;    0.000;    0.000
877.556; 2450.150;    0.000;    0.000
877.737; 2432.150;    0.000;    0.000
877.918; 2447.150;    0.000;    0.000
878.098; 2364.150;    0.000;    0.000
878.279; 2425.150;    0.000;    0.000
878.459; 2389.150;    0.000;    0.000
878.640; 2316.150;    0.000;    0.000
878.820; 2369.150;    0.000;    0.000
879.000; 2384.150;    0.000;    0.000
879.181; 2318.150;    0.000;    0.000
879.361; 2368.150;    0.000;    0.000
879.542; 2276.150;    0.000;    0.000
879.722; 2328.150;    0.000;    0.000
879.902; 2398.150;    0.000;    0.000
880.083; 2405.150;    0.000;    0.000
880.263; 2352.150;    0.000;    0.000
880.443; 2678.150;    0.000;    0.000
880.623; 2954.150;    0.000;    0.000
880.803; 3001.150;    0.000;    0.000
880.984; 2688.150;    0.000;    0.000
881.164; 2514.150;    0.000;    0.000
881.344; 2529.150;    0.000;    0.000
881.524; 2447.150;    0.000;    0.000
881.704; 2450.150;    0.000;    0.000
881.884; 2610.150;    0.000;    0.000
882.064; 2653.150;    0.000;    0.000
882.244; 2658.150;    0.000;    0.000
882.424; 2577.150;    0.000;    0.000
882.604; 2479.150;    0.000;    0.000
882.784; 2447.150;    0.000;    0.000
882.964; 2394.150;    0.000;    0.000
883.144; 2313.150;    0.000;    0.000
883.324; 2350.150;    0.000;    0.000
883.504; 2367.150;    0.000;    0.000
883.683; 2245.150;    0.000;    0.000
883.863; 2237.150;    0.000;    0.000
884.043; 2254.150;    0.000;    0.000
884.223; 2235.150;    0.000;    0.000
884.402; 2219.150;    0.000;    0.000
884.582; 2284.150;    0.000;    0.000
884.762; 2198.150;    0.000;    0.000
884.941; 2253.150;    0.000;    0.000
885.121; 2195.150;    0.000;    0.000
885.301; 2195.150;    0.000;    0.000
885.480; 2244.150;    0.000;    0.000
885.660; 2267.150;    0.000;    0.000
885.839; 2204.150;    0.000;    0.000
886.019; 2113.150;    0.000;    0.000
886.198; 2191.150;    0.000;    0.000
886.378; 2136.150;    0.000;    0.000
886.557; 2129.150;    0.000;    0.000
886.737; 2182.150;    0.000;    0.000
886.916; 2180.150;    0.000;    0.000
887.095; 2229.150;    0.000;    0.000
887.275; 2194.150;    0.000;    0.000
887.454; 2210.150;    0.000;    0.000
887.633; 2143.150;    0.000;    0.000
887.813; 2124.150;    0.000;    0.000
887.992; 2222.150;    0.000;    0.000
888.171; 2125.150;    0.000;    0.000
888.350; 2197.150;    0.000;    0.000
888.530; 2157.150;    0.000;    0.000
888.709; 2086.150;    0.000;    0.000
888.888; 2109.150;    0.000;    0.000
889.067; 2076.150;    0.000;    0.000
889.246; 2142.150;    0.000;    0.000
889.425; 2146.150;    0.000;    0.000
889.604; 2063.150;    0.000;    0.000
889.783; 2160.150;    0.000;    0.000
889.962; 2006.150;    0.000;    0.000
890.141; 2111.150;    0.000;    0.000
890.320; 2107.150;    0.000;    0.000
890.499; 1995.150;    0.000;    0.000
890.678; 2014.150;    0.000;    0.000
890.857; 2119.150;    0.000;    0.000
891.036; 2087.150;    0.000;    0.000
891.214; 2107.150;    0.000;    0.000
891.393; 2069.150;    0.000;    0.000
891.572; 2061.150;    0.000;    0.000
891.751; 2065.150;    0.000;    0.000
891.930; 2119.150;    0.000;    0.000
892.108; 2037.150;    0.000;    0.000
892.287; 2090.150;    0.000;    0.000
892.466; 2048.150;    0.000;    0.000
892.644; 2024.150;    0.000;    0.000
892.823; 2019.150;    0.000;    0.000
893.001; 1986.150;    0.000;    0.000
893.180; 2131.150;    0.000;    0.000
893.359; 2008.150;    0.000;    0.000
893.537; 2048.150;    0.000;    0.000
893.716; 1989.150;    0.000;    0.000
893.894; 2071.150;    0.000;    0.000
894.073; 2083.150;    0.000;    0.000
894.251; 2028.150;    0.000;    0.000
894.429; 1962.150;    0.000;    0.000
894.608; 2030.150;    0.000;    0.000
894.786; 2067.150;    0.000;    0.000
894.964; 2107.150;    0.000;    0.000
895.143; 2026.150;    0.000;    0.000
895.321; 2085.150;    0.000;    0.000
895.499; 2125.150;    0.000;    0.000
895.677; 2073.150;    0.000;    0.000
895.856; 2077.150;    0.000;    0.000
896.034; 2091.150;    0.000;    0.000
896.212; 2072.150;    0.000;    0.000
896.390; 2080.150;    0.000;    0.000
896.568; 2058.150;    0.000;    0.000
896.746; 2098.150;    0.000;    0.000
896.924; 2085.150;    0.000;    0.000
897.102; 2128.150;    0.000;    0.000
897.280; 1992.150;    0.000;    0.000
897.458; 2077.150;    0.000;    0.000
897.636; 2009.150;    0.000;    0.000
897.814; 2104.150;    0.000;    0.000
897.992; 2028.150;    0.000;    0.000
898.170; 2094.150;    0.000;    0.000
898.348; 2126.150;    0.000;    0.000
898.526; 2146.150;    0.000;    0.000
898.704; 2116.150;    0.000;    0.000
898.882; 2146.150;    0.000;    0.000
899.059; 2087.150;    0.000;    0.000
899.237; 2021.150;    0.000;    0.000
899.415; 2173.150;    0.000;    0.000
899.593; 2200.150;    0.000;    0.000
899.770; 2115.150;    0.000;    0.000
899.948; 2161.150;    0.000;    0.000
900.125; 2138.150;    0.000;    0.000
900.303; 2110.150;    0.000;    0.000
900.481; 2162.150;    0.000;    0.000
900.658; 2201.150;    0.000;    0.000
900.836; 2106.150;    0.000;    0.000
901.013; 2149.150;    0.000;    0.000
901.191; 2193.150;    0.000;    0.000
901.368; 2195.150;    0.000;    0.000
901.546; 2294.150;    0.000;    0.000
901.723; 2307.150;    0.000;    0.000
901.901; 2306.150;    0.000;    0.000
902.078; 2364.150;    0.000;    0.000
902.255; 2369.150;    0.000;    0.000
902.433; 2265.150;    0.000;    0.000
902.610; 2445.150;    0.000;    0.000
902.787; 2339.150;    0.000;    0.000
902.964; 2430.150;    0.000;    0.000
903.142; 2446.150;    0.000;    0.000
903.319; 2536.150;    0.000;    0.000
903.496; 2484.150;    0.000;    0.000
903.673; 2521.150;    0.000;    0.000
903.850; 2527.150;    0.000;    0.000
904.027; 2649.150;    0.000;    0.000
904.204; 2702.150;    0.000;    0.000
904.381; 2900.150;    0.000;    0.000
904.558; 3304.150;    0.000;    0.000
904.735; 3455.150;    0.000;    0.000
904.912; 3544.150;    0.000;    0.000
905.089; 3535.150;    0.000;    0.000
905.266; 3310.150;    0.000;    0.000
905.443; 3112.150;    0.000;    0.000
905.620; 2893.150;    0.000;    0.000
905.797; 2818.150;    0.000;    0.000
905.974; 2753.150;    0.000;    0.000
906.151; 2713.150;    0.000;    0.000
906.327; 2796.150;    0.000;    0.000
906.504; 2750.150;    0.000;    0.000
906.681; 2709.150;    0.000;    0.000
906.858; 2628.150;    0.000;    0.000
907.034; 2580.150;    0.000;    0.000
907.211; 2472.150;    0.000;    0.000
907.388; 2481.150;    0.000;    0.000
907.564; 2520.150;    0.000;    0.000
907.741; 2476.150;    0.000;    0.000
907.917; 2442.150;    0.000;    0.000
908.094; 2376.150;    0.000;    0.000
908.271; 2300.150;    0.000;    0.000
908.447; 2362.150;    0.000;    0.000
908.623; 2230.150;    0.000;    0.000
908.800; 2255.150;    0.000;    0.000
908.976; 2396.150;    0.000;    0.000
909.153; 2358.150;    0.000;    0.000
909.329; 2255.150;    0.000;    0.000
909.505; 2261.150;    0.000;    0.000
909.682; 2251.150;    0.000;    0.000
909.858; 2210.150;    0.000;    0.000
910.034; 2239.150;    0.000;    0.000
910.211; 2261.150;    0.000;    0.000
910.387; 2208.150;    0.000;    0.000
910.563; 2159.150;    0.000;    0.000
910.739; 2179.150;    0.000;    0.000
910.915; 2173.150;    0.000;    0.000
911.091; 2182.150;    0.000;    0.000
911.268; 2166.150;    0.000;    0.000
911.444; 2139.150;    0.000;    0.000
911.620; 2139.150;    0.000;    0.000
911.796; 2156.150;    0.000;    0.000
911.972; 2259.150;    0.000;    0.000
912.148; 2171.150;    0.000;    0.000
912.324; 2175.150;    0.000;    0.000
912.500; 2205.150;    0.000;    0.000
912.676; 2136.150;    0.000;    0.000
912.851; 2149.150;    0.000;    0.000
913.027; 2175.150;    0.000;    0.000
913.203; 2147.150;    0.000;    0.000
913.379; 2082.150;    0.000;    0.000
913.555; 2086.150;    0.000;    0.000
913.730; 2130.150;    0.000;    0.000
913.906; 2169.150;    0.000;    0.000
914.082; 2245.150;    0.000;    0.000
914.258; 2133.150;    0.000;    0.000
914.433; 2103.150;    0.000;    0.000
914.609; 2189.150;    0.000;    0.000
914.784; 2074.150;    0.000;    0.000
914.960; 2158.150;    0.000;    0.000
915.136; 2118.150;    0.000;    0.000
915.311; 2117.150;    0.000;    0.000
915.487; 2094.150;    0.000;    0.000
915.662; 2165.150;    0.000;    0.000
915.838; 2087.150;    0.000;    0.000
916.013; 2091.150;    0.000;    0.000
916.189; 2084.150;    0.000;    0.000
916.364; 2129.150;    0.000;    0.000
916.539; 2108.150;    0.000;    0.000
916.715; 2109.150;    0.000;    0.000
916.890; 2221.150;    0.000;    0.000
917.065; 2104.150;    0.000;    0.000
917.240; 2172.150;    0.000;    0.000
917.416; 2218.150;    0.000;    0.000
917.591; 2118.150;    0.000;    0.000
917.766; 2196.150;    0.000;    0.000
917.941; 2160.150;    0.000;    0.000
918.116; 2200.150;    0.000;    0.000
918.292; 2145.150;    0.000;    0.000
918.467; 2199.150;    0.000;    0.000
918.642; 2156.150;    0.000;    0.000
918.817; 2222.150;    0.000;    0.000
918.992; 2160.150;    0.000;    0.000
919.167; 2184.150;    0.000;    0.000
919.342; 2311.150;    0.000;    0.000
919.517; 2280.150;    0.000;    0.000
919.692; 2277.150;    0.000;    0.000
919.867; 2214.150;    0.000;    0.000
920.041; 2282.150;    0.000;    0.000
920.216; 2269.150;    0.000;    0.000
920.391; 2304.150;    0.000;    0.000
920.566; 2394.150;    0.000;    0.000
920.741; 2319.150;    0.000;    0.000
920.915; 2507.150;    0.000;    0.000
921.090; 2710.150;    0.000;    0.000
921.265; 3020.150;    0.000;    0.000
921.439; 3177.150;    0.000;    0.000
921.614; 2879.150;    0.000;    0.000
921.789; 2677.150;    0.000;    0.000
921.963; 2577.150;    0.000;    0.000
922.138; 2486.150;    0.000;    0.000
922.312; 2624.150;    0.000;    0.000
922.487; 2587.150;    0.000;    0.000
922.661; 2708.150;    0.000;    0.000
922.836; 2836.150;    0.000;    0.000
923.010; 2807.150;    0.000;    0.000
923.185; 2738.150;    0.000;    0.000
923.359; 2647.150;    0.000;    0.000
923.534; 2634.150;    0.000;    0.000
923.708; 2802.150;    0.000;    0.000
923.882; 2717.150;    0.000;    0.000
924.057; 2787.150;    0.000;    0.000
924.231; 2581.150;    0.000;    0.000
924.405; 2607.150;    0.000;    0.000
924.579; 2557.150;    0.000;    0.000
924.753; 2552.150;    0.000;    0.000
924.928; 2535.150;    0.000;    0.000
925.102; 2412.150;    0.000;    0.000
925.276; 2593.150;    0.000;    0.000
925.450; 2530.150;    0.000;    0.000
925.624; 2610.150;    0.000;    0.000
925.798; 2687.150;    0.000;    0.000
925.972; 2638.150;    0.000;    0.000
926.146; 2858.150;    0.000;    0.000
926.320; 2989.150;    0.000;    0.000
926.494; 3189.150;    0.000;    0.000
926.668; 3255.150;    0.000;    0.000
926.842; 3371.150;    0.000;    0.000
927.016; 3337.150;    0.000;    0.000
927.190; 3296.150;    0.000;    0.000
927.363; 3182.150;    0.000;    0.000
927.537; 3079.150;    0.000;    0.000
927.711; 2969.150;    0.000;    0.000
927.885; 2954.150;    0.000;    0.000
928.058; 2948.150;    0.000;    0.000
928.232; 2933.150;    0.000;    0.000
928.406; 2757.150;    0.000;    0.000
928.579; 2718.150;    0.000;    0.000
928.753; 2779.150;    0.000;    0.000
928.927; 2634.150;    0.000;    0.000
929.100; 2590.150;    0.000;    0.000
929.274; 2646.150;    0.000;    0.000
929.447; 2473.150;    0.000;    0.000
929.621; 2625.150;    0.000;    0.000
929.794; 2511.150;    0.000;    0.000
929.968; 2503.150;    0.000;    0.000
930.141; 2533.150;    0.000;    0.000
930.315; 2428.150;    0.000;    0.000
930.488; 2330.150;    0.000;    0.000
930.661; 2425.150;    0.000;    0.000
930.835; 2359.150;    0.000;    0.000
931.008; 2380.150;    0.000;    0.000
931.181; 2370.150;    0.000;    0.000
931.354; 2293.150;    0.000;    0.000
931.528; 2334.150;    0.000;    0.000
931.701; 2351.150;    0.000;    0.000
931.874; 2256.150;    0.000;    0.000
932.047; 2279.150;    0.000;    0.000
932.220; 2208.150;    0.000;    0.000
932.393; 2225.150;    0.000;    0.000
932.566; 2217.150;    0.000;    0.000
932.739; 2180.150;    0.000;    0.000
932.912; 2227.150;    0.000;    0.000
933.085; 2158.150;    0.000;    0.000
933.258; 2168.150;    0.000;    0.000
933.431; 2160.150;    0.000;    0.000
933.604; 2202.150;    0.000;    0.000
933.777; 2185.150;    0.000;    0.000
933.950; 2131.150;    0.000;    0.000
934.123; 2072.150;    0.000;    0.000
934.296; 2118.150;    0.000;    0.000
934.468; 2103.150;    0.000;    0.000
934.641; 2016.150;    0.000;    0.000
934.814; 2077.150;    0.000;    0.000
934.987; 2084.150;    0.000;    0.000
935.159; 2049.150;    0.000;    0.000
935.332; 2085.150;    0.000;    0.000
935.505; 2066.150;    0.000;    0.000
935.677; 2046.150;    0.000;    0.000
935.850; 2006.150;    0.000;    0.000
936.022; 2064.150;    0.000;    0.000
936.195; 2070.150;    0.000;    0.000
936.367; 2041.150;    0.000;    0.000
936.540; 2003.150;    0.000;    0.000
936.712; 2105.150;    0.000;    0.000
936.885; 2100.150;    0.000;    0.000
937.057; 2051.150;    0.000;    0.000
937.229; 2080.150;    0.000;    0.000
937.402; 2083.150;    0.000;    0.000
937.574; 2102.150;    0.000;    0.000
937.746; 2112.150;    0.000;    0.000
937.919; 2193.150;    0.000;    0.000
938.091; 2300.150;    0.000;    0.000
938.263; 2339.150;    0.000;    0.000
938.435; 2479.150;    0.000;    0.000
938.608; 2736.150;    0.000;    0.000
938.780; 2932.150;    0.000;    0.000
938.952; 2982.150;    0.000;    0.000
939.124; 3019.150;    0.000;    0.000
939.296; 3413.150;    0.000;    0.000
939.468; 3288.150;    0.000;    0.000
939.640; 2996.150;    0.000;    0.000
939.812; 2805.150;    0.000;    0.000
939.984; 2551.150;    0.000;    0.000
940.156; 2460.150;    0.000;    0.000
940.328; 2444.150;    0.000;    0.000
940.500; 2276.150;    0.000;    0.000
940.672; 2206.150;    0.000;    0.000
940.843; 2239.150;    0.000;    0.000
941.015; 2098.150;    0.000;    0.000
941.187; 2140.150;    0.000;    0.000
941.359; 2098.150;    0.000;    0.000
941.531; 2011.150;    0.000;    0.000
941.702; 1989.150;    0.000;    0.000
941.874; 2013.150;    0.000;    0.000
942.046; 1996.150;    0.000;    0.000
942.217; 1981.150;    0.000;    0.000
942.389; 1959.150;    0.000;    0.000
942.560; 1936.150;    0.000;    0.000
942.732; 1970.150;    0.000;    0.000
942.904; 1816.150;    0.000;    0.000
943.075; 1846.150;    0.000;    0.000
943.247; 1833.150;    0.000;    0.000
943.418; 1832.150;    0.000;    0.000
943.589; 1823.150;    0.000;    0.000
943.761; 1808.150;    0.000;    0.000
943.932; 1835.150;    0.000;    0.000
944.104; 1806.150;    0.000;    0.000
944.275; 1844.150;    0.000;    0.000
944.446; 1873.150;    0.000;    0.000
944.617; 1744.150;    0.000;    0.000
944.789; 1813.150;    0.000;    0.000
944.960; 1777.150;    0.000;    0.000
945.131; 1778.150;    0.000;    0.000
945.302; 1870.150;    0.000;    0.000
945.473; 1778.150;    0.000;    0.000
945.645; 1828.150;    0.000;    0.000
945.816; 1884.150;    0.000;    0.000
945.987; 1859.150;    0.000;    0.000
946.158; 1789.150;    0.000;    0.000
946.329; 1863.150;    0.000;    0.000
946.500; 1844.150;    0.000;    0.000
946.671; 1820.150;    0.000;    0.000
946.842; 1805.150;    0.000;    0.000
947.013; 1872.150;    0.000;    0.000
947.183; 1755.150;    0.000;    0.000
947.354; 1850.150;    0.000;    0.000
947.525; 1826.150;    0.000;    0.000
947.696; 1732.150;    0.000;    0.000
947.867; 1770.150;    0.000;    0.000
948.037; 1779.150;    0.000;    0.000
948.208; 1821.150;    0.000;    0.000
948.379; 1813.150;    0.000;    0.000
948.550; 1754.150;    0.000;    0.000
948.720; 1751.150;    0.000;    0.000
948.891; 1757.150;    0.000;    0.000
949.061; 1724.150;    0.000;    0.000
949.232; 1764.150;    0.000;    0.000
949.403; 1753.150;    0.000;    0.000
949.573; 1713.150;    0.000;    0.000
949.744; 1802.150;    0.000;    0.000
949.914; 1682.150;    0.000;    0.000
950.085; 1708.150;    0.000;    0.000
950.255; 1704.150;    0.000;    0.000
950.425; 1742.150;    0.000;    0.000
950.596; 1769.150;    0.000;    0.000
950.766; 1871.150;    0.000;    0.000
950.936; 1772.150;    0.000;    0.000
951.107; 1848.150;    0.000;    0.000
951.277; 1777.150;    0.000;    0.000
951.447; 1816.150;    0.000;    0.000
951.617; 1815.150;    0.000;    0.000
951.788; 1762.150;    0.000;    0.000
951.958; 1810.150;    0.000;    0.000
952.128; 1724.150;    0.000;    0.000
952.298; 1790.150;    0.000;    0.000
952.468; 1705.150;    0.000;    0.000
952.638; 1751.150;    0.000;    0.000
952.808; 1737.150;    0.000;    0.000
952.978; 1728.150;    0.000;    0.000
953.148; 1719.150;    0.000;    0.000
953.318; 1702.150;    0.000;    0.000
953.488; 1689.150;    0.000;    0.000
953.658; 1752.150;    0.000;    0.000
953.828; 1710.150;    0.000;    0.000
953.998; 1757.150;    0.000;    0.000
954.167; 1771.150;    0.000;    0.000
954.337; 1758.150;    0.000;    0.000
954.507; 1700.150;    0.000;    0.000
954.677; 1801.150;    0.000;    0.000
954.846; 1834.150;    0.000;    0.000
955.016; 1737.150;    0.000;    0.000
955.186; 1703.150;    0.000;    0.000
955.355; 1748.150;    0.000;    0.000
955.525; 1804.150;    0.000;    0.000
955.695; 1745.150;    0.000;    0.000
955.864; 1716.150;    0.000;    0.000
956.034; 1647.150;    0.000;    0.000
956.203; 1748.150;    0.000;    0.000
956.373; 1728.150;    0.000;    0.000
956.542; 1736.150;    0.000;    0.000
956.711; 1702.150;    0.000;    0.000
956.881; 1759.150;    0.000;    0.000
957.050; 1720.150;    0.000;    0.000
957.220; 1738.150;    0.000;    0.000
957.389; 1708.150;    0.000;    0.000
957.558; 1659.150;    0.000;    0.000
957.727; 1679.150;    0.000;    0.000
957.897; 1684.150;    0.000;    0.000
958.066; 1719.150;    0.000;    0.000
958.235; 1722.150;    0.000;    0.000
958.404; 1637.150;    0.000;    0.000
958.573; 1719.150;    0.000;    0.000
958.743; 1698.150;    0.000;    0.000
958.912; 1689.150;    0.000;    0.000
959.081; 1653.150;    0.000;    0.000
959.250; 1710.150;    0.000;    0.000
959.419; 1685.150;    0.000;    0.000
959.588; 1687.150;    0.000;    0.000
959.757; 1648.150;    0.000;    0.000
959.926; 1698.150;    0.000;    0.000
960.094; 1679.150;    0.000;    0.000
960.263; 1708.150;    0.000;    0.000
960.432; 1725.150;    0.000;    0.000
960.601; 1676.150;    0.000;    0.000
960.770; 1639.150;    0.000;    0.000
960.939; 1655.150;    0.000;    0.000
961.107; 1692.150;    0.000;    0.000
961.276; 1696.150;    0.000;    0.000
961.445; 1630.150;    0.000;    0.000
961.613; 1655.150;    0.000;    0.000
961.782; 1631.150;    0.000;    0.000
961.951; 1686.150;    0.000;    0.000
962.119; 1674.150;    0.000;    0.000
962.288; 1615.150;    0.000;    0.000
962.456; 1655.150;    0.000;    0.000
962.625; 1655.150;    0.000;    0.000
962.793; 1653.150;    0.000;    0.000
962.962; 1683.150;    0.000;    0.000
963.130; 1651.150;    0.000;    0.000
963.298; 1621.150;    0.000;    0.000
963.467; 1589.150;    0.000;    0.000
963.635; 1632.150;    0.000;    0.000
963.803; 1675.150;    0.000;    0.000
963.972; 1579.150;    0.000;    0.000
964.140; 1640.150;    0.000;    0.000
964.308; 1628.150;    0.000;    0.000
964.477; 1676.150;    0.000;    0.000
964.645; 1633.150;    0.000;    0.000
964.813; 1715.150;    0.000;    0.000
964.981; 1656.150;    0.000;    0.000
965.149; 1658.150;    0.000;    0.000
965.317; 1748.150;    0.000;    0.000
965.485; 1644.150;    0.000;    0.000
965.653; 1687.150;    0.000;    0.000
965.821; 1606.150;    0.000;    0.000
965.989; 1703.150;    0.000;    0.000
966.157; 1654.150;    0.000;    0.000
966.325; 1666.150;    0.000;    0.000
966.493; 1649.150;    0.000;    0.000
966.661; 1631.150;    0.000;    0.000
966.829; 1643.150;    0.000;    0.000
966.996; 1619.150;    0.000;    0.000
967.164; 1653.150;    0.000;    0.000
967.332; 1768.150;    0.000;    0.000
967.500; 1669.150;    0.000;    0.000
967.667; 1621.150;    0.000;    0.000
967.835; 1631.150;    0.000;    0.000
968.003; 1628.150;    0.000;    0.000
968.170; 1560.150;    0.000;    0.000
968.338; 1626.150;    0.000;    0.000
968.505; 1636.150;    0.000;    0.000
968.673; 1623.150;    0.000;    0.000
968.841; 1640.150;    0.000;    0.000
969.008; 1652.150;    0.000;    0.000
969.175; 1599.150;    0.000;    0.000
969.343; 1634.150;    0.000;    0.000
969.510; 1645.150;    0.000;    0.000
969.678; 1656.150;    0.000;    0.000
969.845; 1662.150;    0.000;    0.000
970.012; 1679.150;    0.000;    0.000
970.180; 1697.150;    0.000;    0.000
970.347; 1666.150;    0.000;    0.000
970.514; 1686.150;    0.000;    0.000
970.681; 1645.150;    0.000;    0.000
970.849; 1613.150;    0.000;    0.000
971.016; 1672.150;    0.000;    0.000
971.183; 1621.150;    0.000;    0.000
971.350; 1707.150;    0.000;    0.000
971.517; 1740.150;    0.000;    0.000
971.684; 1666.150;    0.000;    0.000
971.851; 1654.150;    0.000;    0.000
972.018; 1730.150;    0.000;    0.000
972.185; 1671.150;    0.000;    0.000
972.352; 1676.150;    0.000;    0.000
972.519; 1641.150;    0.000;    0.000
972.686; 1655.150;    0.000;    0.000
972.853; 1651.150;    0.000;    0.000
973.020; 1629.150;    0.000;    0.000
973.186; 1682.150;    0.000;    0.000
973.353; 1652.150;    0.000;    0.000
973.520; 1639.150;    0.000;    0.000
973.687; 1625.150;    0.000;    0.000
973.853; 1686.150;    0.000;    0.000
974.020; 1663.150;    0.000;    0.000
974.187; 1558.150;    0.000;    0.000
974.353; 1635.150;    0.000;    0.000
974.520; 1648.150;    0.000;    0.000
974.687; 1689.150;    0.000;    0.000
974.853; 1639.150;    0.000;    0.000
975.020; 1657.150;    0.000;    0.000
975.186; 1671.150;    0.000;    0.000
975.353; 1624.150;    0.000;    0.000
975.519; 1694.150;    0.000;    0.000
975.685; 1661.150;    0.000;    0.000
975.852; 1638.150;    0.000;    0.000
976.018; 1697.150;    0.000;    0.000
976.184; 1660.150;    0.000;    0.000
976.351; 1595.150;    0.000;    0.000
976.517; 1632.150;    0.000;    0.000
976.683; 1631.150;    0.000;    0.000
976.849; 1602.150;    0.000;    0.000
977.016; 1556.150;    0.000;    0.000
977.182; 1657.150;    0.000;    0.000
977.348; 1532.150;    0.000;    0.000
977.514; 1553.150;    0.000;    0.000
977.680; 1627.150;    0.000;    0.000
977.846; 1528.150;    0.000;    0.000
978.012; 1654.150;    0.000;    0.000
978.178; 1596.150;    0.000;    0.000
978.344; 1592.150;    0.000;    0.000
978.510; 1599.150;    0.000;    0.000
978.676; 1590.150;    0.000;    0.000
978.842; 1585.150;    0.000;    0.000
979.008; 1524.150;    0.000;    0.000
979.174; 1520.150;    0.000;    0.000
979.340; 1593.150;    0.000;    0.000
979.505; 1541.150;    0.000;    0.000
979.671; 1564.150;    0.000;    0.000
979.837; 1646.150;    0.000;    0.000
980.003; 1618.150;    0.000;    0.000
980.168; 1582.150;    0.000;    0.000
980.334; 1572.150;    0.000;    0.000
980.499; 1666.150;    0.000;    0.000
980.665; 1619.150;    0.000;    0.000
980.831; 1697.150;    0.000;    0.000
980.996; 1629.150;    0.000;    0.000
981.162; 1654.150;    0.000;    0.000
981.327; 1677.150;    0.000;    0.000
981.493; 1679.150;    0.000;    0.000
981.658; 1616.150;    0.000;    0.000
981.823; 1688.150;    0.000;    0.000
981.989; 1691.150;    0.000;    0.000
982.154; 1674.150;    0.000;    0.000
982.319; 1633.150;    0.000;    0.000
982.485; 1670.150;    0.000;    0.000
982.650; 1620.150;    0.000;    0.000
982.815; 1717.150;    0.000;    0.000
982.980; 1615.150;    0.000;    0.000
983.146; 1638.150;    0.000;    0.000
983.311; 1619.150;    0.000;    0.000
983.476; 1604.150;    0.000;    0.000
983.641; 1616.150;    0.000;    0.000
983.806; 1677.150;    0.000;    0.000
983.971; 1681.150;    0.000;    0.000
984.136; 1667.150;    0.000;    0.000
984.301; 1590.150;    0.000;    0.000
984.466; 1606.150;    0.000;    0.000
984.631; 1648.150;    0.000;    0.000
984.796; 1670.150;    0.000;    0.000
984.961; 1591.150;    0.000;    0.000
985.126; 1713.150;    0.000;    0.000
985.291; 1713.150;    0.000;    0.000
985.455; 1694.150;    0.000;    0.000
985.620; 1663.150;    0.000;    0.000
985.785; 1701.150;    0.000;    0.000
985.950; 1590.150;    0.000;    0.000
986.114; 1654.150;    0.000;    0.000
986.279; 1625.150;    0.000;    0.000
986.444; 1615.150;    0.000;    0.000
986.608; 1734.150;    0.000;    0.000
986.773; 1613.150;    0.000;    0.000
986.937; 1745.150;    0.000;    0.000
987.102; 1692.150;    0.000;    0.000
987.266; 1653.150;    0.000;    0.000
987.431; 1741.150;    0.000;    0.000
987.595; 1654.150;    0.000;    0.000
987.760; 1808.150;    0.000;    0.000
987.924; 1632.150;    0.000;    0.000
988.088; 1648.150;    0.000;    0.000
988.253; 1652.150;    0.000;    0.000
988.417; 1667.150;    0.000;    0.000
988.581; 1662.150;    0.000;    0.000
988.746; 1550.150;    0.000;    0.000
988.910; 1732.150;    0.000;    0.000
989.074; 1594.150;    0.000;    0.000
989.238; 1665.150;    0.000;    0.000
989.402; 1719.150;    0.000;    0.000
989.566; 1655.150;    0.000;    0.000
989.731; 1594.150;    0.000;    0.000
989.895; 1595.150;    0.000;    0.000
990.059; 1578.150;    0.000;    0.000
990.223; 1627.150;    0.000;    0.000
990.387; 1619.150;    0.000;    0.000
990.551; 1597.150;    0.000;    0.000
990.714; 1617.150;    0.000;    0.000
990.878; 1575.150;    0.000;    0.000
991.042; 1651.150;    0.000;    0.000
991.206; 1637.150;    0.000;    0.000
991.370; 1590.150;    0.000;    0.000
991.534; 1626.150;    0.000;    0.000
991.697; 1657.150;    0.000;    0.000
991.861; 1603.150;    0.000;    0.000
992.025; 1620.150;    0.000;    0.000
992.188; 1601.150;    0.000;    0.000
992.352; 1565.150;    0.000;    0.000
992.516; 1556.150;    0.000;    0.000
992.679; 1639.150;    0.000;    0.000
992.843; 1588.150;    0.000;    0.000
993.006; 1584.150;    0.000;    0.000
993.170; 1614.150;    0.000;    0.000
993.333; 1500.150;    0.000;    0.000
993.497; 1539.150;    0.000;    0.000
993.660; 1578.150;    0.000;    0.000
993.824; 1650.150;    0.000;    0.000
993.987; 1651.150;    0.000;    0.000
994.150; 1640.150;    0.000;    0.000
994.314; 1621.150;    0.000;    0.000
994.477; 1595.150;    0.000;    0.000
994.640; 1601.150;    0.000;    0.000
994.803; 1607.150;    0.000;    0.000
994.967; 1590.150;    0.000;    0.000
995.130; 1650.150;    0.000;    0.000
995.293; 1647.150;    0.000;    0.000
995.456; 1626.150;    0.000;    0.000
995.619; 1697.150;    0.000;    0.000
995.782; 1575.150;    0.000;    0.000
995.945; 1601.150;    0.000;    0.000
996.108; 1627.150;    0.000;    0.000
996.271; 1525.150;    0.000;    0.000
996.434; 1622.150;    0.000;    0.000
996.597; 1591.150;    0.000;    0.000
996.760; 1626.150;    0.000;    0.000
996.923; 1591.150;    0.000;    0.000
997.086; 1636.150;    0.000;    0.000
997.248; 1659.150;    0.000;    0.000
997.411; 1565.150;    0.000;    0.000
997.574; 1607.150;    0.000;    0.000
997.737; 1557.150;    0.000;    0.000
997.899; 1604.150;    0.000;    0.000
998.062; 1595.150;    0.000;    0.000
998.225; 1582.150;    0.000;    0.000
998.387; 1545.150;    0.000;    0.000
998.550; 1642.150;    0.000;    0.000
998.712; 1544.150;    0.000;    0.000
998.875; 1603.150;    0.000;    0.000
999.037; 1559.150;    0.000;    0.000
999.200; 1628.150;    0.000;    0.000
999.362; 1667.150;    0.000;    0.000
999.525; 1548.150;    0.000;    0.000
999.687; 1585.150;    0.000;    0.000
999.849; 1589.150;    0.000;    0.000
1000.012; 1568.150;    0.000;    0.000
1000.174; 1543.150;    0.000;    0.000
1000.336; 1592.150;    0.000;    0.000
1000.499; 1594.150;    0.000;    0.000
1000.661; 1692.150;    0.000;    0.000
1000.823; 1598.150;    0.000;    0.000
1000.985; 1589.150;    0.000;    0.000
1001.147; 1632.150;    0.000;    0.000
1001.309; 1613.150;    0.000;    0.000
1001.471; 1610.150;    0.000;    0.000
1001.633; 1647.150;    0.000;    0.000
1001.796; 1580.150;    0.000;    0.000
1001.958; 1630.150;    0.000;    0.000
1002.119; 1698.150;    0.000;    0.000
1002.281; 1757.150;    0.000;    0.000
1002.443; 1677.150;    0.000;    0.000
1002.605; 1742.150;    0.000;    0.000
1002.767; 1799.150;    0.000;    0.000
1002.929; 1875.150;    0.000;    0.000
1003.091; 1792.150;    0.000;    0.000
1003.252; 1894.150;    0.000;    0.000
1003.414; 1961.150;    0.000;    0.000
1003.576; 1903.150;    0.000;    0.000
1003.738; 1917.150;    0.000;    0.000
1003.899; 2002.150;    0.000;    0.000
1004.061; 2049.150;    0.000;    0.000
1004.222; 2240.150;    0.000;    0.000
1004.384; 2205.150;    0.000;    0.000
1004.546; 2096.150;    0.000;    0.000
1004.707; 2163.150;    0.000;    0.000
1004.869; 2128.150;    0.000;    0.000
1005.030; 2124.150;    0.000;    0.000
1005.191; 2092.150;    0.000;    0.000
1005.353; 1994.150;    0.000;    0.000
1005.514; 2047.150;    0.000;    0.000
1005.675; 1982.150;    0.000;    0.000
1005.837; 1994.150;    0.000;    0.000
1005.998; 1980.150;    0.000;    0.000
1006.159; 1907.150;    0.000;    0.000
1006.321; 1941.150;    0.000;    0.000
1006.482; 1917.150;    0.000;    0.000
1006.643; 2033.150;    0.000;    0.000
1006.804; 2038.150;    0.000;    0.000
1006.965; 2081.150;    0.000;    0.000
1007.126; 2156.150;    0.000;    0.000
1007.287; 2128.150;    0.000;    0.000
1007.448; 2080.150;    0.000;    0.000
1007.609; 2181.150;    0.000;    0.000
1007.770; 2186.150;    0.000;    0.000
1007.931; 2080.150;    0.000;    0.000
1008.092; 2166.150;    0.000;    0.000
1008.253; 2124.150;    0.000;    0.000
1008.414; 2078.150;    0.000;    0.000
1008.575; 2219.150;    0.000;    0.000
1008.736; 2252.150;    0.000;    0.000
1008.896; 2189.150;    0.000;    0.000
1009.057; 2200.150;    0.000;    0.000
1009.218; 2261.150;    0.000;    0.000
1009.379; 2239.150;    0.000;    0.000
1009.539; 2236.150;    0.000;    0.000
1009.700; 2290.150;    0.000;    0.000
1009.860; 2208.150;    0.000;    0.000
1010.021; 2174.150;    0.000;    0.000
1010.182; 2257.150;    0.000;    0.000
1010.342; 2252.150;    0.000;    0.000
1010.503; 2335.150;    0.000;    0.000
1010.663; 2386.150;    0.000;    0.000
1010.823; 2417.150;    0.000;    0.000
1010.984; 2466.150;    0.000;    0.000
1011.144; 2438.150;    0.000;    0.000
1011.305; 2513.150;    0.000;    0.000
1011.465; 2551.150;    0.000;    0.000
1011.625; 2596.150;    0.000;    0.000
1011.785; 2681.150;    0.000;    0.000
1011.946; 2545.150;    0.000;    0.000
1012.106; 2626.150;    0.000;    0.000
1012.266; 2587.150;    0.000;    0.000
1012.426; 2604.150;    0.000;    0.000
1012.586; 2564.150;    0.000;    0.000
1012.746; 2562.150;    0.000;    0.000
1012.906; 2469.150;    0.000;    0.000
1013.066; 2531.150;    0.000;    0.000
1013.226; 2556.150;    0.000;    0.000
1013.386; 2420.150;    0.000;    0.000
1013.546; 2465.150;    0.000;    0.000
1013.706; 2440.150;    0.000;    0.000
1013.866; 2487.150;    0.000;    0.000
1014.026; 2414.150;    0.000;    0.000
1014.186; 2460.150;    0.000;    0.000
1014.346; 2438.150;    0.000;    0.000
1014.505; 2382.150;    0.000;    0.000
1014.665; 2455.150;    0.000;    0.000
1014.825; 2567.150;    0.000;    0.000
1014.985; 2502.150;    0.000;    0.000
1015.144; 2549.150;    0.000;    0.000
1015.304; 2551.150;    0.000;    0.000
1015.464; 2633.150;    0.000;    0.000
1015.623; 2541.150;    0.000;    0.000
1015.783; 2573.150;    0.000;    0.000
1015.942; 2634.150;    0.000;    0.000
1016.102; 2789.150;    0.000;    0.000
1016.261; 2626.150;    0.000;    0.000
1016.420; 2694.150;    0.000;    0.000
1016.580; 2896.150;    0.000;    0.000
1016.739; 2885.150;    0.000;    0.000
1016.899; 2758.150;    0.000;    0.000
1017.058; 2757.150;    0.000;    0.000
1017.217; 3007.150;    0.000;    0.000
1017.376; 2980.150;    0.000;    0.000
1017.536; 2764.150;    0.000;    0.000
1017.695; 2651.150;    0.000;    0.000
1017.854; 2730.150;    0.000;    0.000
1018.013; 2827.150;    0.000;    0.000
1018.172; 2716.150;    0.000;    0.000
1018.331; 2638.150;    0.000;    0.000
1018.490; 2703.150;    0.000;    0.000
1018.649; 2785.150;    0.000;    0.000
1018.808; 2943.150;    0.000;    0.000
1018.967; 2768.150;    0.000;    0.000
1019.126; 2739.150;    0.000;    0.000
1019.285; 2805.150;    0.000;    0.000
1019.444; 2992.150;    0.000;    0.000
1019.603; 2863.150;    0.000;    0.000
1019.762; 2752.150;    0.000;    0.000
1019.921; 2739.150;    0.000;    0.000
1020.079; 2902.150;    0.000;    0.000
1020.238; 2956.150;    0.000;    0.000
1020.397; 3023.150;    0.000;    0.000
1020.555; 2862.150;    0.000;    0.000
1020.714; 2901.150;    0.000;    0.000
1020.873; 2953.150;    0.000;    0.000
1021.031; 2962.150;    0.000;    0.000
1021.190; 2895.150;    0.000;    0.000
1021.348; 2905.150;    0.000;    0.000
1021.507; 2976.150;    0.000;    0.000
1021.665; 2984.150;    0.000;    0.000
1021.824; 2887.150;    0.000;    0.000
1021.982; 2931.150;    0.000;    0.000
1022.141; 2938.150;    0.000;    0.000
1022.299; 3046.150;    0.000;    0.000
1022.457; 3068.150;    0.000;    0.000
1022.616; 3017.150;    0.000;    0.000
1022.774; 2869.150;    0.000;    0.000
1022.932; 3043.150;    0.000;    0.000
1023.090; 3067.150;    0.000;    0.000
1023.249; 3114.150;    0.000;    0.000
1023.407; 3056.150;    0.000;    0.000
1023.565; 2838.150;    0.000;    0.000
1023.723; 3031.150;    0.000;    0.000
1023.881; 3135.150;    0.000;    0.000
1024.039; 3147.150;    0.000;    0.000
1024.197; 3042.150;    0.000;    0.000
1024.355; 2909.150;    0.000;    0.000
1024.513; 2899.150;    0.000;    0.000
1024.671; 3069.150;    0.000;    0.000
1024.829; 3155.150;    0.000;    0.000
1024.987; 3101.150;    0.000;    0.000
1025.145; 2836.150;    0.000;    0.000
1025.302; 2941.150;    0.000;    0.000
1025.460; 3024.150;    0.000;    0.000
1025.618; 3289.150;    0.000;    0.000
1025.776; 3154.150;    0.000;    0.000
1025.933; 2812.150;    0.000;    0.000
1026.091; 2884.150;    0.000;    0.000
1026.249; 3180.150;    0.000;    0.000
1026.406; 3280.150;    0.000;    0.000
1026.564; 3129.150;    0.000;    0.000
1026.721; 3120.150;    0.000;    0.000
1026.879; 2960.150;    0.000;    0.000
1027.036; 3066.150;    0.000;    0.000
1027.194; 3294.150;    0.000;    0.000
1027.351; 3516.150;    0.000;    0.000
1027.509; 3362.150;    0.000;    0.000
1027.666; 3162.150;    0.000;    0.000
1027.823; 3089.150;    0.000;    0.000
1027.981; 3203.150;    0.000;    0.000
1028.138; 3408.150;    0.000;    0.000
1028.295; 3325.150;    0.000;    0.000
1028.452; 3277.150;    0.000;    0.000
1028.609; 3082.150;    0.000;    0.000
1028.767; 3277.150;    0.000;    0.000
1028.924; 3306.150;    0.000;    0.000
1029.081; 3278.150;    0.000;    0.000
1029.238; 3340.150;    0.000;    0.000
1029.395; 3195.150;    0.000;    0.000
1029.552; 3146.150;    0.000;    0.000
1029.709; 3329.150;    0.000;    0.000
1029.866; 3367.150;    0.000;    0.000
1030.023; 3430.150;    0.000;    0.000
1030.180; 3315.150;    0.000;    0.000
1030.337; 3359.150;    0.000;    0.000
1030.494; 3328.150;    0.000;    0.000
1030.650; 3413.150;    0.000;    0.000
1030.807; 3439.150;    0.000;    0.000
1030.964; 3311.150;    0.000;    0.000
1031.121; 3343.150;    0.000;    0.000
1031.277; 3410.150;    0.000;    0.000
1031.434; 3486.150;    0.000;    0.000
1031.591; 3605.150;    0.000;    0.000
1031.747; 3463.150;    0.000;    0.000
1031.904; 3489.150;    0.000;    0.000
1032.060; 3205.150;    0.000;    0.000
1032.217; 3279.150;    0.000;    0.000
1032.373; 3700.150;    0.000;    0.000
1032.530; 3843.150;    0.000;    0.000
1032.686; 3906.150;    0.000;    0.000
1032.843; 3974.150;    0.000;    0.000
1032.999; 3635.150;    0.000;    0.000
1033.155; 3770.150;    0.000;    0.000
1033.312; 3967.150;    0.000;    0.000
1033.468; 4171.150;    0.000;    0.000
1033.624; 4617.150;    0.000;    0.000
1033.780; 4467.150;    0.000;    0.000
1033.937; 4753.150;    0.000;    0.000
1034.093; 4169.150;    0.000;    0.000
1034.249; 4395.150;    0.000;    0.000
1034.405; 4492.150;    0.000;    0.000
1034.561; 4645.150;    0.000;    0.000
1034.717; 4842.150;    0.000;    0.000
1034.873; 4706.150;    0.000;    0.000
1035.029; 4681.150;    0.000;    0.000
1035.185; 4638.150;    0.000;    0.000
1035.341; 4436.150;    0.000;    0.000
1035.497; 4803.150;    0.000;    0.000
1035.653; 4927.150;    0.000;    0.000
1035.809; 5118.150;    0.000;    0.000
1035.964; 5605.150;    0.000;    0.000
1036.120; 5282.150;    0.000;    0.000
1036.276; 5153.150;    0.000;    0.000
1036.432; 5127.150;    0.000;    0.000
1036.587; 4707.150;    0.000;    0.000
1036.743; 4970.150;    0.000;    0.000
1036.899; 5467.150;    0.000;    0.000
1037.054; 5412.150;    0.000;    0.000
1037.210; 5703.150;    0.000;    0.000
1037.365; 6149.150;    0.000;    0.000
1037.521; 5691.150;    0.000;    0.000
1037.676; 5683.150;    0.000;    0.000
1037.832; 5410.150;    0.000;    0.000
1037.987; 5111.150;    0.000;    0.000
1038.143; 5106.150;    0.000;    0.000
1038.298; 6165.150;    0.000;    0.000
1038.453; 5991.150;    0.000;    0.000
1038.609; 6179.150;    0.000;    0.000
1038.764; 6565.150;    0.000;    0.000
1038.919; 6237.150;    0.000;    0.000
1039.074; 6110.150;    0.000;    0.000
1039.229; 5933.150;    0.000;    0.000
1039.385; 5517.150;    0.000;    0.000
1039.540; 5614.150;    0.000;    0.000
1039.695; 6200.150;    0.000;    0.000
1039.850; 6789.150;    0.000;    0.000
1040.005; 6726.150;    0.000;    0.000
1040.160; 7416.150;    0.000;    0.000
1040.315; 7351.150;    0.000;    0.000
1040.470; 6720.150;    0.000;    0.000
1040.625; 6606.150;    0.000;    0.000
1040.780; 6465.150;    0.000;    0.000
1040.935; 6128.150;    0.000;    0.000
1041.089; 6339.150;    0.000;    0.000
1041.244; 7140.150;    0.000;    0.000
1041.399; 7899.150;    0.000;    0.000
1041.554; 7822.150;    0.000;    0.000
1041.708; 8504.150;    0.000;    0.000
1041.863; 9211.150;    0.000;    0.000
1042.018; 8214.150;    0.000;    0.000
1042.172; 7595.150;    0.000;    0.000
1042.327; 7945.150;    0.000;    0.000
1042.481; 7294.150;    0.000;    0.000
1042.636; 7611.150;    0.000;    0.000
1042.791; 7415.150;    0.000;    0.000
1042.945; 8243.150;    0.000;    0.000
1043.099;10394.150;    0.000;    0.000
1043.254; 9811.150;    0.000;    0.000
1043.408; 9647.150;    0.000;    0.000
1043.563;10751.150;    0.000;    0.000
1043.717;10745.150;    0.000;    0.000
1043.871; 9537.150;    0.000;    0.000
1044.025; 9005.150;    0.000;    0.000
1044.180; 8941.150;    0.000;    0.000
1044.334; 8895.150;    0.000;    0.000
1044.488; 9322.150;    0.000;    0.000
1044.642; 9682.150;    0.000;    0.000
1044.796; 9948.150;    0.000;    0.000
1044.950;12174.150;    0.000;    0.000
1045.104;12967.150;    0.000;    0.000
1045.258;12763.150;    0.000;    0.000
1045.412;12679.150;    0.000;    0.000
1045.566;12848.150;    0.000;    0.000
1045.720;12049.150;    0.000;    0.000
1045.874;11215.150;    0.000;    0.000
1046.028;11195.150;    0.000;    0.000
1046.182;10489.150;    0.000;    0.000
1046.336;10642.150;    0.000;    0.000
1046.489;11126.150;    0.000;    0.000
1046.643;11547.150;    0.000;    0.000
1046.797;11723.150;    0.000;    0.000
1046.951;12926.150;    0.000;    0.000
1047.104;14493.150;    0.000;    0.000
1047.258;14565.150;    0.000;    0.000
1047.411;14289.150;    0.000;    0.000
1047.565;14487.150;    0.000;    0.000
1047.719;15201.150;    0.000;    0.000
1047.872;14756.150;    0.000;    0.000
1048.026;13032.150;    0.000;    0.000
1048.179;13148.150;    0.000;    0.000
1048.332;12711.150;    0.000;    0.000
1048.486;12826.150;    0.000;    0.000
1048.639;13160.150;    0.000;    0.000
1048.792;13206.150;    0.000;    0.000
1048.946;14200.150;    0.000;    0.000
1049.099;15037.150;    0.000;    0.000
1049.252;14715.150;    0.000;    0.000
1049.406;14732.150;    0.000;    0.000
1049.559;15115.150;    0.000;    0.000
1049.712;17666.150;    0.000;    0.000
1049.865;19154.150;    0.000;    0.000
1050.018;18793.150;    0.000;    0.000
1050.171;16910.150;    0.000;    0.000
1050.324;15151.150;    0.000;    0.000
1050.477;16761.150;    0.000;    0.000
1050.630;18469.150;    0.000;    0.000
1050.783;19680.150;    0.000;    0.000
1050.936;18197.150;    0.000;    0.000
1051.089;16679.150;    0.000;    0.000
1051.242;16858.150;    0.000;    0.000
1051.394;18024.150;    0.000;    0.000
1051.547;20610.150;    0.000;    0.000
1051.700;20748.150;    0.000;    0.000
1051.853;20169.150;    0.000;    0.000
1052.005;19379.150;    0.000;    0.000
1052.158;21094.150;    0.000;    0.000
1052.311;22721.150;    0.000;    0.000
1052.463;23246.150;    0.000;    0.000
1052.616;21174.150;    0.000;    0.000
1052.768;20451.150;    0.000;    0.000
1052.921;19369.150;    0.000;    0.000
1053.073;19638.150;    0.000;    0.000
1053.226;20913.150;    0.000;    0.000
1053.378;25085.150;    0.000;    0.000
1053.531;27239.150;    0.000;    0.000
1053.683;26574.150;    0.000;    0.000
1053.835;23279.150;    0.000;    0.000
1053.988;17796.150;    0.000;    0.000
1054.140; 3212.150;    0.000;    0.000
1054.292;  863.150;    0.000;    0.000
1054.444;  693.150;    0.000;    0.000
1054.596;  665.150;    0.000;    0.000
1054.749;  558.150;    0.000;    0.000
1054.901;  562.150;    0.000;    0.000
1055.053;  577.150;    0.000;    0.000
1055.205;  566.150;    0.000;    0.000
1055.357;  566.150;    0.000;    0.000
1055.509;  513.150;    0.000;    0.000
1055.661;  559.150;    0.000;    0.000
1055.813;  514.150;    0.000;    0.000
1055.965;  555.150;    0.000;    0.000
1056.116;  505.150;    0.000;    0.000
1056.268;  520.150;    0.000;    0.000
1056.420;  563.150;    0.000;    0.000

