
Integration time [ms]:   1.000
Averaging Nr. [scans]: 1
Smoothing Nr. [pixels]: 0
Data measured with spectrometer [name]: VIS
Wave   ;Sample   ;Dark     ;Reference
[nm]   ;[counts] ;[counts] ;[counts] 

450.961;  206.400;    0.000;    0.000
451.100;  195.400;    0.000;    0.000
451.239;  210.400;    0.000;    0.000
451.377;  217.400;    0.000;    0.000
451.516;  197.400;    0.000;    0.000
451.655;  191.400;    0.000;    0.000
451.794;  238.400;    0.000;    0.000
451.932;  203.400;    0.000;    0.000
452.071;  215.400;    0.000;    0.000
452.210;  231.400;    0.000;    0.000
452.348;  218.400;    0.000;    0.000
452.487;  221.400;    0.000;    0.000
452.626;  208.400;    0.000;    0.000
452.764;  204.400;    0.000;    0.000
452.903;  186.400;    0.000;    0.000
453.042;  251.400;    0.000;    0.000
453.180; 3591.400;    0.000;    0.000
453.319; 3694.400;    0.000;    0.000
453.458; 3654.400;    0.000;    0.000
453.596; 3633.400;    0.000;    0.000
453.735; 3758.400;    0.000;    0.000
453.873; 3720.400;    0.000;    0.000
454.012; 3745.400;    0.000;    0.000
454.150; 3849.400;    0.000;    0.000
454.289; 3815.400;    0.000;    0.000
454.427; 4051.400;    0.000;    0.000
454.566; 3854.400;    0.000;    0.000
454.704; 4001.400;    0.000;    0.000
454.843; 4047.400;    0.000;    0.000
454.981; 4178.400;    0.000;    0.000
455.120; 4116.400;    0.000;    0.000
455.258; 4221.400;    0.000;    0.000
455.397; 4089.400;    0.000;    0.000
455.535; 4258.400;    0.000;    0.000
455.674; 4279.400;    0.000;    0.000
455.812; 4318.400;    0.000;    0.000
455.951; 4411.400;    0.000;    0.000
456.089; 4339.400;    0.000;    0.000
456.227; 4531.400;    0.000;    0.000
456.366; 4468.400;    0.000;    0.000
456.504; 4661.400;    0.000;    0.000
456.642; 4766.400;    0.000;    0.000
456.781; 4548.400;    0.000;    0.000
456.919; 4522.400;    0.000;    0.000
457.057; 4508.400;    0.000;    0.000
457.196; 4431.400;    0.000;    0.000
457.334; 4559.400;    0.000;    0.000
457.472; 4614.400;    0.000;    0.000
457.610; 4687.400;    0.000;    0.000
457.749; 4790.400;    0.000;    0.000
457.887; 5000.400;    0.000;    0.000
458.025; 5068.400;    0.000;    0.000
458.163; 4993.400;    0.000;    0.000
458.301; 5138.400;    0.000;    0.000
458.440; 5091.400;    0.000;    0.000
458.578; 5246.400;    0.000;    0.000
458.716; 5122.400;    0.000;    0.000
458.854; 5215.400;    0.000;    0.000
458.992; 5169.400;    0.000;    0.000
459.130; 5180.400;    0.000;    0.000
459.269; 5301.400;    0.000;    0.000
459.407; 5447.400;    0.000;    0.000
459.545; 5174.400;    0.000;    0.000
459.683; 5593.400;    0.000;    0.000
459.821; 5356.400;    0.000;    0.000
459.959; 5443.400;    0.000;    0.000
460.097; 5394.400;    0.000;    0.000
460.235; 5487.400;    0.000;    0.000
460.373; 5569.400;    0.000;    0.000
460.511; 5546.400;    0.000;    0.000
460.649; 5492.400;    0.000;    0.000
460.787; 5497.400;    0.000;    0.000
460.925; 5630.400;    0.000;    0.000
461.063; 5603.400;    0.000;    0.000
461.201; 5607.400;    0.000;    0.000
461.339; 5834.400;    0.000;    0.000
461.477; 5595.400;    0.000;    0.000
461.615; 5687.400;    0.000;    0.000
461.753; 5904.400;    0.000;    0.000
461.891; 5796.400;    0.000;    0.000
462.029; 5867.400;    0.000;    0.000
462.166; 5858.400;    0.000;    0.000
462.304; 5930.400;    0.000;    0.000
462.442; 5918.400;    0.000;    0.000
462.580; 5994.400;    0.000;    0.000
462.718; 5996.400;    0.000;    0.000
462.856; 5923.400;    0.000;    0.000
462.993; 5905.400;    0.000;    0.000
463.131; 5871.400;    0.000;    0.000
463.269; 5803.400;    0.000;    0.000
463.407; 5886.400;    0.000;    0.000
463.545; 5832.400;    0.000;    0.000
463.682; 5723.400;    0.000;    0.000
463.820; 5912.400;    0.000;    0.000
463.958; 6072.400;    0.000;    0.000
464.095; 6079.400;    0.000;    0.000
464.233; 6218.400;    0.000;    0.000
464.371; 6160.400;    0.000;    0.000
464.509; 6172.400;    0.000;    0.000
464.646; 6248.400;    0.000;    0.000
464.784; 6202.400;    0.000;    0.000
464.921; 6107.400;    0.000;    0.000
465.059; 6156.400;    0.000;    0.000
465.197; 6098.400;    0.000;    0.000
465.334; 6110.400;    0.000;    0.000
465.472; 6009.400;    0.000;    0.000
465.609; 6020.400;    0.000;    0.000
465.747; 6102.400;    0.000;    0.000
465.885; 6061.400;    0.000;    0.000
466.022; 6003.400;    0.000;    0.000
466.160; 6007.400;    0.000;    0.000
466.297; 6120.400;    0.000;    0.000
466.435; 6043.400;    0.000;    0.000
466.572; 6099.400;    0.000;    0.000
466.710; 6032.400;    0.000;    0.000
466.847; 6058.400;    0.000;    0.000
466.985; 6144.400;    0.000;    0.000
467.122; 6000.400;    0.000;    0.000
467.260; 6062.400;    0.000;    0.000
467.397; 6048.400;    0.000;    0.000
467.534; 6103.400;    0.000;    0.000
467.672; 6066.400;    0.000;    0.000
467.809; 6146.400;    0.000;    0.000
467.947; 6175.400;    0.000;    0.000
468.084; 6080.400;    0.000;    0.000
468.221; 6188.400;    0.000;    0.000
468.359; 6081.400;    0.000;    0.000
468.496; 6053.400;    0.000;    0.000
468.633; 6102.400;    0.000;    0.000
468.771; 6088.400;    0.000;    0.000
468.908; 6072.400;    0.000;    0.000
469.045; 6111.400;    0.000;    0.000
469.183; 6153.400;    0.000;    0.000
469.320; 6165.400;    0.000;    0.000
469.457; 6292.400;    0.000;    0.000
469.594; 6308.400;    0.000;    0.000
469.732; 6136.400;    0.000;    0.000
469.869; 6341.400;    0.000;    0.000
470.006; 6343.400;    0.000;    0.000
470.143; 6248.400;    0.000;    0.000
470.280; 6192.400;    0.000;    0.000
470.417; 6232.400;    0.000;    0.000
470.555; 6223.400;    0.000;    0.000
470.692; 6268.400;    0.000;    0.000
470.829; 6190.400;    0.000;    0.000
470.966; 6248.400;    0.000;    0.000
471.103; 6238.400;    0.000;    0.000
471.240; 6214.400;    0.000;    0.000
471.377; 6338.400;    0.000;    0.000
471.514; 6393.400;    0.000;    0.000
471.651; 6146.400;    0.000;    0.000
471.789; 6233.400;    0.000;    0.000
471.926; 6181.400;    0.000;    0.000
472.063; 6321.400;    0.000;    0.000
472.200; 6345.400;    0.000;    0.000
472.337; 6221.400;    0.000;    0.000
472.474; 6279.400;    0.000;    0.000
472.611; 6261.400;    0.000;    0.000
472.748; 6361.400;    0.000;    0.000
472.884; 6377.400;    0.000;    0.000
473.021; 6215.400;    0.000;    0.000
473.158; 6316.400;    0.000;    0.000
473.295; 6349.400;    0.000;    0.000
473.432; 6203.400;    0.000;    0.000
473.569; 6399.400;    0.000;    0.000
473.706; 6360.400;    0.000;    0.000
473.843; 6206.400;    0.000;    0.000
473.980; 6295.400;    0.000;    0.000
474.117; 6318.400;    0.000;    0.000
474.253; 6456.400;    0.000;    0.000
474.390; 6226.400;    0.000;    0.000
474.527; 6295.400;    0.000;    0.000
474.664; 6224.400;    0.000;    0.000
474.801; 6391.400;    0.000;    0.000
474.937; 6308.400;    0.000;    0.000
475.074; 6363.400;    0.000;    0.000
475.211; 6472.400;    0.000;    0.000
475.348; 6504.400;    0.000;    0.000
475.484; 6486.400;    0.000;    0.000
475.621; 6476.400;    0.000;    0.000
475.758; 6380.400;    0.000;    0.000
475.894; 6426.400;    0.000;    0.000
476.031; 6346.400;    0.000;    0.000
476.168; 6425.400;    0.000;    0.000
476.304; 6488.400;    0.000;    0.000
476.441; 6472.400;    0.000;    0.000
476.578; 6471.400;    0.000;    0.000
476.714; 6505.400;    0.000;    0.000
476.851; 6605.400;    0.000;    0.000
476.987; 6636.400;    0.000;    0.000
477.124; 6454.400;    0.000;    0.000
477.261; 6446.400;    0.000;    0.000
477.397; 6393.400;    0.000;    0.000
477.534; 6577.400;    0.000;    0.000
477.670; 6636.400;    0.000;    0.000
477.807; 6521.400;    0.000;    0.000
477.943; 6607.400;    0.000;    0.000
478.080; 6559.400;    0.000;    0.000
478.216; 6539.400;    0.000;    0.000
478.353; 6532.400;    0.000;    0.000
478.489; 6777.400;    0.000;    0.000
478.626; 6676.400;    0.000;    0.000
478.762; 6708.400;    0.000;    0.000
478.898; 6900.400;    0.000;    0.000
479.035; 6758.400;    0.000;    0.000
479.171; 6625.400;    0.000;    0.000
479.308; 6546.400;    0.000;    0.000
479.444; 6614.400;    0.000;    0.000
479.580; 6670.400;    0.000;    0.000
479.717; 6825.400;    0.000;    0.000
479.853; 6737.400;    0.000;    0.000
479.989; 6771.400;    0.000;    0.000
480.126; 6635.400;    0.000;    0.000
480.262; 6815.400;    0.000;    0.000
480.398; 6481.400;    0.000;    0.000
480.535; 6623.400;    0.000;    0.000
480.671; 6674.400;    0.000;    0.000
480.807; 6684.400;    0.000;    0.000
480.943; 6826.400;    0.000;    0.000
481.080; 6707.400;    0.000;    0.000
481.216; 6690.400;    0.000;    0.000
481.352; 6719.400;    0.000;    0.000
481.488; 6786.400;    0.000;    0.000
481.624; 6831.400;    0.000;    0.000
481.760; 6644.400;    0.000;    0.000
481.897; 6805.400;    0.000;    0.000
482.033; 6802.400;    0.000;    0.000
482.169; 6929.400;    0.000;    0.000
482.305; 6962.400;    0.000;    0.000
482.441; 6716.400;    0.000;    0.000
482.577; 6703.400;    0.000;    0.000
482.713; 6895.400;    0.000;    0.000
482.849; 6575.400;    0.000;    0.000
482.985; 6801.400;    0.000;    0.000
483.121; 6774.400;    0.000;    0.000
483.258; 6874.400;    0.000;    0.000
483.394; 6750.400;    0.000;    0.000
483.530; 6812.400;    0.000;    0.000
483.665; 6825.400;    0.000;    0.000
483.801; 6809.400;    0.000;    0.000
483.937; 6777.400;    0.000;    0.000
484.073; 6725.400;    0.000;    0.000
484.209; 6926.400;    0.000;    0.000
484.345; 6793.400;    0.000;    0.000
484.481; 6745.400;    0.000;    0.000
484.617; 6805.400;    0.000;    0.000
484.753; 6875.400;    0.000;    0.000
484.889; 6867.400;    0.000;    0.000
485.025; 6765.400;    0.000;    0.000
485.161; 6741.400;    0.000;    0.000
485.296; 6787.400;    0.000;    0.000
485.432; 6802.400;    0.000;    0.000
485.568; 6922.400;    0.000;    0.000
485.704; 6853.400;    0.000;    0.000
485.840; 6855.400;    0.000;    0.000
485.975; 6838.400;    0.000;    0.000
486.111; 6681.400;    0.000;    0.000
486.247; 6913.400;    0.000;    0.000
486.383; 6791.400;    0.000;    0.000
486.518; 6666.400;    0.000;    0.000
486.654; 6687.400;    0.000;    0.000
486.790; 6691.400;    0.000;    0.000
486.926; 6881.400;    0.000;    0.000
487.061; 6900.400;    0.000;    0.000
487.197; 6855.400;    0.000;    0.000
487.333; 6856.400;    0.000;    0.000
487.468; 6704.400;    0.000;    0.000
487.604; 6931.400;    0.000;    0.000
487.740; 6998.400;    0.000;    0.000
487.875; 6910.400;    0.000;    0.000
488.011; 6864.400;    0.000;    0.000
488.146; 6922.400;    0.000;    0.000
488.282; 7008.400;    0.000;    0.000
488.417; 6847.400;    0.000;    0.000
488.553; 6887.400;    0.000;    0.000
488.688; 6890.400;    0.000;    0.000
488.824; 6861.400;    0.000;    0.000
488.960; 6924.400;    0.000;    0.000
489.095; 6788.400;    0.000;    0.000
489.230; 6862.400;    0.000;    0.000
489.366; 6937.400;    0.000;    0.000
489.501; 6899.400;    0.000;    0.000
489.637; 6866.400;    0.000;    0.000
489.772; 6960.400;    0.000;    0.000
489.908; 6939.400;    0.000;    0.000
490.043; 6983.400;    0.000;    0.000
490.178; 6972.400;    0.000;    0.000
490.314; 6929.400;    0.000;    0.000
490.449; 6900.400;    0.000;    0.000
490.585; 6924.400;    0.000;    0.000
490.720; 6950.400;    0.000;    0.000
490.855; 6826.400;    0.000;    0.000
490.991; 6883.400;    0.000;    0.000
491.126; 6956.400;    0.000;    0.000
491.261; 6834.400;    0.000;    0.000
491.396; 6835.400;    0.000;    0.000
491.532; 6885.400;    0.000;    0.000
491.667; 6918.400;    0.000;    0.000
491.802; 6830.400;    0.000;    0.000
491.937; 6863.400;    0.000;    0.000
492.073; 6882.400;    0.000;    0.000
492.208; 6863.400;    0.000;    0.000
492.343; 6969.400;    0.000;    0.000
492.478; 6891.400;    0.000;    0.000
492.613; 6864.400;    0.000;    0.000
492.749; 6865.400;    0.000;    0.000
492.884; 6760.400;    0.000;    0.000
493.019; 6821.400;    0.000;    0.000
493.154; 6944.400;    0.000;    0.000
493.289; 6894.400;    0.000;    0.000
493.424; 6859.400;    0.000;    0.000
493.559; 6948.400;    0.000;    0.000
493.694; 6855.400;    0.000;    0.000
493.829; 6910.400;    0.000;    0.000
493.964; 6879.400;    0.000;    0.000
494.099; 7046.400;    0.000;    0.000
494.234; 6928.400;    0.000;    0.000
494.369; 6892.400;    0.000;    0.000
494.504; 6949.400;    0.000;    0.000
494.639; 6864.400;    0.000;    0.000
494.774; 6961.400;    0.000;    0.000
494.909; 6958.400;    0.000;    0.000
495.044; 6952.400;    0.000;    0.000
495.179; 6845.400;    0.000;    0.000
495.314; 6958.400;    0.000;    0.000
495.449; 7009.400;    0.000;    0.000
495.584; 6903.400;    0.000;    0.000
495.719; 6924.400;    0.000;    0.000
495.854; 6835.400;    0.000;    0.000
495.988; 6929.400;    0.000;    0.000
496.123; 6949.400;    0.000;    0.000
496.258; 6962.400;    0.000;    0.000
496.393; 7098.400;    0.000;    0.000
496.528; 7032.400;    0.000;    0.000
496.663; 7061.400;    0.000;    0.000
496.797; 6977.400;    0.000;    0.000
496.932; 7027.400;    0.000;    0.000
497.067; 7189.400;    0.000;    0.000
497.202; 7050.400;    0.000;    0.000
497.336; 7203.400;    0.000;    0.000
497.471; 7127.400;    0.000;    0.000
497.606; 7300.400;    0.000;    0.000
497.740; 7393.400;    0.000;    0.000
497.875; 7251.400;    0.000;    0.000
498.010; 7380.400;    0.000;    0.000
498.144; 7268.400;    0.000;    0.000
498.279; 7364.400;    0.000;    0.000
498.414; 7481.400;    0.000;    0.000
498.548; 7446.400;    0.000;    0.000
498.683; 7610.400;    0.000;    0.000
498.817; 7410.400;    0.000;    0.000
498.952; 7514.400;    0.000;    0.000
499.087; 7505.400;    0.000;    0.000
499.221; 7589.400;    0.000;    0.000
499.356; 7459.400;    0.000;    0.000
499.490; 7633.400;    0.000;    0.000
499.625; 7755.400;    0.000;    0.000
499.759; 7775.400;    0.000;    0.000
499.894; 7851.400;    0.000;    0.000
500.028; 7780.400;    0.000;    0.000
500.162; 7879.400;    0.000;    0.000
500.297; 7768.400;    0.000;    0.000
500.431; 7918.400;    0.000;    0.000
500.566; 7814.400;    0.000;    0.000
500.700; 7894.400;    0.000;    0.000
500.835; 7936.400;    0.000;    0.000
500.969; 7752.400;    0.000;    0.000
501.103; 7785.400;    0.000;    0.000
501.238; 7691.400;    0.000;    0.000
501.372; 7473.400;    0.000;    0.000
501.506; 7586.400;    0.000;    0.000
501.641; 7586.400;    0.000;    0.000
501.775; 7475.400;    0.000;    0.000
501.909; 7324.400;    0.000;    0.000
502.043; 7299.400;    0.000;    0.000
502.178; 7215.400;    0.000;    0.000
502.312; 7209.400;    0.000;    0.000
502.446; 7140.400;    0.000;    0.000
502.580; 7062.400;    0.000;    0.000
502.715; 6940.400;    0.000;    0.000
502.849; 6962.400;    0.000;    0.000
502.983; 6979.400;    0.000;    0.000
503.117; 7052.400;    0.000;    0.000
503.251; 6811.400;    0.000;    0.000
503.385; 6930.400;    0.000;    0.000
503.520; 6769.400;    0.000;    0.000
503.654; 6738.400;    0.000;    0.000
503.788; 6722.400;    0.000;    0.000
503.922; 6686.400;    0.000;    0.000
504.056; 6763.400;    0.000;    0.000
504.190; 6547.400;    0.000;    0.000
504.324; 6697.400;    0.000;    0.000
504.458; 6555.400;    0.000;    0.000
504.592; 6573.400;    0.000;    0.000
504.726; 6458.400;    0.000;    0.000
504.860; 6426.400;    0.000;    0.000
504.994; 6465.400;    0.000;    0.000
505.128; 6420.400;    0.000;    0.000
505.262; 6389.400;    0.000;    0.000
505.396; 6411.400;    0.000;    0.000
505.530; 6225.400;    0.000;    0.000
505.664; 6209.400;    0.000;    0.000
505.798; 6282.400;    0.000;    0.000
505.932; 6149.400;    0.000;    0.000
506.066; 6084.400;    0.000;    0.000
506.199; 6161.400;    0.000;    0.000
506.333; 6105.400;    0.000;    0.000
506.467; 6033.400;    0.000;    0.000
506.601; 5885.400;    0.000;    0.000
506.735; 6040.400;    0.000;    0.000
506.869; 5959.400;    0.000;    0.000
507.002; 5921.400;    0.000;    0.000
507.136; 5889.400;    0.000;    0.000
507.270; 5951.400;    0.000;    0.000
507.404; 5828.400;    0.000;    0.000
507.537; 5958.400;    0.000;    0.000
507.671; 5883.400;    0.000;    0.000
507.805; 5793.400;    0.000;    0.000
507.939; 5696.400;    0.000;    0.000
508.072; 5774.400;    0.000;    0.000
508.206; 5743.400;    0.000;    0.000
508.340; 5774.400;    0.000;    0.000
508.473; 5765.400;    0.000;    0.000
508.607; 5684.400;    0.000;    0.000
508.740; 5661.400;    0.000;    0.000
508.874; 5712.400;    0.000;    0.000
509.008; 5733.400;    0.000;    0.000
509.141; 5563.400;    0.000;    0.000
509.275; 5736.400;    0.000;    0.000
509.408; 5549.400;    0.000;    0.000
509.542; 5572.400;    0.000;    0.000
509.675; 5589.400;    0.000;    0.000
509.809; 5566.400;    0.000;    0.000
509.942; 5592.400;    0.000;    0.000
510.076; 5497.400;    0.000;    0.000
510.209; 5588.400;    0.000;    0.000
510.343; 5509.400;    0.000;    0.000
510.476; 5563.400;    0.000;    0.000
510.610; 5560.400;    0.000;    0.000
510.743; 5517.400;    0.000;    0.000
510.877; 5534.400;    0.000;    0.000
511.010; 5493.400;    0.000;    0.000
511.143; 5434.400;    0.000;    0.000
511.277; 5426.400;    0.000;    0.000
511.410; 5467.400;    0.000;    0.000
511.543; 5427.400;    0.000;    0.000
511.677; 5387.400;    0.000;    0.000
511.810; 5385.400;    0.000;    0.000
511.943; 5421.400;    0.000;    0.000
512.077; 5230.400;    0.000;    0.000
512.210; 5352.400;    0.000;    0.000
512.343; 5344.400;    0.000;    0.000
512.476; 5343.400;    0.000;    0.000
512.610; 5381.400;    0.000;    0.000
512.743; 5287.400;    0.000;    0.000
512.876; 5468.400;    0.000;    0.000
513.009; 5360.400;    0.000;    0.000
513.142; 5306.400;    0.000;    0.000
513.276; 5121.400;    0.000;    0.000
513.409; 5358.400;    0.000;    0.000
513.542; 5268.400;    0.000;    0.000
513.675; 5348.400;    0.000;    0.000
513.808; 5141.400;    0.000;    0.000
513.941; 5489.400;    0.000;    0.000
514.074; 5343.400;    0.000;    0.000
514.207; 5352.400;    0.000;    0.000
514.340; 5354.400;    0.000;    0.000
514.474; 5265.400;    0.000;    0.000
514.607; 5289.400;    0.000;    0.000
514.740; 5374.400;    0.000;    0.000
514.873; 5362.400;    0.000;    0.000
515.006; 5385.400;    0.000;    0.000
515.139; 5293.400;    0.000;    0.000
515.272; 5221.400;    0.000;    0.000
515.404; 5357.400;    0.000;    0.000
515.537; 5349.400;    0.000;    0.000
515.670; 5519.400;    0.000;    0.000
515.803; 5395.400;    0.000;    0.000
515.936; 5353.400;    0.000;    0.000
516.069; 5285.400;    0.000;    0.000
516.202; 5377.400;    0.000;    0.000
516.335; 5590.400;    0.000;    0.000
516.468; 5522.400;    0.000;    0.000
516.600; 5849.400;    0.000;    0.000
516.733; 6367.400;    0.000;    0.000
516.866; 6313.400;    0.000;    0.000
516.999; 6127.400;    0.000;    0.000
517.132; 6793.400;    0.000;    0.000
517.264; 7703.400;    0.000;    0.000
517.397; 7790.400;    0.000;    0.000
517.530; 6709.400;    0.000;    0.000
517.663; 6200.400;    0.000;    0.000
517.795; 6071.400;    0.000;    0.000
517.928; 5944.400;    0.000;    0.000
518.061; 6087.400;    0.000;    0.000
518.193; 6915.400;    0.000;    0.000
518.326; 8772.400;    0.000;    0.000
518.459; 8900.400;    0.000;    0.000
518.591; 7462.400;    0.000;    0.000
518.724; 6546.400;    0.000;    0.000
518.857; 6124.400;    0.000;    0.000
518.989; 5830.400;    0.000;    0.000
519.122; 5802.400;    0.000;    0.000
519.254; 5755.400;    0.000;    0.000
519.387; 5667.400;    0.000;    0.000
519.519; 5596.400;    0.000;    0.000
519.652; 5461.400;    0.000;    0.000
519.784; 5395.400;    0.000;    0.000
519.917; 5330.400;    0.000;    0.000
520.049; 5242.400;    0.000;    0.000
520.182; 5262.400;    0.000;    0.000
520.314; 5417.400;    0.000;    0.000
520.447; 5188.400;    0.000;    0.000
520.579; 5271.400;    0.000;    0.000
520.712; 5121.400;    0.000;    0.000
520.844; 5249.400;    0.000;    0.000
520.976; 5191.400;    0.000;    0.000
521.109; 5100.400;    0.000;    0.000
521.241; 4956.400;    0.000;    0.000
521.373; 4871.400;    0.000;    0.000
521.506; 4957.400;    0.000;    0.000
521.638; 5094.400;    0.000;    0.000
521.770; 4908.400;    0.000;    0.000
521.903; 4920.400;    0.000;    0.000
522.035; 4900.400;    0.000;    0.000
522.167; 4927.400;    0.000;    0.000
522.300; 4865.400;    0.000;    0.000
522.432; 4838.400;    0.000;    0.000
522.564; 4770.400;    0.000;    0.000
522.696; 4852.400;    0.000;    0.000
522.828; 4746.400;    0.000;    0.000
522.961; 4787.400;    0.000;    0.000
523.093; 4797.400;    0.000;    0.000
523.225; 4891.400;    0.000;    0.000
523.357; 4794.400;    0.000;    0.000
523.489; 4773.400;    0.000;    0.000
523.621; 4860.400;    0.000;    0.000
523.753; 4761.400;    0.000;    0.000
523.885; 4788.400;    0.000;    0.000
524.018; 4693.400;    0.000;    0.000
524.150; 4685.400;    0.000;    0.000
524.282; 4724.400;    0.000;    0.000
524.414; 4717.400;    0.000;    0.000
524.546; 4586.400;    0.000;    0.000
524.678; 4671.400;    0.000;    0.000
524.810; 4713.400;    0.000;    0.000
524.942; 4566.400;    0.000;    0.000
525.074; 4675.400;    0.000;    0.000
525.206; 4565.400;    0.000;    0.000
525.338; 4634.400;    0.000;    0.000
525.469; 4521.400;    0.000;    0.000
525.601; 4589.400;    0.000;    0.000
525.733; 4616.400;    0.000;    0.000
525.865; 4541.400;    0.000;    0.000
525.997; 4469.400;    0.000;    0.000
526.129; 4593.400;    0.000;    0.000
526.261; 4529.400;    0.000;    0.000
526.393; 4508.400;    0.000;    0.000
526.524; 4471.400;    0.000;    0.000
526.656; 4539.400;    0.000;    0.000
526.788; 4585.400;    0.000;    0.000
526.920; 4533.400;    0.000;    0.000
527.052; 4504.400;    0.000;    0.000
527.183; 4544.400;    0.000;    0.000
527.315; 4552.400;    0.000;    0.000
527.447; 4539.400;    0.000;    0.000
527.578; 4407.400;    0.000;    0.000
527.710; 4532.400;    0.000;    0.000
527.842; 4304.400;    0.000;    0.000
527.973; 4480.400;    0.000;    0.000
528.105; 4464.400;    0.000;    0.000
528.237; 4532.400;    0.000;    0.000
528.368; 4346.400;    0.000;    0.000
528.500; 4304.400;    0.000;    0.000
528.632; 4390.400;    0.000;    0.000
528.763; 4524.400;    0.000;    0.000
528.895; 4352.400;    0.000;    0.000
529.026; 4381.400;    0.000;    0.000
529.158; 4468.400;    0.000;    0.000
529.289; 4441.400;    0.000;    0.000
529.421; 4450.400;    0.000;    0.000
529.552; 4494.400;    0.000;    0.000
529.684; 4493.400;    0.000;    0.000
529.815; 4398.400;    0.000;    0.000
529.947; 4399.400;    0.000;    0.000
530.078; 4381.400;    0.000;    0.000
530.210; 4373.400;    0.000;    0.000
530.341; 4323.400;    0.000;    0.000
530.472; 4399.400;    0.000;    0.000
530.604; 4372.400;    0.000;    0.000
530.735; 4443.400;    0.000;    0.000
530.867; 4455.400;    0.000;    0.000
530.998; 4296.400;    0.000;    0.000
531.129; 4404.400;    0.000;    0.000
531.260; 4346.400;    0.000;    0.000
531.392; 4416.400;    0.000;    0.000
531.523; 4362.400;    0.000;    0.000
531.654; 4394.400;    0.000;    0.000
531.786; 4368.400;    0.000;    0.000
531.917; 4331.400;    0.000;    0.000
532.048; 4340.400;    0.000;    0.000
532.179; 4393.400;    0.000;    0.000
532.311; 4427.400;    0.000;    0.000
532.442; 4426.400;    0.000;    0.000
532.573; 4416.400;    0.000;    0.000
532.704; 4376.400;    0.000;    0.000
532.835; 4349.400;    0.000;    0.000
532.966; 4392.400;    0.000;    0.000
533.097; 4347.400;    0.000;    0.000
533.229; 4312.400;    0.000;    0.000
533.360; 4382.400;    0.000;    0.000
533.491; 4313.400;    0.000;    0.000
533.622; 4316.400;    0.000;    0.000
533.753; 4348.400;    0.000;    0.000
533.884; 4232.400;    0.000;    0.000
534.015; 4427.400;    0.000;    0.000
534.146; 4353.400;    0.000;    0.000
534.277; 4396.400;    0.000;    0.000
534.408; 4294.400;    0.000;    0.000
534.539; 4364.400;    0.000;    0.000
534.670; 4336.400;    0.000;    0.000
534.801; 4285.400;    0.000;    0.000
534.932; 4342.400;    0.000;    0.000
535.063; 4317.400;    0.000;    0.000
535.194; 4308.400;    0.000;    0.000
535.324; 4298.400;    0.000;    0.000
535.455; 4261.400;    0.000;    0.000
535.586; 4463.400;    0.000;    0.000
535.717; 4307.400;    0.000;    0.000
535.848; 4272.400;    0.000;    0.000
535.979; 4367.400;    0.000;    0.000
536.109; 4301.400;    0.000;    0.000
536.240; 4366.400;    0.000;    0.000
536.371; 4330.400;    0.000;    0.000
536.502; 4252.400;    0.000;    0.000
536.632; 4302.400;    0.000;    0.000
536.763; 4349.400;    0.000;    0.000
536.894; 4407.400;    0.000;    0.000
537.025; 4353.400;    0.000;    0.000
537.155; 4264.400;    0.000;    0.000
537.286; 4313.400;    0.000;    0.000
537.417; 4261.400;    0.000;    0.000
537.547; 4140.400;    0.000;    0.000
537.678; 4223.400;    0.000;    0.000
537.808; 4226.400;    0.000;    0.000
537.939; 4253.400;    0.000;    0.000
538.070; 4397.400;    0.000;    0.000
538.200; 4284.400;    0.000;    0.000
538.331; 4304.400;    0.000;    0.000
538.461; 4163.400;    0.000;    0.000
538.592; 4317.400;    0.000;    0.000
538.722; 4313.400;    0.000;    0.000
538.853; 4264.400;    0.000;    0.000
538.983; 4322.400;    0.000;    0.000
539.114; 4326.400;    0.000;    0.000
539.244; 4285.400;    0.000;    0.000
539.375; 4201.400;    0.000;    0.000
539.505; 4304.400;    0.000;    0.000
539.636; 4219.400;    0.000;    0.000
539.766; 4235.400;    0.000;    0.000
539.896; 4327.400;    0.000;    0.000
540.027; 4285.400;    0.000;    0.000
540.157; 4234.400;    0.000;    0.000
540.287; 4312.400;    0.000;    0.000
540.418; 4316.400;    0.000;    0.000
540.548; 4322.400;    0.000;    0.000
540.678; 4251.400;    0.000;    0.000
540.809; 4329.400;    0.000;    0.000
540.939; 4426.400;    0.000;    0.000
541.069; 4254.400;    0.000;    0.000
541.200; 4381.400;    0.000;    0.000
541.330; 4286.400;    0.000;    0.000
541.460; 4285.400;    0.000;    0.000
541.590; 4253.400;    0.000;    0.000
541.720; 4199.400;    0.000;    0.000
541.851; 4227.400;    0.000;    0.000
541.981; 4219.400;    0.000;    0.000
542.111; 4329.400;    0.000;    0.000
542.241; 4267.400;    0.000;    0.000
542.371; 4210.400;    0.000;    0.000
542.501; 4238.400;    0.000;    0.000
542.631; 4294.400;    0.000;    0.000
542.761; 4363.400;    0.000;    0.000
542.891; 4282.400;    0.000;    0.000
543.021; 4225.400;    0.000;    0.000
543.151; 4247.400;    0.000;    0.000
543.281; 4177.400;    0.000;    0.000
543.411; 4240.400;    0.000;    0.000
543.542; 4187.400;    0.000;    0.000
543.671; 4261.400;    0.000;    0.000
543.801; 4280.400;    0.000;    0.000
543.931; 4473.400;    0.000;    0.000
544.061; 4336.400;    0.000;    0.000
544.191; 4276.400;    0.000;    0.000
544.321; 4255.400;    0.000;    0.000
544.451; 4240.400;    0.000;    0.000
544.581; 4285.400;    0.000;    0.000
544.711; 4258.400;    0.000;    0.000
544.841; 4210.400;    0.000;    0.000
544.970; 4330.400;    0.000;    0.000
545.100; 4216.400;    0.000;    0.000
545.230; 4357.400;    0.000;    0.000
545.360; 4271.400;    0.000;    0.000
545.490; 4317.400;    0.000;    0.000
545.619; 4245.400;    0.000;    0.000
545.749; 4140.400;    0.000;    0.000
545.879; 4319.400;    0.000;    0.000
546.009; 4352.400;    0.000;    0.000
546.138; 4359.400;    0.000;    0.000
546.268; 4193.400;    0.000;    0.000
546.398; 4288.400;    0.000;    0.000
546.527; 4276.400;    0.000;    0.000
546.657; 4188.400;    0.000;    0.000
546.786; 4266.400;    0.000;    0.000
546.916; 4337.400;    0.000;    0.000
547.046; 4280.400;    0.000;    0.000
547.175; 4266.400;    0.000;    0.000
547.305; 4292.400;    0.000;    0.000
547.434; 4193.400;    0.000;    0.000
547.564; 4301.400;    0.000;    0.000
547.693; 4286.400;    0.000;    0.000
547.823; 4283.400;    0.000;    0.000
547.953; 4206.400;    0.000;    0.000
548.082; 4315.400;    0.000;    0.000
548.211; 4205.400;    0.000;    0.000
548.341; 4273.400;    0.000;    0.000
548.470; 4288.400;    0.000;    0.000
548.600; 4283.400;    0.000;    0.000
548.729; 4262.400;    0.000;    0.000
548.859; 4225.400;    0.000;    0.000
548.988; 4271.400;    0.000;    0.000
549.117; 4302.400;    0.000;    0.000
549.247; 4316.400;    0.000;    0.000
549.376; 4331.400;    0.000;    0.000
549.505; 4229.400;    0.000;    0.000
549.635; 4326.400;    0.000;    0.000
549.764; 4245.400;    0.000;    0.000
549.893; 4272.400;    0.000;    0.000
550.023; 4332.400;    0.000;    0.000
550.152; 4265.400;    0.000;    0.000
550.281; 4401.400;    0.000;    0.000
550.410; 4251.400;    0.000;    0.000
550.539; 4326.400;    0.000;    0.000
550.669; 4398.400;    0.000;    0.000
550.798; 4343.400;    0.000;    0.000
550.927; 4413.400;    0.000;    0.000
551.056; 4394.400;    0.000;    0.000
551.185; 4383.400;    0.000;    0.000
551.314; 4303.400;    0.000;    0.000
551.443; 4310.400;    0.000;    0.000
551.573; 4359.400;    0.000;    0.000
551.702; 4313.400;    0.000;    0.000
551.831; 4368.400;    0.000;    0.000
551.960; 4388.400;    0.000;    0.000
552.089; 4313.400;    0.000;    0.000
552.218; 4372.400;    0.000;    0.000
552.347; 4363.400;    0.000;    0.000
552.476; 4318.400;    0.000;    0.000
552.605; 4418.400;    0.000;    0.000
552.734; 4461.400;    0.000;    0.000
552.863; 4302.400;    0.000;    0.000
552.992; 4516.400;    0.000;    0.000
553.121; 4373.400;    0.000;    0.000
553.249; 4339.400;    0.000;    0.000
553.378; 4387.400;    0.000;    0.000
553.507; 4359.400;    0.000;    0.000
553.636; 4484.400;    0.000;    0.000
553.765; 4411.400;    0.000;    0.000
553.894; 4424.400;    0.000;    0.000
554.023; 4428.400;    0.000;    0.000
554.151; 4462.400;    0.000;    0.000
554.280; 4284.400;    0.000;    0.000
554.409; 4340.400;    0.000;    0.000
554.538; 4446.400;    0.000;    0.000
554.666; 4406.400;    0.000;    0.000
554.795; 4323.400;    0.000;    0.000
554.924; 4292.400;    0.000;    0.000
555.052; 4380.400;    0.000;    0.000
555.181; 4359.400;    0.000;    0.000
555.310; 4367.400;    0.000;    0.000
555.439; 4422.400;    0.000;    0.000
555.567; 4338.400;    0.000;    0.000
555.696; 4304.400;    0.000;    0.000
555.824; 4286.400;    0.000;    0.000
555.953; 4312.400;    0.000;    0.000
556.082; 4365.400;    0.000;    0.000
556.210; 4367.400;    0.000;    0.000
556.339; 4274.400;    0.000;    0.000
556.467; 4207.400;    0.000;    0.000
556.596; 4228.400;    0.000;    0.000
556.724; 4355.400;    0.000;    0.000
556.853; 4360.400;    0.000;    0.000
556.981; 4297.400;    0.000;    0.000
557.110; 4176.400;    0.000;    0.000
557.238; 4324.400;    0.000;    0.000
557.367; 4284.400;    0.000;    0.000
557.495; 4306.400;    0.000;    0.000
557.623; 4275.400;    0.000;    0.000
557.752; 4366.400;    0.000;    0.000
557.880; 4282.400;    0.000;    0.000
558.008; 4264.400;    0.000;    0.000
558.137; 4379.400;    0.000;    0.000
558.265; 4330.400;    0.000;    0.000
558.393; 4405.400;    0.000;    0.000
558.522; 4275.400;    0.000;    0.000
558.650; 4396.400;    0.000;    0.000
558.778; 4390.400;    0.000;    0.000
558.906; 4333.400;    0.000;    0.000
559.035; 4309.400;    0.000;    0.000
559.163; 4274.400;    0.000;    0.000
559.291; 4342.400;    0.000;    0.000
559.419; 4367.400;    0.000;    0.000
559.548; 4321.400;    0.000;    0.000
559.676; 4419.400;    0.000;    0.000
559.804; 4317.400;    0.000;    0.000
559.932; 4299.400;    0.000;    0.000
560.060; 4312.400;    0.000;    0.000
560.188; 4277.400;    0.000;    0.000
560.316; 4310.400;    0.000;    0.000
560.444; 4463.400;    0.000;    0.000
560.572; 4402.400;    0.000;    0.000
560.700; 4372.400;    0.000;    0.000
560.828; 4483.400;    0.000;    0.000
560.956; 4253.400;    0.000;    0.000
561.085; 4388.400;    0.000;    0.000
561.212; 4301.400;    0.000;    0.000
561.340; 4484.400;    0.000;    0.000
561.468; 4490.400;    0.000;    0.000
561.596; 4419.400;    0.000;    0.000
561.724; 4398.400;    0.000;    0.000
561.852; 4409.400;    0.000;    0.000
561.980; 4460.400;    0.000;    0.000
562.108; 4383.400;    0.000;    0.000
562.236; 4458.400;    0.000;    0.000
562.364; 4407.400;    0.000;    0.000
562.492; 4493.400;    0.000;    0.000
562.619; 4526.400;    0.000;    0.000
562.747; 4534.400;    0.000;    0.000
562.875; 4519.400;    0.000;    0.000
563.003; 4496.400;    0.000;    0.000
563.130; 4457.400;    0.000;    0.000
563.258; 4467.400;    0.000;    0.000
563.386; 4515.400;    0.000;    0.000
563.514; 4530.400;    0.000;    0.000
563.641; 4596.400;    0.000;    0.000
563.769; 4583.400;    0.000;    0.000
563.897; 4564.400;    0.000;    0.000
564.024; 4702.400;    0.000;    0.000
564.152; 4649.400;    0.000;    0.000
564.280; 4626.400;    0.000;    0.000
564.407; 4550.400;    0.000;    0.000
564.535; 4634.400;    0.000;    0.000
564.662; 4695.400;    0.000;    0.000
564.790; 4627.400;    0.000;    0.000
564.917; 4713.400;    0.000;    0.000
565.045; 4739.400;    0.000;    0.000
565.173; 4803.400;    0.000;    0.000
565.300; 4766.400;    0.000;    0.000
565.428; 4860.400;    0.000;    0.000
565.555; 4833.400;    0.000;    0.000
565.682; 4766.400;    0.000;    0.000
565.810; 4814.400;    0.000;    0.000
565.937; 4775.400;    0.000;    0.000
566.065; 4844.400;    0.000;    0.000
566.192; 4923.400;    0.000;    0.000
566.320; 4983.400;    0.000;    0.000
566.447; 5035.400;    0.000;    0.000
566.574; 4960.400;    0.000;    0.000
566.702; 5018.400;    0.000;    0.000
566.829; 4990.400;    0.000;    0.000
566.956; 5022.400;    0.000;    0.000
567.083; 4986.400;    0.000;    0.000
567.211; 5016.400;    0.000;    0.000
567.338; 5003.400;    0.000;    0.000
567.465; 5141.400;    0.000;    0.000
567.593; 5057.400;    0.000;    0.000
567.720; 5167.400;    0.000;    0.000
567.847; 5192.400;    0.000;    0.000
567.974; 5096.400;    0.000;    0.000
568.101; 5147.400;    0.000;    0.000
568.228; 5323.400;    0.000;    0.000
568.356; 5358.400;    0.000;    0.000
568.483; 5308.400;    0.000;    0.000
568.610; 5402.400;    0.000;    0.000
568.737; 5578.400;    0.000;    0.000
568.864; 5658.400;    0.000;    0.000
568.991; 5569.400;    0.000;    0.000
569.118; 5292.400;    0.000;    0.000
569.245; 5199.400;    0.000;    0.000
569.372; 5199.400;    0.000;    0.000
569.499; 5097.400;    0.000;    0.000
569.626; 5029.400;    0.000;    0.000
569.753; 5010.400;    0.000;    0.000
569.880; 5036.400;    0.000;    0.000
570.007; 4986.400;    0.000;    0.000
570.134; 4917.400;    0.000;    0.000
570.261; 4919.400;    0.000;    0.000
570.388; 4897.400;    0.000;    0.000
570.515; 4880.400;    0.000;    0.000
570.642; 4949.400;    0.000;    0.000
570.768; 4869.400;    0.000;    0.000
570.895; 4736.400;    0.000;    0.000
571.022; 4831.400;    0.000;    0.000
571.149; 4830.400;    0.000;    0.000
571.276; 4855.400;    0.000;    0.000
571.402; 4857.400;    0.000;    0.000
571.529; 4816.400;    0.000;    0.000
571.656; 4602.400;    0.000;    0.000
571.783; 4763.400;    0.000;    0.000
571.909; 4774.400;    0.000;    0.000
572.036; 4697.400;    0.000;    0.000
572.163; 4734.400;    0.000;    0.000
572.289; 4749.400;    0.000;    0.000
572.416; 4694.400;    0.000;    0.000
572.543; 4745.400;    0.000;    0.000
572.669; 4681.400;    0.000;    0.000
572.796; 4743.400;    0.000;    0.000
572.922; 4655.400;    0.000;    0.000
573.049; 4647.400;    0.000;    0.000
573.176; 4667.400;    0.000;    0.000
573.302; 4657.400;    0.000;    0.000
573.429; 4694.400;    0.000;    0.000
573.555; 4700.400;    0.000;    0.000
573.682; 4608.400;    0.000;    0.000
573.808; 4594.400;    0.000;    0.000
573.935; 4683.400;    0.000;    0.000
574.061; 4659.400;    0.000;    0.000
574.188; 4594.400;    0.000;    0.000
574.314; 4518.400;    0.000;    0.000
574.440; 4589.400;    0.000;    0.000
574.567; 4638.400;    0.000;    0.000
574.693; 4630.400;    0.000;    0.000
574.820; 4619.400;    0.000;    0.000
574.946; 4645.400;    0.000;    0.000
575.072; 4599.400;    0.000;    0.000
575.198; 4671.400;    0.000;    0.000
575.325; 4647.400;    0.000;    0.000
575.451; 4568.400;    0.000;    0.000
575.577; 4689.400;    0.000;    0.000
575.704; 4614.400;    0.000;    0.000
575.830; 4470.400;    0.000;    0.000
575.956; 4464.400;    0.000;    0.000
576.082; 4610.400;    0.000;    0.000
576.208; 4529.400;    0.000;    0.000
576.335; 4519.400;    0.000;    0.000
576.461; 4525.400;    0.000;    0.000
576.587; 4588.400;    0.000;    0.000
576.713; 4531.400;    0.000;    0.000
576.839; 4503.400;    0.000;    0.000
576.965; 4584.400;    0.000;    0.000
577.091; 4405.400;    0.000;    0.000
577.217; 4610.400;    0.000;    0.000
577.343; 4464.400;    0.000;    0.000
577.469; 4600.400;    0.000;    0.000
577.596; 4498.400;    0.000;    0.000
577.722; 4475.400;    0.000;    0.000
577.848; 4309.400;    0.000;    0.000
577.974; 4464.400;    0.000;    0.000
578.099; 4490.400;    0.000;    0.000
578.225; 4531.400;    0.000;    0.000
578.351; 4482.400;    0.000;    0.000
578.477; 4549.400;    0.000;    0.000
578.603; 4442.400;    0.000;    0.000
578.729; 4609.400;    0.000;    0.000
578.855; 4484.400;    0.000;    0.000
578.981; 4475.400;    0.000;    0.000
579.107; 4491.400;    0.000;    0.000
579.232; 4495.400;    0.000;    0.000
579.358; 4449.400;    0.000;    0.000
579.484; 4384.400;    0.000;    0.000
579.610; 4426.400;    0.000;    0.000
579.735; 4452.400;    0.000;    0.000
579.861; 4446.400;    0.000;    0.000
579.987; 4445.400;    0.000;    0.000
580.113; 4464.400;    0.000;    0.000
580.238; 4437.400;    0.000;    0.000
580.364; 4448.400;    0.000;    0.000
580.490; 4455.400;    0.000;    0.000
580.615; 4421.400;    0.000;    0.000
580.741; 4362.400;    0.000;    0.000
580.867; 4381.400;    0.000;    0.000
580.992; 4426.400;    0.000;    0.000
581.118; 4346.400;    0.000;    0.000
581.243; 4463.400;    0.000;    0.000
581.369; 4417.400;    0.000;    0.000
581.494; 4367.400;    0.000;    0.000
581.620; 4465.400;    0.000;    0.000
581.745; 4429.400;    0.000;    0.000
581.871; 4622.400;    0.000;    0.000
581.996; 4511.400;    0.000;    0.000
582.122; 4610.400;    0.000;    0.000
582.247; 4451.400;    0.000;    0.000
582.373; 4529.400;    0.000;    0.000
582.498; 4469.400;    0.000;    0.000
582.624; 4526.400;    0.000;    0.000
582.749; 4595.400;    0.000;    0.000
582.874; 4576.400;    0.000;    0.000
583.000; 4495.400;    0.000;    0.000
583.125; 4525.400;    0.000;    0.000
583.250; 4467.400;    0.000;    0.000
583.376; 4516.400;    0.000;    0.000
583.501; 4566.400;    0.000;    0.000
583.626; 4586.400;    0.000;    0.000
583.751; 4675.400;    0.000;    0.000
583.877; 4584.400;    0.000;    0.000
584.002; 4662.400;    0.000;    0.000
584.127; 4747.400;    0.000;    0.000
584.252; 4689.400;    0.000;    0.000
584.377; 4714.400;    0.000;    0.000
584.503; 4712.400;    0.000;    0.000
584.628; 4633.400;    0.000;    0.000
584.753; 4790.400;    0.000;    0.000
584.878; 4751.400;    0.000;    0.000
585.003; 4753.400;    0.000;    0.000
585.128; 4974.400;    0.000;    0.000
585.253; 5323.400;    0.000;    0.000
585.378; 5221.400;    0.000;    0.000
585.503; 4982.400;    0.000;    0.000
585.628; 4865.400;    0.000;    0.000
585.753; 4905.400;    0.000;    0.000
585.878; 4938.400;    0.000;    0.000
586.003; 5039.400;    0.000;    0.000
586.128; 5107.400;    0.000;    0.000
586.253; 5155.400;    0.000;    0.000
586.378; 5177.400;    0.000;    0.000
586.503; 5275.400;    0.000;    0.000
586.628; 5314.400;    0.000;    0.000
586.753; 5444.400;    0.000;    0.000
586.878; 5480.400;    0.000;    0.000
587.003; 5621.400;    0.000;    0.000
587.127; 5644.400;    0.000;    0.000
587.252; 5839.400;    0.000;    0.000
587.377; 6016.400;    0.000;    0.000
587.502; 6276.400;    0.000;    0.000
587.627; 6791.400;    0.000;    0.000
587.751; 6868.400;    0.000;    0.000
587.876; 7300.400;    0.000;    0.000
588.001; 7752.400;    0.000;    0.000
588.125; 8220.400;    0.000;    0.000
588.250; 8992.400;    0.000;    0.000
588.375; 9966.400;    0.000;    0.000
588.499;11144.400;    0.000;    0.000
588.624;12908.400;    0.000;    0.000
588.749;15266.400;    0.000;    0.000
588.873;16374.400;    0.000;    0.000
588.998;16549.400;    0.000;    0.000
589.122;17862.400;    0.000;    0.000
589.247;18488.400;    0.000;    0.000
589.372;17721.400;    0.000;    0.000
589.496;17061.400;    0.000;    0.000
589.621;17019.400;    0.000;    0.000
589.745;17179.400;    0.000;    0.000
589.870;15448.400;    0.000;    0.000
589.994;13043.400;    0.000;    0.000
590.118;11381.400;    0.000;    0.000
590.243;10188.400;    0.000;    0.000
590.367; 9188.400;    0.000;    0.000
590.492; 8624.400;    0.000;    0.000
590.616; 7980.400;    0.000;    0.000
590.740; 7559.400;    0.000;    0.000
590.865; 7316.400;    0.000;    0.000
590.989; 6924.400;    0.000;    0.000
591.114; 6598.400;    0.000;    0.000
591.238; 6424.400;    0.000;    0.000
591.362; 6272.400;    0.000;    0.000
591.486; 6128.400;    0.000;    0.000
591.611; 5942.400;    0.000;    0.000
591.735; 5745.400;    0.000;    0.000
591.859; 5748.400;    0.000;    0.000
591.983; 5710.400;    0.000;    0.000
592.107; 5548.400;    0.000;    0.000
592.232; 5427.400;    0.000;    0.000
592.356; 5431.400;    0.000;    0.000
592.480; 5450.400;    0.000;    0.000
592.604; 5345.400;    0.000;    0.000
592.728; 5256.400;    0.000;    0.000
592.852; 5194.400;    0.000;    0.000
592.976; 5108.400;    0.000;    0.000
593.100; 5055.400;    0.000;    0.000
593.224; 5177.400;    0.000;    0.000
593.349; 5092.400;    0.000;    0.000
593.473; 5015.400;    0.000;    0.000
593.597; 5000.400;    0.000;    0.000
593.721; 4960.400;    0.000;    0.000
593.844; 4993.400;    0.000;    0.000
593.968; 5012.400;    0.000;    0.000
594.092; 4860.400;    0.000;    0.000
594.216; 4858.400;    0.000;    0.000
594.340; 4806.400;    0.000;    0.000
594.464; 4833.400;    0.000;    0.000
594.588; 4784.400;    0.000;    0.000
594.712; 4744.400;    0.000;    0.000
594.836; 4773.400;    0.000;    0.000
594.959; 4719.400;    0.000;    0.000
595.083; 4725.400;    0.000;    0.000
595.207; 4778.400;    0.000;    0.000
595.331; 4614.400;    0.000;    0.000
595.455; 4719.400;    0.000;    0.000
595.578; 4756.400;    0.000;    0.000
595.702; 4629.400;    0.000;    0.000
595.826; 4651.400;    0.000;    0.000
595.949; 4643.400;    0.000;    0.000
596.073; 4632.400;    0.000;    0.000
596.197; 4500.400;    0.000;    0.000
596.320; 4637.400;    0.000;    0.000
596.444; 4668.400;    0.000;    0.000
596.568; 4598.400;    0.000;    0.000
596.691; 4612.400;    0.000;    0.000
596.815; 4456.400;    0.000;    0.000
596.938; 4503.400;    0.000;    0.000
597.062; 4542.400;    0.000;    0.000
597.186; 4557.400;    0.000;    0.000
597.309; 4546.400;    0.000;    0.000
597.433; 4522.400;    0.000;    0.000
597.556; 4456.400;    0.000;    0.000
597.680; 4563.400;    0.000;    0.000
597.803; 4569.400;    0.000;    0.000
597.926; 4427.400;    0.000;    0.000
598.050; 4537.400;    0.000;    0.000
598.173; 4526.400;    0.000;    0.000
598.297; 4462.400;    0.000;    0.000
598.420; 4467.400;    0.000;    0.000
598.543; 4520.400;    0.000;    0.000
598.667; 4523.400;    0.000;    0.000
598.790; 4461.400;    0.000;    0.000
598.913; 4323.400;    0.000;    0.000
599.037; 4366.400;    0.000;    0.000
599.160; 4392.400;    0.000;    0.000
599.283; 4330.400;    0.000;    0.000
599.406; 4409.400;    0.000;    0.000
599.530; 4368.400;    0.000;    0.000
599.653; 4429.400;    0.000;    0.000
599.776; 4466.400;    0.000;    0.000
599.899; 4453.400;    0.000;    0.000
600.022; 4429.400;    0.000;    0.000
600.145; 4352.400;    0.000;    0.000
600.269; 4437.400;    0.000;    0.000
600.392; 4433.400;    0.000;    0.000
600.515; 4315.400;    0.000;    0.000
600.638; 4379.400;    0.000;    0.000
600.761; 4502.400;    0.000;    0.000
600.884; 4423.400;    0.000;    0.000
601.007; 4381.400;    0.000;    0.000
601.130; 4418.400;    0.000;    0.000
601.253; 4342.400;    0.000;    0.000
601.376; 4349.400;    0.000;    0.000
601.499; 4370.400;    0.000;    0.000
601.622; 4335.400;    0.000;    0.000
601.745; 4293.400;    0.000;    0.000
601.868; 4421.400;    0.000;    0.000
601.991; 4289.400;    0.000;    0.000
602.113; 4255.400;    0.000;    0.000
602.236; 4348.400;    0.000;    0.000
602.359; 4383.400;    0.000;    0.000
602.482; 4311.400;    0.000;    0.000
602.605; 4257.400;    0.000;    0.000
602.728; 4340.400;    0.000;    0.000
602.850; 4254.400;    0.000;    0.000
602.973; 4340.400;    0.000;    0.000
603.096; 4316.400;    0.000;    0.000
603.219; 4275.400;    0.000;    0.000
603.341; 4242.400;    0.000;    0.000
603.464; 4291.400;    0.000;    0.000
603.587; 4256.400;    0.000;    0.000
603.709; 4258.400;    0.000;    0.000
603.832; 4340.400;    0.000;    0.000
603.955; 4229.400;    0.000;    0.000
604.077; 4284.400;    0.000;    0.000
604.200; 4292.400;    0.000;    0.000
604.323; 4261.400;    0.000;    0.000
604.445; 4116.400;    0.000;    0.000
604.568; 4191.400;    0.000;    0.000
604.690; 4238.400;    0.000;    0.000
604.813; 4250.400;    0.000;    0.000
604.935; 4113.400;    0.000;    0.000
605.058; 4182.400;    0.000;    0.000
605.180; 4208.400;    0.000;    0.000
605.303; 4229.400;    0.000;    0.000
605.425; 4215.400;    0.000;    0.000
605.547; 4289.400;    0.000;    0.000
605.670; 4193.400;    0.000;    0.000
605.792; 4288.400;    0.000;    0.000
605.915; 4161.400;    0.000;    0.000
606.037; 4282.400;    0.000;    0.000
606.159; 4215.400;    0.000;    0.000
606.282; 4043.400;    0.000;    0.000
606.404; 4184.400;    0.000;    0.000
606.526; 4203.400;    0.000;    0.000
606.648; 4205.400;    0.000;    0.000
606.771; 4174.400;    0.000;    0.000
606.893; 4152.400;    0.000;    0.000
607.015; 4140.400;    0.000;    0.000
607.137; 4120.400;    0.000;    0.000
607.260; 4259.400;    0.000;    0.000
607.382; 4283.400;    0.000;    0.000
607.504; 4258.400;    0.000;    0.000
607.626; 4178.400;    0.000;    0.000
607.748; 4196.400;    0.000;    0.000
607.870; 4210.400;    0.000;    0.000
607.992; 4188.400;    0.000;    0.000
608.114; 4197.400;    0.000;    0.000
608.237; 4241.400;    0.000;    0.000
608.359; 4040.400;    0.000;    0.000
608.481; 4255.400;    0.000;    0.000
608.603; 4052.400;    0.000;    0.000
608.725; 4099.400;    0.000;    0.000
608.847; 4255.400;    0.000;    0.000
608.969; 4194.400;    0.000;    0.000
609.090; 4202.400;    0.000;    0.000
609.212; 4120.400;    0.000;    0.000
609.334; 4202.400;    0.000;    0.000
609.456; 4114.400;    0.000;    0.000
609.578; 4251.400;    0.000;    0.000
609.700; 4149.400;    0.000;    0.000
609.822; 4038.400;    0.000;    0.000
609.944; 4223.400;    0.000;    0.000
610.065; 4187.400;    0.000;    0.000
610.187; 4154.400;    0.000;    0.000
610.309; 4249.400;    0.000;    0.000
610.431; 4203.400;    0.000;    0.000
610.552; 4172.400;    0.000;    0.000
610.674; 4246.400;    0.000;    0.000
610.796; 4233.400;    0.000;    0.000
610.918; 4183.400;    0.000;    0.000
611.039; 4060.400;    0.000;    0.000
611.161; 4102.400;    0.000;    0.000
611.282; 4241.400;    0.000;    0.000
611.404; 4179.400;    0.000;    0.000
611.526; 4128.400;    0.000;    0.000
611.647; 4150.400;    0.000;    0.000
611.769; 4105.400;    0.000;    0.000
611.890; 4111.400;    0.000;    0.000
612.012; 4076.400;    0.000;    0.000
612.133; 4156.400;    0.000;    0.000
612.255; 4195.400;    0.000;    0.000
612.377; 4223.400;    0.000;    0.000
612.498; 4032.400;    0.000;    0.000
612.619; 4136.400;    0.000;    0.000
612.741; 4210.400;    0.000;    0.000
612.862; 4212.400;    0.000;    0.000
612.984; 4110.400;    0.000;    0.000
613.105; 4132.400;    0.000;    0.000
613.226; 4106.400;    0.000;    0.000
613.348; 4191.400;    0.000;    0.000
613.469; 4170.400;    0.000;    0.000
613.590; 4119.400;    0.000;    0.000
613.712; 4230.400;    0.000;    0.000
613.833; 4223.400;    0.000;    0.000
613.954; 4062.400;    0.000;    0.000
614.076; 4187.400;    0.000;    0.000
614.197; 4234.400;    0.000;    0.000
614.318; 4167.400;    0.000;    0.000
614.439; 4230.400;    0.000;    0.000
614.560; 4311.400;    0.000;    0.000
614.682; 4166.400;    0.000;    0.000
614.803; 4265.400;    0.000;    0.000
614.924; 4304.400;    0.000;    0.000
615.045; 4187.400;    0.000;    0.000
615.166; 4204.400;    0.000;    0.000
615.287; 4167.400;    0.000;    0.000
615.408; 4285.400;    0.000;    0.000
615.529; 4272.400;    0.000;    0.000
615.650; 4142.400;    0.000;    0.000
615.771; 4190.400;    0.000;    0.000
615.892; 4202.400;    0.000;    0.000
616.013; 4329.400;    0.000;    0.000
616.134; 4534.400;    0.000;    0.000
616.255; 4461.400;    0.000;    0.000
616.376; 4213.400;    0.000;    0.000
616.497; 4077.400;    0.000;    0.000
616.618; 4097.400;    0.000;    0.000
616.739; 4137.400;    0.000;    0.000
616.860; 4077.400;    0.000;    0.000
616.981; 4029.400;    0.000;    0.000
617.102; 4049.400;    0.000;    0.000
617.222; 4125.400;    0.000;    0.000
617.343; 4121.400;    0.000;    0.000
617.464; 4047.400;    0.000;    0.000
617.585; 4075.400;    0.000;    0.000
617.705; 4141.400;    0.000;    0.000
617.826; 4017.400;    0.000;    0.000
617.947; 4095.400;    0.000;    0.000
618.068; 4118.400;    0.000;    0.000
618.188; 4080.400;    0.000;    0.000
618.309; 4033.400;    0.000;    0.000
618.430; 4071.400;    0.000;    0.000
618.550; 3998.400;    0.000;    0.000
618.671; 3975.400;    0.000;    0.000
618.791; 3976.400;    0.000;    0.000
618.912; 4111.400;    0.000;    0.000
619.033; 3996.400;    0.000;    0.000
619.153; 3951.400;    0.000;    0.000
619.274; 4012.400;    0.000;    0.000
619.394; 3948.400;    0.000;    0.000
619.515; 3984.400;    0.000;    0.000
619.635; 4008.400;    0.000;    0.000
619.756; 3944.400;    0.000;    0.000
619.876; 4008.400;    0.000;    0.000
619.996; 3968.400;    0.000;    0.000
620.117; 4034.400;    0.000;    0.000
620.237; 3942.400;    0.000;    0.000
620.358; 4064.400;    0.000;    0.000
620.478; 3958.400;    0.000;    0.000
620.598; 4068.400;    0.000;    0.000
620.719; 3971.400;    0.000;    0.000
620.839; 4025.400;    0.000;    0.000
620.959; 3962.400;    0.000;    0.000
621.079; 4017.400;    0.000;    0.000
621.200; 4050.400;    0.000;    0.000
621.320; 4002.400;    0.000;    0.000
621.440; 3931.400;    0.000;    0.000
621.560; 3969.400;    0.000;    0.000
621.681; 3995.400;    0.000;    0.000
621.801; 3991.400;    0.000;    0.000
621.921; 4007.400;    0.000;    0.000
622.041; 3972.400;    0.000;    0.000
622.161; 4059.400;    0.000;    0.000
622.281; 3988.400;    0.000;    0.000
622.401; 4060.400;    0.000;    0.000
622.521; 4064.400;    0.000;    0.000
622.641; 4108.400;    0.000;    0.000
622.761; 4114.400;    0.000;    0.000
622.882; 4042.400;    0.000;    0.000
623.002; 4064.400;    0.000;    0.000
623.121; 4024.400;    0.000;    0.000
623.241; 3986.400;    0.000;    0.000
623.361; 3907.400;    0.000;    0.000
623.481; 4023.400;    0.000;    0.000
623.601; 4014.400;    0.000;    0.000
623.721; 4030.400;    0.000;    0.000
623.841; 3923.400;    0.000;    0.000
623.961; 4044.400;    0.000;    0.000
624.081; 3966.400;    0.000;    0.000
624.201; 3995.400;    0.000;    0.000
624.320; 3977.400;    0.000;    0.000
624.440; 4048.400;    0.000;    0.000
624.560; 3978.400;    0.000;    0.000
624.680; 3831.400;    0.000;    0.000
624.799; 3944.400;    0.000;    0.000
624.919; 3939.400;    0.000;    0.000
625.039; 3908.400;    0.000;    0.000
625.159; 3943.400;    0.000;    0.000
625.278; 3852.400;    0.000;    0.000
625.398; 3974.400;    0.000;    0.000
625.518; 3862.400;    0.000;    0.000
625.637; 4000.400;    0.000;    0.000
625.757; 3838.400;    0.000;    0.000
625.876; 3836.400;    0.000;    0.000
625.996; 3959.400;    0.000;    0.000
626.115; 3971.400;    0.000;    0.000
626.235; 3952.400;    0.000;    0.000
626.354; 3993.400;    0.000;    0.000
626.474; 3988.400;    0.000;    0.000
626.594; 3910.400;    0.000;    0.000
626.713; 3828.400;    0.000;    0.000
626.832; 3960.400;    0.000;    0.000
626.952; 3865.400;    0.000;    0.000
627.071; 3794.400;    0.000;    0.000
627.191; 3857.400;    0.000;    0.000
627.310; 3838.400;    0.000;    0.000
627.429; 3860.400;    0.000;    0.000
627.549; 3825.400;    0.000;    0.000
627.668; 3871.400;    0.000;    0.000
627.787; 3939.400;    0.000;    0.000
627.907; 3931.400;    0.000;    0.000
628.026; 3766.400;    0.000;    0.000
628.145; 3849.400;    0.000;    0.000
628.264; 3816.400;    0.000;    0.000
628.384; 3796.400;    0.000;    0.000
628.503; 3794.400;    0.000;    0.000
628.622; 3771.400;    0.000;    0.000
628.741; 3677.400;    0.000;    0.000
628.860; 3700.400;    0.000;    0.000
628.980; 3774.400;    0.000;    0.000
629.099; 3899.400;    0.000;    0.000
629.218; 3870.400;    0.000;    0.000
629.337; 3797.400;    0.000;    0.000
629.456; 3792.400;    0.000;    0.000
629.575; 3755.400;    0.000;    0.000
629.694; 3810.400;    0.000;    0.000
629.813; 3861.400;    0.000;    0.000
629.932; 3855.400;    0.000;    0.000
630.051; 3754.400;    0.000;    0.000
630.170; 3728.400;    0.000;    0.000
630.289; 3709.400;    0.000;    0.000
630.408; 3699.400;    0.000;    0.000
630.527; 3710.400;    0.000;    0.000
630.646; 3797.400;    0.000;    0.000
630.764; 3746.400;    0.000;    0.000
630.883; 3807.400;    0.000;    0.000
631.002; 3674.400;    0.000;    0.000
631.121; 3743.400;    0.000;    0.000
631.240; 3815.400;    0.000;    0.000
631.359; 3849.400;    0.000;    0.000
631.477; 3674.400;    0.000;    0.000
631.596; 3849.400;    0.000;    0.000
631.715; 3890.400;    0.000;    0.000
631.834; 3706.400;    0.000;    0.000
631.952; 3687.400;    0.000;    0.000
632.071; 3727.400;    0.000;    0.000
632.190; 3797.400;    0.000;    0.000
632.308; 3743.400;    0.000;    0.000
632.427; 3689.400;    0.000;    0.000
632.546; 3704.400;    0.000;    0.000
632.664; 3808.400;    0.000;    0.000
632.783; 3761.400;    0.000;    0.000
632.901; 3750.400;    0.000;    0.000
633.020; 3841.400;    0.000;    0.000
633.138; 3774.400;    0.000;    0.000
633.257; 3676.400;    0.000;    0.000
633.375; 3737.400;    0.000;    0.000
633.494; 3633.400;    0.000;    0.000
633.612; 3787.400;    0.000;    0.000
633.731; 3717.400;    0.000;    0.000
633.849; 3744.400;    0.000;    0.000
633.968; 3823.400;    0.000;    0.000
634.086; 3901.400;    0.000;    0.000
634.204; 3722.400;    0.000;    0.000
634.323; 3731.400;    0.000;    0.000
634.441; 3724.400;    0.000;    0.000
634.559; 3670.400;    0.000;    0.000
634.678; 3625.400;    0.000;    0.000
634.796; 3695.400;    0.000;    0.000
634.914; 3652.400;    0.000;    0.000
635.032; 3738.400;    0.000;    0.000
635.151; 3689.400;    0.000;    0.000
635.269; 3651.400;    0.000;    0.000
635.387; 3640.400;    0.000;    0.000
635.505; 3546.400;    0.000;    0.000
635.623; 3781.400;    0.000;    0.000
635.742; 3571.400;    0.000;    0.000
635.860; 3678.400;    0.000;    0.000
635.978; 3688.400;    0.000;    0.000
636.096; 3595.400;    0.000;    0.000
636.214; 3743.400;    0.000;    0.000
636.332; 3756.400;    0.000;    0.000
636.450; 3669.400;    0.000;    0.000
636.568; 3572.400;    0.000;    0.000
636.686; 3688.400;    0.000;    0.000
636.804; 3682.400;    0.000;    0.000
636.922; 3764.400;    0.000;    0.000
637.040; 3597.400;    0.000;    0.000
637.158; 3668.400;    0.000;    0.000
637.276; 3686.400;    0.000;    0.000
637.394; 3711.400;    0.000;    0.000
637.512; 3622.400;    0.000;    0.000
637.629; 3651.400;    0.000;    0.000
637.747; 3662.400;    0.000;    0.000
637.865; 3679.400;    0.000;    0.000
637.983; 3646.400;    0.000;    0.000
638.101; 3595.400;    0.000;    0.000
638.218; 3690.400;    0.000;    0.000
638.336; 3635.400;    0.000;    0.000
638.454; 3680.400;    0.000;    0.000
638.572; 3737.400;    0.000;    0.000
638.689; 3680.400;    0.000;    0.000
638.807; 3641.400;    0.000;    0.000
638.925; 3696.400;    0.000;    0.000
639.042; 3650.400;    0.000;    0.000
639.160; 3659.400;    0.000;    0.000
639.278; 3580.400;    0.000;    0.000
639.395; 3647.400;    0.000;    0.000
639.513; 3572.400;    0.000;    0.000
639.630; 3617.400;    0.000;    0.000
639.748; 3634.400;    0.000;    0.000
639.865; 3618.400;    0.000;    0.000
639.983; 3690.400;    0.000;    0.000
640.100; 3682.400;    0.000;    0.000
640.218; 3673.400;    0.000;    0.000
640.335; 3641.400;    0.000;    0.000
640.453; 3609.400;    0.000;    0.000
640.570; 3673.400;    0.000;    0.000
640.688; 3577.400;    0.000;    0.000
640.805; 3581.400;    0.000;    0.000
640.922; 3681.400;    0.000;    0.000
641.040; 3647.400;    0.000;    0.000
641.157; 3691.400;    0.000;    0.000
641.274; 3675.400;    0.000;    0.000
641.391; 3689.400;    0.000;    0.000
641.509; 3617.400;    0.000;    0.000
641.626; 3706.400;    0.000;    0.000
641.743; 3666.400;    0.000;    0.000
641.860; 3620.400;    0.000;    0.000
641.978; 3645.400;    0.000;    0.000
642.095; 3631.400;    0.000;    0.000
642.212; 3537.400;    0.000;    0.000
642.329; 3697.400;    0.000;    0.000
642.446; 3722.400;    0.000;    0.000
642.563; 3703.400;    0.000;    0.000
642.681; 3772.400;    0.000;    0.000
642.798; 3695.400;    0.000;    0.000
642.915; 3683.400;    0.000;    0.000
643.032; 3679.400;    0.000;    0.000
643.149; 3600.400;    0.000;    0.000
643.266; 3668.400;    0.000;    0.000
643.383; 3608.400;    0.000;    0.000
643.500; 3704.400;    0.000;    0.000
643.617; 3662.400;    0.000;    0.000
643.734; 3646.400;    0.000;    0.000
643.850; 3538.400;    0.000;    0.000
643.967; 3618.400;    0.000;    0.000
644.084; 3626.400;    0.000;    0.000
644.201; 3705.400;    0.000;    0.000
644.318; 3615.400;    0.000;    0.000
644.435; 3697.400;    0.000;    0.000
644.552; 3731.400;    0.000;    0.000
644.668; 3785.400;    0.000;    0.000
644.785; 3769.400;    0.000;    0.000
644.902; 3708.400;    0.000;    0.000
645.019; 3737.400;    0.000;    0.000
645.135; 3690.400;    0.000;    0.000
645.252; 3641.400;    0.000;    0.000
645.369; 3761.400;    0.000;    0.000
645.485; 3632.400;    0.000;    0.000
645.602; 3823.400;    0.000;    0.000
645.719; 3731.400;    0.000;    0.000
645.835; 3731.400;    0.000;    0.000
645.952; 3671.400;    0.000;    0.000
646.068; 3840.400;    0.000;    0.000
646.185; 3786.400;    0.000;    0.000
646.302; 3698.400;    0.000;    0.000
646.418; 3754.400;    0.000;    0.000
646.535; 3740.400;    0.000;    0.000
646.651; 3844.400;    0.000;    0.000
646.768; 3739.400;    0.000;    0.000
646.884; 3717.400;    0.000;    0.000
647.000; 3683.400;    0.000;    0.000
647.117; 3818.400;    0.000;    0.000
647.233; 3770.400;    0.000;    0.000
647.350; 3736.400;    0.000;    0.000
647.466; 3827.400;    0.000;    0.000
647.582; 3756.400;    0.000;    0.000
647.699; 3759.400;    0.000;    0.000
647.815; 3745.400;    0.000;    0.000
647.931; 3764.400;    0.000;    0.000
648.047; 3714.400;    0.000;    0.000
648.164; 3710.400;    0.000;    0.000
648.280; 3814.400;    0.000;    0.000
648.396; 3843.400;    0.000;    0.000
648.512; 3856.400;    0.000;    0.000
648.629; 3827.400;    0.000;    0.000
648.745; 3837.400;    0.000;    0.000
648.861; 3825.400;    0.000;    0.000
648.977; 3890.400;    0.000;    0.000
649.093; 3774.400;    0.000;    0.000
649.209; 3910.400;    0.000;    0.000
649.325; 3813.400;    0.000;    0.000
649.441; 3933.400;    0.000;    0.000
649.557; 3979.400;    0.000;    0.000
649.673; 3889.400;    0.000;    0.000
649.789; 3963.400;    0.000;    0.000
649.905; 3807.400;    0.000;    0.000
650.021; 3941.400;    0.000;    0.000
650.137; 3898.400;    0.000;    0.000
650.253; 3887.400;    0.000;    0.000
650.369; 3922.400;    0.000;    0.000
650.485; 3880.400;    0.000;    0.000
650.601; 3917.400;    0.000;    0.000
650.717; 3959.400;    0.000;    0.000
650.833; 3934.400;    0.000;    0.000
650.948; 3941.400;    0.000;    0.000
651.064; 3874.400;    0.000;    0.000
651.180; 4021.400;    0.000;    0.000
651.296; 3978.400;    0.000;    0.000
651.411; 4001.400;    0.000;    0.000
651.527; 3933.400;    0.000;    0.000
651.643; 4039.400;    0.000;    0.000
651.759; 4079.400;    0.000;    0.000
651.874; 3999.400;    0.000;    0.000
651.990; 4015.400;    0.000;    0.000
652.105; 3985.400;    0.000;    0.000
652.221; 4004.400;    0.000;    0.000
652.337; 3982.400;    0.000;    0.000
652.452; 4088.400;    0.000;    0.000
652.568; 3956.400;    0.000;    0.000
652.683; 3953.400;    0.000;    0.000
652.799; 4168.400;    0.000;    0.000
652.914; 4027.400;    0.000;    0.000
653.030; 4090.400;    0.000;    0.000
653.145; 4122.400;    0.000;    0.000
653.261; 4225.400;    0.000;    0.000
653.376; 4150.400;    0.000;    0.000
653.492; 4108.400;    0.000;    0.000
653.607; 4177.400;    0.000;    0.000
653.722; 4283.400;    0.000;    0.000
653.838; 4311.400;    0.000;    0.000
653.953; 4215.400;    0.000;    0.000
654.068; 4328.400;    0.000;    0.000
654.184; 4209.400;    0.000;    0.000
654.299; 4406.400;    0.000;    0.000
654.414; 4298.400;    0.000;    0.000
654.530; 4384.400;    0.000;    0.000
654.645; 4458.400;    0.000;    0.000
654.760; 4487.400;    0.000;    0.000
654.875; 4457.400;    0.000;    0.000
654.990; 4525.400;    0.000;    0.000
655.106; 4664.400;    0.000;    0.000
655.221; 4655.400;    0.000;    0.000
655.336; 4632.400;    0.000;    0.000
655.451; 4735.400;    0.000;    0.000
655.566; 4767.400;    0.000;    0.000
655.681; 4910.400;    0.000;    0.000
655.796; 4990.400;    0.000;    0.000
655.911; 4936.400;    0.000;    0.000
656.026; 5034.400;    0.000;    0.000
656.141; 5180.400;    0.000;    0.000
656.256; 5181.400;    0.000;    0.000
656.371; 5163.400;    0.000;    0.000
656.486; 5190.400;    0.000;    0.000
656.601; 5167.400;    0.000;    0.000
656.716; 5114.400;    0.000;    0.000
656.831; 5181.400;    0.000;    0.000
656.946; 5074.400;    0.000;    0.000
657.060; 4973.400;    0.000;    0.000
657.175; 5024.400;    0.000;    0.000
657.290; 5021.400;    0.000;    0.000
657.405; 4965.400;    0.000;    0.000
657.520; 4943.400;    0.000;    0.000
657.634; 4879.400;    0.000;    0.000
657.749; 4830.400;    0.000;    0.000
657.864; 4781.400;    0.000;    0.000
657.979; 4815.400;    0.000;    0.000
658.093; 4812.400;    0.000;    0.000
658.208; 4690.400;    0.000;    0.000
658.323; 4629.400;    0.000;    0.000
658.437; 4563.400;    0.000;    0.000
658.552; 4564.400;    0.000;    0.000
658.666; 4574.400;    0.000;    0.000
658.781; 4505.400;    0.000;    0.000
658.895; 4429.400;    0.000;    0.000
659.010; 4498.400;    0.000;    0.000
659.125; 4370.400;    0.000;    0.000
659.239; 4445.400;    0.000;    0.000
659.353; 4383.400;    0.000;    0.000
659.468; 4441.400;    0.000;    0.000
659.582; 4303.400;    0.000;    0.000
659.697; 4389.400;    0.000;    0.000
659.811; 4247.400;    0.000;    0.000
659.926; 4284.400;    0.000;    0.000
660.040; 4327.400;    0.000;    0.000
660.154; 4242.400;    0.000;    0.000
660.269; 4123.400;    0.000;    0.000
660.383; 4250.400;    0.000;    0.000
660.497; 4220.400;    0.000;    0.000
660.612; 4262.400;    0.000;    0.000
660.726; 4283.400;    0.000;    0.000
660.840; 4094.400;    0.000;    0.000
660.954; 4131.400;    0.000;    0.000
661.068; 4034.400;    0.000;    0.000
661.183; 4095.400;    0.000;    0.000
661.297; 4142.400;    0.000;    0.000
661.411; 4049.400;    0.000;    0.000
661.525; 4156.400;    0.000;    0.000
661.639; 4059.400;    0.000;    0.000
661.753; 3988.400;    0.000;    0.000
661.867; 3917.400;    0.000;    0.000
661.981; 3955.400;    0.000;    0.000
662.095; 4046.400;    0.000;    0.000
662.209; 3926.400;    0.000;    0.000
662.323; 3890.400;    0.000;    0.000
662.437; 3947.400;    0.000;    0.000
662.551; 3918.400;    0.000;    0.000
662.665; 3893.400;    0.000;    0.000
662.779; 3911.400;    0.000;    0.000
662.893; 3889.400;    0.000;    0.000
663.007; 3782.400;    0.000;    0.000
663.121; 3837.400;    0.000;    0.000
663.235; 3813.400;    0.000;    0.000
663.349; 3706.400;    0.000;    0.000
663.462; 3785.400;    0.000;    0.000
663.576; 3749.400;    0.000;    0.000
663.690; 3817.400;    0.000;    0.000
663.804; 3733.400;    0.000;    0.000
663.917; 3743.400;    0.000;    0.000
664.031; 3679.400;    0.000;    0.000
664.145; 3713.400;    0.000;    0.000
664.258; 3665.400;    0.000;    0.000
664.372; 3605.400;    0.000;    0.000
664.486; 3588.400;    0.000;    0.000
664.599; 3702.400;    0.000;    0.000
664.713; 3771.400;    0.000;    0.000
664.827; 3645.400;    0.000;    0.000
664.940; 3649.400;    0.000;    0.000
665.054; 3796.400;    0.000;    0.000
665.167; 3655.400;    0.000;    0.000
665.281; 3584.400;    0.000;    0.000
665.394; 3551.400;    0.000;    0.000
665.508; 3583.400;    0.000;    0.000
665.621; 3562.400;    0.000;    0.000
665.735; 3560.400;    0.000;    0.000
665.848; 3592.400;    0.000;    0.000
665.961; 3616.400;    0.000;    0.000
666.075; 3608.400;    0.000;    0.000
666.188; 3523.400;    0.000;    0.000
666.301; 3500.400;    0.000;    0.000
666.415; 3466.400;    0.000;    0.000
666.528; 3514.400;    0.000;    0.000
666.641; 3500.400;    0.000;    0.000
666.755; 3438.400;    0.000;    0.000
666.868; 3522.400;    0.000;    0.000
666.981; 3517.400;    0.000;    0.000
667.094; 3507.400;    0.000;    0.000
667.207; 3402.400;    0.000;    0.000
667.321; 3441.400;    0.000;    0.000
667.434; 3487.400;    0.000;    0.000
667.547; 3503.400;    0.000;    0.000
667.660; 3402.400;    0.000;    0.000
667.773; 3489.400;    0.000;    0.000
667.886; 3423.400;    0.000;    0.000
667.999; 3460.400;    0.000;    0.000
668.112; 3422.400;    0.000;    0.000
668.225; 3375.400;    0.000;    0.000
668.338; 3375.400;    0.000;    0.000
668.451; 3422.400;    0.000;    0.000
668.564; 3412.400;    0.000;    0.000
668.677; 3231.400;    0.000;    0.000
668.790; 3344.400;    0.000;    0.000
668.903; 3370.400;    0.000;    0.000
669.016; 3369.400;    0.000;    0.000
669.129; 3248.400;    0.000;    0.000
669.242; 3268.400;    0.000;    0.000
669.354; 3248.400;    0.000;    0.000
669.467; 3313.400;    0.000;    0.000
669.580; 3309.400;    0.000;    0.000
669.693; 3332.400;    0.000;    0.000
669.806; 3204.400;    0.000;    0.000
669.918; 3268.400;    0.000;    0.000
670.031; 3301.400;    0.000;    0.000
670.144; 3207.400;    0.000;    0.000
670.256; 3194.400;    0.000;    0.000
670.369; 3296.400;    0.000;    0.000
670.482; 3222.400;    0.000;    0.000
670.594; 3215.400;    0.000;    0.000
670.707; 3192.400;    0.000;    0.000
670.820; 3171.400;    0.000;    0.000
670.932; 3224.400;    0.000;    0.000
671.045; 3287.400;    0.000;    0.000
671.157; 3228.400;    0.000;    0.000
671.270; 3266.400;    0.000;    0.000
671.382; 3202.400;    0.000;    0.000
671.495; 3318.400;    0.000;    0.000
671.607; 3132.400;    0.000;    0.000
671.720; 3166.400;    0.000;    0.000
671.832; 3145.400;    0.000;    0.000
671.944; 3293.400;    0.000;    0.000
672.057; 3185.400;    0.000;    0.000
672.169; 3156.400;    0.000;    0.000
672.281; 3213.400;    0.000;    0.000
672.394; 3073.400;    0.000;    0.000
672.506; 3189.400;    0.000;    0.000
672.618; 3087.400;    0.000;    0.000
672.731; 3138.400;    0.000;    0.000
672.843; 3189.400;    0.000;    0.000
672.955; 3109.400;    0.000;    0.000
673.067; 3157.400;    0.000;    0.000
673.180; 3124.400;    0.000;    0.000
673.292; 3161.400;    0.000;    0.000
673.404; 3063.400;    0.000;    0.000
673.516; 3071.400;    0.000;    0.000
673.628; 3159.400;    0.000;    0.000
673.740; 3114.400;    0.000;    0.000
673.852; 3149.400;    0.000;    0.000
673.964; 3014.400;    0.000;    0.000
674.076; 3098.400;    0.000;    0.000
674.188; 3124.400;    0.000;    0.000
674.300; 3107.400;    0.000;    0.000
674.412; 3109.400;    0.000;    0.000
674.524; 3171.400;    0.000;    0.000
674.636; 3085.400;    0.000;    0.000
674.748; 2936.400;    0.000;    0.000
674.860; 3056.400;    0.000;    0.000
674.972; 3053.400;    0.000;    0.000
675.084; 3046.400;    0.000;    0.000
675.196; 3059.400;    0.000;    0.000
675.307; 3108.400;    0.000;    0.000
675.419; 3062.400;    0.000;    0.000
675.531; 3131.400;    0.000;    0.000
675.643; 3017.400;    0.000;    0.000
675.755; 3060.400;    0.000;    0.000
675.866; 2978.400;    0.000;    0.000
675.978; 3063.400;    0.000;    0.000
676.090; 3014.400;    0.000;    0.000
676.201; 3037.400;    0.000;    0.000
676.313; 3062.400;    0.000;    0.000
676.425; 2985.400;    0.000;    0.000
676.536; 3060.400;    0.000;    0.000
676.648; 2973.400;    0.000;    0.000
676.759; 2969.400;    0.000;    0.000
676.871; 2939.400;    0.000;    0.000
676.983; 3051.400;    0.000;    0.000
677.094; 3018.400;    0.000;    0.000
677.206; 2981.400;    0.000;    0.000
677.317; 2975.400;    0.000;    0.000
677.429; 2948.400;    0.000;    0.000
677.540; 3006.400;    0.000;    0.000
677.651; 2923.400;    0.000;    0.000
677.763; 2913.400;    0.000;    0.000
677.874; 2872.400;    0.000;    0.000
677.986; 2972.400;    0.000;    0.000
678.097; 2897.400;    0.000;    0.000
678.208; 2902.400;    0.000;    0.000
678.320; 2901.400;    0.000;    0.000
678.431; 2982.400;    0.000;    0.000
678.542; 3042.400;    0.000;    0.000
678.653; 2891.400;    0.000;    0.000
678.765; 2945.400;    0.000;    0.000
678.876; 2883.400;    0.000;    0.000
678.987; 2809.400;    0.000;    0.000
679.098; 2931.400;    0.000;    0.000
679.209; 2912.400;    0.000;    0.000
679.320; 2799.400;    0.000;    0.000
679.432; 2730.400;    0.000;    0.000
679.543; 2835.400;    0.000;    0.000
679.654; 2946.400;    0.000;    0.000
679.765; 2832.400;    0.000;    0.000
679.876; 2898.400;    0.000;    0.000
679.987; 2867.400;    0.000;    0.000
680.098; 2904.400;    0.000;    0.000
680.209; 2829.400;    0.000;    0.000
680.320; 2914.400;    0.000;    0.000
680.431; 2835.400;    0.000;    0.000
680.542; 2812.400;    0.000;    0.000
680.653; 2834.400;    0.000;    0.000
680.763; 2749.400;    0.000;    0.000
680.874; 2919.400;    0.000;    0.000
680.985; 2820.400;    0.000;    0.000
681.096; 2770.400;    0.000;    0.000
681.207; 2907.400;    0.000;    0.000
681.318; 2797.400;    0.000;    0.000
681.428; 2862.400;    0.000;    0.000
681.539; 2838.400;    0.000;    0.000
681.650; 2755.400;    0.000;    0.000
681.760; 2842.400;    0.000;    0.000
681.871; 2801.400;    0.000;    0.000
681.982; 2831.400;    0.000;    0.000
682.093; 2797.400;    0.000;    0.000
682.203; 2854.400;    0.000;    0.000
682.314; 2865.400;    0.000;    0.000
682.424; 2813.400;    0.000;    0.000
682.535; 2820.400;    0.000;    0.000
682.646; 2875.400;    0.000;    0.000
682.756; 2877.400;    0.000;    0.000
682.867; 2867.400;    0.000;    0.000
682.977; 2797.400;    0.000;    0.000
683.088; 2836.400;    0.000;    0.000
683.198; 2766.400;    0.000;    0.000
683.308; 2843.400;    0.000;    0.000
683.419; 2802.400;    0.000;    0.000
683.529; 2859.400;    0.000;    0.000
683.640; 2820.400;    0.000;    0.000
683.750; 2733.400;    0.000;    0.000
683.860; 2848.400;    0.000;    0.000
683.971; 2753.400;    0.000;    0.000
684.081; 2838.400;    0.000;    0.000
684.191; 2744.400;    0.000;    0.000
684.301; 2747.400;    0.000;    0.000
684.412; 2828.400;    0.000;    0.000
684.522; 2779.400;    0.000;    0.000
684.632; 2703.400;    0.000;    0.000
684.742; 2894.400;    0.000;    0.000
684.852; 2716.400;    0.000;    0.000
684.963; 2758.400;    0.000;    0.000
685.073; 2742.400;    0.000;    0.000
685.183; 2768.400;    0.000;    0.000
685.293; 2679.400;    0.000;    0.000
685.403; 2774.400;    0.000;    0.000
685.513; 2797.400;    0.000;    0.000
685.623; 2681.400;    0.000;    0.000
685.733; 2770.400;    0.000;    0.000
685.843; 2758.400;    0.000;    0.000
685.953; 2765.400;    0.000;    0.000
686.063; 2767.400;    0.000;    0.000
686.173; 2699.400;    0.000;    0.000
686.283; 2775.400;    0.000;    0.000
686.393; 2773.400;    0.000;    0.000
686.503; 2799.400;    0.000;    0.000
686.612; 2708.400;    0.000;    0.000
686.722; 2802.400;    0.000;    0.000
686.832; 2690.400;    0.000;    0.000
686.942; 2791.400;    0.000;    0.000
687.052; 2720.400;    0.000;    0.000
687.161; 2738.400;    0.000;    0.000
687.271; 2815.400;    0.000;    0.000
687.381; 2709.400;    0.000;    0.000
687.491; 2700.400;    0.000;    0.000
687.600; 2756.400;    0.000;    0.000
687.710; 2765.400;    0.000;    0.000
687.820; 2668.400;    0.000;    0.000
687.929; 2689.400;    0.000;    0.000
688.039; 2778.400;    0.000;    0.000
688.148; 2748.400;    0.000;    0.000
688.258; 2699.400;    0.000;    0.000
688.367; 2752.400;    0.000;    0.000
688.477; 2673.400;    0.000;    0.000
688.586; 2721.400;    0.000;    0.000
688.696; 2746.400;    0.000;    0.000
688.805; 2670.400;    0.000;    0.000
688.915; 2676.400;    0.000;    0.000
689.024; 2675.400;    0.000;    0.000
689.134; 2747.400;    0.000;    0.000
689.243; 2693.400;    0.000;    0.000
689.352; 2715.400;    0.000;    0.000
689.462; 2646.400;    0.000;    0.000
689.571; 2632.400;    0.000;    0.000
689.680; 2692.400;    0.000;    0.000
689.790; 2681.400;    0.000;    0.000
689.899; 2638.400;    0.000;    0.000
690.008; 2791.400;    0.000;    0.000
690.117; 2632.400;    0.000;    0.000
690.227; 2700.400;    0.000;    0.000
690.336; 2589.400;    0.000;    0.000
690.445; 2627.400;    0.000;    0.000
690.554; 2708.400;    0.000;    0.000
690.663; 2634.400;    0.000;    0.000
690.772; 2666.400;    0.000;    0.000
690.881; 2677.400;    0.000;    0.000
690.990; 2642.400;    0.000;    0.000
691.099; 2686.400;    0.000;    0.000
691.209; 2715.400;    0.000;    0.000
691.318; 2725.400;    0.000;    0.000
691.427; 2605.400;    0.000;    0.000
691.536; 2653.400;    0.000;    0.000
691.644; 2713.400;    0.000;    0.000
691.753; 2600.400;    0.000;    0.000
691.862; 2717.400;    0.000;    0.000
691.971; 2673.400;    0.000;    0.000
692.080; 2663.400;    0.000;    0.000
692.189; 2627.400;    0.000;    0.000
692.298; 2706.400;    0.000;    0.000
692.406; 2643.400;    0.000;    0.000
692.515; 2765.400;    0.000;    0.000
692.624; 2610.400;    0.000;    0.000
692.733; 2602.400;    0.000;    0.000
692.842; 2659.400;    0.000;    0.000
692.950; 2624.400;    0.000;    0.000
693.059; 2539.400;    0.000;    0.000
693.168; 2673.400;    0.000;    0.000
693.276; 2593.400;    0.000;    0.000
693.385; 2636.400;    0.000;    0.000
693.494; 2648.400;    0.000;    0.000
693.602; 2634.400;    0.000;    0.000
693.711; 2671.400;    0.000;    0.000
693.819; 2623.400;    0.000;    0.000
693.928; 2706.400;    0.000;    0.000
694.036; 2604.400;    0.000;    0.000
694.145; 2685.400;    0.000;    0.000
694.253; 2656.400;    0.000;    0.000
694.362; 2680.400;    0.000;    0.000
694.470; 2679.400;    0.000;    0.000
694.579; 2598.400;    0.000;    0.000
694.687; 2679.400;    0.000;    0.000
694.795; 2704.400;    0.000;    0.000
694.904; 2702.400;    0.000;    0.000
695.012; 2588.400;    0.000;    0.000
695.120; 2681.400;    0.000;    0.000
695.229; 2658.400;    0.000;    0.000
695.337; 2602.400;    0.000;    0.000
695.445; 2665.400;    0.000;    0.000
695.553; 2634.400;    0.000;    0.000
695.662; 2625.400;    0.000;    0.000
695.770; 2603.400;    0.000;    0.000
695.878; 2649.400;    0.000;    0.000
695.986; 2671.400;    0.000;    0.000
696.094; 2647.400;    0.000;    0.000
696.202; 2599.400;    0.000;    0.000
696.310; 2696.400;    0.000;    0.000
696.419; 2635.400;    0.000;    0.000
696.527; 2682.400;    0.000;    0.000
696.635; 2626.400;    0.000;    0.000
696.743; 2560.400;    0.000;    0.000
696.851; 2574.400;    0.000;    0.000
696.959; 2618.400;    0.000;    0.000
697.067; 2611.400;    0.000;    0.000
697.174; 2571.400;    0.000;    0.000
697.282; 2656.400;    0.000;    0.000
697.390; 2699.400;    0.000;    0.000
697.498; 2673.400;    0.000;    0.000
697.606; 2668.400;    0.000;    0.000
697.714; 2518.400;    0.000;    0.000
697.822; 2652.400;    0.000;    0.000
697.929; 2600.400;    0.000;    0.000
698.037; 2599.400;    0.000;    0.000
698.145; 2626.400;    0.000;    0.000
698.253; 2615.400;    0.000;    0.000
698.360; 2702.400;    0.000;    0.000
698.468; 2636.400;    0.000;    0.000
698.576; 2702.400;    0.000;    0.000
698.683; 2615.400;    0.000;    0.000
698.791; 2528.400;    0.000;    0.000
698.899; 2549.400;    0.000;    0.000
699.006; 2698.400;    0.000;    0.000
699.114; 2723.400;    0.000;    0.000
699.221; 2592.400;    0.000;    0.000
699.329; 2664.400;    0.000;    0.000
699.436; 2703.400;    0.000;    0.000
699.544; 2657.400;    0.000;    0.000
699.651; 2586.400;    0.000;    0.000
699.759; 2620.400;    0.000;    0.000
699.866; 2678.400;    0.000;    0.000
699.974; 2520.400;    0.000;    0.000
700.081; 2621.400;    0.000;    0.000
700.188; 2613.400;    0.000;    0.000
700.296; 2596.400;    0.000;    0.000
700.403; 2621.400;    0.000;    0.000
700.510; 2650.400;    0.000;    0.000
700.618; 2631.400;    0.000;    0.000
700.725; 2501.400;    0.000;    0.000
700.832; 2622.400;    0.000;    0.000
700.940; 2617.400;    0.000;    0.000
701.047; 2653.400;    0.000;    0.000
701.154; 2548.400;    0.000;    0.000
701.261; 2579.400;    0.000;    0.000
701.368; 2657.400;    0.000;    0.000
701.475; 2527.400;    0.000;    0.000
701.582; 2669.400;    0.000;    0.000
701.690; 2598.400;    0.000;    0.000
701.797; 2692.400;    0.000;    0.000
701.904; 2733.400;    0.000;    0.000
702.011; 2638.400;    0.000;    0.000
702.118; 2595.400;    0.000;    0.000
702.225; 2659.400;    0.000;    0.000
702.332; 2562.400;    0.000;    0.000
702.439; 2637.400;    0.000;    0.000
702.546; 2607.400;    0.000;    0.000
702.652; 2588.400;    0.000;    0.000
702.759; 2644.400;    0.000;    0.000
702.866; 2611.400;    0.000;    0.000
702.973; 2603.400;    0.000;    0.000
703.080; 2628.400;    0.000;    0.000
703.187; 2580.400;    0.000;    0.000
703.294; 2694.400;    0.000;    0.000
703.400; 2388.400;    0.000;    0.000
703.507;  578.400;    0.000;    0.000
703.614;  310.400;    0.000;    0.000
703.720;  312.400;    0.000;    0.000
703.827;  303.400;    0.000;    0.000
703.934;  342.400;    0.000;    0.000
704.040;  315.400;    0.000;    0.000
704.147;  299.400;    0.000;    0.000
704.254;  352.400;    0.000;    0.000
704.360;  324.400;    0.000;    0.000
704.467;  323.400;    0.000;    0.000
704.573;  318.400;    0.000;    0.000
704.680;  312.400;    0.000;    0.000
704.786;  330.400;    0.000;    0.000
704.893;  328.400;    0.000;    0.000
704.999;  306.400;    0.000;    0.000
705.106;  329.400;    0.000;    0.000

