
Integration time [ms]:   1.000
Averaging Nr. [scans]: 1
Smoothing Nr. [pixels]: 0
Data measured with spectrometer [name]: NIR
Wave   ;Sample   ;Dark     ;Reference
[nm]   ;[counts] ;[counts] ;[counts] 

691.496;   67.200;    0.000;    0.000
691.696;  141.200;    0.000;    0.000
691.896;   86.200;    0.000;    0.000
692.096;   94.200;    0.000;    0.000
692.296;   44.200;    0.000;    0.000
692.496;  114.200;    0.000;    0.000
692.695;   55.200;    0.000;    0.000
692.895;  116.200;    0.000;    0.000
693.095;   88.200;    0.000;    0.000
693.295;  113.200;    0.000;    0.000
693.495;  130.200;    0.000;    0.000
693.695;   96.200;    0.000;    0.000
693.894;  125.200;    0.000;    0.000
694.094;  101.200;    0.000;    0.000
694.294;   65.200;    0.000;    0.000
694.494;  234.200;    0.000;    0.000
694.693; 1347.200;    0.000;    0.000
694.893; 1523.200;    0.000;    0.000
695.093; 1475.200;    0.000;    0.000
695.293; 1559.200;    0.000;    0.000
695.492; 1514.200;    0.000;    0.000
695.692; 1498.200;    0.000;    0.000
695.891; 1500.200;    0.000;    0.000
696.091; 1534.200;    0.000;    0.000
696.291; 1540.200;    0.000;    0.000
696.490; 1556.200;    0.000;    0.000
696.690; 1532.200;    0.000;    0.000
696.889; 1589.200;    0.000;    0.000
697.089; 1540.200;    0.000;    0.000
697.288; 1609.200;    0.000;    0.000
697.488; 1671.200;    0.000;    0.000
697.687; 1523.200;    0.000;    0.000
697.887; 1627.200;    0.000;    0.000
698.086; 1661.200;    0.000;    0.000
698.286; 1621.200;    0.000;    0.000
698.485; 1658.200;    0.000;    0.000
698.684; 1588.200;    0.000;    0.000
698.884; 1650.200;    0.000;    0.000
699.083; 1531.200;    0.000;    0.000
699.282; 1619.200;    0.000;    0.000
699.482; 1568.200;    0.000;    0.000
699.681; 1637.200;    0.000;    0.000
699.880; 1656.200;    0.000;    0.000
700.080; 1648.200;    0.000;    0.000
700.279; 1534.200;    0.000;    0.000
700.478; 1693.200;    0.000;    0.000
700.677; 1671.200;    0.000;    0.000
700.877; 1681.200;    0.000;    0.000
701.076; 1615.200;    0.000;    0.000
701.275; 1688.200;    0.000;    0.000
701.474; 1717.200;    0.000;    0.000
701.673; 1676.200;    0.000;    0.000
701.872; 1583.200;    0.000;    0.000
702.071; 1634.200;    0.000;    0.000
702.271; 1639.200;    0.000;    0.000
702.470; 1679.200;    0.000;    0.000
702.669; 1703.200;    0.000;    0.000
702.868; 1724.200;    0.000;    0.000
703.067; 1784.200;    0.000;    0.000
703.266; 1706.200;    0.000;    0.000
703.465; 1680.200;    0.000;    0.000
703.664; 1642.200;    0.000;    0.000
703.863; 1719.200;    0.000;    0.000
704.062; 1683.200;    0.000;    0.000
704.260; 1786.200;    0.000;    0.000
704.459; 1725.200;    0.000;    0.000
704.658; 1678.200;    0.000;    0.000
704.857; 1684.200;    0.000;    0.000
705.056; 1658.200;    0.000;    0.000
705.255; 1690.200;    0.000;    0.000
705.454; 1691.200;    0.000;    0.000
705.652; 1682.200;    0.000;    0.000
705.851; 1637.200;    0.000;    0.000
706.050; 1734.200;    0.000;    0.000
706.249; 1726.200;    0.000;    0.000
706.447; 1722.200;    0.000;    0.000
706.646; 1750.200;    0.000;    0.000
706.845; 1745.200;    0.000;    0.000
707.043; 1740.200;    0.000;    0.000
707.242; 1770.200;    0.000;    0.000
707.441; 1854.200;    0.000;    0.000
707.639; 1784.200;    0.000;    0.000
707.838; 1713.200;    0.000;    0.000
708.037; 1807.200;    0.000;    0.000
708.235; 1744.200;    0.000;    0.000
708.434; 1858.200;    0.000;    0.000
708.632; 1681.200;    0.000;    0.000
708.831; 1811.200;    0.000;    0.000
709.029; 1832.200;    0.000;    0.000
709.228; 1847.200;    0.000;    0.000
709.426; 1878.200;    0.000;    0.000
709.625; 1801.200;    0.000;    0.000
709.823; 1770.200;    0.000;    0.000
710.022; 1801.200;    0.000;    0.000
710.220; 1814.200;    0.000;    0.000
710.418; 1896.200;    0.000;    0.000
710.617; 1869.200;    0.000;    0.000
710.815; 1838.200;    0.000;    0.000
711.013; 1865.200;    0.000;    0.000
711.212; 1850.200;    0.000;    0.000
711.410; 1931.200;    0.000;    0.000
711.608; 1845.200;    0.000;    0.000
711.807; 1858.200;    0.000;    0.000
712.005; 1893.200;    0.000;    0.000
712.203; 1854.200;    0.000;    0.000
712.401; 1872.200;    0.000;    0.000
712.599; 1885.200;    0.000;    0.000
712.798; 1890.200;    0.000;    0.000
712.996; 1827.200;    0.000;    0.000
713.194; 1926.200;    0.000;    0.000
713.392; 1903.200;    0.000;    0.000
713.590; 1931.200;    0.000;    0.000
713.788; 1968.200;    0.000;    0.000
713.986; 2004.200;    0.000;    0.000
714.184; 1920.200;    0.000;    0.000
714.382; 1930.200;    0.000;    0.000
714.580; 2026.200;    0.000;    0.000
714.778; 2027.200;    0.000;    0.000
714.976; 1977.200;    0.000;    0.000
715.174; 2029.200;    0.000;    0.000
715.372; 2032.200;    0.000;    0.000
715.570; 2070.200;    0.000;    0.000
715.768; 2004.200;    0.000;    0.000
715.966; 2093.200;    0.000;    0.000
716.164; 2129.200;    0.000;    0.000
716.362; 2079.200;    0.000;    0.000
716.560; 2114.200;    0.000;    0.000
716.758; 2143.200;    0.000;    0.000
716.955; 2057.200;    0.000;    0.000
717.153; 2021.200;    0.000;    0.000
717.351; 2162.200;    0.000;    0.000
717.549; 2142.200;    0.000;    0.000
717.746; 2052.200;    0.000;    0.000
717.944; 2109.200;    0.000;    0.000
718.142; 2147.200;    0.000;    0.000
718.340; 2126.200;    0.000;    0.000
718.537; 2106.200;    0.000;    0.000
718.735; 2143.200;    0.000;    0.000
718.933; 2147.200;    0.000;    0.000
719.130; 2090.200;    0.000;    0.000
719.328; 2146.200;    0.000;    0.000
719.525; 2138.200;    0.000;    0.000
719.723; 2094.200;    0.000;    0.000
719.920; 2138.200;    0.000;    0.000
720.118; 2080.200;    0.000;    0.000
720.316; 2116.200;    0.000;    0.000
720.513; 2106.200;    0.000;    0.000
720.711; 2078.200;    0.000;    0.000
720.908; 2118.200;    0.000;    0.000
721.105; 2123.200;    0.000;    0.000
721.303; 2167.200;    0.000;    0.000
721.500; 2206.200;    0.000;    0.000
721.698; 2060.200;    0.000;    0.000
721.895; 2074.200;    0.000;    0.000
722.092; 2092.200;    0.000;    0.000
722.290; 2174.200;    0.000;    0.000
722.487; 2096.200;    0.000;    0.000
722.684; 2131.200;    0.000;    0.000
722.882; 2174.200;    0.000;    0.000
723.079; 2177.200;    0.000;    0.000
723.276; 2128.200;    0.000;    0.000
723.473; 2185.200;    0.000;    0.000
723.671; 2092.200;    0.000;    0.000
723.868; 2132.200;    0.000;    0.000
724.065; 2161.200;    0.000;    0.000
724.262; 2165.200;    0.000;    0.000
724.459; 2107.200;    0.000;    0.000
724.656; 2187.200;    0.000;    0.000
724.854; 2249.200;    0.000;    0.000
725.051; 2195.200;    0.000;    0.000
725.248; 2139.200;    0.000;    0.000
725.445; 2244.200;    0.000;    0.000
725.642; 2160.200;    0.000;    0.000
725.839; 2137.200;    0.000;    0.000
726.036; 2250.200;    0.000;    0.000
726.233; 2156.200;    0.000;    0.000
726.430; 2223.200;    0.000;    0.000
726.627; 2303.200;    0.000;    0.000
726.824; 2203.200;    0.000;    0.000
727.021; 2222.200;    0.000;    0.000
727.218; 2169.200;    0.000;    0.000
727.414; 2236.200;    0.000;    0.000
727.611; 2246.200;    0.000;    0.000
727.808; 2274.200;    0.000;    0.000
728.005; 2236.200;    0.000;    0.000
728.202; 2229.200;    0.000;    0.000
728.399; 2265.200;    0.000;    0.000
728.595; 2200.200;    0.000;    0.000
728.792; 2230.200;    0.000;    0.000
728.989; 2219.200;    0.000;    0.000
729.186; 2193.200;    0.000;    0.000
729.382; 2297.200;    0.000;    0.000
729.579; 2369.200;    0.000;    0.000
729.776; 2348.200;    0.000;    0.000
729.972; 2262.200;    0.000;    0.000
730.169; 2323.200;    0.000;    0.000
730.366; 2287.200;    0.000;    0.000
730.562; 2301.200;    0.000;    0.000
730.759; 2363.200;    0.000;    0.000
730.955; 2368.200;    0.000;    0.000
731.152; 2374.200;    0.000;    0.000
731.348; 2356.200;    0.000;    0.000
731.545; 2243.200;    0.000;    0.000
731.741; 2286.200;    0.000;    0.000
731.938; 2385.200;    0.000;    0.000
732.134; 2362.200;    0.000;    0.000
732.331; 2325.200;    0.000;    0.000
732.527; 2378.200;    0.000;    0.000
732.724; 2394.200;    0.000;    0.000
732.920; 2373.200;    0.000;    0.000
733.116; 2294.200;    0.000;    0.000
733.313; 2395.200;    0.000;    0.000
733.509; 2324.200;    0.000;    0.000
733.705; 2346.200;    0.000;    0.000
733.902; 2463.200;    0.000;    0.000
734.098; 2360.200;    0.000;    0.000
734.294; 2390.200;    0.000;    0.000
734.490; 2467.200;    0.000;    0.000
734.687; 2442.200;    0.000;    0.000
734.883; 2398.200;    0.000;    0.000
735.079; 2461.200;    0.000;    0.000
735.275; 2438.200;    0.000;    0.000
735.471; 2390.200;    0.000;    0.000
735.667; 2510.200;    0.000;    0.000
735.863; 2382.200;    0.000;    0.000
736.060; 2425.200;    0.000;    0.000
736.256; 2472.200;    0.000;    0.000
736.452; 2444.200;    0.000;    0.000
736.648; 2482.200;    0.000;    0.000
736.844; 2490.200;    0.000;    0.000
737.040; 2573.200;    0.000;    0.000
737.236; 2461.200;    0.000;    0.000
737.432; 2461.200;    0.000;    0.000
737.628; 2484.200;    0.000;    0.000
737.824; 2568.200;    0.000;    0.000
738.019; 2509.200;    0.000;    0.000
738.215; 2509.200;    0.000;    0.000
738.411; 2505.200;    0.000;    0.000
738.607; 2553.200;    0.000;    0.000
738.803; 2469.200;    0.000;    0.000
738.999; 2635.200;    0.000;    0.000
739.195; 2529.200;    0.000;    0.000
739.390; 2635.200;    0.000;    0.000
739.586; 2557.200;    0.000;    0.000
739.782; 2645.200;    0.000;    0.000
739.978; 2606.200;    0.000;    0.000
740.173; 2589.200;    0.000;    0.000
740.369; 2562.200;    0.000;    0.000
740.565; 2631.200;    0.000;    0.000
740.760; 2723.200;    0.000;    0.000
740.956; 2698.200;    0.000;    0.000
741.152; 2687.200;    0.000;    0.000
741.347; 2632.200;    0.000;    0.000
741.543; 2694.200;    0.000;    0.000
741.738; 2758.200;    0.000;    0.000
741.934; 2724.200;    0.000;    0.000
742.129; 2756.200;    0.000;    0.000
742.325; 2805.200;    0.000;    0.000
742.520; 2816.200;    0.000;    0.000
742.716; 2940.200;    0.000;    0.000
742.911; 2829.200;    0.000;    0.000
743.107; 2909.200;    0.000;    0.000
743.302; 2875.200;    0.000;    0.000
743.498; 2849.200;    0.000;    0.000
743.693; 2907.200;    0.000;    0.000
743.888; 2851.200;    0.000;    0.000
744.084; 2925.200;    0.000;    0.000
744.279; 3012.200;    0.000;    0.000
744.474; 3141.200;    0.000;    0.000
744.670; 2982.200;    0.000;    0.000
744.865; 3096.200;    0.000;    0.000
745.060; 2995.200;    0.000;    0.000
745.255; 3069.200;    0.000;    0.000
745.451; 3081.200;    0.000;    0.000
745.646; 3050.200;    0.000;    0.000
745.841; 3029.200;    0.000;    0.000
746.036; 3052.200;    0.000;    0.000
746.231; 3141.200;    0.000;    0.000
746.426; 3035.200;    0.000;    0.000
746.622; 3178.200;    0.000;    0.000
746.817; 3321.200;    0.000;    0.000
747.012; 3349.200;    0.000;    0.000
747.207; 3413.200;    0.000;    0.000
747.402; 3324.200;    0.000;    0.000
747.597; 3230.200;    0.000;    0.000
747.792; 3297.200;    0.000;    0.000
747.987; 3203.200;    0.000;    0.000
748.182; 3233.200;    0.000;    0.000
748.377; 3209.200;    0.000;    0.000
748.572; 3186.200;    0.000;    0.000
748.767; 3259.200;    0.000;    0.000
748.961; 3126.200;    0.000;    0.000
749.156; 3149.200;    0.000;    0.000
749.351; 3063.200;    0.000;    0.000
749.546; 3042.200;    0.000;    0.000
749.741; 3132.200;    0.000;    0.000
749.936; 3080.200;    0.000;    0.000
750.130; 2965.200;    0.000;    0.000
750.325; 3016.200;    0.000;    0.000
750.520; 3050.200;    0.000;    0.000
750.715; 2999.200;    0.000;    0.000
750.909; 3199.200;    0.000;    0.000
751.104; 2997.200;    0.000;    0.000
751.299; 3079.200;    0.000;    0.000
751.493; 3082.200;    0.000;    0.000
751.688; 2984.200;    0.000;    0.000
751.882; 2938.200;    0.000;    0.000
752.077; 3057.200;    0.000;    0.000
752.272; 3066.200;    0.000;    0.000
752.466; 3070.200;    0.000;    0.000
752.661; 2961.200;    0.000;    0.000
752.855; 2996.200;    0.000;    0.000
753.050; 3011.200;    0.000;    0.000
753.244; 3022.200;    0.000;    0.000
753.439; 3022.200;    0.000;    0.000
753.633; 3093.200;    0.000;    0.000
753.828; 3037.200;    0.000;    0.000
754.022; 2916.200;    0.000;    0.000
754.216; 2994.200;    0.000;    0.000
754.411; 3034.200;    0.000;    0.000
754.605; 3017.200;    0.000;    0.000
754.799; 2983.200;    0.000;    0.000
754.994; 3051.200;    0.000;    0.000
755.188; 3018.200;    0.000;    0.000
755.382; 3050.200;    0.000;    0.000
755.576; 3001.200;    0.000;    0.000
755.771; 3064.200;    0.000;    0.000
755.965; 3116.200;    0.000;    0.000
756.159; 3076.200;    0.000;    0.000
756.353; 3106.200;    0.000;    0.000
756.547; 2983.200;    0.000;    0.000
756.742; 2957.200;    0.000;    0.000
756.936; 2949.200;    0.000;    0.000
757.130; 3123.200;    0.000;    0.000
757.324; 3044.200;    0.000;    0.000
757.518; 3138.200;    0.000;    0.000
757.712; 3011.200;    0.000;    0.000
757.906; 3035.200;    0.000;    0.000
758.100; 3134.200;    0.000;    0.000
758.294; 3103.200;    0.000;    0.000
758.488; 3118.200;    0.000;    0.000
758.682; 3094.200;    0.000;    0.000
758.876; 3128.200;    0.000;    0.000
759.070; 3036.200;    0.000;    0.000
759.264; 3016.200;    0.000;    0.000
759.458; 3126.200;    0.000;    0.000
759.651; 3100.200;    0.000;    0.000
759.845; 3031.200;    0.000;    0.000
760.039; 3143.200;    0.000;    0.000
760.233; 3019.200;    0.000;    0.000
760.427; 3080.200;    0.000;    0.000
760.620; 3175.200;    0.000;    0.000
760.814; 3154.200;    0.000;    0.000
761.008; 3060.200;    0.000;    0.000
761.202; 3118.200;    0.000;    0.000
761.395; 3157.200;    0.000;    0.000
761.589; 3136.200;    0.000;    0.000
761.783; 3090.200;    0.000;    0.000
761.976; 3185.200;    0.000;    0.000
762.170; 3114.200;    0.000;    0.000
762.363; 3117.200;    0.000;    0.000
762.557; 3257.200;    0.000;    0.000
762.750; 3172.200;    0.000;    0.000
762.944; 3117.200;    0.000;    0.000
763.138; 3050.200;    0.000;    0.000
763.331; 3199.200;    0.000;    0.000
763.524; 3191.200;    0.000;    0.000
763.718; 3199.200;    0.000;    0.000
763.911; 3197.200;    0.000;    0.000
764.105; 3170.200;    0.000;    0.000
764.298; 3184.200;    0.000;    0.000
764.492; 3282.200;    0.000;    0.000
764.685; 3258.200;    0.000;    0.000
764.878; 3269.200;    0.000;    0.000
765.072; 3284.200;    0.000;    0.000
765.265; 3265.200;    0.000;    0.000
765.458; 3224.200;    0.000;    0.000
765.651; 3330.200;    0.000;    0.000
765.845; 3361.200;    0.000;    0.000
766.038; 3609.200;    0.000;    0.000
766.231; 4601.200;    0.000;    0.000
766.424; 6019.200;    0.000;    0.000
766.617; 5586.200;    0.000;    0.000
766.811; 4125.200;    0.000;    0.000
767.004; 3475.200;    0.000;    0.000
767.197; 3517.200;    0.000;    0.000
767.390; 3310.200;    0.000;    0.000
767.583; 3326.200;    0.000;    0.000
767.776; 3271.200;    0.000;    0.000
767.969; 3216.200;    0.000;    0.000
768.162; 3375.200;    0.000;    0.000
768.355; 3296.200;    0.000;    0.000
768.548; 3310.200;    0.000;    0.000
768.741; 3334.200;    0.000;    0.000
768.934; 3341.200;    0.000;    0.000
769.127; 3516.200;    0.000;    0.000
769.320; 3487.200;    0.000;    0.000
769.513; 3774.200;    0.000;    0.000
769.706; 4628.200;    0.000;    0.000
769.898; 5403.200;    0.000;    0.000
770.091; 4709.200;    0.000;    0.000
770.284; 3700.200;    0.000;    0.000
770.477; 3578.200;    0.000;    0.000
770.670; 3547.200;    0.000;    0.000
770.862; 3534.200;    0.000;    0.000
771.055; 3545.200;    0.000;    0.000
771.248; 3517.200;    0.000;    0.000
771.441; 3550.200;    0.000;    0.000
771.633; 3578.200;    0.000;    0.000
771.826; 3616.200;    0.000;    0.000
772.018; 3667.200;    0.000;    0.000
772.211; 3631.200;    0.000;    0.000
772.404; 3640.200;    0.000;    0.000
772.596; 3674.200;    0.000;    0.000
772.789; 3651.200;    0.000;    0.000
772.981; 3752.200;    0.000;    0.000
773.174; 3700.200;    0.000;    0.000
773.366; 3707.200;    0.000;    0.000
773.559; 3756.200;    0.000;    0.000
773.751; 3866.200;    0.000;    0.000
773.944; 3845.200;    0.000;    0.000
774.136; 3877.200;    0.000;    0.000
774.329; 3966.200;    0.000;    0.000
774.521; 4001.200;    0.000;    0.000
774.713; 3988.200;    0.000;    0.000
774.906; 4131.200;    0.000;    0.000
775.098; 4219.200;    0.000;    0.000
775.290; 4290.200;    0.000;    0.000
775.483; 4351.200;    0.000;    0.000
775.675; 4445.200;    0.000;    0.000
775.867; 4542.200;    0.000;    0.000
776.059; 4812.200;    0.000;    0.000
776.251; 5020.200;    0.000;    0.000
776.444; 5252.200;    0.000;    0.000
776.636; 5597.200;    0.000;    0.000
776.828; 6092.200;    0.000;    0.000
777.020; 7149.200;    0.000;    0.000
777.212; 8413.200;    0.000;    0.000
777.404; 8883.200;    0.000;    0.000
777.596; 8281.200;    0.000;    0.000
777.788; 7497.200;    0.000;    0.000
777.980; 6663.200;    0.000;    0.000
778.172; 6179.200;    0.000;    0.000
778.364; 5800.200;    0.000;    0.000
778.556; 5477.200;    0.000;    0.000
778.748; 5337.200;    0.000;    0.000
778.940; 5072.200;    0.000;    0.000
779.132; 4900.200;    0.000;    0.000
779.324; 4631.200;    0.000;    0.000
779.516; 4555.200;    0.000;    0.000
779.708; 4601.200;    0.000;    0.000
779.900; 4475.200;    0.000;    0.000
780.091; 4321.200;    0.000;    0.000
780.283; 4230.200;    0.000;    0.000
780.475; 4140.200;    0.000;    0.000
780.667; 4083.200;    0.000;    0.000
780.859; 4008.200;    0.000;    0.000
781.050; 4049.200;    0.000;    0.000
781.242; 4028.200;    0.000;    0.000
781.434; 3945.200;    0.000;    0.000
781.625; 3794.200;    0.000;    0.000
781.817; 3825.200;    0.000;    0.000
782.008; 3677.200;    0.000;    0.000
782.200; 3813.200;    0.000;    0.000
782.392; 3647.200;    0.000;    0.000
782.583; 3624.200;    0.000;    0.000
782.775; 3607.200;    0.000;    0.000
782.966; 3567.200;    0.000;    0.000
783.158; 3549.200;    0.000;    0.000
783.349; 3532.200;    0.000;    0.000
783.541; 3571.200;    0.000;    0.000
783.732; 3522.200;    0.000;    0.000
783.924; 3476.200;    0.000;    0.000
784.115; 3409.200;    0.000;    0.000
784.306; 3443.200;    0.000;    0.000
784.498; 3466.200;    0.000;    0.000
784.689; 3474.200;    0.000;    0.000
784.880; 3395.200;    0.000;    0.000
785.072; 3399.200;    0.000;    0.000
785.263; 3404.200;    0.000;    0.000
785.454; 3378.200;    0.000;    0.000
785.645; 3288.200;    0.000;    0.000
785.837; 3274.200;    0.000;    0.000
786.028; 3328.200;    0.000;    0.000
786.219; 3313.200;    0.000;    0.000
786.410; 3318.200;    0.000;    0.000
786.601; 3239.200;    0.000;    0.000
786.792; 3276.200;    0.000;    0.000
786.984; 3287.200;    0.000;    0.000
787.175; 3297.200;    0.000;    0.000
787.366; 3272.200;    0.000;    0.000
787.557; 3366.200;    0.000;    0.000
787.748; 3197.200;    0.000;    0.000
787.939; 3226.200;    0.000;    0.000
788.130; 3177.200;    0.000;    0.000
788.321; 3139.200;    0.000;    0.000
788.512; 3232.200;    0.000;    0.000
788.703; 3327.200;    0.000;    0.000
788.894; 3186.200;    0.000;    0.000
789.084; 3149.200;    0.000;    0.000
789.275; 3144.200;    0.000;    0.000
789.466; 3235.200;    0.000;    0.000
789.657; 3216.200;    0.000;    0.000
789.848; 3186.200;    0.000;    0.000
790.039; 3155.200;    0.000;    0.000
790.229; 3203.200;    0.000;    0.000
790.420; 3100.200;    0.000;    0.000
790.611; 3033.200;    0.000;    0.000
790.801; 3098.200;    0.000;    0.000
790.992; 3148.200;    0.000;    0.000
791.183; 3040.200;    0.000;    0.000
791.373; 3211.200;    0.000;    0.000
791.564; 3189.200;    0.000;    0.000
791.755; 3156.200;    0.000;    0.000
791.945; 3053.200;    0.000;    0.000
792.136; 3211.200;    0.000;    0.000
792.326; 3054.200;    0.000;    0.000
792.517; 3099.200;    0.000;    0.000
792.707; 3091.200;    0.000;    0.000
792.898; 3091.200;    0.000;    0.000
793.088; 3192.200;    0.000;    0.000
793.279; 3220.200;    0.000;    0.000
793.469; 3118.200;    0.000;    0.000
793.660; 3116.200;    0.000;    0.000
793.850; 3248.200;    0.000;    0.000
794.040; 3307.200;    0.000;    0.000
794.231; 3205.200;    0.000;    0.000
794.421; 3398.200;    0.000;    0.000
794.611; 3411.200;    0.000;    0.000
794.802; 3483.200;    0.000;    0.000
794.992; 3556.200;    0.000;    0.000
795.182; 3629.200;    0.000;    0.000
795.372; 3436.200;    0.000;    0.000
795.563; 3468.200;    0.000;    0.000
795.753; 3256.200;    0.000;    0.000
795.943; 3417.200;    0.000;    0.000
796.133; 3231.200;    0.000;    0.000
796.323; 3251.200;    0.000;    0.000
796.513; 3219.200;    0.000;    0.000
796.703; 3267.200;    0.000;    0.000
796.893; 3293.200;    0.000;    0.000
797.083; 3232.200;    0.000;    0.000
797.273; 3270.200;    0.000;    0.000
797.463; 3306.200;    0.000;    0.000
797.653; 3164.200;    0.000;    0.000
797.843; 3145.200;    0.000;    0.000
798.033; 3169.200;    0.000;    0.000
798.223; 3208.200;    0.000;    0.000
798.413; 2964.200;    0.000;    0.000
798.603; 3007.200;    0.000;    0.000
798.793; 3029.200;    0.000;    0.000
798.983; 2943.200;    0.000;    0.000
799.172; 3011.200;    0.000;    0.000
799.362; 2931.200;    0.000;    0.000
799.552; 2974.200;    0.000;    0.000
799.742; 2957.200;    0.000;    0.000
799.932; 2940.200;    0.000;    0.000
800.121; 2956.200;    0.000;    0.000
800.311; 2870.200;    0.000;    0.000
800.501; 2842.200;    0.000;    0.000
800.690; 2879.200;    0.000;    0.000
800.880; 2857.200;    0.000;    0.000
801.070; 2867.200;    0.000;    0.000
801.259; 2830.200;    0.000;    0.000
801.449; 2744.200;    0.000;    0.000
801.638; 2774.200;    0.000;    0.000
801.828; 2829.200;    0.000;    0.000
802.017; 2826.200;    0.000;    0.000
802.207; 2798.200;    0.000;    0.000
802.396; 2901.200;    0.000;    0.000
802.586; 2708.200;    0.000;    0.000
802.775; 2775.200;    0.000;    0.000
802.965; 2800.200;    0.000;    0.000
803.154; 2862.200;    0.000;    0.000
803.343; 2817.200;    0.000;    0.000
803.533; 2795.200;    0.000;    0.000
803.722; 2772.200;    0.000;    0.000
803.911; 2747.200;    0.000;    0.000
804.101; 2742.200;    0.000;    0.000
804.290; 2783.200;    0.000;    0.000
804.479; 2786.200;    0.000;    0.000
804.668; 2635.200;    0.000;    0.000
804.857; 2722.200;    0.000;    0.000
805.047; 2686.200;    0.000;    0.000
805.236; 2828.200;    0.000;    0.000
805.425; 2760.200;    0.000;    0.000
805.614; 2612.200;    0.000;    0.000
805.803; 2768.200;    0.000;    0.000
805.992; 2694.200;    0.000;    0.000
806.181; 2727.200;    0.000;    0.000
806.370; 2737.200;    0.000;    0.000
806.559; 2705.200;    0.000;    0.000
806.748; 2699.200;    0.000;    0.000
806.937; 2712.200;    0.000;    0.000
807.126; 2668.200;    0.000;    0.000
807.315; 2735.200;    0.000;    0.000
807.504; 2735.200;    0.000;    0.000
807.693; 2646.200;    0.000;    0.000
807.882; 2675.200;    0.000;    0.000
808.071; 2803.200;    0.000;    0.000
808.260; 2652.200;    0.000;    0.000
808.448; 2634.200;    0.000;    0.000
808.637; 2676.200;    0.000;    0.000
808.826; 2612.200;    0.000;    0.000
809.015; 2640.200;    0.000;    0.000
809.203; 2633.200;    0.000;    0.000
809.392; 2658.200;    0.000;    0.000
809.581; 2811.200;    0.000;    0.000
809.770; 2691.200;    0.000;    0.000
809.958; 2637.200;    0.000;    0.000
810.147; 2687.200;    0.000;    0.000
810.335; 2646.200;    0.000;    0.000
810.524; 2644.200;    0.000;    0.000
810.713; 2722.200;    0.000;    0.000
810.901; 2705.200;    0.000;    0.000
811.090; 2636.200;    0.000;    0.000
811.278; 2672.200;    0.000;    0.000
811.467; 2673.200;    0.000;    0.000
811.655; 2710.200;    0.000;    0.000
811.844; 2771.200;    0.000;    0.000
812.032; 2717.200;    0.000;    0.000
812.220; 2789.200;    0.000;    0.000
812.409; 2691.200;    0.000;    0.000
812.597; 2736.200;    0.000;    0.000
812.785; 2822.200;    0.000;    0.000
812.974; 2717.200;    0.000;    0.000
813.162; 2775.200;    0.000;    0.000
813.350; 2672.200;    0.000;    0.000
813.539; 2759.200;    0.000;    0.000
813.727; 2750.200;    0.000;    0.000
813.915; 2767.200;    0.000;    0.000
814.103; 2754.200;    0.000;    0.000
814.291; 2733.200;    0.000;    0.000
814.479; 2772.200;    0.000;    0.000
814.668; 2732.200;    0.000;    0.000
814.856; 2796.200;    0.000;    0.000
815.044; 2902.200;    0.000;    0.000
815.232; 2821.200;    0.000;    0.000
815.420; 3027.200;    0.000;    0.000
815.608; 2809.200;    0.000;    0.000
815.796; 2879.200;    0.000;    0.000
815.984; 2902.200;    0.000;    0.000
816.172; 2917.200;    0.000;    0.000
816.360; 3022.200;    0.000;    0.000
816.548; 2977.200;    0.000;    0.000
816.736; 3136.200;    0.000;    0.000
816.924; 3222.200;    0.000;    0.000
817.111; 3191.200;    0.000;    0.000
817.299; 3278.200;    0.000;    0.000
817.487; 3551.200;    0.000;    0.000
817.675; 3703.200;    0.000;    0.000
817.863; 4100.200;    0.000;    0.000
818.050; 5370.200;    0.000;    0.000
818.238; 7672.200;    0.000;    0.000
818.426; 8434.200;    0.000;    0.000
818.613; 7078.200;    0.000;    0.000
818.801; 5935.200;    0.000;    0.000
818.989; 6048.200;    0.000;    0.000
819.176; 6887.200;    0.000;    0.000
819.364; 9416.200;    0.000;    0.000
819.552;10350.200;    0.000;    0.000
819.739; 8974.200;    0.000;    0.000
819.927; 6855.200;    0.000;    0.000
820.114; 5972.200;    0.000;    0.000
820.302; 5397.200;    0.000;    0.000
820.489; 5004.200;    0.000;    0.000
820.677; 4602.200;    0.000;    0.000
820.864; 4484.200;    0.000;    0.000
821.052; 4477.200;    0.000;    0.000
821.239; 4215.200;    0.000;    0.000
821.426; 4335.200;    0.000;    0.000
821.614; 4328.200;    0.000;    0.000
821.801; 4441.200;    0.000;    0.000
821.988; 4183.200;    0.000;    0.000
822.176; 4088.200;    0.000;    0.000
822.363; 4238.200;    0.000;    0.000
822.550; 4019.200;    0.000;    0.000
822.737; 3809.200;    0.000;    0.000
822.924; 3810.200;    0.000;    0.000
823.112; 3699.200;    0.000;    0.000
823.299; 3576.200;    0.000;    0.000
823.486; 3530.200;    0.000;    0.000
823.673; 3439.200;    0.000;    0.000
823.860; 3416.200;    0.000;    0.000
824.047; 3302.200;    0.000;    0.000
824.234; 3379.200;    0.000;    0.000
824.421; 3318.200;    0.000;    0.000
824.608; 3326.200;    0.000;    0.000
824.795; 3187.200;    0.000;    0.000
824.982; 3204.200;    0.000;    0.000
825.169; 2948.200;    0.000;    0.000
825.356; 3064.200;    0.000;    0.000
825.543; 2958.200;    0.000;    0.000
825.730; 2984.200;    0.000;    0.000
825.917; 2839.200;    0.000;    0.000
826.104; 2941.200;    0.000;    0.000
826.290; 2861.200;    0.000;    0.000
826.477; 2806.200;    0.000;    0.000
826.664; 2749.200;    0.000;    0.000
826.851; 2796.200;    0.000;    0.000
827.038; 2697.200;    0.000;    0.000
827.224; 2593.200;    0.000;    0.000
827.411; 2792.200;    0.000;    0.000
827.598; 2665.200;    0.000;    0.000
827.784; 2617.200;    0.000;    0.000
827.971; 2597.200;    0.000;    0.000
828.157; 2553.200;    0.000;    0.000
828.344; 2465.200;    0.000;    0.000
828.531; 2527.200;    0.000;    0.000
828.717; 2541.200;    0.000;    0.000
828.904; 2453.200;    0.000;    0.000
829.090; 2519.200;    0.000;    0.000
829.277; 2515.200;    0.000;    0.000
829.463; 2434.200;    0.000;    0.000
829.650; 2579.200;    0.000;    0.000
829.836; 2429.200;    0.000;    0.000
830.022; 2454.200;    0.000;    0.000
830.209; 2386.200;    0.000;    0.000
830.395; 2428.200;    0.000;    0.000
830.581; 2344.200;    0.000;    0.000
830.768; 2393.200;    0.000;    0.000
830.954; 2376.200;    0.000;    0.000
831.140; 2282.200;    0.000;    0.000
831.327; 2297.200;    0.000;    0.000
831.513; 2321.200;    0.000;    0.000
831.699; 2293.200;    0.000;    0.000
831.885; 2293.200;    0.000;    0.000
832.071; 2300.200;    0.000;    0.000
832.257; 2253.200;    0.000;    0.000
832.444; 2245.200;    0.000;    0.000
832.630; 2243.200;    0.000;    0.000
832.816; 2241.200;    0.000;    0.000
833.002; 2185.200;    0.000;    0.000
833.188; 2261.200;    0.000;    0.000
833.374; 2267.200;    0.000;    0.000
833.560; 2186.200;    0.000;    0.000
833.746; 2189.200;    0.000;    0.000
833.932; 2207.200;    0.000;    0.000
834.118; 2101.200;    0.000;    0.000
834.303; 2180.200;    0.000;    0.000
834.489; 2164.200;    0.000;    0.000
834.675; 2247.200;    0.000;    0.000
834.861; 2166.200;    0.000;    0.000
835.047; 2213.200;    0.000;    0.000
835.233; 2191.200;    0.000;    0.000
835.418; 2153.200;    0.000;    0.000
835.604; 2052.200;    0.000;    0.000
835.790; 2166.200;    0.000;    0.000
835.976; 2133.200;    0.000;    0.000
836.161; 2132.200;    0.000;    0.000
836.347; 2069.200;    0.000;    0.000
836.533; 2189.200;    0.000;    0.000
836.718; 2102.200;    0.000;    0.000
836.904; 2209.200;    0.000;    0.000
837.089; 2157.200;    0.000;    0.000
837.275; 2135.200;    0.000;    0.000
837.460; 2163.200;    0.000;    0.000
837.646; 2146.200;    0.000;    0.000
837.831; 2129.200;    0.000;    0.000
838.017; 2113.200;    0.000;    0.000
838.202; 2106.200;    0.000;    0.000
838.388; 2100.200;    0.000;    0.000
838.573; 2122.200;    0.000;    0.000
838.759; 2107.200;    0.000;    0.000
838.944; 2103.200;    0.000;    0.000
839.129; 2064.200;    0.000;    0.000
839.315; 2125.200;    0.000;    0.000
839.500; 2086.200;    0.000;    0.000
839.685; 2100.200;    0.000;    0.000
839.870; 2176.200;    0.000;    0.000
840.056; 2073.200;    0.000;    0.000
840.241; 2077.200;    0.000;    0.000
840.426; 2058.200;    0.000;    0.000
840.611; 2129.200;    0.000;    0.000
840.796; 2203.200;    0.000;    0.000
840.981; 2077.200;    0.000;    0.000
841.166; 2145.200;    0.000;    0.000
841.352; 2120.200;    0.000;    0.000
841.537; 2147.200;    0.000;    0.000
841.722; 2150.200;    0.000;    0.000
841.907; 2123.200;    0.000;    0.000
842.092; 2191.200;    0.000;    0.000
842.277; 2149.200;    0.000;    0.000
842.461; 2244.200;    0.000;    0.000
842.646; 2162.200;    0.000;    0.000
842.831; 2220.200;    0.000;    0.000
843.016; 2326.200;    0.000;    0.000
843.201; 2219.200;    0.000;    0.000
843.386; 2287.200;    0.000;    0.000
843.571; 2344.200;    0.000;    0.000
843.755; 2321.200;    0.000;    0.000
843.940; 2344.200;    0.000;    0.000
844.125; 2466.200;    0.000;    0.000
844.310; 2704.200;    0.000;    0.000
844.494; 2955.200;    0.000;    0.000
844.679; 3201.200;    0.000;    0.000
844.864; 3027.200;    0.000;    0.000
845.048; 2914.200;    0.000;    0.000
845.233; 2781.200;    0.000;    0.000
845.418; 2722.200;    0.000;    0.000
845.602; 2571.200;    0.000;    0.000
845.787; 2538.200;    0.000;    0.000
845.971; 2410.200;    0.000;    0.000
846.156; 2357.200;    0.000;    0.000
846.340; 2330.200;    0.000;    0.000
846.525; 2326.200;    0.000;    0.000
846.709; 2168.200;    0.000;    0.000
846.893; 2192.200;    0.000;    0.000
847.078; 2175.200;    0.000;    0.000
847.262; 2188.200;    0.000;    0.000
847.447; 2114.200;    0.000;    0.000
847.631; 2059.200;    0.000;    0.000
847.815; 2047.200;    0.000;    0.000
848.000; 2074.200;    0.000;    0.000
848.184; 2059.200;    0.000;    0.000
848.368; 2076.200;    0.000;    0.000
848.552; 2034.200;    0.000;    0.000
848.736; 2098.200;    0.000;    0.000
848.921; 2074.200;    0.000;    0.000
849.105; 1988.200;    0.000;    0.000
849.289; 2001.200;    0.000;    0.000
849.473; 2040.200;    0.000;    0.000
849.657; 2072.200;    0.000;    0.000
849.841; 1998.200;    0.000;    0.000
850.025; 2029.200;    0.000;    0.000
850.209; 1943.200;    0.000;    0.000
850.393; 1917.200;    0.000;    0.000
850.577; 1925.200;    0.000;    0.000
850.761; 1996.200;    0.000;    0.000
850.945; 1955.200;    0.000;    0.000
851.129; 1988.200;    0.000;    0.000
851.313; 2005.200;    0.000;    0.000
851.497; 1907.200;    0.000;    0.000
851.680; 1925.200;    0.000;    0.000
851.864; 1858.200;    0.000;    0.000
852.048; 1897.200;    0.000;    0.000
852.232; 1949.200;    0.000;    0.000
852.416; 1870.200;    0.000;    0.000
852.599; 1949.200;    0.000;    0.000
852.783; 1924.200;    0.000;    0.000
852.967; 1875.200;    0.000;    0.000
853.150; 1991.200;    0.000;    0.000
853.334; 1862.200;    0.000;    0.000
853.518; 1935.200;    0.000;    0.000
853.701; 1917.200;    0.000;    0.000
853.885; 1878.200;    0.000;    0.000
854.068; 1804.200;    0.000;    0.000
854.252; 1914.200;    0.000;    0.000
854.435; 1894.200;    0.000;    0.000
854.619; 1817.200;    0.000;    0.000
854.802; 1898.200;    0.000;    0.000
854.986; 1875.200;    0.000;    0.000
855.169; 1880.200;    0.000;    0.000
855.353; 1860.200;    0.000;    0.000
855.536; 1773.200;    0.000;    0.000
855.719; 1816.200;    0.000;    0.000
855.903; 1810.200;    0.000;    0.000
856.086; 1847.200;    0.000;    0.000
856.269; 1805.200;    0.000;    0.000
856.452; 1781.200;    0.000;    0.000
856.636; 1841.200;    0.000;    0.000
856.819; 1848.200;    0.000;    0.000
857.002; 1860.200;    0.000;    0.000
857.185; 1831.200;    0.000;    0.000
857.368; 1843.200;    0.000;    0.000
857.552; 1825.200;    0.000;    0.000
857.735; 1835.200;    0.000;    0.000
857.918; 1833.200;    0.000;    0.000
858.101; 1886.200;    0.000;    0.000
858.284; 1798.200;    0.000;    0.000
858.467; 1849.200;    0.000;    0.000
858.650; 1812.200;    0.000;    0.000
858.833; 1753.200;    0.000;    0.000
859.016; 1808.200;    0.000;    0.000
859.199; 1836.200;    0.000;    0.000
859.382; 1863.200;    0.000;    0.000
859.564; 1947.200;    0.000;    0.000
859.747; 1901.200;    0.000;    0.000
859.930; 1895.200;    0.000;    0.000
860.113; 1927.200;    0.000;    0.000
860.296; 1892.200;    0.000;    0.000
860.478; 1922.200;    0.000;    0.000
860.661; 1935.200;    0.000;    0.000
860.844; 1888.200;    0.000;    0.000
861.027; 1824.200;    0.000;    0.000
861.209; 1855.200;    0.000;    0.000
861.392; 1846.200;    0.000;    0.000
861.575; 1876.200;    0.000;    0.000
861.757; 1873.200;    0.000;    0.000
861.940; 1887.200;    0.000;    0.000
862.122; 1906.200;    0.000;    0.000
862.305; 1832.200;    0.000;    0.000
862.487; 1885.200;    0.000;    0.000
862.670; 1967.200;    0.000;    0.000
862.852; 1922.200;    0.000;    0.000
863.035; 2056.200;    0.000;    0.000
863.217; 2101.200;    0.000;    0.000
863.400; 2007.200;    0.000;    0.000
863.582; 2054.200;    0.000;    0.000
863.764; 1980.200;    0.000;    0.000
863.947; 1977.200;    0.000;    0.000
864.129; 1949.200;    0.000;    0.000
864.311; 1952.200;    0.000;    0.000
864.493; 1944.200;    0.000;    0.000
864.676; 1985.200;    0.000;    0.000
864.858; 2085.200;    0.000;    0.000
865.040; 1995.200;    0.000;    0.000
865.222; 1981.200;    0.000;    0.000
865.404; 1999.200;    0.000;    0.000
865.587; 2065.200;    0.000;    0.000
865.769; 1983.200;    0.000;    0.000
865.951; 2084.200;    0.000;    0.000
866.133; 2063.200;    0.000;    0.000
866.315; 2036.200;    0.000;    0.000
866.497; 2015.200;    0.000;    0.000
866.679; 2116.200;    0.000;    0.000
866.861; 2159.200;    0.000;    0.000
867.043; 2136.200;    0.000;    0.000
867.225; 2195.200;    0.000;    0.000
867.407; 2260.200;    0.000;    0.000
867.589; 2299.200;    0.000;    0.000
867.770; 2504.200;    0.000;    0.000
867.952; 2683.200;    0.000;    0.000
868.134; 2894.200;    0.000;    0.000
868.316; 2913.200;    0.000;    0.000
868.498; 3032.200;    0.000;    0.000
868.679; 2829.200;    0.000;    0.000
868.861; 2684.200;    0.000;    0.000
869.043; 2586.200;    0.000;    0.000
869.224; 2449.200;    0.000;    0.000
869.406; 2387.200;    0.000;    0.000
869.588; 2387.200;    0.000;    0.000
869.769; 2299.200;    0.000;    0.000
869.951; 2318.200;    0.000;    0.000
870.132; 2347.200;    0.000;    0.000
870.314; 2302.200;    0.000;    0.000
870.495; 2334.200;    0.000;    0.000
870.677; 2218.200;    0.000;    0.000
870.858; 2210.200;    0.000;    0.000
871.040; 2290.200;    0.000;    0.000
871.221; 2218.200;    0.000;    0.000
871.403; 2254.200;    0.000;    0.000
871.584; 2314.200;    0.000;    0.000
871.765; 2342.200;    0.000;    0.000
871.947; 2334.200;    0.000;    0.000
872.128; 2164.200;    0.000;    0.000
872.309; 2100.200;    0.000;    0.000
872.491; 2018.200;    0.000;    0.000
872.672; 1990.200;    0.000;    0.000
872.853; 1968.200;    0.000;    0.000
873.034; 2015.200;    0.000;    0.000
873.215; 1941.200;    0.000;    0.000
873.396; 1858.200;    0.000;    0.000
873.578; 1880.200;    0.000;    0.000
873.759; 1855.200;    0.000;    0.000
873.940; 1816.200;    0.000;    0.000
874.121; 1833.200;    0.000;    0.000
874.302; 1888.200;    0.000;    0.000
874.483; 1805.200;    0.000;    0.000
874.664; 1812.200;    0.000;    0.000
874.845; 1801.200;    0.000;    0.000
875.026; 1761.200;    0.000;    0.000
875.207; 1741.200;    0.000;    0.000
875.388; 1809.200;    0.000;    0.000
875.568; 1809.200;    0.000;    0.000
875.749; 1749.200;    0.000;    0.000
875.930; 1793.200;    0.000;    0.000
876.111; 1775.200;    0.000;    0.000
876.292; 1787.200;    0.000;    0.000
876.472; 1753.200;    0.000;    0.000
876.653; 1731.200;    0.000;    0.000
876.834; 1705.200;    0.000;    0.000
877.015; 1700.200;    0.000;    0.000
877.195; 1690.200;    0.000;    0.000
877.376; 1695.200;    0.000;    0.000
877.556; 1650.200;    0.000;    0.000
877.737; 1687.200;    0.000;    0.000
877.918; 1667.200;    0.000;    0.000
878.098; 1704.200;    0.000;    0.000
878.279; 1734.200;    0.000;    0.000
878.459; 1636.200;    0.000;    0.000
878.640; 1648.200;    0.000;    0.000
878.820; 1684.200;    0.000;    0.000
879.000; 1625.200;    0.000;    0.000
879.181; 1652.200;    0.000;    0.000
879.361; 1649.200;    0.000;    0.000
879.542; 1585.200;    0.000;    0.000
879.722; 1589.200;    0.000;    0.000
879.902; 1637.200;    0.000;    0.000
880.083; 1607.200;    0.000;    0.000
880.263; 1631.200;    0.000;    0.000
880.443; 1733.200;    0.000;    0.000
880.623; 1765.200;    0.000;    0.000
880.803; 1835.200;    0.000;    0.000
880.984; 1788.200;    0.000;    0.000
881.164; 1732.200;    0.000;    0.000
881.344; 1591.200;    0.000;    0.000
881.524; 1699.200;    0.000;    0.000
881.704; 1612.200;    0.000;    0.000
881.884; 1721.200;    0.000;    0.000
882.064; 1655.200;    0.000;    0.000
882.244; 1696.200;    0.000;    0.000
882.424; 1630.200;    0.000;    0.000
882.604; 1693.200;    0.000;    0.000
882.784; 1615.200;    0.000;    0.000
882.964; 1584.200;    0.000;    0.000
883.144; 1589.200;    0.000;    0.000
883.324; 1636.200;    0.000;    0.000
883.504; 1709.200;    0.000;    0.000
883.683; 1576.200;    0.000;    0.000
883.863; 1545.200;    0.000;    0.000
884.043; 1631.200;    0.000;    0.000
884.223; 1635.200;    0.000;    0.000
884.402; 1617.200;    0.000;    0.000
884.582; 1663.200;    0.000;    0.000
884.762; 1657.200;    0.000;    0.000
884.941; 1628.200;    0.000;    0.000
885.121; 1636.200;    0.000;    0.000
885.301; 1585.200;    0.000;    0.000
885.480; 1614.200;    0.000;    0.000
885.660; 1589.200;    0.000;    0.000
885.839; 1639.200;    0.000;    0.000
886.019; 1581.200;    0.000;    0.000
886.198; 1545.200;    0.000;    0.000
886.378; 1530.200;    0.000;    0.000
886.557; 1583.200;    0.000;    0.000
886.737; 1558.200;    0.000;    0.000
886.916; 1583.200;    0.000;    0.000
887.095; 1601.200;    0.000;    0.000
887.275; 1594.200;    0.000;    0.000
887.454; 1576.200;    0.000;    0.000
887.633; 1564.200;    0.000;    0.000
887.813; 1544.200;    0.000;    0.000
887.992; 1543.200;    0.000;    0.000
888.171; 1530.200;    0.000;    0.000
888.350; 1609.200;    0.000;    0.000
888.530; 1501.200;    0.000;    0.000
888.709; 1483.200;    0.000;    0.000
888.888; 1544.200;    0.000;    0.000
889.067; 1506.200;    0.000;    0.000
889.246; 1585.200;    0.000;    0.000
889.425; 1623.200;    0.000;    0.000
889.604; 1600.200;    0.000;    0.000
889.783; 1507.200;    0.000;    0.000
889.962; 1506.200;    0.000;    0.000
890.141; 1537.200;    0.000;    0.000
890.320; 1492.200;    0.000;    0.000
890.499; 1539.200;    0.000;    0.000
890.678; 1474.200;    0.000;    0.000
890.857; 1512.200;    0.000;    0.000
891.036; 1591.200;    0.000;    0.000
891.214; 1473.200;    0.000;    0.000
891.393; 1498.200;    0.000;    0.000
891.572; 1484.200;    0.000;    0.000
891.751; 1547.200;    0.000;    0.000
891.930; 1498.200;    0.000;    0.000
892.108; 1475.200;    0.000;    0.000
892.287; 1536.200;    0.000;    0.000
892.466; 1531.200;    0.000;    0.000
892.644; 1536.200;    0.000;    0.000
892.823; 1448.200;    0.000;    0.000
893.001; 1502.200;    0.000;    0.000
893.180; 1503.200;    0.000;    0.000
893.359; 1518.200;    0.000;    0.000
893.537; 1559.200;    0.000;    0.000
893.716; 1483.200;    0.000;    0.000
893.894; 1520.200;    0.000;    0.000
894.073; 1524.200;    0.000;    0.000
894.251; 1474.200;    0.000;    0.000
894.429; 1488.200;    0.000;    0.000
894.608; 1502.200;    0.000;    0.000
894.786; 1425.200;    0.000;    0.000
894.964; 1541.200;    0.000;    0.000
895.143; 1490.200;    0.000;    0.000
895.321; 1427.200;    0.000;    0.000
895.499; 1510.200;    0.000;    0.000
895.677; 1459.200;    0.000;    0.000
895.856; 1497.200;    0.000;    0.000
896.034; 1494.200;    0.000;    0.000
896.212; 1502.200;    0.000;    0.000
896.390; 1460.200;    0.000;    0.000
896.568; 1550.200;    0.000;    0.000
896.746; 1525.200;    0.000;    0.000
896.924; 1476.200;    0.000;    0.000
897.102; 1506.200;    0.000;    0.000
897.280; 1551.200;    0.000;    0.000
897.458; 1460.200;    0.000;    0.000
897.636; 1473.200;    0.000;    0.000
897.814; 1419.200;    0.000;    0.000
897.992; 1510.200;    0.000;    0.000
898.170; 1500.200;    0.000;    0.000
898.348; 1533.200;    0.000;    0.000
898.526; 1467.200;    0.000;    0.000
898.704; 1550.200;    0.000;    0.000
898.882; 1540.200;    0.000;    0.000
899.059; 1409.200;    0.000;    0.000
899.237; 1459.200;    0.000;    0.000
899.415; 1518.200;    0.000;    0.000
899.593; 1468.200;    0.000;    0.000
899.770; 1523.200;    0.000;    0.000
899.948; 1525.200;    0.000;    0.000
900.125; 1568.200;    0.000;    0.000
900.303; 1560.200;    0.000;    0.000
900.481; 1405.200;    0.000;    0.000
900.658; 1542.200;    0.000;    0.000
900.836; 1469.200;    0.000;    0.000
901.013; 1533.200;    0.000;    0.000
901.191; 1543.200;    0.000;    0.000
901.368; 1501.200;    0.000;    0.000
901.546; 1570.200;    0.000;    0.000
901.723; 1549.200;    0.000;    0.000
901.901; 1519.200;    0.000;    0.000
902.078; 1560.200;    0.000;    0.000
902.255; 1527.200;    0.000;    0.000
902.433; 1516.200;    0.000;    0.000
902.610; 1555.200;    0.000;    0.000
902.787; 1484.200;    0.000;    0.000
902.964; 1579.200;    0.000;    0.000
903.142; 1528.200;    0.000;    0.000
903.319; 1631.200;    0.000;    0.000
903.496; 1524.200;    0.000;    0.000
903.673; 1581.200;    0.000;    0.000
903.850; 1530.200;    0.000;    0.000
904.027; 1637.200;    0.000;    0.000
904.204; 1582.200;    0.000;    0.000
904.381; 1633.200;    0.000;    0.000
904.558; 1623.200;    0.000;    0.000
904.735; 1712.200;    0.000;    0.000
904.912; 1605.200;    0.000;    0.000
905.089; 1668.200;    0.000;    0.000
905.266; 1621.200;    0.000;    0.000
905.443; 1586.200;    0.000;    0.000
905.620; 1679.200;    0.000;    0.000
905.797; 1631.200;    0.000;    0.000
905.974; 1659.200;    0.000;    0.000
906.151; 1531.200;    0.000;    0.000
906.327; 1630.200;    0.000;    0.000
906.504; 1658.200;    0.000;    0.000
906.681; 1542.200;    0.000;    0.000
906.858; 1598.200;    0.000;    0.000
907.034; 1602.200;    0.000;    0.000
907.211; 1562.200;    0.000;    0.000
907.388; 1554.200;    0.000;    0.000
907.564; 1568.200;    0.000;    0.000
907.741; 1516.200;    0.000;    0.000
907.917; 1572.200;    0.000;    0.000
908.094; 1602.200;    0.000;    0.000
908.271; 1486.200;    0.000;    0.000
908.447; 1583.200;    0.000;    0.000
908.623; 1559.200;    0.000;    0.000
908.800; 1537.200;    0.000;    0.000
908.976; 1546.200;    0.000;    0.000
909.153; 1552.200;    0.000;    0.000
909.329; 1566.200;    0.000;    0.000
909.505; 1538.200;    0.000;    0.000
909.682; 1523.200;    0.000;    0.000
909.858; 1572.200;    0.000;    0.000
910.034; 1541.200;    0.000;    0.000
910.211; 1504.200;    0.000;    0.000
910.387; 1496.200;    0.000;    0.000
910.563; 1468.200;    0.000;    0.000
910.739; 1569.200;    0.000;    0.000
910.915; 1473.200;    0.000;    0.000
911.091; 1485.200;    0.000;    0.000
911.268; 1569.200;    0.000;    0.000
911.444; 1519.200;    0.000;    0.000
911.620; 1527.200;    0.000;    0.000
911.796; 1483.200;    0.000;    0.000
911.972; 1503.200;    0.000;    0.000
912.148; 1483.200;    0.000;    0.000
912.324; 1518.200;    0.000;    0.000
912.500; 1560.200;    0.000;    0.000
912.676; 1458.200;    0.000;    0.000
912.851; 1472.200;    0.000;    0.000
913.027; 1470.200;    0.000;    0.000
913.203; 1506.200;    0.000;    0.000
913.379; 1469.200;    0.000;    0.000
913.555; 1514.200;    0.000;    0.000
913.730; 1455.200;    0.000;    0.000
913.906; 1478.200;    0.000;    0.000
914.082; 1538.200;    0.000;    0.000
914.258; 1441.200;    0.000;    0.000
914.433; 1408.200;    0.000;    0.000
914.609; 1492.200;    0.000;    0.000
914.784; 1452.200;    0.000;    0.000
914.960; 1456.200;    0.000;    0.000
915.136; 1453.200;    0.000;    0.000
915.311; 1487.200;    0.000;    0.000
915.487; 1503.200;    0.000;    0.000
915.662; 1471.200;    0.000;    0.000
915.838; 1469.200;    0.000;    0.000
916.013; 1485.200;    0.000;    0.000
916.189; 1472.200;    0.000;    0.000
916.364; 1434.200;    0.000;    0.000
916.539; 1476.200;    0.000;    0.000
916.715; 1491.200;    0.000;    0.000
916.890; 1519.200;    0.000;    0.000
917.065; 1473.200;    0.000;    0.000
917.240; 1448.200;    0.000;    0.000
917.416; 1457.200;    0.000;    0.000
917.591; 1460.200;    0.000;    0.000
917.766; 1482.200;    0.000;    0.000
917.941; 1473.200;    0.000;    0.000
918.116; 1443.200;    0.000;    0.000
918.292; 1475.200;    0.000;    0.000
918.467; 1419.200;    0.000;    0.000
918.642; 1484.200;    0.000;    0.000
918.817; 1465.200;    0.000;    0.000
918.992; 1416.200;    0.000;    0.000
919.167; 1482.200;    0.000;    0.000
919.342; 1470.200;    0.000;    0.000
919.517; 1487.200;    0.000;    0.000
919.692; 1467.200;    0.000;    0.000
919.867; 1467.200;    0.000;    0.000
920.041; 1478.200;    0.000;    0.000
920.216; 1474.200;    0.000;    0.000
920.391; 1504.200;    0.000;    0.000
920.566; 1534.200;    0.000;    0.000
920.741; 1436.200;    0.000;    0.000
920.915; 1572.200;    0.000;    0.000
921.090; 1598.200;    0.000;    0.000
921.265; 1603.200;    0.000;    0.000
921.439; 1688.200;    0.000;    0.000
921.614; 1579.200;    0.000;    0.000
921.789; 1557.200;    0.000;    0.000
921.963; 1642.200;    0.000;    0.000
922.138; 1508.200;    0.000;    0.000
922.312; 1547.200;    0.000;    0.000
922.487; 1530.200;    0.000;    0.000
922.661; 1551.200;    0.000;    0.000
922.836; 1622.200;    0.000;    0.000
923.010; 1563.200;    0.000;    0.000
923.185; 1570.200;    0.000;    0.000
923.359; 1586.200;    0.000;    0.000
923.534; 1584.200;    0.000;    0.000
923.708; 1548.200;    0.000;    0.000
923.882; 1536.200;    0.000;    0.000
924.057; 1576.200;    0.000;    0.000
924.231; 1562.200;    0.000;    0.000
924.405; 1521.200;    0.000;    0.000
924.579; 1591.200;    0.000;    0.000
924.753; 1569.200;    0.000;    0.000
924.928; 1549.200;    0.000;    0.000
925.102; 1514.200;    0.000;    0.000
925.276; 1525.200;    0.000;    0.000
925.450; 1500.200;    0.000;    0.000
925.624; 1519.200;    0.000;    0.000
925.798; 1595.200;    0.000;    0.000
925.972; 1534.200;    0.000;    0.000
926.146; 1547.200;    0.000;    0.000
926.320; 1565.200;    0.000;    0.000
926.494; 1698.200;    0.000;    0.000
926.668; 1632.200;    0.000;    0.000
926.842; 1676.200;    0.000;    0.000
927.016; 1688.200;    0.000;    0.000
927.190; 1609.200;    0.000;    0.000
927.363; 1658.200;    0.000;    0.000
927.537; 1567.200;    0.000;    0.000
927.711; 1627.200;    0.000;    0.000
927.885; 1533.200;    0.000;    0.000
928.058; 1531.200;    0.000;    0.000
928.232; 1628.200;    0.000;    0.000
928.406; 1570.200;    0.000;    0.000
928.579; 1546.200;    0.000;    0.000
928.753; 1557.200;    0.000;    0.000
928.927; 1460.200;    0.000;    0.000
929.100; 1541.200;    0.000;    0.000
929.274; 1472.200;    0.000;    0.000
929.447; 1440.200;    0.000;    0.000
929.621; 1471.200;    0.000;    0.000
929.794; 1519.200;    0.000;    0.000
929.968; 1561.200;    0.000;    0.000
930.141; 1491.200;    0.000;    0.000
930.315; 1509.200;    0.000;    0.000
930.488; 1478.200;    0.000;    0.000
930.661; 1512.200;    0.000;    0.000
930.835; 1467.200;    0.000;    0.000
931.008; 1544.200;    0.000;    0.000
931.181; 1491.200;    0.000;    0.000
931.354; 1502.200;    0.000;    0.000
931.528; 1459.200;    0.000;    0.000
931.701; 1506.200;    0.000;    0.000
931.874; 1501.200;    0.000;    0.000
932.047; 1458.200;    0.000;    0.000
932.220; 1458.200;    0.000;    0.000
932.393; 1440.200;    0.000;    0.000
932.566; 1348.200;    0.000;    0.000
932.739; 1463.200;    0.000;    0.000
932.912; 1422.200;    0.000;    0.000
933.085; 1464.200;    0.000;    0.000
933.258; 1441.200;    0.000;    0.000
933.431; 1327.200;    0.000;    0.000
933.604; 1490.200;    0.000;    0.000
933.777; 1436.200;    0.000;    0.000
933.950; 1337.200;    0.000;    0.000
934.123; 1435.200;    0.000;    0.000
934.296; 1386.200;    0.000;    0.000
934.468; 1458.200;    0.000;    0.000
934.641; 1355.200;    0.000;    0.000
934.814; 1411.200;    0.000;    0.000
934.987; 1386.200;    0.000;    0.000
935.159; 1408.200;    0.000;    0.000
935.332; 1402.200;    0.000;    0.000
935.505; 1348.200;    0.000;    0.000
935.677; 1402.200;    0.000;    0.000
935.850; 1324.200;    0.000;    0.000
936.022; 1409.200;    0.000;    0.000
936.195; 1340.200;    0.000;    0.000
936.367; 1331.200;    0.000;    0.000
936.540; 1356.200;    0.000;    0.000
936.712; 1443.200;    0.000;    0.000
936.885; 1401.200;    0.000;    0.000
937.057; 1427.200;    0.000;    0.000
937.229; 1404.200;    0.000;    0.000
937.402; 1391.200;    0.000;    0.000
937.574; 1420.200;    0.000;    0.000
937.746; 1363.200;    0.000;    0.000
937.919; 1388.200;    0.000;    0.000
938.091; 1403.200;    0.000;    0.000
938.263; 1502.200;    0.000;    0.000
938.435; 1433.200;    0.000;    0.000
938.608; 1396.200;    0.000;    0.000
938.780; 1521.200;    0.000;    0.000
938.952; 1490.200;    0.000;    0.000
939.124; 1468.200;    0.000;    0.000
939.296; 1539.200;    0.000;    0.000
939.468; 1443.200;    0.000;    0.000
939.640; 1487.200;    0.000;    0.000
939.812; 1532.200;    0.000;    0.000
939.984; 1427.200;    0.000;    0.000
940.156; 1426.200;    0.000;    0.000
940.328; 1340.200;    0.000;    0.000
940.500; 1402.200;    0.000;    0.000
940.672; 1443.200;    0.000;    0.000
940.843; 1354.200;    0.000;    0.000
941.015; 1422.200;    0.000;    0.000
941.187; 1343.200;    0.000;    0.000
941.359; 1430.200;    0.000;    0.000
941.531; 1354.200;    0.000;    0.000
941.702; 1362.200;    0.000;    0.000
941.874; 1382.200;    0.000;    0.000
942.046; 1360.200;    0.000;    0.000
942.217; 1332.200;    0.000;    0.000
942.389; 1394.200;    0.000;    0.000
942.560; 1338.200;    0.000;    0.000
942.732; 1266.200;    0.000;    0.000
942.904; 1333.200;    0.000;    0.000
943.075; 1303.200;    0.000;    0.000
943.247; 1268.200;    0.000;    0.000
943.418; 1290.200;    0.000;    0.000
943.589; 1238.200;    0.000;    0.000
943.761; 1293.200;    0.000;    0.000
943.932; 1264.200;    0.000;    0.000
944.104; 1325.200;    0.000;    0.000
944.275; 1320.200;    0.000;    0.000
944.446; 1272.200;    0.000;    0.000
944.617; 1255.200;    0.000;    0.000
944.789; 1297.200;    0.000;    0.000
944.960; 1261.200;    0.000;    0.000
945.131; 1289.200;    0.000;    0.000
945.302; 1365.200;    0.000;    0.000
945.473; 1304.200;    0.000;    0.000
945.645; 1309.200;    0.000;    0.000
945.816; 1287.200;    0.000;    0.000
945.987; 1323.200;    0.000;    0.000
946.158; 1301.200;    0.000;    0.000
946.329; 1331.200;    0.000;    0.000
946.500; 1251.200;    0.000;    0.000
946.671; 1306.200;    0.000;    0.000
946.842; 1228.200;    0.000;    0.000
947.013; 1299.200;    0.000;    0.000
947.183; 1382.200;    0.000;    0.000
947.354; 1296.200;    0.000;    0.000
947.525; 1300.200;    0.000;    0.000
947.696; 1279.200;    0.000;    0.000
947.867; 1354.200;    0.000;    0.000
948.037; 1268.200;    0.000;    0.000
948.208; 1273.200;    0.000;    0.000
948.379; 1299.200;    0.000;    0.000
948.550; 1276.200;    0.000;    0.000
948.720; 1292.200;    0.000;    0.000
948.891; 1319.200;    0.000;    0.000
949.061; 1281.200;    0.000;    0.000
949.232; 1256.200;    0.000;    0.000
949.403; 1237.200;    0.000;    0.000
949.573; 1287.200;    0.000;    0.000
949.744; 1286.200;    0.000;    0.000
949.914; 1253.200;    0.000;    0.000
950.085; 1313.200;    0.000;    0.000
950.255; 1269.200;    0.000;    0.000
950.425; 1278.200;    0.000;    0.000
950.596; 1350.200;    0.000;    0.000
950.766; 1357.200;    0.000;    0.000
950.936; 1313.200;    0.000;    0.000
951.107; 1281.200;    0.000;    0.000
951.277; 1306.200;    0.000;    0.000
951.447; 1364.200;    0.000;    0.000
951.617; 1331.200;    0.000;    0.000
951.788; 1301.200;    0.000;    0.000
951.958; 1291.200;    0.000;    0.000
952.128; 1240.200;    0.000;    0.000
952.298; 1345.200;    0.000;    0.000
952.468; 1312.200;    0.000;    0.000
952.638; 1249.200;    0.000;    0.000
952.808; 1256.200;    0.000;    0.000
952.978; 1297.200;    0.000;    0.000
953.148; 1283.200;    0.000;    0.000
953.318; 1319.200;    0.000;    0.000
953.488; 1287.200;    0.000;    0.000
953.658; 1273.200;    0.000;    0.000
953.828; 1251.200;    0.000;    0.000
953.998; 1334.200;    0.000;    0.000
954.167; 1346.200;    0.000;    0.000
954.337; 1314.200;    0.000;    0.000
954.507; 1329.200;    0.000;    0.000
954.677; 1294.200;    0.000;    0.000
954.846; 1358.200;    0.000;    0.000
955.016; 1318.200;    0.000;    0.000
955.186; 1356.200;    0.000;    0.000
955.355; 1291.200;    0.000;    0.000
955.525; 1374.200;    0.000;    0.000
955.695; 1266.200;    0.000;    0.000
955.864; 1346.200;    0.000;    0.000
956.034; 1297.200;    0.000;    0.000
956.203; 1354.200;    0.000;    0.000
956.373; 1260.200;    0.000;    0.000
956.542; 1312.200;    0.000;    0.000
956.711; 1392.200;    0.000;    0.000
956.881; 1319.200;    0.000;    0.000
957.050; 1314.200;    0.000;    0.000
957.220; 1387.200;    0.000;    0.000
957.389; 1343.200;    0.000;    0.000
957.558; 1273.200;    0.000;    0.000
957.727; 1304.200;    0.000;    0.000
957.897; 1314.200;    0.000;    0.000
958.066; 1296.200;    0.000;    0.000
958.235; 1314.200;    0.000;    0.000
958.404; 1321.200;    0.000;    0.000
958.573; 1353.200;    0.000;    0.000
958.743; 1262.200;    0.000;    0.000
958.912; 1267.200;    0.000;    0.000
959.081; 1328.200;    0.000;    0.000
959.250; 1357.200;    0.000;    0.000
959.419; 1327.200;    0.000;    0.000
959.588; 1316.200;    0.000;    0.000
959.757; 1306.200;    0.000;    0.000
959.926; 1301.200;    0.000;    0.000
960.094; 1299.200;    0.000;    0.000
960.263; 1264.200;    0.000;    0.000
960.432; 1319.200;    0.000;    0.000
960.601; 1362.200;    0.000;    0.000
960.770; 1251.200;    0.000;    0.000
960.939; 1298.200;    0.000;    0.000
961.107; 1221.200;    0.000;    0.000
961.276; 1246.200;    0.000;    0.000
961.445; 1266.200;    0.000;    0.000
961.613; 1264.200;    0.000;    0.000
961.782; 1292.200;    0.000;    0.000
961.951; 1295.200;    0.000;    0.000
962.119; 1294.200;    0.000;    0.000
962.288; 1256.200;    0.000;    0.000
962.456; 1249.200;    0.000;    0.000
962.625; 1299.200;    0.000;    0.000
962.793; 1264.200;    0.000;    0.000
962.962; 1282.200;    0.000;    0.000
963.130; 1253.200;    0.000;    0.000
963.298; 1277.200;    0.000;    0.000
963.467; 1274.200;    0.000;    0.000
963.635; 1307.200;    0.000;    0.000
963.803; 1350.200;    0.000;    0.000
963.972; 1351.200;    0.000;    0.000
964.140; 1287.200;    0.000;    0.000
964.308; 1320.200;    0.000;    0.000
964.477; 1318.200;    0.000;    0.000
964.645; 1336.200;    0.000;    0.000
964.813; 1290.200;    0.000;    0.000
964.981; 1336.200;    0.000;    0.000
965.149; 1297.200;    0.000;    0.000
965.317; 1340.200;    0.000;    0.000
965.485; 1267.200;    0.000;    0.000
965.653; 1316.200;    0.000;    0.000
965.821; 1303.200;    0.000;    0.000
965.989; 1341.200;    0.000;    0.000
966.157; 1275.200;    0.000;    0.000
966.325; 1292.200;    0.000;    0.000
966.493; 1237.200;    0.000;    0.000
966.661; 1266.200;    0.000;    0.000
966.829; 1271.200;    0.000;    0.000
966.996; 1260.200;    0.000;    0.000
967.164; 1309.200;    0.000;    0.000
967.332; 1295.200;    0.000;    0.000
967.500; 1286.200;    0.000;    0.000
967.667; 1220.200;    0.000;    0.000
967.835; 1361.200;    0.000;    0.000
968.003; 1167.200;    0.000;    0.000
968.170; 1220.200;    0.000;    0.000
968.338; 1242.200;    0.000;    0.000
968.505; 1259.200;    0.000;    0.000
968.673; 1271.200;    0.000;    0.000
968.841; 1208.200;    0.000;    0.000
969.008; 1283.200;    0.000;    0.000
969.175; 1290.200;    0.000;    0.000
969.343; 1284.200;    0.000;    0.000
969.510; 1270.200;    0.000;    0.000
969.678; 1255.200;    0.000;    0.000
969.845; 1370.200;    0.000;    0.000
970.012; 1330.200;    0.000;    0.000
970.180; 1353.200;    0.000;    0.000
970.347; 1348.200;    0.000;    0.000
970.514; 1298.200;    0.000;    0.000
970.681; 1296.200;    0.000;    0.000
970.849; 1326.200;    0.000;    0.000
971.016; 1301.200;    0.000;    0.000
971.183; 1359.200;    0.000;    0.000
971.350; 1288.200;    0.000;    0.000
971.517; 1291.200;    0.000;    0.000
971.684; 1252.200;    0.000;    0.000
971.851; 1293.200;    0.000;    0.000
972.018; 1290.200;    0.000;    0.000
972.185; 1353.200;    0.000;    0.000
972.352; 1334.200;    0.000;    0.000
972.519; 1299.200;    0.000;    0.000
972.686; 1305.200;    0.000;    0.000
972.853; 1204.200;    0.000;    0.000
973.020; 1301.200;    0.000;    0.000
973.186; 1288.200;    0.000;    0.000
973.353; 1288.200;    0.000;    0.000
973.520; 1287.200;    0.000;    0.000
973.687; 1237.200;    0.000;    0.000
973.853; 1371.200;    0.000;    0.000
974.020; 1287.200;    0.000;    0.000
974.187; 1321.200;    0.000;    0.000
974.353; 1348.200;    0.000;    0.000
974.520; 1319.200;    0.000;    0.000
974.687; 1290.200;    0.000;    0.000
974.853; 1334.200;    0.000;    0.000
975.020; 1303.200;    0.000;    0.000
975.186; 1355.200;    0.000;    0.000
975.353; 1306.200;    0.000;    0.000
975.519; 1340.200;    0.000;    0.000
975.685; 1280.200;    0.000;    0.000
975.852; 1336.200;    0.000;    0.000
976.018; 1290.200;    0.000;    0.000
976.184; 1320.200;    0.000;    0.000
976.351; 1217.200;    0.000;    0.000
976.517; 1295.200;    0.000;    0.000
976.683; 1303.200;    0.000;    0.000
976.849; 1240.200;    0.000;    0.000
977.016; 1197.200;    0.000;    0.000
977.182; 1255.200;    0.000;    0.000
977.348; 1196.200;    0.000;    0.000
977.514; 1262.200;    0.000;    0.000
977.680; 1289.200;    0.000;    0.000
977.846; 1269.200;    0.000;    0.000
978.012; 1274.200;    0.000;    0.000
978.178; 1301.200;    0.000;    0.000
978.344; 1210.200;    0.000;    0.000
978.510; 1307.200;    0.000;    0.000
978.676; 1289.200;    0.000;    0.000
978.842; 1252.200;    0.000;    0.000
979.008; 1269.200;    0.000;    0.000
979.174; 1274.200;    0.000;    0.000
979.340; 1238.200;    0.000;    0.000
979.505; 1311.200;    0.000;    0.000
979.671; 1251.200;    0.000;    0.000
979.837; 1305.200;    0.000;    0.000
980.003; 1256.200;    0.000;    0.000
980.168; 1248.200;    0.000;    0.000
980.334; 1274.200;    0.000;    0.000
980.499; 1316.200;    0.000;    0.000
980.665; 1343.200;    0.000;    0.000
980.831; 1297.200;    0.000;    0.000
980.996; 1261.200;    0.000;    0.000
981.162; 1358.200;    0.000;    0.000
981.327; 1383.200;    0.000;    0.000
981.493; 1320.200;    0.000;    0.000
981.658; 1277.200;    0.000;    0.000
981.823; 1309.200;    0.000;    0.000
981.989; 1406.200;    0.000;    0.000
982.154; 1312.200;    0.000;    0.000
982.319; 1257.200;    0.000;    0.000
982.485; 1323.200;    0.000;    0.000
982.650; 1331.200;    0.000;    0.000
982.815; 1314.200;    0.000;    0.000
982.980; 1223.200;    0.000;    0.000
983.146; 1275.200;    0.000;    0.000
983.311; 1244.200;    0.000;    0.000
983.476; 1298.200;    0.000;    0.000
983.641; 1234.200;    0.000;    0.000
983.806; 1334.200;    0.000;    0.000
983.971; 1310.200;    0.000;    0.000
984.136; 1301.200;    0.000;    0.000
984.301; 1246.200;    0.000;    0.000
984.466; 1274.200;    0.000;    0.000
984.631; 1268.200;    0.000;    0.000
984.796; 1276.200;    0.000;    0.000
984.961; 1331.200;    0.000;    0.000
985.126; 1352.200;    0.000;    0.000
985.291; 1262.200;    0.000;    0.000
985.455; 1259.200;    0.000;    0.000
985.620; 1287.200;    0.000;    0.000
985.785; 1272.200;    0.000;    0.000
985.950; 1225.200;    0.000;    0.000
986.114; 1340.200;    0.000;    0.000
986.279; 1202.200;    0.000;    0.000
986.444; 1254.200;    0.000;    0.000
986.608; 1273.200;    0.000;    0.000
986.773; 1265.200;    0.000;    0.000
986.937; 1339.200;    0.000;    0.000
987.102; 1300.200;    0.000;    0.000
987.266; 1272.200;    0.000;    0.000
987.431; 1339.200;    0.000;    0.000
987.595; 1301.200;    0.000;    0.000
987.760; 1302.200;    0.000;    0.000
987.924; 1281.200;    0.000;    0.000
988.088; 1361.200;    0.000;    0.000
988.253; 1252.200;    0.000;    0.000
988.417; 1331.200;    0.000;    0.000
988.581; 1220.200;    0.000;    0.000
988.746; 1217.200;    0.000;    0.000
988.910; 1383.200;    0.000;    0.000
989.074; 1257.200;    0.000;    0.000
989.238; 1386.200;    0.000;    0.000
989.402; 1319.200;    0.000;    0.000
989.566; 1303.200;    0.000;    0.000
989.731; 1298.200;    0.000;    0.000
989.895; 1251.200;    0.000;    0.000
990.059; 1254.200;    0.000;    0.000
990.223; 1264.200;    0.000;    0.000
990.387; 1286.200;    0.000;    0.000
990.551; 1328.200;    0.000;    0.000
990.714; 1320.200;    0.000;    0.000
990.878; 1252.200;    0.000;    0.000
991.042; 1317.200;    0.000;    0.000
991.206; 1240.200;    0.000;    0.000
991.370; 1307.200;    0.000;    0.000
991.534; 1291.200;    0.000;    0.000
991.697; 1269.200;    0.000;    0.000
991.861; 1319.200;    0.000;    0.000
992.025; 1327.200;    0.000;    0.000
992.188; 1260.200;    0.000;    0.000
992.352; 1236.200;    0.000;    0.000
992.516; 1321.200;    0.000;    0.000
992.679; 1276.200;    0.000;    0.000
992.843; 1262.200;    0.000;    0.000
993.006; 1277.200;    0.000;    0.000
993.170; 1315.200;    0.000;    0.000
993.333; 1281.200;    0.000;    0.000
993.497; 1293.200;    0.000;    0.000
993.660; 1300.200;    0.000;    0.000
993.824; 1271.200;    0.000;    0.000
993.987; 1284.200;    0.000;    0.000
994.150; 1235.200;    0.000;    0.000
994.314; 1385.200;    0.000;    0.000
994.477; 1287.200;    0.000;    0.000
994.640; 1268.200;    0.000;    0.000
994.803; 1285.200;    0.000;    0.000
994.967; 1294.200;    0.000;    0.000
995.130; 1247.200;    0.000;    0.000
995.293; 1320.200;    0.000;    0.000
995.456; 1289.200;    0.000;    0.000
995.619; 1329.200;    0.000;    0.000
995.782; 1308.200;    0.000;    0.000
995.945; 1354.200;    0.000;    0.000
996.108; 1327.200;    0.000;    0.000
996.271; 1285.200;    0.000;    0.000
996.434; 1283.200;    0.000;    0.000
996.597; 1261.200;    0.000;    0.000
996.760; 1330.200;    0.000;    0.000
996.923; 1282.200;    0.000;    0.000
997.086; 1329.200;    0.000;    0.000
997.248; 1354.200;    0.000;    0.000
997.411; 1291.200;    0.000;    0.000
997.574; 1316.200;    0.000;    0.000
997.737; 1254.200;    0.000;    0.000
997.899; 1275.200;    0.000;    0.000
998.062; 1278.200;    0.000;    0.000
998.225; 1262.200;    0.000;    0.000
998.387; 1369.200;    0.000;    0.000
998.550; 1308.200;    0.000;    0.000
998.712; 1306.200;    0.000;    0.000
998.875; 1400.200;    0.000;    0.000
999.037; 1330.200;    0.000;    0.000
999.200; 1379.200;    0.000;    0.000
999.362; 1397.200;    0.000;    0.000
999.525; 1258.200;    0.000;    0.000
999.687; 1283.200;    0.000;    0.000
999.849; 1276.200;    0.000;    0.000
1000.012; 1292.200;    0.000;    0.000
1000.174; 1331.200;    0.000;    0.000
1000.336; 1318.200;    0.000;    0.000
1000.499; 1312.200;    0.000;    0.000
1000.661; 1389.200;    0.000;    0.000
1000.823; 1333.200;    0.000;    0.000
1000.985; 1348.200;    0.000;    0.000
1001.147; 1360.200;    0.000;    0.000
1001.309; 1333.200;    0.000;    0.000
1001.471; 1317.200;    0.000;    0.000
1001.633; 1363.200;    0.000;    0.000
1001.796; 1309.200;    0.000;    0.000
1001.958; 1407.200;    0.000;    0.000
1002.119; 1415.200;    0.000;    0.000
1002.281; 1321.200;    0.000;    0.000
1002.443; 1416.200;    0.000;    0.000
1002.605; 1451.200;    0.000;    0.000
1002.767; 1460.200;    0.000;    0.000
1002.929; 1508.200;    0.000;    0.000
1003.091; 1569.200;    0.000;    0.000
1003.252; 1669.200;    0.000;    0.000
1003.414; 1652.200;    0.000;    0.000
1003.576; 1663.200;    0.000;    0.000
1003.738; 1693.200;    0.000;    0.000
1003.899; 1763.200;    0.000;    0.000
1004.061; 1745.200;    0.000;    0.000
1004.222; 1811.200;    0.000;    0.000
1004.384; 1914.200;    0.000;    0.000
1004.546; 1921.200;    0.000;    0.000
1004.707; 1936.200;    0.000;    0.000
1004.869; 1961.200;    0.000;    0.000
1005.030; 1916.200;    0.000;    0.000
1005.191; 1806.200;    0.000;    0.000
1005.353; 1885.200;    0.000;    0.000
1005.514; 1791.200;    0.000;    0.000
1005.675; 1753.200;    0.000;    0.000
1005.837; 1769.200;    0.000;    0.000
1005.998; 1766.200;    0.000;    0.000
1006.159; 1645.200;    0.000;    0.000
1006.321; 1656.200;    0.000;    0.000
1006.482; 1733.200;    0.000;    0.000
1006.643; 1707.200;    0.000;    0.000
1006.804; 1748.200;    0.000;    0.000
1006.965; 1957.200;    0.000;    0.000
1007.126; 1927.200;    0.000;    0.000
1007.287; 1861.200;    0.000;    0.000
1007.448; 1886.200;    0.000;    0.000
1007.609; 1855.200;    0.000;    0.000
1007.770; 1755.200;    0.000;    0.000
1007.931; 1860.200;    0.000;    0.000
1008.092; 1753.200;    0.000;    0.000
1008.253; 1830.200;    0.000;    0.000
1008.414; 1846.200;    0.000;    0.000
1008.575; 1912.200;    0.000;    0.000
1008.736; 1895.200;    0.000;    0.000
1008.896; 1921.200;    0.000;    0.000
1009.057; 1942.200;    0.000;    0.000
1009.218; 1814.200;    0.000;    0.000
1009.379; 1853.200;    0.000;    0.000
1009.539; 1936.200;    0.000;    0.000
1009.700; 1949.200;    0.000;    0.000
1009.860; 1848.200;    0.000;    0.000
1010.021; 1942.200;    0.000;    0.000
1010.182; 1851.200;    0.000;    0.000
1010.342; 1865.200;    0.000;    0.000
1010.503; 1901.200;    0.000;    0.000
1010.663; 1865.200;    0.000;    0.000
1010.823; 1868.200;    0.000;    0.000
1010.984; 1914.200;    0.000;    0.000
1011.144; 1917.200;    0.000;    0.000
1011.305; 1907.200;    0.000;    0.000
1011.465; 1967.200;    0.000;    0.000
1011.625; 1963.200;    0.000;    0.000
1011.785; 1988.200;    0.000;    0.000
1011.946; 1983.200;    0.000;    0.000
1012.106; 1980.200;    0.000;    0.000
1012.266; 2000.200;    0.000;    0.000
1012.426; 2014.200;    0.000;    0.000
1012.586; 1919.200;    0.000;    0.000
1012.746; 1920.200;    0.000;    0.000
1012.906; 1973.200;    0.000;    0.000
1013.066; 2027.200;    0.000;    0.000
1013.226; 1970.200;    0.000;    0.000
1013.386; 1992.200;    0.000;    0.000
1013.546; 1991.200;    0.000;    0.000
1013.706; 1875.200;    0.000;    0.000
1013.866; 1936.200;    0.000;    0.000
1014.026; 1958.200;    0.000;    0.000
1014.186; 1883.200;    0.000;    0.000
1014.346; 1956.200;    0.000;    0.000
1014.505; 1942.200;    0.000;    0.000
1014.665; 2033.200;    0.000;    0.000
1014.825; 2086.200;    0.000;    0.000
1014.985; 1968.200;    0.000;    0.000
1015.144; 2051.200;    0.000;    0.000
1015.304; 2170.200;    0.000;    0.000
1015.464; 2133.200;    0.000;    0.000
1015.623; 2174.200;    0.000;    0.000
1015.783; 2113.200;    0.000;    0.000
1015.942; 2308.200;    0.000;    0.000
1016.102; 2386.200;    0.000;    0.000
1016.261; 2169.200;    0.000;    0.000
1016.420; 2266.200;    0.000;    0.000
1016.580; 2609.200;    0.000;    0.000
1016.739; 2635.200;    0.000;    0.000
1016.899; 2520.200;    0.000;    0.000
1017.058; 2429.200;    0.000;    0.000
1017.217; 2632.200;    0.000;    0.000
1017.376; 2705.200;    0.000;    0.000
1017.536; 2432.200;    0.000;    0.000
1017.695; 2193.200;    0.000;    0.000
1017.854; 2337.200;    0.000;    0.000
1018.013; 2505.200;    0.000;    0.000
1018.172; 2315.200;    0.000;    0.000
1018.331; 2203.200;    0.000;    0.000
1018.490; 2307.200;    0.000;    0.000
1018.649; 2635.200;    0.000;    0.000
1018.808; 2733.200;    0.000;    0.000
1018.967; 2540.200;    0.000;    0.000
1019.126; 2432.200;    0.000;    0.000
1019.285; 2586.200;    0.000;    0.000
1019.444; 2708.200;    0.000;    0.000
1019.603; 2517.200;    0.000;    0.000
1019.762; 2353.200;    0.000;    0.000
1019.921; 2379.200;    0.000;    0.000
1020.079; 2550.200;    0.000;    0.000
1020.238; 2711.200;    0.000;    0.000
1020.397; 2559.200;    0.000;    0.000
1020.555; 2413.200;    0.000;    0.000
1020.714; 2494.200;    0.000;    0.000
1020.873; 2592.200;    0.000;    0.000
1021.031; 2752.200;    0.000;    0.000
1021.190; 2560.200;    0.000;    0.000
1021.348; 2481.200;    0.000;    0.000
1021.507; 2560.200;    0.000;    0.000
1021.665; 2747.200;    0.000;    0.000
1021.824; 2815.200;    0.000;    0.000
1021.982; 2771.200;    0.000;    0.000
1022.141; 2649.200;    0.000;    0.000
1022.299; 2679.200;    0.000;    0.000
1022.457; 2946.200;    0.000;    0.000
1022.616; 2802.200;    0.000;    0.000
1022.774; 2626.200;    0.000;    0.000
1022.932; 2581.200;    0.000;    0.000
1023.090; 2804.200;    0.000;    0.000
1023.249; 2838.200;    0.000;    0.000
1023.407; 2882.200;    0.000;    0.000
1023.565; 2654.200;    0.000;    0.000
1023.723; 2667.200;    0.000;    0.000
1023.881; 2705.200;    0.000;    0.000
1024.039; 2810.200;    0.000;    0.000
1024.197; 2868.200;    0.000;    0.000
1024.355; 2766.200;    0.000;    0.000
1024.513; 2752.200;    0.000;    0.000
1024.671; 2859.200;    0.000;    0.000
1024.829; 2876.200;    0.000;    0.000
1024.987; 2877.200;    0.000;    0.000
1025.145; 2722.200;    0.000;    0.000
1025.302; 2747.200;    0.000;    0.000
1025.460; 2746.200;    0.000;    0.000
1025.618; 2787.200;    0.000;    0.000
1025.776; 3029.200;    0.000;    0.000
1025.933; 2820.200;    0.000;    0.000
1026.091; 2890.200;    0.000;    0.000
1026.249; 2852.200;    0.000;    0.000
1026.406; 2922.200;    0.000;    0.000
1026.564; 2939.200;    0.000;    0.000
1026.721; 3009.200;    0.000;    0.000
1026.879; 2974.200;    0.000;    0.000
1027.036; 2959.200;    0.000;    0.000
1027.194; 2944.200;    0.000;    0.000
1027.351; 2918.200;    0.000;    0.000
1027.509; 3077.200;    0.000;    0.000
1027.666; 2914.200;    0.000;    0.000
1027.823; 2994.200;    0.000;    0.000
1027.981; 2943.200;    0.000;    0.000
1028.138; 3230.200;    0.000;    0.000
1028.295; 2871.200;    0.000;    0.000
1028.452; 2968.200;    0.000;    0.000
1028.609; 2968.200;    0.000;    0.000
1028.767; 3106.200;    0.000;    0.000
1028.924; 3022.200;    0.000;    0.000
1029.081; 2960.200;    0.000;    0.000
1029.238; 3055.200;    0.000;    0.000
1029.395; 3111.200;    0.000;    0.000
1029.552; 3104.200;    0.000;    0.000
1029.709; 3232.200;    0.000;    0.000
1029.866; 3171.200;    0.000;    0.000
1030.023; 2928.200;    0.000;    0.000
1030.180; 2972.200;    0.000;    0.000
1030.337; 3153.200;    0.000;    0.000
1030.494; 3181.200;    0.000;    0.000
1030.650; 3176.200;    0.000;    0.000
1030.807; 3289.200;    0.000;    0.000
1030.964; 3075.200;    0.000;    0.000
1031.121; 3031.200;    0.000;    0.000
1031.277; 3089.200;    0.000;    0.000
1031.434; 3263.200;    0.000;    0.000
1031.591; 3273.200;    0.000;    0.000
1031.747; 3332.200;    0.000;    0.000
1031.904; 3302.200;    0.000;    0.000
1032.060; 3143.200;    0.000;    0.000
1032.217; 3096.200;    0.000;    0.000
1032.373; 3479.200;    0.000;    0.000
1032.530; 3537.200;    0.000;    0.000
1032.686; 3652.200;    0.000;    0.000
1032.843; 3804.200;    0.000;    0.000
1032.999; 3489.200;    0.000;    0.000
1033.155; 3506.200;    0.000;    0.000
1033.312; 3617.200;    0.000;    0.000
1033.468; 3857.200;    0.000;    0.000
1033.624; 4345.200;    0.000;    0.000
1033.780; 4175.200;    0.000;    0.000
1033.937; 4436.200;    0.000;    0.000
1034.093; 4053.200;    0.000;    0.000
1034.249; 4165.200;    0.000;    0.000
1034.405; 4091.200;    0.000;    0.000
1034.561; 4282.200;    0.000;    0.000
1034.717; 4561.200;    0.000;    0.000
1034.873; 4385.200;    0.000;    0.000
1035.029; 4623.200;    0.000;    0.000
1035.185; 4424.200;    0.000;    0.000
1035.341; 4344.200;    0.000;    0.000
1035.497; 4503.200;    0.000;    0.000
1035.653; 4693.200;    0.000;    0.000
1035.809; 4808.200;    0.000;    0.000
1035.964; 5123.200;    0.000;    0.000
1036.120; 5013.200;    0.000;    0.000
1036.276; 4890.200;    0.000;    0.000
1036.432; 5009.200;    0.000;    0.000
1036.587; 4723.200;    0.000;    0.000
1036.743; 4864.200;    0.000;    0.000
1036.899; 5261.200;    0.000;    0.000
1037.054; 4970.200;    0.000;    0.000
1037.210; 5563.200;    0.000;    0.000
1037.365; 5748.200;    0.000;    0.000
1037.521; 5445.200;    0.000;    0.000
1037.676; 5551.200;    0.000;    0.000
1037.832; 5118.200;    0.000;    0.000
1037.987; 5046.200;    0.000;    0.000
1038.143; 4949.200;    0.000;    0.000
1038.298; 5743.200;    0.000;    0.000
1038.453; 5760.200;    0.000;    0.000
1038.609; 6076.200;    0.000;    0.000
1038.764; 6412.200;    0.000;    0.000
1038.919; 5893.200;    0.000;    0.000
1039.074; 5984.200;    0.000;    0.000
1039.229; 5597.200;    0.000;    0.000
1039.385; 5533.200;    0.000;    0.000
1039.540; 5537.200;    0.000;    0.000
1039.695; 5735.200;    0.000;    0.000
1039.850; 6235.200;    0.000;    0.000
1040.005; 6431.200;    0.000;    0.000
1040.160; 7139.200;    0.000;    0.000
1040.315; 6985.200;    0.000;    0.000
1040.470; 6592.200;    0.000;    0.000
1040.625; 6462.200;    0.000;    0.000
1040.780; 5932.200;    0.000;    0.000
1040.935; 5894.200;    0.000;    0.000
1041.089; 6189.200;    0.000;    0.000
1041.244; 6871.200;    0.000;    0.000
1041.399; 7078.200;    0.000;    0.000
1041.554; 7479.200;    0.000;    0.000
1041.708; 8352.200;    0.000;    0.000
1041.863; 8419.200;    0.000;    0.000
1042.018; 7900.200;    0.000;    0.000
1042.172; 8038.200;    0.000;    0.000
1042.327; 7440.200;    0.000;    0.000
1042.481; 6985.200;    0.000;    0.000
1042.636; 7732.200;    0.000;    0.000
1042.791; 7009.200;    0.000;    0.000
1042.945; 7548.200;    0.000;    0.000
1043.099; 9271.200;    0.000;    0.000
1043.254; 9359.200;    0.000;    0.000
1043.408; 9351.200;    0.000;    0.000
1043.563;10553.200;    0.000;    0.000
1043.717; 9987.200;    0.000;    0.000
1043.871; 9190.200;    0.000;    0.000
1044.025; 9152.200;    0.000;    0.000
1044.180; 8704.200;    0.000;    0.000
1044.334; 8415.200;    0.000;    0.000
1044.488; 9222.200;    0.000;    0.000
1044.642; 9294.200;    0.000;    0.000
1044.796; 9485.200;    0.000;    0.000
1044.950;10971.200;    0.000;    0.000
1045.104;12194.200;    0.000;    0.000
1045.258;12688.200;    0.000;    0.000
1045.412;12270.200;    0.000;    0.000
1045.566;12479.200;    0.000;    0.000
1045.720;11806.200;    0.000;    0.000
1045.874;10952.200;    0.000;    0.000
1046.028;10615.200;    0.000;    0.000
1046.182; 9076.200;    0.000;    0.000
1046.336; 9732.200;    0.000;    0.000
1046.489;10466.200;    0.000;    0.000
1046.643;10723.200;    0.000;    0.000
1046.797;10898.200;    0.000;    0.000
1046.951;12015.200;    0.000;    0.000
1047.104;12985.200;    0.000;    0.000
1047.258;13372.200;    0.000;    0.000
1047.411;14284.200;    0.000;    0.000
1047.565;14682.200;    0.000;    0.000
1047.719;14732.200;    0.000;    0.000
1047.872;13339.200;    0.000;    0.000
1048.026;12823.200;    0.000;    0.000
1048.179;14099.200;    0.000;    0.000
1048.332;13184.200;    0.000;    0.000
1048.486;12085.200;    0.000;    0.000
1048.639;11640.200;    0.000;    0.000
1048.792;12380.200;    0.000;    0.000
1048.946;14044.200;    0.000;    0.000
1049.099;14395.200;    0.000;    0.000
1049.252;14867.200;    0.000;    0.000
1049.406;14757.200;    0.000;    0.000
1049.559;14815.200;    0.000;    0.000
1049.712;16533.199;    0.000;    0.000
1049.865;17868.199;    0.000;    0.000
1050.018;18414.199;    0.000;    0.000
1050.171;17475.199;    0.000;    0.000
1050.324;15524.200;    0.000;    0.000
1050.477;16427.199;    0.000;    0.000
1050.630;17415.199;    0.000;    0.000
1050.783;18562.199;    0.000;    0.000
1050.936;17286.199;    0.000;    0.000
1051.089;16621.199;    0.000;    0.000
1051.242;16382.200;    0.000;    0.000
1051.394;17584.199;    0.000;    0.000
1051.547;19666.199;    0.000;    0.000
1051.700;19990.199;    0.000;    0.000
1051.853;19399.199;    0.000;    0.000
1052.005;18450.199;    0.000;    0.000
1052.158;19225.199;    0.000;    0.000
1052.311;21076.199;    0.000;    0.000
1052.463;21574.199;    0.000;    0.000
1052.616;20402.199;    0.000;    0.000
1052.768;19512.199;    0.000;    0.000
1052.921;18465.199;    0.000;    0.000
1053.073;18431.199;    0.000;    0.000
1053.226;20064.199;    0.000;    0.000
1053.378;23776.199;    0.000;    0.000
1053.531;27283.199;    0.000;    0.000
1053.683;26821.199;    0.000;    0.000
1053.835;23604.199;    0.000;    0.000
1053.988;18205.199;    0.000;    0.000
1054.140; 3187.200;    0.000;    0.000
1054.292;  876.200;    0.000;    0.000
1054.444;  683.200;    0.000;    0.000
1054.596;  617.200;    0.000;    0.000
1054.749;  587.200;    0.000;    0.000
1054.901;  574.200;    0.000;    0.000
1055.053;  553.200;    0.000;    0.000
1055.205;  502.200;    0.000;    0.000
1055.357;  517.200;    0.000;    0.000
1055.509;  506.200;    0.000;    0.000
1055.661;  522.200;    0.000;    0.000
1055.813;  445.200;    0.000;    0.000
1055.965;  526.200;    0.000;    0.000
1056.116;  473.200;    0.000;    0.000
1056.268;  482.200;    0.000;    0.000
1056.420;  508.200;    0.000;    0.000

