
Integration time [ms]:   1.000
Averaging Nr. [scans]: 1
Smoothing Nr. [pixels]: 0
Data measured with spectrometer [name]: UV1
Wave   ;Sample   ;Dark     ;Reference
[nm]   ;[counts] ;[counts] ;[counts] 

236.381;  148.700;    0.000;    0.000
236.451;  184.700;    0.000;    0.000
236.520;  190.700;    0.000;    0.000
236.590;  204.700;    0.000;    0.000
236.660;  180.700;    0.000;    0.000
236.730;  176.700;    0.000;    0.000
236.799;  184.700;    0.000;    0.000
236.869;  199.700;    0.000;    0.000
236.939;  166.700;    0.000;    0.000
237.009;  226.700;    0.000;    0.000
237.078;  162.700;    0.000;    0.000
237.148;  140.700;    0.000;    0.000
237.218;  223.700;    0.000;    0.000
237.287;  199.700;    0.000;    0.000
237.357;  199.700;    0.000;    0.000
237.427;  163.700;    0.000;    0.000
237.496;  296.700;    0.000;    0.000
237.566;  253.700;    0.000;    0.000
237.636;  231.700;    0.000;    0.000
237.705;  253.700;    0.000;    0.000
237.775;  195.700;    0.000;    0.000
237.845;  262.700;    0.000;    0.000
237.914;  206.700;    0.000;    0.000
237.984;  231.700;    0.000;    0.000
238.054;  212.700;    0.000;    0.000
238.123;  199.700;    0.000;    0.000
238.193;  211.700;    0.000;    0.000
238.263;  221.700;    0.000;    0.000
238.332;  239.700;    0.000;    0.000
238.402;  224.700;    0.000;    0.000
238.471;  229.700;    0.000;    0.000
238.541;  213.700;    0.000;    0.000
238.611;  270.700;    0.000;    0.000
238.680;  209.700;    0.000;    0.000
238.750;  238.700;    0.000;    0.000
238.819;  242.700;    0.000;    0.000
238.889;  224.700;    0.000;    0.000
238.958;  235.700;    0.000;    0.000
239.028;  244.700;    0.000;    0.000
239.097;  237.700;    0.000;    0.000
239.167;  307.700;    0.000;    0.000
239.237;  270.700;    0.000;    0.000
239.306;  221.700;    0.000;    0.000
239.376;  266.700;    0.000;    0.000
239.445;  236.700;    0.000;    0.000
239.515;  207.700;    0.000;    0.000
239.584;  237.700;    0.000;    0.000
239.654;  218.700;    0.000;    0.000
239.723;  239.700;    0.000;    0.000
239.793;  230.700;    0.000;    0.000
239.862;  207.700;    0.000;    0.000
239.932;  176.700;    0.000;    0.000
240.001;  207.700;    0.000;    0.000
240.070;  221.700;    0.000;    0.000
240.140;  241.700;    0.000;    0.000
240.209;  239.700;    0.000;    0.000
240.279;  244.700;    0.000;    0.000
240.348;  223.700;    0.000;    0.000
240.418;  190.700;    0.000;    0.000
240.487;  238.700;    0.000;    0.000
240.556;  221.700;    0.000;    0.000
240.626;  218.700;    0.000;    0.000
240.695;  223.700;    0.000;    0.000
240.765;  241.700;    0.000;    0.000
240.834;  215.700;    0.000;    0.000
240.903;  258.700;    0.000;    0.000
240.973;  213.700;    0.000;    0.000
241.042;  213.700;    0.000;    0.000
241.112;  260.700;    0.000;    0.000
241.181;  261.700;    0.000;    0.000
241.250;  199.700;    0.000;    0.000
241.320;  232.700;    0.000;    0.000
241.389;  206.700;    0.000;    0.000
241.458;  248.700;    0.000;    0.000
241.528;  222.700;    0.000;    0.000
241.597;  233.700;    0.000;    0.000
241.666;  254.700;    0.000;    0.000
241.736;  227.700;    0.000;    0.000
241.805;  242.700;    0.000;    0.000
241.874;  253.700;    0.000;    0.000
241.943;  258.700;    0.000;    0.000
242.013;  257.700;    0.000;    0.000
242.082;  213.700;    0.000;    0.000
242.151;  211.700;    0.000;    0.000
242.221;  238.700;    0.000;    0.000
242.290;  259.700;    0.000;    0.000
242.359;  174.700;    0.000;    0.000
242.428;  258.700;    0.000;    0.000
242.498;  191.700;    0.000;    0.000
242.567;  221.700;    0.000;    0.000
242.636;  217.700;    0.000;    0.000
242.705;  223.700;    0.000;    0.000
242.774;  225.700;    0.000;    0.000
242.844;  227.700;    0.000;    0.000
242.913;  228.700;    0.000;    0.000
242.982;  224.700;    0.000;    0.000
243.051;  233.700;    0.000;    0.000
243.120;  228.700;    0.000;    0.000
243.190;  197.700;    0.000;    0.000
243.259;  234.700;    0.000;    0.000
243.328;  220.700;    0.000;    0.000
243.397;  220.700;    0.000;    0.000
243.466;  198.700;    0.000;    0.000
243.535;  244.700;    0.000;    0.000
243.605;  195.700;    0.000;    0.000
243.674;  246.700;    0.000;    0.000
243.743;  252.700;    0.000;    0.000
243.812;  201.700;    0.000;    0.000
243.881;  218.700;    0.000;    0.000
243.950;  231.700;    0.000;    0.000
244.019;  255.700;    0.000;    0.000
244.088;  240.700;    0.000;    0.000
244.158;  224.700;    0.000;    0.000
244.227;  263.700;    0.000;    0.000
244.296;  239.700;    0.000;    0.000
244.365;  297.700;    0.000;    0.000
244.434;  220.700;    0.000;    0.000
244.503;  218.700;    0.000;    0.000
244.572;  205.700;    0.000;    0.000
244.641;  239.700;    0.000;    0.000
244.710;  246.700;    0.000;    0.000
244.779;  244.700;    0.000;    0.000
244.848;  235.700;    0.000;    0.000
244.917;  238.700;    0.000;    0.000
244.986;  203.700;    0.000;    0.000
245.055;  251.700;    0.000;    0.000
245.124;  232.700;    0.000;    0.000
245.193;  227.700;    0.000;    0.000
245.262;  255.700;    0.000;    0.000
245.331;  265.700;    0.000;    0.000
245.400;  235.700;    0.000;    0.000
245.469;  252.700;    0.000;    0.000
245.538;  221.700;    0.000;    0.000
245.607;  301.700;    0.000;    0.000
245.676;  240.700;    0.000;    0.000
245.745;  275.700;    0.000;    0.000
245.814;  264.700;    0.000;    0.000
245.883;  274.700;    0.000;    0.000
245.952;  232.700;    0.000;    0.000
246.021;  262.700;    0.000;    0.000
246.090;  251.700;    0.000;    0.000
246.159;  268.700;    0.000;    0.000
246.227;  199.700;    0.000;    0.000
246.296;  234.700;    0.000;    0.000
246.365;  231.700;    0.000;    0.000
246.434;  267.700;    0.000;    0.000
246.503;  248.700;    0.000;    0.000
246.572;  251.700;    0.000;    0.000
246.641;  273.700;    0.000;    0.000
246.710;  291.700;    0.000;    0.000
246.779;  283.700;    0.000;    0.000
246.847;  262.700;    0.000;    0.000
246.916;  271.700;    0.000;    0.000
246.985;  312.700;    0.000;    0.000
247.054;  251.700;    0.000;    0.000
247.123;  229.700;    0.000;    0.000
247.192;  275.700;    0.000;    0.000
247.260;  281.700;    0.000;    0.000
247.329;  270.700;    0.000;    0.000
247.398;  277.700;    0.000;    0.000
247.467;  252.700;    0.000;    0.000
247.536;  309.700;    0.000;    0.000
247.604;  278.700;    0.000;    0.000
247.673;  295.700;    0.000;    0.000
247.742;  250.700;    0.000;    0.000
247.811;  306.700;    0.000;    0.000
247.879;  232.700;    0.000;    0.000
247.948;  271.700;    0.000;    0.000
248.017;  269.700;    0.000;    0.000
248.086;  279.700;    0.000;    0.000
248.154;  285.700;    0.000;    0.000
248.223;  280.700;    0.000;    0.000
248.292;  267.700;    0.000;    0.000
248.361;  300.700;    0.000;    0.000
248.429;  243.700;    0.000;    0.000
248.498;  312.700;    0.000;    0.000
248.567;  270.700;    0.000;    0.000
248.635;  265.700;    0.000;    0.000
248.704;  320.700;    0.000;    0.000
248.773;  269.700;    0.000;    0.000
248.841;  288.700;    0.000;    0.000
248.910;  281.700;    0.000;    0.000
248.979;  290.700;    0.000;    0.000
249.047;  248.700;    0.000;    0.000
249.116;  272.700;    0.000;    0.000
249.185;  324.700;    0.000;    0.000
249.253;  292.700;    0.000;    0.000
249.322;  259.700;    0.000;    0.000
249.390;  232.700;    0.000;    0.000
249.459;  298.700;    0.000;    0.000
249.528;  292.700;    0.000;    0.000
249.596;  204.700;    0.000;    0.000
249.665;  257.700;    0.000;    0.000
249.733;  278.700;    0.000;    0.000
249.802;  267.700;    0.000;    0.000
249.871;  282.700;    0.000;    0.000
249.939;  264.700;    0.000;    0.000
250.008;  280.700;    0.000;    0.000
250.076;  281.700;    0.000;    0.000
250.145;  245.700;    0.000;    0.000
250.213;  231.700;    0.000;    0.000
250.282;  256.700;    0.000;    0.000
250.350;  234.700;    0.000;    0.000
250.419;  242.700;    0.000;    0.000
250.487;  260.700;    0.000;    0.000
250.556;  291.700;    0.000;    0.000
250.624;  270.700;    0.000;    0.000
250.693;  257.700;    0.000;    0.000
250.761;  219.700;    0.000;    0.000
250.830;  280.700;    0.000;    0.000
250.898;  243.700;    0.000;    0.000
250.967;  229.700;    0.000;    0.000
251.035;  228.700;    0.000;    0.000
251.104;  239.700;    0.000;    0.000
251.172;  220.700;    0.000;    0.000
251.241;  221.700;    0.000;    0.000
251.309;  224.700;    0.000;    0.000
251.378;  212.700;    0.000;    0.000
251.446;  229.700;    0.000;    0.000
251.514;  236.700;    0.000;    0.000
251.583;  268.700;    0.000;    0.000
251.651;  218.700;    0.000;    0.000
251.720;  240.700;    0.000;    0.000
251.788;  242.700;    0.000;    0.000
251.856;  192.700;    0.000;    0.000
251.925;  202.700;    0.000;    0.000
251.993;  247.700;    0.000;    0.000
252.062;  246.700;    0.000;    0.000
252.130;  275.700;    0.000;    0.000
252.198;  234.700;    0.000;    0.000
252.267;  207.700;    0.000;    0.000
252.335;  225.700;    0.000;    0.000
252.403;  193.700;    0.000;    0.000
252.472;  225.700;    0.000;    0.000
252.540;  227.700;    0.000;    0.000
252.608;  219.700;    0.000;    0.000
252.677;  218.700;    0.000;    0.000
252.745;  238.700;    0.000;    0.000
252.813;  228.700;    0.000;    0.000
252.881;  207.700;    0.000;    0.000
252.950;  227.700;    0.000;    0.000
253.018;  219.700;    0.000;    0.000
253.086;  211.700;    0.000;    0.000
253.155;  264.700;    0.000;    0.000
253.223;  195.700;    0.000;    0.000
253.291;  253.700;    0.000;    0.000
253.359;  241.700;    0.000;    0.000
253.428;  269.700;    0.000;    0.000
253.496;  250.700;    0.000;    0.000
253.564;  205.700;    0.000;    0.000
253.632;  202.700;    0.000;    0.000
253.700;  226.700;    0.000;    0.000
253.769;  202.700;    0.000;    0.000
253.837;  229.700;    0.000;    0.000
253.905;  212.700;    0.000;    0.000
253.973;  221.700;    0.000;    0.000
254.041;  241.700;    0.000;    0.000
254.110;  217.700;    0.000;    0.000
254.178;  228.700;    0.000;    0.000
254.246;  230.700;    0.000;    0.000
254.314;  240.700;    0.000;    0.000
254.382;  234.700;    0.000;    0.000
254.450;  230.700;    0.000;    0.000
254.518;  208.700;    0.000;    0.000
254.587;  251.700;    0.000;    0.000
254.655;  200.700;    0.000;    0.000
254.723;  243.700;    0.000;    0.000
254.791;  237.700;    0.000;    0.000
254.859;  230.700;    0.000;    0.000
254.927;  273.700;    0.000;    0.000
254.995;  236.700;    0.000;    0.000
255.063;  239.700;    0.000;    0.000
255.131;  184.700;    0.000;    0.000
255.199;  231.700;    0.000;    0.000
255.267;  216.700;    0.000;    0.000
255.336;  208.700;    0.000;    0.000
255.404;  181.700;    0.000;    0.000
255.472;  236.700;    0.000;    0.000
255.540;  239.700;    0.000;    0.000
255.608;  242.700;    0.000;    0.000
255.676;  206.700;    0.000;    0.000
255.744;  204.700;    0.000;    0.000
255.812;  230.700;    0.000;    0.000
255.880;  241.700;    0.000;    0.000
255.948;  215.700;    0.000;    0.000
256.016;  239.700;    0.000;    0.000
256.084;  270.700;    0.000;    0.000
256.152;  229.700;    0.000;    0.000
256.220;  184.700;    0.000;    0.000
256.288;  229.700;    0.000;    0.000
256.356;  277.700;    0.000;    0.000
256.424;  201.700;    0.000;    0.000
256.491;  214.700;    0.000;    0.000
256.559;  206.700;    0.000;    0.000
256.627;  210.700;    0.000;    0.000
256.695;  192.700;    0.000;    0.000
256.763;  216.700;    0.000;    0.000
256.831;  231.700;    0.000;    0.000
256.899;  253.700;    0.000;    0.000
256.967;  175.700;    0.000;    0.000
257.035;  188.700;    0.000;    0.000
257.103;  276.700;    0.000;    0.000
257.171;  225.700;    0.000;    0.000
257.238;  236.700;    0.000;    0.000
257.306;  203.700;    0.000;    0.000
257.374;  212.700;    0.000;    0.000
257.442;  192.700;    0.000;    0.000
257.510;  214.700;    0.000;    0.000
257.578;  216.700;    0.000;    0.000
257.646;  249.700;    0.000;    0.000
257.713;  192.700;    0.000;    0.000
257.781;  204.700;    0.000;    0.000
257.849;  235.700;    0.000;    0.000
257.917;  226.700;    0.000;    0.000
257.985;  208.700;    0.000;    0.000
258.052;  220.700;    0.000;    0.000
258.120;  204.700;    0.000;    0.000
258.188;  209.700;    0.000;    0.000
258.256;  221.700;    0.000;    0.000
258.324;  262.700;    0.000;    0.000
258.391;  214.700;    0.000;    0.000
258.459;  252.700;    0.000;    0.000
258.527;  232.700;    0.000;    0.000
258.595;  214.700;    0.000;    0.000
258.662;  225.700;    0.000;    0.000
258.730;  259.700;    0.000;    0.000
258.798;  212.700;    0.000;    0.000
258.865;  230.700;    0.000;    0.000
258.933;  243.700;    0.000;    0.000
259.001;  250.700;    0.000;    0.000
259.069;  203.700;    0.000;    0.000
259.136;  242.700;    0.000;    0.000
259.204;  245.700;    0.000;    0.000
259.272;  239.700;    0.000;    0.000
259.339;  193.700;    0.000;    0.000
259.407;  225.700;    0.000;    0.000
259.475;  199.700;    0.000;    0.000
259.542;  212.700;    0.000;    0.000
259.610;  225.700;    0.000;    0.000
259.677;  234.700;    0.000;    0.000
259.745;  206.700;    0.000;    0.000
259.813;  245.700;    0.000;    0.000
259.880;  252.700;    0.000;    0.000
259.948;  226.700;    0.000;    0.000
260.016;  197.700;    0.000;    0.000
260.083;  259.700;    0.000;    0.000
260.151;  170.700;    0.000;    0.000
260.218;  232.700;    0.000;    0.000
260.286;  229.700;    0.000;    0.000
260.353;  244.700;    0.000;    0.000
260.421;  187.700;    0.000;    0.000
260.489;  265.700;    0.000;    0.000
260.556;  262.700;    0.000;    0.000
260.624;  242.700;    0.000;    0.000
260.691;  216.700;    0.000;    0.000
260.759;  271.700;    0.000;    0.000
260.826;  176.700;    0.000;    0.000
260.894;  227.700;    0.000;    0.000
260.961;  243.700;    0.000;    0.000
261.029;  242.700;    0.000;    0.000
261.096;  223.700;    0.000;    0.000
261.164;  234.700;    0.000;    0.000
261.231;  273.700;    0.000;    0.000
261.299;  227.700;    0.000;    0.000
261.366;  229.700;    0.000;    0.000
261.434;  243.700;    0.000;    0.000
261.501;  223.700;    0.000;    0.000
261.568;  248.700;    0.000;    0.000
261.636;  255.700;    0.000;    0.000
261.703;  266.700;    0.000;    0.000
261.771;  237.700;    0.000;    0.000
261.838;  257.700;    0.000;    0.000
261.906;  228.700;    0.000;    0.000
261.973;  215.700;    0.000;    0.000
262.040;  245.700;    0.000;    0.000
262.108;  282.700;    0.000;    0.000
262.175;  226.700;    0.000;    0.000
262.243;  254.700;    0.000;    0.000
262.310;  213.700;    0.000;    0.000
262.377;  236.700;    0.000;    0.000
262.445;  259.700;    0.000;    0.000
262.512;  257.700;    0.000;    0.000
262.579;  299.700;    0.000;    0.000
262.647;  254.700;    0.000;    0.000
262.714;  260.700;    0.000;    0.000
262.781;  215.700;    0.000;    0.000
262.849;  228.700;    0.000;    0.000
262.916;  257.700;    0.000;    0.000
262.983;  267.700;    0.000;    0.000
263.051;  222.700;    0.000;    0.000
263.118;  243.700;    0.000;    0.000
263.185;  242.700;    0.000;    0.000
263.252;  230.700;    0.000;    0.000
263.320;  245.700;    0.000;    0.000
263.387;  261.700;    0.000;    0.000
263.454;  237.700;    0.000;    0.000
263.522;  211.700;    0.000;    0.000
263.589;  241.700;    0.000;    0.000
263.656;  246.700;    0.000;    0.000
263.723;  244.700;    0.000;    0.000
263.790;  276.700;    0.000;    0.000
263.858;  225.700;    0.000;    0.000
263.925;  290.700;    0.000;    0.000
263.992;  263.700;    0.000;    0.000
264.059;  288.700;    0.000;    0.000
264.126;  246.700;    0.000;    0.000
264.194;  274.700;    0.000;    0.000
264.261;  255.700;    0.000;    0.000
264.328;  253.700;    0.000;    0.000
264.395;  282.700;    0.000;    0.000
264.462;  275.700;    0.000;    0.000
264.529;  229.700;    0.000;    0.000
264.597;  229.700;    0.000;    0.000
264.664;  266.700;    0.000;    0.000
264.731;  275.700;    0.000;    0.000
264.798;  217.700;    0.000;    0.000
264.865;  272.700;    0.000;    0.000
264.932;  232.700;    0.000;    0.000
264.999;  229.700;    0.000;    0.000
265.066;  227.700;    0.000;    0.000
265.133;  264.700;    0.000;    0.000
265.201;  244.700;    0.000;    0.000
265.268;  214.700;    0.000;    0.000
265.335;  228.700;    0.000;    0.000
265.402;  253.700;    0.000;    0.000
265.469;  240.700;    0.000;    0.000
265.536;  282.700;    0.000;    0.000
265.603;  283.700;    0.000;    0.000
265.670;  286.700;    0.000;    0.000
265.737;  232.700;    0.000;    0.000
265.804;  288.700;    0.000;    0.000
265.871;  267.700;    0.000;    0.000
265.938;  295.700;    0.000;    0.000
266.005;  291.700;    0.000;    0.000
266.072;  260.700;    0.000;    0.000
266.139;  294.700;    0.000;    0.000
266.206;  249.700;    0.000;    0.000
266.273;  307.700;    0.000;    0.000
266.340;  257.700;    0.000;    0.000
266.407;  296.700;    0.000;    0.000
266.474;  251.700;    0.000;    0.000
266.541;  244.700;    0.000;    0.000
266.608;  255.700;    0.000;    0.000
266.675;  326.700;    0.000;    0.000
266.742;  326.700;    0.000;    0.000
266.808;  307.700;    0.000;    0.000
266.875;  294.700;    0.000;    0.000
266.942;  285.700;    0.000;    0.000
267.009;  277.700;    0.000;    0.000
267.076;  325.700;    0.000;    0.000
267.143;  313.700;    0.000;    0.000
267.210;  281.700;    0.000;    0.000
267.277;  264.700;    0.000;    0.000
267.344;  298.700;    0.000;    0.000
267.410;  284.700;    0.000;    0.000
267.477;  280.700;    0.000;    0.000
267.544;  312.700;    0.000;    0.000
267.611;  310.700;    0.000;    0.000
267.678;  249.700;    0.000;    0.000
267.745;  332.700;    0.000;    0.000
267.811;  260.700;    0.000;    0.000
267.878;  294.700;    0.000;    0.000
267.945;  287.700;    0.000;    0.000
268.012;  278.700;    0.000;    0.000
268.079;  336.700;    0.000;    0.000
268.145;  302.700;    0.000;    0.000
268.212;  265.700;    0.000;    0.000
268.279;  287.700;    0.000;    0.000
268.346;  315.700;    0.000;    0.000
268.412;  276.700;    0.000;    0.000
268.479;  281.700;    0.000;    0.000
268.546;  336.700;    0.000;    0.000
268.613;  263.700;    0.000;    0.000
268.679;  283.700;    0.000;    0.000
268.746;  314.700;    0.000;    0.000
268.813;  284.700;    0.000;    0.000
268.879;  274.700;    0.000;    0.000
268.946;  295.700;    0.000;    0.000
269.013;  285.700;    0.000;    0.000
269.079;  329.700;    0.000;    0.000
269.146;  310.700;    0.000;    0.000
269.213;  347.700;    0.000;    0.000
269.280;  273.700;    0.000;    0.000
269.346;  296.700;    0.000;    0.000
269.413;  244.700;    0.000;    0.000
269.479;  301.700;    0.000;    0.000
269.546;  313.700;    0.000;    0.000
269.613;  250.700;    0.000;    0.000
269.679;  296.700;    0.000;    0.000
269.746;  308.700;    0.000;    0.000
269.813;  302.700;    0.000;    0.000
269.879;  310.700;    0.000;    0.000
269.946;  321.700;    0.000;    0.000
270.012;  304.700;    0.000;    0.000
270.079;  244.700;    0.000;    0.000
270.145;  305.700;    0.000;    0.000
270.212;  285.700;    0.000;    0.000
270.279;  328.700;    0.000;    0.000
270.345;  278.700;    0.000;    0.000
270.412;  306.700;    0.000;    0.000
270.478;  278.700;    0.000;    0.000
270.545;  292.700;    0.000;    0.000
270.611;  322.700;    0.000;    0.000
270.678;  229.700;    0.000;    0.000
270.744;  283.700;    0.000;    0.000
270.811;  293.700;    0.000;    0.000
270.877;  280.700;    0.000;    0.000
270.944;  291.700;    0.000;    0.000
271.010;  310.700;    0.000;    0.000
271.077;  297.700;    0.000;    0.000
271.143;  298.700;    0.000;    0.000
271.210;  330.700;    0.000;    0.000
271.276;  271.700;    0.000;    0.000
271.342;  341.700;    0.000;    0.000
271.409;  306.700;    0.000;    0.000
271.475;  301.700;    0.000;    0.000
271.542;  297.700;    0.000;    0.000
271.608;  271.700;    0.000;    0.000
271.675;  266.700;    0.000;    0.000
271.741;  323.700;    0.000;    0.000
271.807;  304.700;    0.000;    0.000
271.874;  364.700;    0.000;    0.000
271.940;  329.700;    0.000;    0.000
272.007;  297.700;    0.000;    0.000
272.073;  263.700;    0.000;    0.000
272.139;  296.700;    0.000;    0.000
272.206;  292.700;    0.000;    0.000
272.272;  324.700;    0.000;    0.000
272.338;  294.700;    0.000;    0.000
272.405;  295.700;    0.000;    0.000
272.471;  276.700;    0.000;    0.000
272.537;  286.700;    0.000;    0.000
272.604;  314.700;    0.000;    0.000
272.670;  299.700;    0.000;    0.000
272.736;  317.700;    0.000;    0.000
272.802;  308.700;    0.000;    0.000
272.869;  319.700;    0.000;    0.000
272.935;  341.700;    0.000;    0.000
273.001;  259.700;    0.000;    0.000
273.068;  298.700;    0.000;    0.000
273.134;  264.700;    0.000;    0.000
273.200;  341.700;    0.000;    0.000
273.266;  292.700;    0.000;    0.000
273.333;  333.700;    0.000;    0.000
273.399;  277.700;    0.000;    0.000
273.465;  298.700;    0.000;    0.000
273.531;  280.700;    0.000;    0.000
273.597;  322.700;    0.000;    0.000
273.664;  322.700;    0.000;    0.000
273.730;  312.700;    0.000;    0.000
273.796;  285.700;    0.000;    0.000
273.862;  312.700;    0.000;    0.000
273.928;  319.700;    0.000;    0.000
273.995;  299.700;    0.000;    0.000
274.061;  302.700;    0.000;    0.000
274.127;  296.700;    0.000;    0.000
274.193;  324.700;    0.000;    0.000
274.259;  281.700;    0.000;    0.000
274.325;  315.700;    0.000;    0.000
274.391;  279.700;    0.000;    0.000
274.457;  296.700;    0.000;    0.000
274.524;  334.700;    0.000;    0.000
274.590;  266.700;    0.000;    0.000
274.656;  321.700;    0.000;    0.000
274.722;  333.700;    0.000;    0.000
274.788;  278.700;    0.000;    0.000
274.854;  351.700;    0.000;    0.000
274.920;  277.700;    0.000;    0.000
274.986;  350.700;    0.000;    0.000
275.052;  312.700;    0.000;    0.000
275.118;  267.700;    0.000;    0.000
275.184;  275.700;    0.000;    0.000
275.250;  332.700;    0.000;    0.000
275.316;  269.700;    0.000;    0.000
275.382;  292.700;    0.000;    0.000
275.448;  349.700;    0.000;    0.000
275.514;  329.700;    0.000;    0.000
275.580;  308.700;    0.000;    0.000
275.646;  292.700;    0.000;    0.000
275.712;  320.700;    0.000;    0.000
275.778;  280.700;    0.000;    0.000
275.844;  328.700;    0.000;    0.000
275.910;  314.700;    0.000;    0.000
275.976;  334.700;    0.000;    0.000
276.042;  322.700;    0.000;    0.000
276.108;  338.700;    0.000;    0.000
276.174;  300.700;    0.000;    0.000
276.240;  319.700;    0.000;    0.000
276.306;  321.700;    0.000;    0.000
276.372;  295.700;    0.000;    0.000
276.437;  315.700;    0.000;    0.000
276.503;  312.700;    0.000;    0.000
276.569;  345.700;    0.000;    0.000
276.635;  318.700;    0.000;    0.000
276.701;  311.700;    0.000;    0.000
276.767;  313.700;    0.000;    0.000
276.833;  324.700;    0.000;    0.000
276.899;  298.700;    0.000;    0.000
276.964;  335.700;    0.000;    0.000
277.030;  359.700;    0.000;    0.000
277.096;  330.700;    0.000;    0.000
277.162;  334.700;    0.000;    0.000
277.228;  331.700;    0.000;    0.000
277.293;  347.700;    0.000;    0.000
277.359;  361.700;    0.000;    0.000
277.425;  385.700;    0.000;    0.000
277.491;  377.700;    0.000;    0.000
277.557;  379.700;    0.000;    0.000
277.622;  381.700;    0.000;    0.000
277.688;  430.700;    0.000;    0.000
277.754;  408.700;    0.000;    0.000
277.820;  404.700;    0.000;    0.000
277.885;  491.700;    0.000;    0.000
277.951;  526.700;    0.000;    0.000
278.017;  525.700;    0.000;    0.000
278.083;  418.700;    0.000;    0.000
278.148;  448.700;    0.000;    0.000
278.214;  431.700;    0.000;    0.000
278.280;  453.700;    0.000;    0.000
278.345;  438.700;    0.000;    0.000
278.411;  433.700;    0.000;    0.000
278.477;  456.700;    0.000;    0.000
278.542;  403.700;    0.000;    0.000
278.608;  466.700;    0.000;    0.000
278.674;  519.700;    0.000;    0.000
278.739;  486.700;    0.000;    0.000
278.805;  524.700;    0.000;    0.000
278.871;  581.700;    0.000;    0.000
278.936;  557.700;    0.000;    0.000
279.002;  661.700;    0.000;    0.000
279.067;  803.700;    0.000;    0.000
279.133;  792.700;    0.000;    0.000
279.199;  784.700;    0.000;    0.000
279.264;  826.700;    0.000;    0.000
279.330;  918.700;    0.000;    0.000
279.395; 1073.700;    0.000;    0.000
279.461; 1346.700;    0.000;    0.000
279.527; 1618.700;    0.000;    0.000
279.592; 1649.700;    0.000;    0.000
279.658; 1433.700;    0.000;    0.000
279.723; 1208.700;    0.000;    0.000
279.789; 1245.700;    0.000;    0.000
279.854; 1129.700;    0.000;    0.000
279.920; 1074.700;    0.000;    0.000
279.985;  966.700;    0.000;    0.000
280.051; 1028.700;    0.000;    0.000
280.116; 1056.700;    0.000;    0.000
280.182; 1350.700;    0.000;    0.000
280.247; 1569.700;    0.000;    0.000
280.313; 1417.700;    0.000;    0.000
280.378; 1216.700;    0.000;    0.000
280.444;  938.700;    0.000;    0.000
280.509;  789.700;    0.000;    0.000
280.574;  774.700;    0.000;    0.000
280.640;  646.700;    0.000;    0.000
280.705;  682.700;    0.000;    0.000
280.771;  637.700;    0.000;    0.000
280.836;  582.700;    0.000;    0.000
280.902;  559.700;    0.000;    0.000
280.967;  523.700;    0.000;    0.000
281.032;  571.700;    0.000;    0.000
281.098;  480.700;    0.000;    0.000
281.163;  493.700;    0.000;    0.000
281.229;  535.700;    0.000;    0.000
281.294;  447.700;    0.000;    0.000
281.359;  461.700;    0.000;    0.000
281.425;  496.700;    0.000;    0.000
281.490;  394.700;    0.000;    0.000
281.555;  505.700;    0.000;    0.000
281.621;  435.700;    0.000;    0.000
281.686;  446.700;    0.000;    0.000
281.751;  478.700;    0.000;    0.000
281.816;  413.700;    0.000;    0.000
281.882;  444.700;    0.000;    0.000
281.947;  439.700;    0.000;    0.000
282.012;  385.700;    0.000;    0.000
282.078;  403.700;    0.000;    0.000
282.143;  392.700;    0.000;    0.000
282.208;  396.700;    0.000;    0.000
282.273;  443.700;    0.000;    0.000
282.339;  394.700;    0.000;    0.000
282.404;  385.700;    0.000;    0.000
282.469;  370.700;    0.000;    0.000
282.534;  412.700;    0.000;    0.000
282.600;  349.700;    0.000;    0.000
282.665;  371.700;    0.000;    0.000
282.730;  356.700;    0.000;    0.000
282.795;  403.700;    0.000;    0.000
282.860;  388.700;    0.000;    0.000
282.926;  382.700;    0.000;    0.000
282.991;  407.700;    0.000;    0.000
283.056;  376.700;    0.000;    0.000
283.121;  375.700;    0.000;    0.000
283.186;  424.700;    0.000;    0.000
283.251;  365.700;    0.000;    0.000
283.316;  353.700;    0.000;    0.000
283.382;  386.700;    0.000;    0.000
283.447;  399.700;    0.000;    0.000
283.512;  336.700;    0.000;    0.000
283.577;  384.700;    0.000;    0.000
283.642;  394.700;    0.000;    0.000
283.707;  363.700;    0.000;    0.000
283.772;  377.700;    0.000;    0.000
283.837;  358.700;    0.000;    0.000
283.902;  322.700;    0.000;    0.000
283.967;  373.700;    0.000;    0.000
284.032;  375.700;    0.000;    0.000
284.097;  386.700;    0.000;    0.000
284.163;  363.700;    0.000;    0.000
284.228;  345.700;    0.000;    0.000
284.293;  376.700;    0.000;    0.000
284.358;  373.700;    0.000;    0.000
284.423;  355.700;    0.000;    0.000
284.488;  371.700;    0.000;    0.000
284.553;  390.700;    0.000;    0.000
284.618;  356.700;    0.000;    0.000
284.683;  354.700;    0.000;    0.000
284.748;  353.700;    0.000;    0.000
284.812;  321.700;    0.000;    0.000
284.877;  397.700;    0.000;    0.000
284.942;  418.700;    0.000;    0.000
285.007;  493.700;    0.000;    0.000
285.072;  446.700;    0.000;    0.000
285.137;  580.700;    0.000;    0.000
285.202;  718.700;    0.000;    0.000
285.267;  655.700;    0.000;    0.000
285.332;  558.700;    0.000;    0.000
285.397;  451.700;    0.000;    0.000
285.462;  434.700;    0.000;    0.000
285.527;  463.700;    0.000;    0.000
285.591;  485.700;    0.000;    0.000
285.656;  353.700;    0.000;    0.000
285.721;  405.700;    0.000;    0.000
285.786;  393.700;    0.000;    0.000
285.851;  417.700;    0.000;    0.000
285.916;  412.700;    0.000;    0.000
285.981;  364.700;    0.000;    0.000
286.045;  444.700;    0.000;    0.000
286.110;  418.700;    0.000;    0.000
286.175;  404.700;    0.000;    0.000
286.240;  358.700;    0.000;    0.000
286.305;  404.700;    0.000;    0.000
286.369;  460.700;    0.000;    0.000
286.434;  391.700;    0.000;    0.000
286.499;  356.700;    0.000;    0.000
286.564;  385.700;    0.000;    0.000
286.628;  412.700;    0.000;    0.000
286.693;  370.700;    0.000;    0.000
286.758;  361.700;    0.000;    0.000
286.823;  362.700;    0.000;    0.000
286.887;  374.700;    0.000;    0.000
286.952;  394.700;    0.000;    0.000
287.017;  413.700;    0.000;    0.000
287.082;  348.700;    0.000;    0.000
287.146;  353.700;    0.000;    0.000
287.211;  419.700;    0.000;    0.000
287.276;  391.700;    0.000;    0.000
287.340;  410.700;    0.000;    0.000
287.405;  366.700;    0.000;    0.000
287.470;  382.700;    0.000;    0.000
287.534;  369.700;    0.000;    0.000
287.599;  411.700;    0.000;    0.000
287.663;  405.700;    0.000;    0.000
287.728;  365.700;    0.000;    0.000
287.793;  403.700;    0.000;    0.000
287.857;  386.700;    0.000;    0.000
287.922;  355.700;    0.000;    0.000
287.987;  350.700;    0.000;    0.000
288.051;  384.700;    0.000;    0.000
288.116;  397.700;    0.000;    0.000
288.180;  379.700;    0.000;    0.000
288.245;  409.700;    0.000;    0.000
288.309;  363.700;    0.000;    0.000
288.374;  388.700;    0.000;    0.000
288.439;  396.700;    0.000;    0.000
288.503;  373.700;    0.000;    0.000
288.568;  384.700;    0.000;    0.000
288.632;  397.700;    0.000;    0.000
288.697;  408.700;    0.000;    0.000
288.761;  372.700;    0.000;    0.000
288.826;  374.700;    0.000;    0.000
288.890;  390.700;    0.000;    0.000
288.955;  376.700;    0.000;    0.000
289.019;  382.700;    0.000;    0.000
289.084;  360.700;    0.000;    0.000
289.148;  347.700;    0.000;    0.000
289.212;  395.700;    0.000;    0.000
289.277;  372.700;    0.000;    0.000
289.341;  421.700;    0.000;    0.000
289.406;  326.700;    0.000;    0.000
289.470;  353.700;    0.000;    0.000
289.535;  381.700;    0.000;    0.000
289.599;  378.700;    0.000;    0.000
289.663;  346.700;    0.000;    0.000
289.728;  385.700;    0.000;    0.000
289.792;  388.700;    0.000;    0.000
289.857;  386.700;    0.000;    0.000
289.921;  413.700;    0.000;    0.000
289.985;  379.700;    0.000;    0.000
290.050;  386.700;    0.000;    0.000
290.114;  358.700;    0.000;    0.000
290.178;  387.700;    0.000;    0.000
290.243;  344.700;    0.000;    0.000
290.307;  397.700;    0.000;    0.000
290.371;  403.700;    0.000;    0.000
290.436;  395.700;    0.000;    0.000
290.500;  389.700;    0.000;    0.000
290.564;  348.700;    0.000;    0.000
290.629;  378.700;    0.000;    0.000
290.693;  387.700;    0.000;    0.000
290.757;  393.700;    0.000;    0.000
290.821;  366.700;    0.000;    0.000
290.886;  402.700;    0.000;    0.000
290.950;  407.700;    0.000;    0.000
291.014;  367.700;    0.000;    0.000
291.078;  392.700;    0.000;    0.000
291.143;  427.700;    0.000;    0.000
291.207;  425.700;    0.000;    0.000
291.271;  383.700;    0.000;    0.000
291.335;  355.700;    0.000;    0.000
291.399;  356.700;    0.000;    0.000
291.464;  339.700;    0.000;    0.000
291.528;  356.700;    0.000;    0.000
291.592;  363.700;    0.000;    0.000
291.656;  393.700;    0.000;    0.000
291.720;  424.700;    0.000;    0.000
291.784;  375.700;    0.000;    0.000
291.849;  412.700;    0.000;    0.000
291.913;  363.700;    0.000;    0.000
291.977;  420.700;    0.000;    0.000
292.041;  346.700;    0.000;    0.000
292.105;  393.700;    0.000;    0.000
292.169;  346.700;    0.000;    0.000
292.233;  359.700;    0.000;    0.000
292.297;  414.700;    0.000;    0.000
292.361;  385.700;    0.000;    0.000
292.425;  386.700;    0.000;    0.000
292.490;  417.700;    0.000;    0.000
292.554;  403.700;    0.000;    0.000
292.618;  365.700;    0.000;    0.000
292.682;  448.700;    0.000;    0.000
292.746;  403.700;    0.000;    0.000
292.810;  442.700;    0.000;    0.000
292.874;  459.700;    0.000;    0.000
292.938;  528.700;    0.000;    0.000
293.002;  460.700;    0.000;    0.000
293.066;  385.700;    0.000;    0.000
293.130;  435.700;    0.000;    0.000
293.194;  375.700;    0.000;    0.000
293.258;  458.700;    0.000;    0.000
293.322;  384.700;    0.000;    0.000
293.386;  376.700;    0.000;    0.000
293.450;  417.700;    0.000;    0.000
293.514;  441.700;    0.000;    0.000
293.577;  453.700;    0.000;    0.000
293.641;  506.700;    0.000;    0.000
293.705;  548.700;    0.000;    0.000
293.769;  476.700;    0.000;    0.000
293.833;  502.700;    0.000;    0.000
293.897;  464.700;    0.000;    0.000
293.961;  497.700;    0.000;    0.000
294.025;  440.700;    0.000;    0.000
294.089;  438.700;    0.000;    0.000
294.152;  463.700;    0.000;    0.000
294.216;  476.700;    0.000;    0.000
294.280;  432.700;    0.000;    0.000
294.344;  488.700;    0.000;    0.000
294.408;  477.700;    0.000;    0.000
294.472;  445.700;    0.000;    0.000
294.536;  436.700;    0.000;    0.000
294.599;  416.700;    0.000;    0.000
294.663;  456.700;    0.000;    0.000
294.727;  396.700;    0.000;    0.000
294.791;  400.700;    0.000;    0.000
294.855;  440.700;    0.000;    0.000
294.918;  378.700;    0.000;    0.000
294.982;  406.700;    0.000;    0.000
295.046;  400.700;    0.000;    0.000
295.110;  414.700;    0.000;    0.000
295.173;  410.700;    0.000;    0.000
295.237;  439.700;    0.000;    0.000
295.301;  399.700;    0.000;    0.000
295.364;  438.700;    0.000;    0.000
295.428;  413.700;    0.000;    0.000
295.492;  413.700;    0.000;    0.000
295.556;  445.700;    0.000;    0.000
295.619;  443.700;    0.000;    0.000
295.683;  453.700;    0.000;    0.000
295.747;  400.700;    0.000;    0.000
295.810;  406.700;    0.000;    0.000
295.874;  410.700;    0.000;    0.000
295.938;  391.700;    0.000;    0.000
296.001;  438.700;    0.000;    0.000
296.065;  418.700;    0.000;    0.000
296.128;  411.700;    0.000;    0.000
296.192;  431.700;    0.000;    0.000
296.256;  407.700;    0.000;    0.000
296.319;  401.700;    0.000;    0.000
296.383;  441.700;    0.000;    0.000
296.447;  399.700;    0.000;    0.000
296.510;  443.700;    0.000;    0.000
296.574;  411.700;    0.000;    0.000
296.637;  412.700;    0.000;    0.000
296.701;  446.700;    0.000;    0.000
296.764;  379.700;    0.000;    0.000
296.828;  469.700;    0.000;    0.000
296.891;  393.700;    0.000;    0.000
296.955;  432.700;    0.000;    0.000
297.018;  397.700;    0.000;    0.000
297.082;  427.700;    0.000;    0.000
297.145;  422.700;    0.000;    0.000
297.209;  414.700;    0.000;    0.000
297.272;  408.700;    0.000;    0.000
297.336;  424.700;    0.000;    0.000
297.399;  431.700;    0.000;    0.000
297.463;  439.700;    0.000;    0.000
297.526;  447.700;    0.000;    0.000
297.590;  446.700;    0.000;    0.000
297.653;  406.700;    0.000;    0.000
297.717;  445.700;    0.000;    0.000
297.780;  397.700;    0.000;    0.000
297.843;  419.700;    0.000;    0.000
297.907;  449.700;    0.000;    0.000
297.970;  389.700;    0.000;    0.000
298.034;  440.700;    0.000;    0.000
298.097;  434.700;    0.000;    0.000
298.160;  423.700;    0.000;    0.000
298.224;  418.700;    0.000;    0.000
298.287;  392.700;    0.000;    0.000
298.350;  460.700;    0.000;    0.000
298.414;  435.700;    0.000;    0.000
298.477;  409.700;    0.000;    0.000
298.540;  433.700;    0.000;    0.000
298.604;  452.700;    0.000;    0.000
298.667;  452.700;    0.000;    0.000
298.730;  453.700;    0.000;    0.000
298.794;  426.700;    0.000;    0.000
298.857;  452.700;    0.000;    0.000
298.920;  364.700;    0.000;    0.000
298.984;  446.700;    0.000;    0.000
299.047;  438.700;    0.000;    0.000
299.110;  401.700;    0.000;    0.000
299.173;  416.700;    0.000;    0.000
299.237;  458.700;    0.000;    0.000
299.300;  435.700;    0.000;    0.000
299.363;  371.700;    0.000;    0.000
299.426;  404.700;    0.000;    0.000
299.489;  380.700;    0.000;    0.000
299.553;  461.700;    0.000;    0.000
299.616;  461.700;    0.000;    0.000
299.679;  469.700;    0.000;    0.000
299.742;  388.700;    0.000;    0.000
299.805;  454.700;    0.000;    0.000
299.868;  474.700;    0.000;    0.000
299.932;  402.700;    0.000;    0.000
299.995;  444.700;    0.000;    0.000
300.058;  438.700;    0.000;    0.000
300.121;  455.700;    0.000;    0.000
300.184;  425.700;    0.000;    0.000
300.247;  439.700;    0.000;    0.000
300.310;  422.700;    0.000;    0.000
300.374;  447.700;    0.000;    0.000
300.437;  417.700;    0.000;    0.000
300.500;  442.700;    0.000;    0.000
300.563;  457.700;    0.000;    0.000
300.626;  459.700;    0.000;    0.000
300.689;  465.700;    0.000;    0.000
300.752;  392.700;    0.000;    0.000
300.815;  441.700;    0.000;    0.000
300.878;  480.700;    0.000;    0.000
300.941;  469.700;    0.000;    0.000
301.004;  422.700;    0.000;    0.000
301.067;  430.700;    0.000;    0.000
301.130;  450.700;    0.000;    0.000
301.193;  472.700;    0.000;    0.000
301.256;  448.700;    0.000;    0.000
301.319;  445.700;    0.000;    0.000
301.382;  449.700;    0.000;    0.000
301.445;  483.700;    0.000;    0.000
301.508;  462.700;    0.000;    0.000
301.571;  458.700;    0.000;    0.000
301.634;  466.700;    0.000;    0.000
301.697;  430.700;    0.000;    0.000
301.760;  461.700;    0.000;    0.000
301.823;  445.700;    0.000;    0.000
301.885;  499.700;    0.000;    0.000
301.948;  441.700;    0.000;    0.000
302.011;  469.700;    0.000;    0.000
302.074;  492.700;    0.000;    0.000
302.137;  398.700;    0.000;    0.000
302.200;  469.700;    0.000;    0.000
302.263;  462.700;    0.000;    0.000
302.326;  458.700;    0.000;    0.000
302.388;  452.700;    0.000;    0.000
302.451;  457.700;    0.000;    0.000
302.514;  456.700;    0.000;    0.000
302.577;  493.700;    0.000;    0.000
302.640;  521.700;    0.000;    0.000
302.703;  480.700;    0.000;    0.000
302.765;  486.700;    0.000;    0.000
302.828;  528.700;    0.000;    0.000
302.891;  476.700;    0.000;    0.000
302.954;  452.700;    0.000;    0.000
303.016;  494.700;    0.000;    0.000
303.079;  483.700;    0.000;    0.000
303.142;  540.700;    0.000;    0.000
303.205;  532.700;    0.000;    0.000
303.267;  510.700;    0.000;    0.000
303.330;  503.700;    0.000;    0.000
303.393;  475.700;    0.000;    0.000
303.456;  468.700;    0.000;    0.000
303.518;  528.700;    0.000;    0.000
303.581;  491.700;    0.000;    0.000
303.644;  505.700;    0.000;    0.000
303.706;  543.700;    0.000;    0.000
303.769;  502.700;    0.000;    0.000
303.832;  508.700;    0.000;    0.000
303.894;  565.700;    0.000;    0.000
303.957;  526.700;    0.000;    0.000
304.020;  559.700;    0.000;    0.000
304.082;  511.700;    0.000;    0.000
304.145;  528.700;    0.000;    0.000
304.207;  534.700;    0.000;    0.000
304.270;  531.700;    0.000;    0.000
304.333;  517.700;    0.000;    0.000
304.395;  549.700;    0.000;    0.000
304.458;  524.700;    0.000;    0.000
304.520;  583.700;    0.000;    0.000
304.583;  569.700;    0.000;    0.000
304.646;  562.700;    0.000;    0.000
304.708;  560.700;    0.000;    0.000
304.771;  512.700;    0.000;    0.000
304.833;  597.700;    0.000;    0.000
304.896;  576.700;    0.000;    0.000
304.958;  523.700;    0.000;    0.000
305.021;  550.700;    0.000;    0.000
305.083;  508.700;    0.000;    0.000
305.146;  614.700;    0.000;    0.000
305.208;  598.700;    0.000;    0.000
305.271;  533.700;    0.000;    0.000
305.333;  631.700;    0.000;    0.000
305.396;  624.700;    0.000;    0.000
305.458;  565.700;    0.000;    0.000
305.520;  597.700;    0.000;    0.000
305.583;  614.700;    0.000;    0.000
305.645;  587.700;    0.000;    0.000
305.708;  562.700;    0.000;    0.000
305.770;  612.700;    0.000;    0.000
305.833;  576.700;    0.000;    0.000
305.895;  577.700;    0.000;    0.000
305.957;  607.700;    0.000;    0.000
306.020;  593.700;    0.000;    0.000
306.082;  556.700;    0.000;    0.000
306.144;  610.700;    0.000;    0.000
306.207;  564.700;    0.000;    0.000
306.269;  615.700;    0.000;    0.000
306.331;  592.700;    0.000;    0.000
306.394;  604.700;    0.000;    0.000
306.456;  583.700;    0.000;    0.000
306.518;  610.700;    0.000;    0.000
306.581;  567.700;    0.000;    0.000
306.643;  650.700;    0.000;    0.000
306.705;  642.700;    0.000;    0.000
306.768;  633.700;    0.000;    0.000
306.830;  675.700;    0.000;    0.000
306.892;  641.700;    0.000;    0.000
306.954;  653.700;    0.000;    0.000
307.017;  629.700;    0.000;    0.000
307.079;  640.700;    0.000;    0.000
307.141;  645.700;    0.000;    0.000
307.203;  640.700;    0.000;    0.000
307.266;  652.700;    0.000;    0.000
307.328;  688.700;    0.000;    0.000
307.390;  658.700;    0.000;    0.000
307.452;  654.700;    0.000;    0.000
307.514;  666.700;    0.000;    0.000
307.577;  674.700;    0.000;    0.000
307.639;  656.700;    0.000;    0.000
307.701;  629.700;    0.000;    0.000
307.763;  695.700;    0.000;    0.000
307.825;  675.700;    0.000;    0.000
307.887;  741.700;    0.000;    0.000
307.949;  676.700;    0.000;    0.000
308.012;  674.700;    0.000;    0.000
308.074;  695.700;    0.000;    0.000
308.136;  685.700;    0.000;    0.000
308.198;  654.700;    0.000;    0.000
308.260;  704.700;    0.000;    0.000
308.322;  699.700;    0.000;    0.000
308.384;  717.700;    0.000;    0.000
308.446;  654.700;    0.000;    0.000
308.508;  679.700;    0.000;    0.000
308.570;  722.700;    0.000;    0.000
308.632;  739.700;    0.000;    0.000
308.694;  718.700;    0.000;    0.000
308.756;  729.700;    0.000;    0.000
308.818;  721.700;    0.000;    0.000
308.880;  725.700;    0.000;    0.000
308.942;  723.700;    0.000;    0.000
309.004;  797.700;    0.000;    0.000
309.066;  732.700;    0.000;    0.000
309.128;  710.700;    0.000;    0.000
309.190;  756.700;    0.000;    0.000
309.252;  767.700;    0.000;    0.000
309.314;  796.700;    0.000;    0.000
309.376;  746.700;    0.000;    0.000
309.438;  765.700;    0.000;    0.000
309.500;  766.700;    0.000;    0.000
309.562;  735.700;    0.000;    0.000
309.624;  696.700;    0.000;    0.000
309.686;  721.700;    0.000;    0.000
309.747;  760.700;    0.000;    0.000
309.809;  813.700;    0.000;    0.000
309.871;  747.700;    0.000;    0.000
309.933;  788.700;    0.000;    0.000
309.995;  762.700;    0.000;    0.000
310.057;  738.700;    0.000;    0.000
310.119;  772.700;    0.000;    0.000
310.180;  697.700;    0.000;    0.000
310.242;  764.700;    0.000;    0.000
310.304;  749.700;    0.000;    0.000
310.366;  799.700;    0.000;    0.000
310.428;  706.700;    0.000;    0.000
310.489;  710.700;    0.000;    0.000
310.551;  770.700;    0.000;    0.000
310.613;  752.700;    0.000;    0.000
310.675;  753.700;    0.000;    0.000
310.737;  741.700;    0.000;    0.000
310.798;  741.700;    0.000;    0.000
310.860;  785.700;    0.000;    0.000
310.922;  742.700;    0.000;    0.000
310.983;  730.700;    0.000;    0.000
311.045;  744.700;    0.000;    0.000
311.107;  696.700;    0.000;    0.000
311.169;  686.700;    0.000;    0.000
311.230;  677.700;    0.000;    0.000
311.292;  759.700;    0.000;    0.000
311.354;  728.700;    0.000;    0.000
311.415;  758.700;    0.000;    0.000
311.477;  711.700;    0.000;    0.000
311.539;  728.700;    0.000;    0.000
311.600;  757.700;    0.000;    0.000
311.662;  734.700;    0.000;    0.000
311.724;  733.700;    0.000;    0.000
311.785;  713.700;    0.000;    0.000
311.847;  748.700;    0.000;    0.000
311.908;  694.700;    0.000;    0.000
311.970;  725.700;    0.000;    0.000
312.032;  748.700;    0.000;    0.000
312.093;  724.700;    0.000;    0.000
312.155;  742.700;    0.000;    0.000
312.216;  731.700;    0.000;    0.000
312.278;  756.700;    0.000;    0.000
312.339;  768.700;    0.000;    0.000
312.401;  810.700;    0.000;    0.000
312.462;  729.700;    0.000;    0.000
312.524;  767.700;    0.000;    0.000
312.585;  758.700;    0.000;    0.000
312.647;  740.700;    0.000;    0.000
312.708;  725.700;    0.000;    0.000
312.770;  780.700;    0.000;    0.000
312.831;  751.700;    0.000;    0.000
312.893;  771.700;    0.000;    0.000
312.954;  760.700;    0.000;    0.000
313.016;  770.700;    0.000;    0.000
313.077;  810.700;    0.000;    0.000
313.139;  763.700;    0.000;    0.000
313.200;  785.700;    0.000;    0.000
313.261;  836.700;    0.000;    0.000
313.323;  807.700;    0.000;    0.000
313.384;  783.700;    0.000;    0.000
313.446;  893.700;    0.000;    0.000
313.507;  744.700;    0.000;    0.000
313.568;  828.700;    0.000;    0.000
313.630;  811.700;    0.000;    0.000
313.691;  809.700;    0.000;    0.000
313.752;  766.700;    0.000;    0.000
313.814;  802.700;    0.000;    0.000
313.875;  824.700;    0.000;    0.000
313.936;  779.700;    0.000;    0.000
313.998;  770.700;    0.000;    0.000
314.059;  833.700;    0.000;    0.000
314.120;  793.700;    0.000;    0.000
314.182;  856.700;    0.000;    0.000
314.243;  781.700;    0.000;    0.000
314.304;  831.700;    0.000;    0.000
314.365;  806.700;    0.000;    0.000
314.427;  794.700;    0.000;    0.000
314.488;  752.700;    0.000;    0.000
314.549;  840.700;    0.000;    0.000
314.610;  853.700;    0.000;    0.000
314.672;  827.700;    0.000;    0.000
314.733;  825.700;    0.000;    0.000
314.794;  786.700;    0.000;    0.000
314.855;  824.700;    0.000;    0.000
314.917;  856.700;    0.000;    0.000
314.978;  841.700;    0.000;    0.000
315.039;  766.700;    0.000;    0.000
315.100;  849.700;    0.000;    0.000
315.161;  818.700;    0.000;    0.000
315.222;  834.700;    0.000;    0.000
315.283;  862.700;    0.000;    0.000
315.345;  855.700;    0.000;    0.000
315.406;  830.700;    0.000;    0.000
315.467;  821.700;    0.000;    0.000
315.528;  853.700;    0.000;    0.000
315.589;  839.700;    0.000;    0.000
315.650;  873.700;    0.000;    0.000
315.711;  809.700;    0.000;    0.000
315.772;  840.700;    0.000;    0.000
315.833;  848.700;    0.000;    0.000
315.894;  861.700;    0.000;    0.000
315.955;  828.700;    0.000;    0.000
316.016;  856.700;    0.000;    0.000
316.078;  806.700;    0.000;    0.000
316.139;  896.700;    0.000;    0.000
316.200;  832.700;    0.000;    0.000
316.261;  878.700;    0.000;    0.000
316.322;  876.700;    0.000;    0.000
316.383;  837.700;    0.000;    0.000
316.444;  906.700;    0.000;    0.000
316.504;  844.700;    0.000;    0.000
316.565;  815.700;    0.000;    0.000
316.626;  848.700;    0.000;    0.000
316.687;  862.700;    0.000;    0.000
316.748;  919.700;    0.000;    0.000
316.809;  896.700;    0.000;    0.000
316.870;  857.700;    0.000;    0.000
316.931;  966.700;    0.000;    0.000
316.992;  867.700;    0.000;    0.000
317.053;  875.700;    0.000;    0.000
317.114;  900.700;    0.000;    0.000
317.175;  894.700;    0.000;    0.000
317.235;  911.700;    0.000;    0.000
317.296;  931.700;    0.000;    0.000
317.357;  915.700;    0.000;    0.000
317.418;  864.700;    0.000;    0.000
317.479;  919.700;    0.000;    0.000
317.540;  899.700;    0.000;    0.000
317.601;  875.700;    0.000;    0.000
317.661;  835.700;    0.000;    0.000
317.722;  902.700;    0.000;    0.000
317.783;  835.700;    0.000;    0.000
317.844;  891.700;    0.000;    0.000
317.904;  865.700;    0.000;    0.000
317.965;  833.700;    0.000;    0.000
318.026;  893.700;    0.000;    0.000
318.087;  859.700;    0.000;    0.000
318.148;  851.700;    0.000;    0.000
318.208;  940.700;    0.000;    0.000
318.269;  994.700;    0.000;    0.000
318.330;  980.700;    0.000;    0.000
318.390;  949.700;    0.000;    0.000
318.451; 1001.700;    0.000;    0.000
318.512;  962.700;    0.000;    0.000
318.572;  939.700;    0.000;    0.000
318.633;  944.700;    0.000;    0.000
318.694;  906.700;    0.000;    0.000
318.754;  912.700;    0.000;    0.000
318.815;  895.700;    0.000;    0.000
318.876;  855.700;    0.000;    0.000
318.936;  892.700;    0.000;    0.000
318.997;  859.700;    0.000;    0.000
319.058;  906.700;    0.000;    0.000
319.118;  903.700;    0.000;    0.000
319.179;  939.700;    0.000;    0.000
319.239;  924.700;    0.000;    0.000
319.300;  869.700;    0.000;    0.000
319.361;  933.700;    0.000;    0.000
319.421;  949.700;    0.000;    0.000
319.482;  881.700;    0.000;    0.000
319.542;  894.700;    0.000;    0.000
319.603;  874.700;    0.000;    0.000
319.663;  904.700;    0.000;    0.000
319.724;  902.700;    0.000;    0.000
319.784;  868.700;    0.000;    0.000
319.845;  881.700;    0.000;    0.000
319.905;  897.700;    0.000;    0.000
319.966;  926.700;    0.000;    0.000
320.026;  959.700;    0.000;    0.000
320.087;  904.700;    0.000;    0.000
320.147;  952.700;    0.000;    0.000
320.208;  942.700;    0.000;    0.000
320.268;  951.700;    0.000;    0.000
320.329;  939.700;    0.000;    0.000
320.389; 1002.700;    0.000;    0.000
320.449;  976.700;    0.000;    0.000
320.510; 1007.700;    0.000;    0.000
320.570; 1013.700;    0.000;    0.000
320.631;  973.700;    0.000;    0.000
320.691;  997.700;    0.000;    0.000
320.751;  918.700;    0.000;    0.000
320.812;  947.700;    0.000;    0.000
320.872;  988.700;    0.000;    0.000
320.932;  988.700;    0.000;    0.000
320.993; 1014.700;    0.000;    0.000
321.053; 1011.700;    0.000;    0.000
321.113;  973.700;    0.000;    0.000
321.174;  970.700;    0.000;    0.000
321.234;  988.700;    0.000;    0.000
321.294;  973.700;    0.000;    0.000
321.355;  929.700;    0.000;    0.000
321.415;  974.700;    0.000;    0.000
321.475;  937.700;    0.000;    0.000
321.535;  998.700;    0.000;    0.000
321.596; 1000.700;    0.000;    0.000
321.656; 1048.700;    0.000;    0.000
321.716; 1039.700;    0.000;    0.000
321.776; 1068.700;    0.000;    0.000
321.837;  927.700;    0.000;    0.000
321.897; 1004.700;    0.000;    0.000
321.957; 1046.700;    0.000;    0.000
322.017;  993.700;    0.000;    0.000
322.077; 1036.700;    0.000;    0.000
322.138; 1025.700;    0.000;    0.000
322.198;  930.700;    0.000;    0.000
322.258; 1017.700;    0.000;    0.000
322.318;  970.700;    0.000;    0.000
322.378; 1052.700;    0.000;    0.000
322.438;  998.700;    0.000;    0.000
322.499; 1051.700;    0.000;    0.000
322.559; 1016.700;    0.000;    0.000
322.619; 1039.700;    0.000;    0.000
322.679; 1080.700;    0.000;    0.000
322.739; 1041.700;    0.000;    0.000
322.799; 1055.700;    0.000;    0.000
322.859; 1024.700;    0.000;    0.000
322.919;  997.700;    0.000;    0.000
322.979; 1034.700;    0.000;    0.000
323.039; 1010.700;    0.000;    0.000
323.099;  967.700;    0.000;    0.000
323.159; 1000.700;    0.000;    0.000
323.219; 1036.700;    0.000;    0.000
323.279; 1005.700;    0.000;    0.000
323.339; 1009.700;    0.000;    0.000
323.399; 1087.700;    0.000;    0.000
323.459; 1144.700;    0.000;    0.000
323.519; 1180.700;    0.000;    0.000
323.579; 1094.700;    0.000;    0.000
323.639; 1076.700;    0.000;    0.000
323.699; 1133.700;    0.000;    0.000
323.759; 1148.700;    0.000;    0.000
323.819; 1098.700;    0.000;    0.000
323.879; 1159.700;    0.000;    0.000
323.939; 1106.700;    0.000;    0.000
323.999; 1096.700;    0.000;    0.000
324.059; 1126.700;    0.000;    0.000
324.119; 1075.700;    0.000;    0.000
324.178; 1079.700;    0.000;    0.000
324.238; 1043.700;    0.000;    0.000
324.298; 1074.700;    0.000;    0.000
324.358; 1057.700;    0.000;    0.000
324.418; 1033.700;    0.000;    0.000
324.478; 1041.700;    0.000;    0.000
324.538; 1049.700;    0.000;    0.000
324.597; 1073.700;    0.000;    0.000
324.657; 1058.700;    0.000;    0.000
324.717; 1056.700;    0.000;    0.000
324.777; 1034.700;    0.000;    0.000
324.837; 1022.700;    0.000;    0.000
324.896; 1078.700;    0.000;    0.000
324.956; 1055.700;    0.000;    0.000
325.016; 1106.700;    0.000;    0.000
325.076; 1065.700;    0.000;    0.000
325.135; 1117.700;    0.000;    0.000
325.195; 1105.700;    0.000;    0.000
325.255; 1105.700;    0.000;    0.000
325.315; 1081.700;    0.000;    0.000
325.374; 1086.700;    0.000;    0.000
325.434; 1070.700;    0.000;    0.000
325.494; 1128.700;    0.000;    0.000
325.553; 1042.700;    0.000;    0.000
325.613; 1066.700;    0.000;    0.000
325.673; 1081.700;    0.000;    0.000
325.732;  997.700;    0.000;    0.000
325.792; 1020.700;    0.000;    0.000
325.852; 1019.700;    0.000;    0.000
325.911;  959.700;    0.000;    0.000
325.971; 1048.700;    0.000;    0.000
326.031;  978.700;    0.000;    0.000
326.090;  992.700;    0.000;    0.000
326.150;  999.700;    0.000;    0.000
326.209; 1057.700;    0.000;    0.000
326.269; 1050.700;    0.000;    0.000
326.328; 1039.700;    0.000;    0.000
326.388; 1052.700;    0.000;    0.000
326.448; 1093.700;    0.000;    0.000
326.507; 1056.700;    0.000;    0.000
326.567; 1011.700;    0.000;    0.000
326.626; 1035.700;    0.000;    0.000
326.686;  960.700;    0.000;    0.000
326.745;  960.700;    0.000;    0.000
326.805; 1042.700;    0.000;    0.000
326.864; 1083.700;    0.000;    0.000
326.924; 1147.700;    0.000;    0.000
326.983; 1050.700;    0.000;    0.000
327.043; 1060.700;    0.000;    0.000
327.102; 1109.700;    0.000;    0.000
327.161; 1105.700;    0.000;    0.000
327.221; 1133.700;    0.000;    0.000
327.280; 1083.700;    0.000;    0.000
327.340; 1054.700;    0.000;    0.000
327.399; 1164.700;    0.000;    0.000
327.459; 1108.700;    0.000;    0.000
327.518; 1100.700;    0.000;    0.000
327.577; 1077.700;    0.000;    0.000
327.637; 1087.700;    0.000;    0.000
327.696; 1090.700;    0.000;    0.000
327.755; 1084.700;    0.000;    0.000
327.815; 1052.700;    0.000;    0.000
327.874; 1104.700;    0.000;    0.000
327.933; 1077.700;    0.000;    0.000
327.993; 1131.700;    0.000;    0.000
328.052; 1088.700;    0.000;    0.000
328.111; 1162.700;    0.000;    0.000
328.171; 1060.700;    0.000;    0.000
328.230; 1080.700;    0.000;    0.000
328.289; 1171.700;    0.000;    0.000
328.349; 1140.700;    0.000;    0.000
328.408; 1197.700;    0.000;    0.000
328.467; 1164.700;    0.000;    0.000
328.526; 1182.700;    0.000;    0.000
328.586; 1105.700;    0.000;    0.000
328.645; 1172.700;    0.000;    0.000
328.704; 1110.700;    0.000;    0.000
328.763; 1096.700;    0.000;    0.000
328.822; 1129.700;    0.000;    0.000
328.882; 1174.700;    0.000;    0.000
328.941; 1080.700;    0.000;    0.000
329.000; 1141.700;    0.000;    0.000
329.059; 1130.700;    0.000;    0.000
329.118; 1176.700;    0.000;    0.000
329.177; 1173.700;    0.000;    0.000
329.237; 1226.700;    0.000;    0.000
329.296; 1232.700;    0.000;    0.000
329.355; 1231.700;    0.000;    0.000
329.414; 1164.700;    0.000;    0.000
329.473; 1180.700;    0.000;    0.000
329.532; 1243.700;    0.000;    0.000
329.591; 1118.700;    0.000;    0.000
329.650; 1171.700;    0.000;    0.000
329.709; 1290.700;    0.000;    0.000
329.768; 1288.700;    0.000;    0.000
329.827; 1341.700;    0.000;    0.000
329.886; 1375.700;    0.000;    0.000
329.945; 1367.700;    0.000;    0.000
330.004; 1475.700;    0.000;    0.000
330.063; 1302.700;    0.000;    0.000
330.122; 1318.700;    0.000;    0.000
330.181; 1351.700;    0.000;    0.000
330.240; 1259.700;    0.000;    0.000
330.299; 1283.700;    0.000;    0.000
330.358; 1279.700;    0.000;    0.000
330.417; 1323.700;    0.000;    0.000
330.476; 1251.700;    0.000;    0.000
330.535; 1263.700;    0.000;    0.000
330.594; 1179.700;    0.000;    0.000
330.653; 1189.700;    0.000;    0.000
330.712; 1221.700;    0.000;    0.000
330.771; 1155.700;    0.000;    0.000
330.830; 1215.700;    0.000;    0.000
330.889; 1185.700;    0.000;    0.000
330.948; 1200.700;    0.000;    0.000
331.006; 1234.700;    0.000;    0.000
331.065; 1133.700;    0.000;    0.000
331.124; 1213.700;    0.000;    0.000
331.183; 1122.700;    0.000;    0.000
331.242; 1120.700;    0.000;    0.000
331.301; 1185.700;    0.000;    0.000
331.359; 1162.700;    0.000;    0.000
331.418; 1130.700;    0.000;    0.000
331.477; 1247.700;    0.000;    0.000
331.536; 1114.700;    0.000;    0.000
331.595; 1110.700;    0.000;    0.000
331.653; 1159.700;    0.000;    0.000
331.712; 1099.700;    0.000;    0.000
331.771; 1203.700;    0.000;    0.000
331.830; 1131.700;    0.000;    0.000
331.888; 1123.700;    0.000;    0.000
331.947; 1209.700;    0.000;    0.000
332.006; 1137.700;    0.000;    0.000
332.065; 1115.700;    0.000;    0.000
332.123; 1177.700;    0.000;    0.000
332.182; 1139.700;    0.000;    0.000
332.241; 1192.700;    0.000;    0.000
332.299; 1166.700;    0.000;    0.000
332.358; 1143.700;    0.000;    0.000
332.417; 1174.700;    0.000;    0.000
332.475; 1187.700;    0.000;    0.000
332.534; 1190.700;    0.000;    0.000
332.592; 1179.700;    0.000;    0.000
332.651; 1187.700;    0.000;    0.000
332.710; 1221.700;    0.000;    0.000
332.768; 1149.700;    0.000;    0.000
332.827; 1171.700;    0.000;    0.000
332.885; 1123.700;    0.000;    0.000
332.944; 1095.700;    0.000;    0.000
333.003; 1090.700;    0.000;    0.000
333.061; 1146.700;    0.000;    0.000
333.120; 1199.700;    0.000;    0.000
333.178; 1263.700;    0.000;    0.000
333.237; 1281.700;    0.000;    0.000
333.295; 1257.700;    0.000;    0.000
333.354; 1255.700;    0.000;    0.000
333.412; 1191.700;    0.000;    0.000
333.471; 1337.700;    0.000;    0.000
333.529; 1304.700;    0.000;    0.000
333.588; 1344.700;    0.000;    0.000
333.646; 1359.700;    0.000;    0.000
333.705; 1369.700;    0.000;    0.000
333.763; 1410.700;    0.000;    0.000
333.822; 1350.700;    0.000;    0.000
333.880; 1286.700;    0.000;    0.000
333.938; 1315.700;    0.000;    0.000
333.997; 1292.700;    0.000;    0.000
334.055; 1301.700;    0.000;    0.000
334.114; 1359.700;    0.000;    0.000
334.172; 1221.700;    0.000;    0.000
334.230; 1265.700;    0.000;    0.000
334.289; 1382.700;    0.000;    0.000
334.347; 1298.700;    0.000;    0.000
334.405; 1391.700;    0.000;    0.000
334.464; 1342.700;    0.000;    0.000
334.522; 1296.700;    0.000;    0.000
334.580; 1305.700;    0.000;    0.000
334.639; 1287.700;    0.000;    0.000
334.697; 1329.700;    0.000;    0.000
334.755; 1327.700;    0.000;    0.000
334.814; 1312.700;    0.000;    0.000
334.872; 1272.700;    0.000;    0.000
334.930; 1245.700;    0.000;    0.000
334.988; 1298.700;    0.000;    0.000
335.047; 1349.700;    0.000;    0.000
335.105; 1290.700;    0.000;    0.000
335.163; 1336.700;    0.000;    0.000
335.221; 1346.700;    0.000;    0.000
335.280; 1317.700;    0.000;    0.000
335.338; 1272.700;    0.000;    0.000
335.396; 1327.700;    0.000;    0.000
335.454; 1270.700;    0.000;    0.000
335.512; 1315.700;    0.000;    0.000
335.570; 1318.700;    0.000;    0.000
335.629; 1372.700;    0.000;    0.000
335.687; 1465.700;    0.000;    0.000
335.745; 1475.700;    0.000;    0.000
335.803; 1597.700;    0.000;    0.000
335.861; 1541.700;    0.000;    0.000
335.919; 1506.700;    0.000;    0.000
335.977; 1466.700;    0.000;    0.000
336.035; 1465.700;    0.000;    0.000
336.094; 1524.700;    0.000;    0.000
336.152; 1470.700;    0.000;    0.000
336.210; 1529.700;    0.000;    0.000
336.268; 1609.700;    0.000;    0.000
336.326; 1454.700;    0.000;    0.000
336.384; 1488.700;    0.000;    0.000
336.442; 1461.700;    0.000;    0.000
336.500; 1420.700;    0.000;    0.000
336.558; 1420.700;    0.000;    0.000
336.616; 1459.700;    0.000;    0.000
336.674; 1398.700;    0.000;    0.000
336.732; 1444.700;    0.000;    0.000
336.790; 1440.700;    0.000;    0.000
336.848; 1530.700;    0.000;    0.000
336.906; 1429.700;    0.000;    0.000
336.964; 1445.700;    0.000;    0.000
337.022; 1402.700;    0.000;    0.000
337.080; 1418.700;    0.000;    0.000
337.138; 1415.700;    0.000;    0.000
337.195; 1434.700;    0.000;    0.000
337.253; 1420.700;    0.000;    0.000
337.311; 1427.700;    0.000;    0.000
337.369; 1417.700;    0.000;    0.000
337.427; 1375.700;    0.000;    0.000
337.485; 1387.700;    0.000;    0.000
337.543; 1282.700;    0.000;    0.000
337.601; 1399.700;    0.000;    0.000
337.658; 1406.700;    0.000;    0.000
337.716; 1379.700;    0.000;    0.000
337.774; 1333.700;    0.000;    0.000
337.832; 1399.700;    0.000;    0.000
337.890; 1321.700;    0.000;    0.000
337.947; 1305.700;    0.000;    0.000
338.005; 1347.700;    0.000;    0.000
338.063; 1324.700;    0.000;    0.000
338.121; 1407.700;    0.000;    0.000
338.178; 1430.700;    0.000;    0.000
338.236; 1414.700;    0.000;    0.000
338.294; 1391.700;    0.000;    0.000
338.352; 1412.700;    0.000;    0.000
338.409; 1413.700;    0.000;    0.000
338.467; 1299.700;    0.000;    0.000
338.525; 1277.700;    0.000;    0.000
338.583; 1303.700;    0.000;    0.000
338.640; 1344.700;    0.000;    0.000
338.698; 1356.700;    0.000;    0.000
338.756; 1419.700;    0.000;    0.000
338.813; 1440.700;    0.000;    0.000
338.871; 1503.700;    0.000;    0.000
338.928; 1426.700;    0.000;    0.000
338.986; 1466.700;    0.000;    0.000
339.044; 1413.700;    0.000;    0.000
339.101; 1386.700;    0.000;    0.000
339.159; 1449.700;    0.000;    0.000
339.216; 1439.700;    0.000;    0.000
339.274; 1447.700;    0.000;    0.000
339.332; 1510.700;    0.000;    0.000
339.389; 1493.700;    0.000;    0.000
339.447; 1430.700;    0.000;    0.000
339.504; 1401.700;    0.000;    0.000
339.562; 1415.700;    0.000;    0.000
339.619; 1429.700;    0.000;    0.000
339.677; 1428.700;    0.000;    0.000
339.734; 1403.700;    0.000;    0.000
339.792; 1394.700;    0.000;    0.000
339.849; 1349.700;    0.000;    0.000
339.907; 1392.700;    0.000;    0.000
339.964; 1366.700;    0.000;    0.000
340.022; 1403.700;    0.000;    0.000
340.079; 1375.700;    0.000;    0.000
340.137; 1400.700;    0.000;    0.000
340.194; 1430.700;    0.000;    0.000
340.252; 1393.700;    0.000;    0.000
340.309; 1385.700;    0.000;    0.000
340.366; 1431.700;    0.000;    0.000
340.424; 1452.700;    0.000;    0.000
340.481; 1417.700;    0.000;    0.000
340.538; 1458.700;    0.000;    0.000
340.596; 1440.700;    0.000;    0.000
340.653; 1533.700;    0.000;    0.000
340.711; 1526.700;    0.000;    0.000
340.768; 1632.700;    0.000;    0.000
340.825; 1533.700;    0.000;    0.000
340.883; 1540.700;    0.000;    0.000
340.940; 1490.700;    0.000;    0.000
340.997; 1475.700;    0.000;    0.000
341.054; 1456.700;    0.000;    0.000
341.112; 1474.700;    0.000;    0.000
341.169; 1528.700;    0.000;    0.000
341.226; 1543.700;    0.000;    0.000
341.284; 1557.700;    0.000;    0.000
341.341; 1564.700;    0.000;    0.000
341.398; 1525.700;    0.000;    0.000
341.455; 1522.700;    0.000;    0.000
341.512; 1589.700;    0.000;    0.000
341.570; 1514.700;    0.000;    0.000
341.627; 1582.700;    0.000;    0.000
341.684; 1378.700;    0.000;    0.000
341.741; 1639.700;    0.000;    0.000
341.798; 1498.700;    0.000;    0.000
341.856; 1455.700;    0.000;    0.000
341.913; 1539.700;    0.000;    0.000
341.970; 1627.700;    0.000;    0.000
342.027; 1527.700;    0.000;    0.000
342.084; 1599.700;    0.000;    0.000
342.141; 1593.700;    0.000;    0.000
342.198; 1585.700;    0.000;    0.000
342.255; 1545.700;    0.000;    0.000
342.313; 1559.700;    0.000;    0.000
342.370; 1475.700;    0.000;    0.000
342.427; 1380.700;    0.000;    0.000
342.484; 1380.700;    0.000;    0.000
342.541; 1392.700;    0.000;    0.000
342.598; 1411.700;    0.000;    0.000
342.655; 1413.700;    0.000;    0.000
342.712; 1484.700;    0.000;    0.000
342.769; 1494.700;    0.000;    0.000
342.826; 1476.700;    0.000;    0.000
342.883; 1339.700;    0.000;    0.000
342.940; 1340.700;    0.000;    0.000
342.997; 1354.700;    0.000;    0.000
343.054; 1335.700;    0.000;    0.000
343.111; 1346.700;    0.000;    0.000
343.168; 1375.700;    0.000;    0.000
343.225; 1426.700;    0.000;    0.000
343.282; 1391.700;    0.000;    0.000
343.339; 1451.700;    0.000;    0.000
343.395; 1453.700;    0.000;    0.000
343.452; 1429.700;    0.000;    0.000
343.509; 1357.700;    0.000;    0.000
343.566; 1385.700;    0.000;    0.000
343.623; 1413.700;    0.000;    0.000
343.680; 1354.700;    0.000;    0.000
343.737; 1380.700;    0.000;    0.000
343.794; 1276.700;    0.000;    0.000
343.850; 1364.700;    0.000;    0.000
343.907; 1294.700;    0.000;    0.000
343.964; 1343.700;    0.000;    0.000
344.021; 1410.700;    0.000;    0.000
344.078; 1434.700;    0.000;    0.000
344.134; 1440.700;    0.000;    0.000
344.191; 1497.700;    0.000;    0.000
344.248; 1525.700;    0.000;    0.000
344.305; 1487.700;    0.000;    0.000
344.361; 1417.700;    0.000;    0.000
344.418; 1402.700;    0.000;    0.000
344.475; 1450.700;    0.000;    0.000
344.532; 1482.700;    0.000;    0.000
344.588; 1419.700;    0.000;    0.000
344.645; 1444.700;    0.000;    0.000
344.702; 1481.700;    0.000;    0.000
344.758; 1469.700;    0.000;    0.000
344.815; 1343.700;    0.000;    0.000
344.872; 1419.700;    0.000;    0.000
344.928; 1432.700;    0.000;    0.000
344.985; 1378.700;    0.000;    0.000
345.042; 1494.700;    0.000;    0.000
345.098; 1501.700;    0.000;    0.000
345.155; 1377.700;    0.000;    0.000
345.212; 1392.700;    0.000;    0.000
345.268; 1409.700;    0.000;    0.000
345.325; 1475.700;    0.000;    0.000
345.381; 1520.700;    0.000;    0.000
345.438; 1572.700;    0.000;    0.000
345.495; 1560.700;    0.000;    0.000
345.551; 1548.700;    0.000;    0.000
345.608; 1495.700;    0.000;    0.000
345.664; 1432.700;    0.000;    0.000
345.721; 1438.700;    0.000;    0.000
345.777; 1436.700;    0.000;    0.000
345.834; 1322.700;    0.000;    0.000
345.890; 1349.700;    0.000;    0.000
345.947; 1432.700;    0.000;    0.000
346.003; 1497.700;    0.000;    0.000
346.060; 1416.700;    0.000;    0.000
346.116; 1357.700;    0.000;    0.000
346.173; 1438.700;    0.000;    0.000
346.229; 1406.700;    0.000;    0.000
346.285; 1374.700;    0.000;    0.000
346.342; 1370.700;    0.000;    0.000
346.398; 1452.700;    0.000;    0.000
346.455; 1577.700;    0.000;    0.000
346.511; 1619.700;    0.000;    0.000
346.567; 1557.700;    0.000;    0.000
346.624; 1579.700;    0.000;    0.000
346.680; 1550.700;    0.000;    0.000
346.737; 1572.700;    0.000;    0.000
346.793; 1579.700;    0.000;    0.000
346.849; 1604.700;    0.000;    0.000
346.906; 1595.700;    0.000;    0.000
346.962; 1621.700;    0.000;    0.000
347.018; 1624.700;    0.000;    0.000
347.074; 1541.700;    0.000;    0.000
347.131; 1564.700;    0.000;    0.000
347.187; 1535.700;    0.000;    0.000
347.243; 1552.700;    0.000;    0.000
347.300; 1522.700;    0.000;    0.000
347.356; 1598.700;    0.000;    0.000
347.412; 1484.700;    0.000;    0.000
347.468; 1517.700;    0.000;    0.000
347.524; 1388.700;    0.000;    0.000
347.581; 1355.700;    0.000;    0.000
347.637; 1489.700;    0.000;    0.000
347.693; 1440.700;    0.000;    0.000
347.749; 1394.700;    0.000;    0.000
347.805; 1390.700;    0.000;    0.000
347.862; 1357.700;    0.000;    0.000
347.918; 1418.700;    0.000;    0.000
347.974; 1362.700;    0.000;    0.000
348.030; 1363.700;    0.000;    0.000
348.086; 1317.700;    0.000;    0.000
348.142; 1372.700;    0.000;    0.000
348.198; 1393.700;    0.000;    0.000
348.254; 1531.700;    0.000;    0.000
348.311; 1441.700;    0.000;    0.000
348.367; 1458.700;    0.000;    0.000
348.423; 1360.700;    0.000;    0.000
348.479; 1338.700;    0.000;    0.000
348.535; 1337.700;    0.000;    0.000
348.591; 1374.700;    0.000;    0.000
348.647; 1371.700;    0.000;    0.000
348.703; 1392.700;    0.000;    0.000
348.759; 1365.700;    0.000;    0.000
348.815; 1392.700;    0.000;    0.000
348.871; 1415.700;    0.000;    0.000
348.927; 1315.700;    0.000;    0.000
348.983; 1466.700;    0.000;    0.000
349.039; 1360.700;    0.000;    0.000
349.095; 1434.700;    0.000;    0.000
349.151; 1475.700;    0.000;    0.000
349.207; 1343.700;    0.000;    0.000
349.263; 1405.700;    0.000;    0.000
349.319; 1372.700;    0.000;    0.000
349.374; 1433.700;    0.000;    0.000
349.430; 1385.700;    0.000;    0.000
349.486; 1485.700;    0.000;    0.000
349.542; 1466.700;    0.000;    0.000
349.598; 1368.700;    0.000;    0.000
349.654; 1416.700;    0.000;    0.000
349.710; 1404.700;    0.000;    0.000
349.766; 1416.700;    0.000;    0.000
349.821; 1429.700;    0.000;    0.000
349.877; 1434.700;    0.000;    0.000
349.933; 1402.700;    0.000;    0.000
349.989; 1460.700;    0.000;    0.000
350.045; 1416.700;    0.000;    0.000
350.100; 1408.700;    0.000;    0.000
350.156; 1437.700;    0.000;    0.000
350.212; 1453.700;    0.000;    0.000
350.268; 1416.700;    0.000;    0.000
350.323; 1382.700;    0.000;    0.000
350.379; 1446.700;    0.000;    0.000
350.435; 1364.700;    0.000;    0.000
350.491; 1364.700;    0.000;    0.000
350.546; 1432.700;    0.000;    0.000
350.602; 1405.700;    0.000;    0.000
350.658; 1395.700;    0.000;    0.000
350.713; 1410.700;    0.000;    0.000
350.769; 1392.700;    0.000;    0.000
350.825; 1382.700;    0.000;    0.000
350.880; 1378.700;    0.000;    0.000
350.936; 1389.700;    0.000;    0.000
350.992; 1355.700;    0.000;    0.000
351.047; 1434.700;    0.000;    0.000
351.103; 1449.700;    0.000;    0.000
351.158; 1401.700;    0.000;    0.000
351.214; 1346.700;    0.000;    0.000
351.270; 1289.700;    0.000;    0.000
351.325; 1333.700;    0.000;    0.000
351.381; 1418.700;    0.000;    0.000
351.436; 1450.700;    0.000;    0.000
351.492; 1431.700;    0.000;    0.000
351.547; 1524.700;    0.000;    0.000
351.603; 1444.700;    0.000;    0.000
351.658; 1471.700;    0.000;    0.000
351.714; 1473.700;    0.000;    0.000
351.769; 1461.700;    0.000;    0.000
351.825; 1546.700;    0.000;    0.000
351.880; 1464.700;    0.000;    0.000
351.936; 1529.700;    0.000;    0.000
351.991; 1514.700;    0.000;    0.000
352.047; 1514.700;    0.000;    0.000
352.102; 1427.700;    0.000;    0.000
352.158; 1406.700;    0.000;    0.000
352.213; 1406.700;    0.000;    0.000
352.268; 1359.700;    0.000;    0.000
352.324; 1411.700;    0.000;    0.000
352.379; 1401.700;    0.000;    0.000
352.434; 1451.700;    0.000;    0.000
352.490; 1395.700;    0.000;    0.000
352.545; 1403.700;    0.000;    0.000
352.601; 1399.700;    0.000;    0.000
352.656; 1316.700;    0.000;    0.000
352.711; 1317.700;    0.000;    0.000
352.767; 1253.700;    0.000;    0.000
352.822; 1289.700;    0.000;    0.000
352.877; 1299.700;    0.000;    0.000
352.932; 1334.700;    0.000;    0.000
352.988; 1370.700;    0.000;    0.000
353.043; 1398.700;    0.000;    0.000
353.098; 1334.700;    0.000;    0.000
353.153; 1451.700;    0.000;    0.000
353.209; 1331.700;    0.000;    0.000
353.264; 1253.700;    0.000;    0.000
353.319; 1257.700;    0.000;    0.000
353.374; 1303.700;    0.000;    0.000
353.430; 1347.700;    0.000;    0.000
353.485; 1311.700;    0.000;    0.000
353.540; 1322.700;    0.000;    0.000
353.595; 1284.700;    0.000;    0.000
353.650; 1311.700;    0.000;    0.000
353.705; 1287.700;    0.000;    0.000
353.761; 1249.700;    0.000;    0.000
353.816; 1267.700;    0.000;    0.000
353.871; 1304.700;    0.000;    0.000
353.926; 1313.700;    0.000;    0.000
353.981; 1257.700;    0.000;    0.000
354.036; 1234.700;    0.000;    0.000
354.091; 1229.700;    0.000;    0.000
354.146; 1240.700;    0.000;    0.000
354.201; 1260.700;    0.000;    0.000
354.256; 1238.700;    0.000;    0.000
354.311; 1323.700;    0.000;    0.000
354.367; 1270.700;    0.000;    0.000
354.422; 1290.700;    0.000;    0.000
354.477; 1244.700;    0.000;    0.000
354.532; 1333.700;    0.000;    0.000
354.587; 1331.700;    0.000;    0.000
354.642; 1289.700;    0.000;    0.000
354.697; 1369.700;    0.000;    0.000
354.751; 1346.700;    0.000;    0.000
354.806; 1372.700;    0.000;    0.000
354.861; 1419.700;    0.000;    0.000
354.916; 1342.700;    0.000;    0.000
354.971; 1326.700;    0.000;    0.000
355.026; 1283.700;    0.000;    0.000
355.081; 1272.700;    0.000;    0.000
355.136; 1267.700;    0.000;    0.000
355.191; 1273.700;    0.000;    0.000
355.246; 1281.700;    0.000;    0.000
355.301; 1287.700;    0.000;    0.000
355.355; 1310.700;    0.000;    0.000
355.410; 1333.700;    0.000;    0.000
355.465; 1304.700;    0.000;    0.000
355.520; 1336.700;    0.000;    0.000
355.575; 1273.700;    0.000;    0.000
355.630; 1239.700;    0.000;    0.000
355.684; 1232.700;    0.000;    0.000
355.739; 1248.700;    0.000;    0.000
355.794; 1206.700;    0.000;    0.000
355.849; 1262.700;    0.000;    0.000
355.904; 1311.700;    0.000;    0.000
355.958; 1254.700;    0.000;    0.000
356.013; 1218.700;    0.000;    0.000
356.068; 1257.700;    0.000;    0.000
356.123; 1327.700;    0.000;    0.000
356.177; 1309.700;    0.000;    0.000
356.232; 1391.700;    0.000;    0.000
356.287; 1433.700;    0.000;    0.000
356.341; 1366.700;    0.000;    0.000
356.396; 1329.700;    0.000;    0.000
356.451; 1294.700;    0.000;    0.000
356.505; 1279.700;    0.000;    0.000
356.560; 1272.700;    0.000;    0.000
356.615; 1207.700;    0.000;    0.000
356.669; 1260.700;    0.000;    0.000
356.724; 1253.700;    0.000;    0.000
356.778; 1215.700;    0.000;    0.000
356.833; 1244.700;    0.000;    0.000
356.888; 1227.700;    0.000;    0.000
356.942; 1186.700;    0.000;    0.000
356.997; 1214.700;    0.000;    0.000
357.051; 1153.700;    0.000;    0.000
357.106; 1188.700;    0.000;    0.000
357.160; 1175.700;    0.000;    0.000
357.215; 1179.700;    0.000;    0.000
357.269; 1261.700;    0.000;    0.000
357.324; 1170.700;    0.000;    0.000
357.378; 1148.700;    0.000;    0.000
357.433; 1201.700;    0.000;    0.000
357.487; 1189.700;    0.000;    0.000
357.542; 1140.700;    0.000;    0.000
357.596; 1137.700;    0.000;    0.000
357.651; 1196.700;    0.000;    0.000
357.705; 1190.700;    0.000;    0.000
357.760; 1178.700;    0.000;    0.000
357.814; 1158.700;    0.000;    0.000
357.868; 1144.700;    0.000;    0.000
357.923; 1174.700;    0.000;    0.000
357.977; 1187.700;    0.000;    0.000
358.032; 1171.700;    0.000;    0.000
358.086; 1221.700;    0.000;    0.000
358.140; 1170.700;    0.000;    0.000
358.195; 1237.700;    0.000;    0.000
358.249; 1177.700;    0.000;    0.000
358.303; 1153.700;    0.000;    0.000
358.358; 1142.700;    0.000;    0.000
358.412; 1161.700;    0.000;    0.000
358.466; 1210.700;    0.000;    0.000
358.521; 1142.700;    0.000;    0.000
358.575; 1128.700;    0.000;    0.000
358.629; 1199.700;    0.000;    0.000
358.683; 1148.700;    0.000;    0.000
358.738; 1139.700;    0.000;    0.000
358.792; 1135.700;    0.000;    0.000
358.846; 1198.700;    0.000;    0.000
358.900; 1189.700;    0.000;    0.000
358.954; 1196.700;    0.000;    0.000
359.009; 1177.700;    0.000;    0.000
359.063; 1177.700;    0.000;    0.000
359.117; 1203.700;    0.000;    0.000
359.171; 1242.700;    0.000;    0.000
359.225; 1228.700;    0.000;    0.000
359.280; 1172.700;    0.000;    0.000
359.334; 1150.700;    0.000;    0.000
359.388; 1233.700;    0.000;    0.000
359.442; 1203.700;    0.000;    0.000
359.496; 1096.700;    0.000;    0.000
359.550; 1200.700;    0.000;    0.000
359.604; 1111.700;    0.000;    0.000
359.658; 1140.700;    0.000;    0.000
359.712; 1111.700;    0.000;    0.000
359.766; 1106.700;    0.000;    0.000
359.820; 1182.700;    0.000;    0.000
359.875; 1125.700;    0.000;    0.000
359.929; 1180.700;    0.000;    0.000
359.983; 1059.700;    0.000;    0.000
360.037; 1113.700;    0.000;    0.000
360.091; 1161.700;    0.000;    0.000
360.145; 1148.700;    0.000;    0.000
360.199; 1116.700;    0.000;    0.000
360.253; 1135.700;    0.000;    0.000
360.306; 1164.700;    0.000;    0.000
360.360; 1112.700;    0.000;    0.000
360.414; 1090.700;    0.000;    0.000
360.468; 1132.700;    0.000;    0.000
360.522; 1099.700;    0.000;    0.000
360.576; 1106.700;    0.000;    0.000
360.630; 1152.700;    0.000;    0.000
360.684; 1133.700;    0.000;    0.000
360.738; 1142.700;    0.000;    0.000
360.792; 1087.700;    0.000;    0.000
360.846; 1167.700;    0.000;    0.000
360.899; 1156.700;    0.000;    0.000
360.953; 1066.700;    0.000;    0.000
361.007; 1177.700;    0.000;    0.000
361.061; 1189.700;    0.000;    0.000
361.115; 1097.700;    0.000;    0.000
361.168; 1114.700;    0.000;    0.000
361.222; 1103.700;    0.000;    0.000
361.276; 1154.700;    0.000;    0.000
361.330; 1140.700;    0.000;    0.000
361.384; 1150.700;    0.000;    0.000
361.437; 1161.700;    0.000;    0.000
361.491; 1095.700;    0.000;    0.000
361.545; 1123.700;    0.000;    0.000
361.599; 1062.700;    0.000;    0.000
361.652; 1119.700;    0.000;    0.000
361.706; 1092.700;    0.000;    0.000
361.760; 1079.700;    0.000;    0.000
361.813; 1147.700;    0.000;    0.000
361.867; 1153.700;    0.000;    0.000
361.921; 1063.700;    0.000;    0.000
361.974; 1100.700;    0.000;    0.000
362.028; 1073.700;    0.000;    0.000
362.082; 1081.700;    0.000;    0.000
362.135; 1126.700;    0.000;    0.000
362.189; 1081.700;    0.000;    0.000
362.242; 1086.700;    0.000;    0.000
362.296; 1104.700;    0.000;    0.000
362.350; 1100.700;    0.000;    0.000
362.403; 1085.700;    0.000;    0.000
362.457; 1080.700;    0.000;    0.000
362.510; 1153.700;    0.000;    0.000
362.564; 1070.700;    0.000;    0.000
362.617; 1064.700;    0.000;    0.000
362.671; 1128.700;    0.000;    0.000
362.724;  998.700;    0.000;    0.000
362.778; 1080.700;    0.000;    0.000
362.831; 1091.700;    0.000;    0.000
362.885; 1084.700;    0.000;    0.000
362.938;  998.700;    0.000;    0.000
362.992;  399.700;    0.000;    0.000
363.045;  314.700;    0.000;    0.000
363.099;  315.700;    0.000;    0.000
363.152;  320.700;    0.000;    0.000
363.205;  275.700;    0.000;    0.000
363.259;  297.700;    0.000;    0.000
363.312;  297.700;    0.000;    0.000
363.366;  319.700;    0.000;    0.000
363.419;  296.700;    0.000;    0.000
363.472;  297.700;    0.000;    0.000
363.526;  286.700;    0.000;    0.000
363.579;  264.700;    0.000;    0.000
363.632;  287.700;    0.000;    0.000
363.686;  286.700;    0.000;    0.000
363.739;  296.700;    0.000;    0.000
363.792;  287.700;    0.000;    0.000

