Sulfato50_position3_Burst5_n5
Integration time [ms]:   1.000
Averaging Nr. [scans]: 1
Smoothing Nr. [pixels]: 0
Data measured with spectrometer [name]: VIS
Wave   ;Sample   ;Dark     ;Reference
[nm]   ;[counts] ;[counts] ;[counts] 

450.961;  184.325;    0.000;    0.000
451.100;  213.325;    0.000;    0.000
451.239;  215.325;    0.000;    0.000
451.377;  205.325;    0.000;    0.000
451.516;  203.325;    0.000;    0.000
451.655;  194.325;    0.000;    0.000
451.794;  227.325;    0.000;    0.000
451.932;  238.325;    0.000;    0.000
452.071;  229.325;    0.000;    0.000
452.210;  212.325;    0.000;    0.000
452.348;  231.325;    0.000;    0.000
452.487;  218.325;    0.000;    0.000
452.626;  213.325;    0.000;    0.000
452.764;  233.325;    0.000;    0.000
452.903;  180.325;    0.000;    0.000
453.042;  298.325;    0.000;    0.000
453.180; 3835.325;    0.000;    0.000
453.319; 3827.325;    0.000;    0.000
453.458; 4037.325;    0.000;    0.000
453.596; 4052.325;    0.000;    0.000
453.735; 4073.325;    0.000;    0.000
453.873; 4168.325;    0.000;    0.000
454.012; 3998.325;    0.000;    0.000
454.150; 4155.325;    0.000;    0.000
454.289; 4190.325;    0.000;    0.000
454.427; 4273.325;    0.000;    0.000
454.566; 4338.325;    0.000;    0.000
454.705; 4317.325;    0.000;    0.000
454.843; 4354.325;    0.000;    0.000
454.981; 4413.325;    0.000;    0.000
455.120; 4419.325;    0.000;    0.000
455.258; 4483.325;    0.000;    0.000
455.397; 4481.325;    0.000;    0.000
455.535; 4619.325;    0.000;    0.000
455.674; 4569.325;    0.000;    0.000
455.812; 4650.325;    0.000;    0.000
455.950; 4698.325;    0.000;    0.000
456.089; 4747.325;    0.000;    0.000
456.227; 4766.325;    0.000;    0.000
456.366; 4867.325;    0.000;    0.000
456.504; 4899.325;    0.000;    0.000
456.642; 5031.325;    0.000;    0.000
456.781; 4906.325;    0.000;    0.000
456.919; 4789.325;    0.000;    0.000
457.057; 4794.325;    0.000;    0.000
457.196; 4866.325;    0.000;    0.000
457.334; 4898.325;    0.000;    0.000
457.472; 4947.325;    0.000;    0.000
457.610; 5085.325;    0.000;    0.000
457.749; 5183.325;    0.000;    0.000
457.887; 5215.325;    0.000;    0.000
458.025; 5363.325;    0.000;    0.000
458.163; 5562.325;    0.000;    0.000
458.301; 5393.325;    0.000;    0.000
458.440; 5532.325;    0.000;    0.000
458.578; 5636.325;    0.000;    0.000
458.716; 5550.325;    0.000;    0.000
458.854; 5651.325;    0.000;    0.000
458.992; 5741.325;    0.000;    0.000
459.130; 5818.325;    0.000;    0.000
459.269; 5928.325;    0.000;    0.000
459.407; 5749.325;    0.000;    0.000
459.545; 5820.325;    0.000;    0.000
459.683; 6029.325;    0.000;    0.000
459.821; 6057.325;    0.000;    0.000
459.959; 6130.325;    0.000;    0.000
460.097; 6157.325;    0.000;    0.000
460.235; 6224.325;    0.000;    0.000
460.373; 6247.325;    0.000;    0.000
460.511; 6329.325;    0.000;    0.000
460.649; 6055.325;    0.000;    0.000
460.787; 6329.325;    0.000;    0.000
460.925; 6360.325;    0.000;    0.000
461.063; 6398.325;    0.000;    0.000
461.201; 6417.325;    0.000;    0.000
461.339; 6530.325;    0.000;    0.000
461.477; 6575.325;    0.000;    0.000
461.615; 6550.325;    0.000;    0.000
461.753; 6639.325;    0.000;    0.000
461.891; 6595.325;    0.000;    0.000
462.029; 6817.325;    0.000;    0.000
462.166; 6760.325;    0.000;    0.000
462.304; 6851.325;    0.000;    0.000
462.442; 6960.325;    0.000;    0.000
462.580; 6938.325;    0.000;    0.000
462.718; 7061.325;    0.000;    0.000
462.856; 7060.325;    0.000;    0.000
462.993; 6898.325;    0.000;    0.000
463.131; 7028.325;    0.000;    0.000
463.269; 7001.325;    0.000;    0.000
463.407; 7069.325;    0.000;    0.000
463.545; 7040.325;    0.000;    0.000
463.682; 6955.325;    0.000;    0.000
463.820; 6910.325;    0.000;    0.000
463.958; 7253.325;    0.000;    0.000
464.095; 7261.325;    0.000;    0.000
464.233; 7404.325;    0.000;    0.000
464.371; 7342.325;    0.000;    0.000
464.509; 7325.325;    0.000;    0.000
464.646; 7383.325;    0.000;    0.000
464.784; 7181.325;    0.000;    0.000
464.921; 7236.325;    0.000;    0.000
465.059; 6927.325;    0.000;    0.000
465.197; 7003.325;    0.000;    0.000
465.334; 6928.325;    0.000;    0.000
465.472; 6805.325;    0.000;    0.000
465.609; 6702.325;    0.000;    0.000
465.747; 6718.325;    0.000;    0.000
465.885; 6816.325;    0.000;    0.000
466.022; 6748.325;    0.000;    0.000
466.160; 6629.325;    0.000;    0.000
466.297; 6649.325;    0.000;    0.000
466.435; 6683.325;    0.000;    0.000
466.572; 6728.325;    0.000;    0.000
466.710; 6550.325;    0.000;    0.000
466.847; 6623.325;    0.000;    0.000
466.985; 6597.325;    0.000;    0.000
467.122; 6646.325;    0.000;    0.000
467.260; 6510.325;    0.000;    0.000
467.397; 6467.325;    0.000;    0.000
467.534; 6536.325;    0.000;    0.000
467.672; 6447.325;    0.000;    0.000
467.809; 6563.325;    0.000;    0.000
467.947; 6601.325;    0.000;    0.000
468.084; 6616.325;    0.000;    0.000
468.221; 6486.325;    0.000;    0.000
468.359; 6468.325;    0.000;    0.000
468.496; 6594.325;    0.000;    0.000
468.633; 6477.325;    0.000;    0.000
468.771; 6510.325;    0.000;    0.000
468.908; 6457.325;    0.000;    0.000
469.045; 6486.325;    0.000;    0.000
469.183; 6675.325;    0.000;    0.000
469.320; 6669.325;    0.000;    0.000
469.457; 6711.325;    0.000;    0.000
469.594; 6573.325;    0.000;    0.000
469.732; 6711.325;    0.000;    0.000
469.869; 6696.325;    0.000;    0.000
470.006; 6865.325;    0.000;    0.000
470.143; 6812.325;    0.000;    0.000
470.280; 6901.325;    0.000;    0.000
470.417; 6830.325;    0.000;    0.000
470.555; 6974.325;    0.000;    0.000
470.692; 6789.325;    0.000;    0.000
470.829; 6756.325;    0.000;    0.000
470.966; 6765.325;    0.000;    0.000
471.103; 6655.325;    0.000;    0.000
471.240; 6665.325;    0.000;    0.000
471.377; 6809.325;    0.000;    0.000
471.514; 6794.325;    0.000;    0.000
471.651; 6703.325;    0.000;    0.000
471.789; 6702.325;    0.000;    0.000
471.926; 6727.325;    0.000;    0.000
472.063; 6743.325;    0.000;    0.000
472.200; 6837.325;    0.000;    0.000
472.337; 6520.325;    0.000;    0.000
472.474; 6561.325;    0.000;    0.000
472.611; 6614.325;    0.000;    0.000
472.748; 6538.325;    0.000;    0.000
472.884; 6707.325;    0.000;    0.000
473.021; 6504.325;    0.000;    0.000
473.158; 6551.325;    0.000;    0.000
473.295; 6605.325;    0.000;    0.000
473.432; 6511.325;    0.000;    0.000
473.569; 6538.325;    0.000;    0.000
473.706; 6484.325;    0.000;    0.000
473.843; 6550.325;    0.000;    0.000
473.980; 6531.325;    0.000;    0.000
474.117; 6634.325;    0.000;    0.000
474.253; 6501.325;    0.000;    0.000
474.390; 6512.325;    0.000;    0.000
474.527; 6617.325;    0.000;    0.000
474.664; 6534.325;    0.000;    0.000
474.801; 6607.325;    0.000;    0.000
474.937; 6437.325;    0.000;    0.000
475.074; 6660.325;    0.000;    0.000
475.211; 6655.325;    0.000;    0.000
475.348; 6687.325;    0.000;    0.000
475.484; 6618.325;    0.000;    0.000
475.621; 6455.325;    0.000;    0.000
475.758; 6602.325;    0.000;    0.000
475.894; 6546.325;    0.000;    0.000
476.031; 6562.325;    0.000;    0.000
476.168; 6529.325;    0.000;    0.000
476.304; 6602.325;    0.000;    0.000
476.441; 6823.325;    0.000;    0.000
476.578; 6681.325;    0.000;    0.000
476.714; 6685.325;    0.000;    0.000
476.851; 6721.325;    0.000;    0.000
476.987; 6737.325;    0.000;    0.000
477.124; 6874.325;    0.000;    0.000
477.261; 6871.325;    0.000;    0.000
477.397; 6899.325;    0.000;    0.000
477.534; 6843.325;    0.000;    0.000
477.670; 6855.325;    0.000;    0.000
477.807; 6935.325;    0.000;    0.000
477.943; 6920.325;    0.000;    0.000
478.080; 6902.325;    0.000;    0.000
478.216; 6976.325;    0.000;    0.000
478.353; 6994.325;    0.000;    0.000
478.489; 7146.325;    0.000;    0.000
478.626; 7060.325;    0.000;    0.000
478.762; 7169.325;    0.000;    0.000
478.898; 7248.325;    0.000;    0.000
479.035; 7269.325;    0.000;    0.000
479.171; 6915.325;    0.000;    0.000
479.308; 7124.325;    0.000;    0.000
479.444; 7049.325;    0.000;    0.000
479.580; 7020.325;    0.000;    0.000
479.717; 7067.325;    0.000;    0.000
479.853; 7178.325;    0.000;    0.000
479.989; 7176.325;    0.000;    0.000
480.126; 7163.325;    0.000;    0.000
480.262; 7218.325;    0.000;    0.000
480.398; 7366.325;    0.000;    0.000
480.535; 7161.325;    0.000;    0.000
480.671; 7168.325;    0.000;    0.000
480.807; 7148.325;    0.000;    0.000
480.943; 7215.325;    0.000;    0.000
481.080; 7085.325;    0.000;    0.000
481.216; 7263.325;    0.000;    0.000
481.352; 7106.325;    0.000;    0.000
481.488; 7080.325;    0.000;    0.000
481.624; 7120.325;    0.000;    0.000
481.761; 7139.325;    0.000;    0.000
481.897; 7142.325;    0.000;    0.000
482.033; 7177.325;    0.000;    0.000
482.169; 7090.325;    0.000;    0.000
482.305; 7052.325;    0.000;    0.000
482.441; 6724.325;    0.000;    0.000
482.577; 7039.325;    0.000;    0.000
482.713; 7059.325;    0.000;    0.000
482.849; 7051.325;    0.000;    0.000
482.985; 7064.325;    0.000;    0.000
483.121; 6896.325;    0.000;    0.000
483.257; 7000.325;    0.000;    0.000
483.394; 7090.325;    0.000;    0.000
483.530; 7038.325;    0.000;    0.000
483.666; 7002.325;    0.000;    0.000
483.801; 6990.325;    0.000;    0.000
483.937; 7078.325;    0.000;    0.000
484.073; 7021.325;    0.000;    0.000
484.209; 6931.325;    0.000;    0.000
484.345; 7037.325;    0.000;    0.000
484.481; 6945.325;    0.000;    0.000
484.617; 7175.325;    0.000;    0.000
484.753; 7009.325;    0.000;    0.000
484.889; 6914.325;    0.000;    0.000
485.025; 7121.325;    0.000;    0.000
485.161; 6973.325;    0.000;    0.000
485.296; 7074.325;    0.000;    0.000
485.432; 7061.325;    0.000;    0.000
485.568; 7233.325;    0.000;    0.000
485.704; 7091.325;    0.000;    0.000
485.840; 7135.325;    0.000;    0.000
485.975; 7007.325;    0.000;    0.000
486.111; 7043.325;    0.000;    0.000
486.247; 7011.325;    0.000;    0.000
486.383; 7014.325;    0.000;    0.000
486.518; 7054.325;    0.000;    0.000
486.654; 7066.325;    0.000;    0.000
486.790; 7056.325;    0.000;    0.000
486.926; 7012.325;    0.000;    0.000
487.061; 6999.325;    0.000;    0.000
487.197; 7009.325;    0.000;    0.000
487.333; 7131.325;    0.000;    0.000
487.468; 6960.325;    0.000;    0.000
487.604; 7060.325;    0.000;    0.000
487.739; 7028.325;    0.000;    0.000
487.875; 7071.325;    0.000;    0.000
488.011; 7038.325;    0.000;    0.000
488.146; 7048.325;    0.000;    0.000
488.282; 6972.325;    0.000;    0.000
488.417; 7108.325;    0.000;    0.000
488.553; 7116.325;    0.000;    0.000
488.688; 7049.325;    0.000;    0.000
488.824; 7038.325;    0.000;    0.000
488.960; 7178.325;    0.000;    0.000
489.095; 7124.325;    0.000;    0.000
489.230; 7084.325;    0.000;    0.000
489.366; 7165.325;    0.000;    0.000
489.501; 7125.325;    0.000;    0.000
489.637; 7037.325;    0.000;    0.000
489.772; 7158.325;    0.000;    0.000
489.908; 7006.325;    0.000;    0.000
490.043; 7209.325;    0.000;    0.000
490.179; 7241.325;    0.000;    0.000
490.314; 7219.325;    0.000;    0.000
490.449; 7155.325;    0.000;    0.000
490.585; 7129.325;    0.000;    0.000
490.720; 7195.325;    0.000;    0.000
490.855; 7119.325;    0.000;    0.000
490.991; 6998.325;    0.000;    0.000
491.126; 7216.325;    0.000;    0.000
491.261; 7115.325;    0.000;    0.000
491.396; 7030.325;    0.000;    0.000
491.532; 7296.325;    0.000;    0.000
491.667; 7109.325;    0.000;    0.000
491.802; 7094.325;    0.000;    0.000
491.937; 7098.325;    0.000;    0.000
492.073; 7229.325;    0.000;    0.000
492.208; 7266.325;    0.000;    0.000
492.343; 7315.325;    0.000;    0.000
492.478; 7209.325;    0.000;    0.000
492.613; 7345.325;    0.000;    0.000
492.749; 7151.325;    0.000;    0.000
492.884; 7123.325;    0.000;    0.000
493.019; 7340.325;    0.000;    0.000
493.154; 7247.325;    0.000;    0.000
493.289; 7129.325;    0.000;    0.000
493.424; 7230.325;    0.000;    0.000
493.559; 7236.325;    0.000;    0.000
493.694; 7232.325;    0.000;    0.000
493.829; 7280.325;    0.000;    0.000
493.964; 7251.325;    0.000;    0.000
494.099; 7283.325;    0.000;    0.000
494.234; 7280.325;    0.000;    0.000
494.369; 7220.325;    0.000;    0.000
494.504; 7344.325;    0.000;    0.000
494.639; 7226.325;    0.000;    0.000
494.774; 7212.325;    0.000;    0.000
494.909; 7334.325;    0.000;    0.000
495.044; 7120.325;    0.000;    0.000
495.179; 7276.325;    0.000;    0.000
495.314; 7237.325;    0.000;    0.000
495.449; 7376.325;    0.000;    0.000
495.584; 7247.325;    0.000;    0.000
495.719; 7348.325;    0.000;    0.000
495.854; 7350.325;    0.000;    0.000
495.988; 7385.325;    0.000;    0.000
496.123; 7308.325;    0.000;    0.000
496.258; 7490.325;    0.000;    0.000
496.393; 7390.325;    0.000;    0.000
496.528; 7483.325;    0.000;    0.000
496.663; 7505.325;    0.000;    0.000
496.797; 7530.325;    0.000;    0.000
496.932; 7715.325;    0.000;    0.000
497.067; 7727.325;    0.000;    0.000
497.202; 7828.325;    0.000;    0.000
497.336; 7755.325;    0.000;    0.000
497.471; 7915.325;    0.000;    0.000
497.606; 7982.325;    0.000;    0.000
497.740; 8036.325;    0.000;    0.000
497.875; 8074.325;    0.000;    0.000
498.010; 8274.325;    0.000;    0.000
498.144; 8276.325;    0.000;    0.000
498.279; 8507.325;    0.000;    0.000
498.414; 8656.325;    0.000;    0.000
498.548; 8751.325;    0.000;    0.000
498.683; 8729.325;    0.000;    0.000
498.817; 8810.325;    0.000;    0.000
498.952; 9058.325;    0.000;    0.000
499.087; 9108.325;    0.000;    0.000
499.221; 9476.325;    0.000;    0.000
499.356; 9427.325;    0.000;    0.000
499.490; 9427.325;    0.000;    0.000
499.625; 9975.325;    0.000;    0.000
499.759;10208.325;    0.000;    0.000
499.894;10128.325;    0.000;    0.000
500.028;10510.325;    0.000;    0.000
500.162;10558.325;    0.000;    0.000
500.297;10676.325;    0.000;    0.000
500.431;10612.325;    0.000;    0.000
500.566;10718.325;    0.000;    0.000
500.700;10571.325;    0.000;    0.000
500.835;10453.325;    0.000;    0.000
500.969;10200.325;    0.000;    0.000
501.103;10144.325;    0.000;    0.000
501.238;10129.325;    0.000;    0.000
501.372; 9650.325;    0.000;    0.000
501.506; 9343.325;    0.000;    0.000
501.641; 9270.325;    0.000;    0.000
501.775; 8966.325;    0.000;    0.000
501.909; 8969.325;    0.000;    0.000
502.043; 8701.325;    0.000;    0.000
502.178; 8690.325;    0.000;    0.000
502.312; 8497.325;    0.000;    0.000
502.446; 8307.325;    0.000;    0.000
502.580; 8227.325;    0.000;    0.000
502.715; 8095.325;    0.000;    0.000
502.849; 7859.325;    0.000;    0.000
502.983; 7933.325;    0.000;    0.000
503.117; 7938.325;    0.000;    0.000
503.251; 7828.325;    0.000;    0.000
503.385; 7662.325;    0.000;    0.000
503.520; 7624.325;    0.000;    0.000
503.654; 7463.325;    0.000;    0.000
503.788; 7517.325;    0.000;    0.000
503.922; 7410.325;    0.000;    0.000
504.056; 7307.325;    0.000;    0.000
504.190; 7204.325;    0.000;    0.000
504.324; 7338.325;    0.000;    0.000
504.458; 7131.325;    0.000;    0.000
504.592; 7207.325;    0.000;    0.000
504.726; 7092.325;    0.000;    0.000
504.860; 7174.325;    0.000;    0.000
504.994; 6927.325;    0.000;    0.000
505.128; 6804.325;    0.000;    0.000
505.262; 6604.325;    0.000;    0.000
505.396; 6538.325;    0.000;    0.000
505.530; 6717.325;    0.000;    0.000
505.664; 6494.325;    0.000;    0.000
505.798; 6496.325;    0.000;    0.000
505.932; 6554.325;    0.000;    0.000
506.066; 6417.325;    0.000;    0.000
506.199; 6299.325;    0.000;    0.000
506.333; 6263.325;    0.000;    0.000
506.467; 6314.325;    0.000;    0.000
506.601; 6211.325;    0.000;    0.000
506.735; 6115.325;    0.000;    0.000
506.869; 6158.325;    0.000;    0.000
507.002; 6196.325;    0.000;    0.000
507.136; 6117.325;    0.000;    0.000
507.270; 6132.325;    0.000;    0.000
507.404; 6096.325;    0.000;    0.000
507.537; 5871.325;    0.000;    0.000
507.671; 6098.325;    0.000;    0.000
507.805; 6029.325;    0.000;    0.000
507.939; 5920.325;    0.000;    0.000
508.072; 5976.325;    0.000;    0.000
508.206; 5858.325;    0.000;    0.000
508.340; 5869.325;    0.000;    0.000
508.473; 5777.325;    0.000;    0.000
508.607; 6050.325;    0.000;    0.000
508.740; 5722.325;    0.000;    0.000
508.874; 5847.325;    0.000;    0.000
509.008; 5883.325;    0.000;    0.000
509.141; 5627.325;    0.000;    0.000
509.275; 5733.325;    0.000;    0.000
509.408; 5787.325;    0.000;    0.000
509.542; 5704.325;    0.000;    0.000
509.675; 5692.325;    0.000;    0.000
509.809; 5736.325;    0.000;    0.000
509.942; 5635.325;    0.000;    0.000
510.076; 5754.325;    0.000;    0.000
510.209; 5646.325;    0.000;    0.000
510.343; 5468.325;    0.000;    0.000
510.476; 5642.325;    0.000;    0.000
510.610; 5622.325;    0.000;    0.000
510.743; 5609.325;    0.000;    0.000
510.877; 5399.325;    0.000;    0.000
511.010; 5502.325;    0.000;    0.000
511.143; 5451.325;    0.000;    0.000
511.277; 5445.325;    0.000;    0.000
511.410; 5381.325;    0.000;    0.000
511.543; 5516.325;    0.000;    0.000
511.677; 5507.325;    0.000;    0.000
511.810; 5522.325;    0.000;    0.000
511.943; 5537.325;    0.000;    0.000
512.077; 5413.325;    0.000;    0.000
512.210; 5426.325;    0.000;    0.000
512.343; 5452.325;    0.000;    0.000
512.476; 5503.325;    0.000;    0.000
512.610; 5533.325;    0.000;    0.000
512.743; 5475.325;    0.000;    0.000
512.876; 5383.325;    0.000;    0.000
513.009; 5590.325;    0.000;    0.000
513.142; 5554.325;    0.000;    0.000
513.276; 5555.325;    0.000;    0.000
513.409; 5560.325;    0.000;    0.000
513.542; 5508.325;    0.000;    0.000
513.675; 5373.325;    0.000;    0.000
513.808; 5265.325;    0.000;    0.000
513.941; 5376.325;    0.000;    0.000
514.074; 5454.325;    0.000;    0.000
514.207; 5462.325;    0.000;    0.000
514.340; 5439.325;    0.000;    0.000
514.474; 5523.325;    0.000;    0.000
514.607; 5470.325;    0.000;    0.000
514.740; 5555.325;    0.000;    0.000
514.873; 5629.325;    0.000;    0.000
515.006; 5598.325;    0.000;    0.000
515.139; 5552.325;    0.000;    0.000
515.272; 5613.325;    0.000;    0.000
515.404; 5566.325;    0.000;    0.000
515.537; 5815.325;    0.000;    0.000
515.670; 5655.325;    0.000;    0.000
515.803; 5596.325;    0.000;    0.000
515.936; 5771.325;    0.000;    0.000
516.069; 5785.325;    0.000;    0.000
516.202; 5856.325;    0.000;    0.000
516.335; 5926.325;    0.000;    0.000
516.468; 6094.325;    0.000;    0.000
516.600; 6782.325;    0.000;    0.000
516.733; 7849.325;    0.000;    0.000
516.866; 7920.325;    0.000;    0.000
516.999; 7547.325;    0.000;    0.000
517.132; 8827.325;    0.000;    0.000
517.264;10887.325;    0.000;    0.000
517.397;10685.325;    0.000;    0.000
517.530; 8640.325;    0.000;    0.000
517.663; 7828.325;    0.000;    0.000
517.795; 7442.325;    0.000;    0.000
517.928; 7268.325;    0.000;    0.000
518.061; 7479.325;    0.000;    0.000
518.193; 9048.325;    0.000;    0.000
518.326;12540.325;    0.000;    0.000
518.459;13039.325;    0.000;    0.000
518.591;10350.325;    0.000;    0.000
518.724; 8550.325;    0.000;    0.000
518.857; 7792.325;    0.000;    0.000
518.989; 7370.325;    0.000;    0.000
519.122; 6936.325;    0.000;    0.000
519.254; 6737.325;    0.000;    0.000
519.387; 6587.325;    0.000;    0.000
519.519; 6218.325;    0.000;    0.000
519.652; 6187.325;    0.000;    0.000
519.784; 6054.325;    0.000;    0.000
519.917; 5997.325;    0.000;    0.000
520.049; 5918.325;    0.000;    0.000
520.182; 5735.325;    0.000;    0.000
520.314; 5814.325;    0.000;    0.000
520.447; 5679.325;    0.000;    0.000
520.579; 5651.325;    0.000;    0.000
520.712; 5583.325;    0.000;    0.000
520.844; 5580.325;    0.000;    0.000
520.976; 5523.325;    0.000;    0.000
521.109; 5422.325;    0.000;    0.000
521.241; 5416.325;    0.000;    0.000
521.373; 5392.325;    0.000;    0.000
521.506; 5242.325;    0.000;    0.000
521.638; 5342.325;    0.000;    0.000
521.770; 5107.325;    0.000;    0.000
521.903; 5156.325;    0.000;    0.000
522.035; 5122.325;    0.000;    0.000
522.167; 5077.325;    0.000;    0.000
522.300; 5085.325;    0.000;    0.000
522.432; 5106.325;    0.000;    0.000
522.564; 5098.325;    0.000;    0.000
522.696; 5073.325;    0.000;    0.000
522.828; 5007.325;    0.000;    0.000
522.961; 4949.325;    0.000;    0.000
523.093; 4997.325;    0.000;    0.000
523.225; 4999.325;    0.000;    0.000
523.357; 4953.325;    0.000;    0.000
523.489; 4832.325;    0.000;    0.000
523.621; 4953.325;    0.000;    0.000
523.753; 4839.325;    0.000;    0.000
523.886; 4828.325;    0.000;    0.000
524.018; 4821.325;    0.000;    0.000
524.150; 4748.325;    0.000;    0.000
524.282; 4795.325;    0.000;    0.000
524.414; 4904.325;    0.000;    0.000
524.546; 4914.325;    0.000;    0.000
524.678; 4767.325;    0.000;    0.000
524.810; 4754.325;    0.000;    0.000
524.942; 4788.325;    0.000;    0.000
525.074; 4842.325;    0.000;    0.000
525.206; 4581.325;    0.000;    0.000
525.338; 4700.325;    0.000;    0.000
525.470; 4767.325;    0.000;    0.000
525.601; 4656.325;    0.000;    0.000
525.733; 4577.325;    0.000;    0.000
525.865; 4683.325;    0.000;    0.000
525.997; 4700.325;    0.000;    0.000
526.129; 4604.325;    0.000;    0.000
526.261; 4664.325;    0.000;    0.000
526.393; 4601.325;    0.000;    0.000
526.524; 4570.325;    0.000;    0.000
526.656; 4506.325;    0.000;    0.000
526.788; 4688.325;    0.000;    0.000
526.920; 4512.325;    0.000;    0.000
527.052; 4447.325;    0.000;    0.000
527.183; 4599.325;    0.000;    0.000
527.315; 4461.325;    0.000;    0.000
527.447; 4590.325;    0.000;    0.000
527.578; 4520.325;    0.000;    0.000
527.710; 4698.325;    0.000;    0.000
527.842; 4462.325;    0.000;    0.000
527.973; 4549.325;    0.000;    0.000
528.105; 4499.325;    0.000;    0.000
528.237; 4528.325;    0.000;    0.000
528.368; 4533.325;    0.000;    0.000
528.500; 4477.325;    0.000;    0.000
528.632; 4429.325;    0.000;    0.000
528.763; 4400.325;    0.000;    0.000
528.895; 4468.325;    0.000;    0.000
529.026; 4457.325;    0.000;    0.000
529.158; 4411.325;    0.000;    0.000
529.289; 4445.325;    0.000;    0.000
529.421; 4514.325;    0.000;    0.000
529.552; 4442.325;    0.000;    0.000
529.684; 4533.325;    0.000;    0.000
529.815; 4550.325;    0.000;    0.000
529.947; 4405.325;    0.000;    0.000
530.078; 4515.325;    0.000;    0.000
530.210; 4437.325;    0.000;    0.000
530.341; 4421.325;    0.000;    0.000
530.472; 4567.325;    0.000;    0.000
530.604; 4615.325;    0.000;    0.000
530.735; 4496.325;    0.000;    0.000
530.867; 4461.325;    0.000;    0.000
530.998; 4565.325;    0.000;    0.000
531.129; 4486.325;    0.000;    0.000
531.261; 4620.325;    0.000;    0.000
531.392; 4502.325;    0.000;    0.000
531.523; 4517.325;    0.000;    0.000
531.654; 4497.325;    0.000;    0.000
531.786; 4617.325;    0.000;    0.000
531.917; 4624.325;    0.000;    0.000
532.048; 4427.325;    0.000;    0.000
532.179; 4545.325;    0.000;    0.000
532.311; 4515.325;    0.000;    0.000
532.442; 4441.325;    0.000;    0.000
532.573; 4504.325;    0.000;    0.000
532.704; 4448.325;    0.000;    0.000
532.835; 4619.325;    0.000;    0.000
532.966; 4462.325;    0.000;    0.000
533.097; 4587.325;    0.000;    0.000
533.229; 4604.325;    0.000;    0.000
533.360; 4484.325;    0.000;    0.000
533.491; 4458.325;    0.000;    0.000
533.622; 4501.325;    0.000;    0.000
533.753; 4594.325;    0.000;    0.000
533.884; 4370.325;    0.000;    0.000
534.015; 4402.325;    0.000;    0.000
534.146; 4541.325;    0.000;    0.000
534.277; 4495.325;    0.000;    0.000
534.408; 4435.325;    0.000;    0.000
534.539; 4549.325;    0.000;    0.000
534.670; 4523.325;    0.000;    0.000
534.801; 4365.325;    0.000;    0.000
534.932; 4510.325;    0.000;    0.000
535.063; 4444.325;    0.000;    0.000
535.194; 4479.325;    0.000;    0.000
535.324; 4362.325;    0.000;    0.000
535.455; 4361.325;    0.000;    0.000
535.586; 4503.325;    0.000;    0.000
535.717; 4322.325;    0.000;    0.000
535.848; 4422.325;    0.000;    0.000
535.979; 4367.325;    0.000;    0.000
536.109; 4411.325;    0.000;    0.000
536.240; 4258.325;    0.000;    0.000
536.371; 4485.325;    0.000;    0.000
536.502; 4385.325;    0.000;    0.000
536.632; 4342.325;    0.000;    0.000
536.763; 4344.325;    0.000;    0.000
536.894; 4339.325;    0.000;    0.000
537.025; 4399.325;    0.000;    0.000
537.155; 4453.325;    0.000;    0.000
537.286; 4409.325;    0.000;    0.000
537.417; 4312.325;    0.000;    0.000
537.547; 4232.325;    0.000;    0.000
537.678; 4342.325;    0.000;    0.000
537.808; 4347.325;    0.000;    0.000
537.939; 4391.325;    0.000;    0.000
538.070; 4322.325;    0.000;    0.000
538.200; 4376.325;    0.000;    0.000
538.331; 4313.325;    0.000;    0.000
538.461; 4348.325;    0.000;    0.000
538.592; 4392.325;    0.000;    0.000
538.722; 4315.325;    0.000;    0.000
538.853; 4280.325;    0.000;    0.000
538.983; 4197.325;    0.000;    0.000
539.114; 4276.325;    0.000;    0.000
539.244; 4306.325;    0.000;    0.000
539.375; 4290.325;    0.000;    0.000
539.505; 4372.325;    0.000;    0.000
539.636; 4309.325;    0.000;    0.000
539.766; 4358.325;    0.000;    0.000
539.896; 4421.325;    0.000;    0.000
540.027; 4269.325;    0.000;    0.000
540.157; 4374.325;    0.000;    0.000
540.287; 4419.325;    0.000;    0.000
540.418; 4381.325;    0.000;    0.000
540.548; 4323.325;    0.000;    0.000
540.678; 4443.325;    0.000;    0.000
540.809; 4335.325;    0.000;    0.000
540.939; 4480.325;    0.000;    0.000
541.069; 4383.325;    0.000;    0.000
541.199; 4374.325;    0.000;    0.000
541.330; 4430.325;    0.000;    0.000
541.460; 4396.325;    0.000;    0.000
541.590; 4394.325;    0.000;    0.000
541.720; 4284.325;    0.000;    0.000
541.851; 4461.325;    0.000;    0.000
541.981; 4451.325;    0.000;    0.000
542.111; 4554.325;    0.000;    0.000
542.241; 4443.325;    0.000;    0.000
542.371; 4456.325;    0.000;    0.000
542.501; 4491.325;    0.000;    0.000
542.631; 4460.325;    0.000;    0.000
542.761; 4537.325;    0.000;    0.000
542.891; 4572.325;    0.000;    0.000
543.021; 4376.325;    0.000;    0.000
543.151; 4374.325;    0.000;    0.000
543.281; 4508.325;    0.000;    0.000
543.411; 4501.325;    0.000;    0.000
543.541; 4532.325;    0.000;    0.000
543.671; 4554.325;    0.000;    0.000
543.801; 4479.325;    0.000;    0.000
543.931; 4592.325;    0.000;    0.000
544.061; 4473.325;    0.000;    0.000
544.191; 4538.325;    0.000;    0.000
544.321; 4615.325;    0.000;    0.000
544.451; 4436.325;    0.000;    0.000
544.581; 4586.325;    0.000;    0.000
544.711; 4605.325;    0.000;    0.000
544.841; 4541.325;    0.000;    0.000
544.970; 4598.325;    0.000;    0.000
545.100; 4650.325;    0.000;    0.000
545.230; 4591.325;    0.000;    0.000
545.360; 4601.325;    0.000;    0.000
545.490; 4603.325;    0.000;    0.000
545.619; 4565.325;    0.000;    0.000
545.749; 4547.325;    0.000;    0.000
545.879; 4528.325;    0.000;    0.000
546.009; 4615.325;    0.000;    0.000
546.138; 4452.325;    0.000;    0.000
546.268; 4465.325;    0.000;    0.000
546.398; 4522.325;    0.000;    0.000
546.527; 4386.325;    0.000;    0.000
546.657; 4478.325;    0.000;    0.000
546.787; 4472.325;    0.000;    0.000
546.916; 4483.325;    0.000;    0.000
547.046; 4477.325;    0.000;    0.000
547.175; 4535.325;    0.000;    0.000
547.305; 4369.325;    0.000;    0.000
547.434; 4536.325;    0.000;    0.000
547.564; 4382.325;    0.000;    0.000
547.694; 4565.325;    0.000;    0.000
547.823; 4528.325;    0.000;    0.000
547.953; 4459.325;    0.000;    0.000
548.082; 4546.325;    0.000;    0.000
548.211; 4411.325;    0.000;    0.000
548.341; 4593.325;    0.000;    0.000
548.470; 4582.325;    0.000;    0.000
548.600; 4510.325;    0.000;    0.000
548.729; 4587.325;    0.000;    0.000
548.859; 4622.325;    0.000;    0.000
548.988; 4515.325;    0.000;    0.000
549.117; 4601.325;    0.000;    0.000
549.247; 4553.325;    0.000;    0.000
549.376; 4542.325;    0.000;    0.000
549.505; 4591.325;    0.000;    0.000
549.635; 4658.325;    0.000;    0.000
549.764; 4457.325;    0.000;    0.000
549.893; 4455.325;    0.000;    0.000
550.023; 4511.325;    0.000;    0.000
550.152; 4486.325;    0.000;    0.000
550.281; 4665.325;    0.000;    0.000
550.410; 4573.325;    0.000;    0.000
550.539; 4648.325;    0.000;    0.000
550.669; 4528.325;    0.000;    0.000
550.798; 4689.325;    0.000;    0.000
550.927; 4731.325;    0.000;    0.000
551.056; 4607.325;    0.000;    0.000
551.185; 4674.325;    0.000;    0.000
551.314; 4608.325;    0.000;    0.000
551.443; 4565.325;    0.000;    0.000
551.573; 4682.325;    0.000;    0.000
551.702; 4608.325;    0.000;    0.000
551.831; 4789.325;    0.000;    0.000
551.960; 4706.325;    0.000;    0.000
552.089; 4735.325;    0.000;    0.000
552.218; 4757.325;    0.000;    0.000
552.347; 4722.325;    0.000;    0.000
552.476; 4767.325;    0.000;    0.000
552.605; 4791.325;    0.000;    0.000
552.734; 4796.325;    0.000;    0.000
552.863; 4837.325;    0.000;    0.000
552.992; 4827.325;    0.000;    0.000
553.121; 4842.325;    0.000;    0.000
553.249; 4954.325;    0.000;    0.000
553.378; 4802.325;    0.000;    0.000
553.507; 4785.325;    0.000;    0.000
553.636; 4816.325;    0.000;    0.000
553.765; 4875.325;    0.000;    0.000
553.894; 4855.325;    0.000;    0.000
554.023; 4759.325;    0.000;    0.000
554.151; 4823.325;    0.000;    0.000
554.280; 4650.325;    0.000;    0.000
554.409; 4772.325;    0.000;    0.000
554.538; 4804.325;    0.000;    0.000
554.666; 4672.325;    0.000;    0.000
554.795; 4636.325;    0.000;    0.000
554.924; 4743.325;    0.000;    0.000
555.053; 4688.325;    0.000;    0.000
555.181; 4604.325;    0.000;    0.000
555.310; 4708.325;    0.000;    0.000
555.439; 4666.325;    0.000;    0.000
555.567; 4602.325;    0.000;    0.000
555.696; 4622.325;    0.000;    0.000
555.824; 4620.325;    0.000;    0.000
555.953; 4626.325;    0.000;    0.000
556.082; 4615.325;    0.000;    0.000
556.210; 4545.325;    0.000;    0.000
556.339; 4663.325;    0.000;    0.000
556.467; 4494.325;    0.000;    0.000
556.596; 4589.325;    0.000;    0.000
556.724; 4422.325;    0.000;    0.000
556.853; 4579.325;    0.000;    0.000
556.981; 4480.325;    0.000;    0.000
557.110; 4549.325;    0.000;    0.000
557.238; 4735.325;    0.000;    0.000
557.367; 4591.325;    0.000;    0.000
557.495; 4550.325;    0.000;    0.000
557.623; 4580.325;    0.000;    0.000
557.752; 4511.325;    0.000;    0.000
557.880; 4540.325;    0.000;    0.000
558.008; 4520.325;    0.000;    0.000
558.137; 4623.325;    0.000;    0.000
558.265; 4626.325;    0.000;    0.000
558.393; 4522.325;    0.000;    0.000
558.522; 4566.325;    0.000;    0.000
558.650; 4622.325;    0.000;    0.000
558.778; 4508.325;    0.000;    0.000
558.907; 4565.325;    0.000;    0.000
559.035; 4589.325;    0.000;    0.000
559.163; 4617.325;    0.000;    0.000
559.291; 4577.325;    0.000;    0.000
559.419; 4652.325;    0.000;    0.000
559.548; 4705.325;    0.000;    0.000
559.676; 4593.325;    0.000;    0.000
559.804; 4589.325;    0.000;    0.000
559.932; 4643.325;    0.000;    0.000
560.060; 4700.325;    0.000;    0.000
560.188; 4547.325;    0.000;    0.000
560.316; 4751.325;    0.000;    0.000
560.444; 4635.325;    0.000;    0.000
560.572; 4664.325;    0.000;    0.000
560.700; 4770.325;    0.000;    0.000
560.828; 4656.325;    0.000;    0.000
560.957; 4692.325;    0.000;    0.000
561.085; 4806.325;    0.000;    0.000
561.212; 4726.325;    0.000;    0.000
561.340; 4745.325;    0.000;    0.000
561.468; 4824.325;    0.000;    0.000
561.596; 4690.325;    0.000;    0.000
561.724; 4807.325;    0.000;    0.000
561.852; 4819.325;    0.000;    0.000
561.980; 4841.325;    0.000;    0.000
562.108; 4712.325;    0.000;    0.000
562.236; 4937.325;    0.000;    0.000
562.364; 4752.325;    0.000;    0.000
562.492; 4932.325;    0.000;    0.000
562.619; 4933.325;    0.000;    0.000
562.747; 4846.325;    0.000;    0.000
562.875; 4989.325;    0.000;    0.000
563.003; 5038.325;    0.000;    0.000
563.130; 5008.325;    0.000;    0.000
563.258; 5043.325;    0.000;    0.000
563.386; 5047.325;    0.000;    0.000
563.514; 5025.325;    0.000;    0.000
563.641; 5143.325;    0.000;    0.000
563.769; 5256.325;    0.000;    0.000
563.897; 5212.325;    0.000;    0.000
564.024; 5234.325;    0.000;    0.000
564.152; 5325.325;    0.000;    0.000
564.280; 5230.325;    0.000;    0.000
564.407; 5380.325;    0.000;    0.000
564.535; 5362.325;    0.000;    0.000
564.662; 5435.325;    0.000;    0.000
564.790; 5395.325;    0.000;    0.000
564.917; 5439.325;    0.000;    0.000
565.045; 5470.325;    0.000;    0.000
565.173; 5501.325;    0.000;    0.000
565.300; 5620.325;    0.000;    0.000
565.428; 5624.325;    0.000;    0.000
565.555; 5742.325;    0.000;    0.000
565.682; 5737.325;    0.000;    0.000
565.810; 5831.325;    0.000;    0.000
565.937; 5878.325;    0.000;    0.000
566.065; 6058.325;    0.000;    0.000
566.192; 6061.325;    0.000;    0.000
566.320; 6069.325;    0.000;    0.000
566.447; 6168.325;    0.000;    0.000
566.574; 6235.325;    0.000;    0.000
566.702; 6329.325;    0.000;    0.000
566.829; 6321.325;    0.000;    0.000
566.956; 6381.325;    0.000;    0.000
567.084; 6458.325;    0.000;    0.000
567.211; 6554.325;    0.000;    0.000
567.338; 6519.325;    0.000;    0.000
567.465; 6513.325;    0.000;    0.000
567.593; 6523.325;    0.000;    0.000
567.720; 6465.325;    0.000;    0.000
567.847; 6557.325;    0.000;    0.000
567.974; 6502.325;    0.000;    0.000
568.101; 6595.325;    0.000;    0.000
568.228; 7058.325;    0.000;    0.000
568.356; 6951.325;    0.000;    0.000
568.483; 6941.325;    0.000;    0.000
568.610; 6891.325;    0.000;    0.000
568.737; 7300.325;    0.000;    0.000
568.864; 7551.325;    0.000;    0.000
568.991; 7366.325;    0.000;    0.000
569.118; 7027.325;    0.000;    0.000
569.245; 6654.325;    0.000;    0.000
569.372; 6526.325;    0.000;    0.000
569.499; 6244.325;    0.000;    0.000
569.626; 6241.325;    0.000;    0.000
569.753; 6090.325;    0.000;    0.000
569.880; 6023.325;    0.000;    0.000
570.007; 5863.325;    0.000;    0.000
570.134; 6006.325;    0.000;    0.000
570.261; 5839.325;    0.000;    0.000
570.388; 5865.325;    0.000;    0.000
570.515; 5818.325;    0.000;    0.000
570.642; 5720.325;    0.000;    0.000
570.768; 5753.325;    0.000;    0.000
570.895; 5570.325;    0.000;    0.000
571.022; 5719.325;    0.000;    0.000
571.149; 5669.325;    0.000;    0.000
571.276; 5578.325;    0.000;    0.000
571.402; 5585.325;    0.000;    0.000
571.529; 5587.325;    0.000;    0.000
571.656; 5466.325;    0.000;    0.000
571.783; 5441.325;    0.000;    0.000
571.909; 5563.325;    0.000;    0.000
572.036; 5413.325;    0.000;    0.000
572.163; 5332.325;    0.000;    0.000
572.289; 5379.325;    0.000;    0.000
572.416; 5215.325;    0.000;    0.000
572.543; 5356.325;    0.000;    0.000
572.669; 5439.325;    0.000;    0.000
572.796; 5334.325;    0.000;    0.000
572.922; 5252.325;    0.000;    0.000
573.049; 5384.325;    0.000;    0.000
573.176; 5262.325;    0.000;    0.000
573.302; 5244.325;    0.000;    0.000
573.429; 5279.325;    0.000;    0.000
573.555; 5300.325;    0.000;    0.000
573.682; 5312.325;    0.000;    0.000
573.808; 5267.325;    0.000;    0.000
573.935; 5392.325;    0.000;    0.000
574.061; 5352.325;    0.000;    0.000
574.188; 5262.325;    0.000;    0.000
574.314; 5386.325;    0.000;    0.000
574.440; 5336.325;    0.000;    0.000
574.567; 5160.325;    0.000;    0.000
574.693; 5164.325;    0.000;    0.000
574.820; 5291.325;    0.000;    0.000
574.946; 5197.325;    0.000;    0.000
575.072; 5304.325;    0.000;    0.000
575.198; 5242.325;    0.000;    0.000
575.325; 5204.325;    0.000;    0.000
575.451; 5124.325;    0.000;    0.000
575.577; 5169.325;    0.000;    0.000
575.704; 5176.325;    0.000;    0.000
575.830; 5195.325;    0.000;    0.000
575.956; 5076.325;    0.000;    0.000
576.082; 5216.325;    0.000;    0.000
576.208; 5043.325;    0.000;    0.000
576.335; 5078.325;    0.000;    0.000
576.461; 5172.325;    0.000;    0.000
576.587; 5176.325;    0.000;    0.000
576.713; 5088.325;    0.000;    0.000
576.839; 5096.325;    0.000;    0.000
576.965; 5173.325;    0.000;    0.000
577.091; 5134.325;    0.000;    0.000
577.217; 5152.325;    0.000;    0.000
577.343; 5022.325;    0.000;    0.000
577.470; 5174.325;    0.000;    0.000
577.596; 5167.325;    0.000;    0.000
577.722; 5173.325;    0.000;    0.000
577.848; 5068.325;    0.000;    0.000
577.973; 5181.325;    0.000;    0.000
578.099; 5109.325;    0.000;    0.000
578.225; 5068.325;    0.000;    0.000
578.351; 4999.325;    0.000;    0.000
578.477; 5148.325;    0.000;    0.000
578.603; 5251.325;    0.000;    0.000
578.729; 5137.325;    0.000;    0.000
578.855; 5040.325;    0.000;    0.000
578.981; 5052.325;    0.000;    0.000
579.107; 5238.325;    0.000;    0.000
579.232; 5048.325;    0.000;    0.000
579.358; 5155.325;    0.000;    0.000
579.484; 5182.325;    0.000;    0.000
579.610; 5184.325;    0.000;    0.000
579.735; 5261.325;    0.000;    0.000
579.861; 5246.325;    0.000;    0.000
579.987; 5172.325;    0.000;    0.000
580.113; 5139.325;    0.000;    0.000
580.238; 5160.325;    0.000;    0.000
580.364; 5247.325;    0.000;    0.000
580.490; 5143.325;    0.000;    0.000
580.615; 5262.325;    0.000;    0.000
580.741; 5230.325;    0.000;    0.000
580.867; 5180.325;    0.000;    0.000
580.992; 5184.325;    0.000;    0.000
581.118; 5318.325;    0.000;    0.000
581.243; 5313.325;    0.000;    0.000
581.369; 5375.325;    0.000;    0.000
581.494; 5214.325;    0.000;    0.000
581.620; 5340.325;    0.000;    0.000
581.745; 5379.325;    0.000;    0.000
581.871; 5371.325;    0.000;    0.000
581.996; 5372.325;    0.000;    0.000
582.122; 5423.325;    0.000;    0.000
582.247; 5384.325;    0.000;    0.000
582.373; 5436.325;    0.000;    0.000
582.498; 5526.325;    0.000;    0.000
582.624; 5656.325;    0.000;    0.000
582.749; 5596.325;    0.000;    0.000
582.874; 5566.325;    0.000;    0.000
583.000; 5658.325;    0.000;    0.000
583.125; 5607.325;    0.000;    0.000
583.250; 5740.325;    0.000;    0.000
583.376; 5658.325;    0.000;    0.000
583.501; 5709.325;    0.000;    0.000
583.626; 5847.325;    0.000;    0.000
583.751; 5758.325;    0.000;    0.000
583.877; 5868.325;    0.000;    0.000
584.002; 5973.325;    0.000;    0.000
584.127; 5983.325;    0.000;    0.000
584.252; 5940.325;    0.000;    0.000
584.377; 6129.325;    0.000;    0.000
584.503; 6196.325;    0.000;    0.000
584.628; 6113.325;    0.000;    0.000
584.753; 6192.325;    0.000;    0.000
584.878; 6192.325;    0.000;    0.000
585.003; 6267.325;    0.000;    0.000
585.128; 6688.325;    0.000;    0.000
585.253; 6969.325;    0.000;    0.000
585.378; 6872.325;    0.000;    0.000
585.503; 6608.325;    0.000;    0.000
585.628; 6748.325;    0.000;    0.000
585.753; 6850.325;    0.000;    0.000
585.878; 6735.325;    0.000;    0.000
586.003; 7082.325;    0.000;    0.000
586.128; 7144.325;    0.000;    0.000
586.253; 7114.325;    0.000;    0.000
586.378; 7343.325;    0.000;    0.000
586.503; 7504.325;    0.000;    0.000
586.628; 7545.325;    0.000;    0.000
586.753; 7806.325;    0.000;    0.000
586.878; 7989.325;    0.000;    0.000
587.003; 8360.325;    0.000;    0.000
587.127; 8656.325;    0.000;    0.000
587.252; 8787.325;    0.000;    0.000
587.377; 9293.325;    0.000;    0.000
587.502; 9733.325;    0.000;    0.000
587.627;10296.325;    0.000;    0.000
587.751;10830.325;    0.000;    0.000
587.876;11460.325;    0.000;    0.000
588.001;12273.325;    0.000;    0.000
588.125;13191.325;    0.000;    0.000
588.250;14424.325;    0.000;    0.000
588.375;16357.325;    0.000;    0.000
588.499;18058.325;    0.000;    0.000
588.624;20899.325;    0.000;    0.000
588.749;23446.325;    0.000;    0.000
588.873;24054.325;    0.000;    0.000
588.998;24089.325;    0.000;    0.000
589.122;27405.325;    0.000;    0.000
589.247;29524.325;    0.000;    0.000
589.372;27975.325;    0.000;    0.000
589.496;26045.325;    0.000;    0.000
589.621;25565.325;    0.000;    0.000
589.745;27173.325;    0.000;    0.000
589.870;25522.325;    0.000;    0.000
589.994;21998.325;    0.000;    0.000
590.118;19333.325;    0.000;    0.000
590.243;17037.325;    0.000;    0.000
590.367;15479.325;    0.000;    0.000
590.492;14239.325;    0.000;    0.000
590.616;13249.325;    0.000;    0.000
590.740;12485.325;    0.000;    0.000
590.865;11713.325;    0.000;    0.000
590.989;11064.325;    0.000;    0.000
591.114;10576.325;    0.000;    0.000
591.238;10169.325;    0.000;    0.000
591.362; 9915.325;    0.000;    0.000
591.486; 9455.325;    0.000;    0.000
591.611; 9188.325;    0.000;    0.000
591.735; 9026.325;    0.000;    0.000
591.859; 8667.325;    0.000;    0.000
591.983; 8510.325;    0.000;    0.000
592.107; 8326.325;    0.000;    0.000
592.232; 8152.325;    0.000;    0.000
592.356; 7845.325;    0.000;    0.000
592.480; 7810.325;    0.000;    0.000
592.604; 7643.325;    0.000;    0.000
592.728; 7723.325;    0.000;    0.000
592.852; 7536.325;    0.000;    0.000
592.976; 7411.325;    0.000;    0.000
593.100; 7353.325;    0.000;    0.000
593.224; 7298.325;    0.000;    0.000
593.349; 7316.325;    0.000;    0.000
593.473; 7106.325;    0.000;    0.000
593.597; 7166.325;    0.000;    0.000
593.721; 7125.325;    0.000;    0.000
593.844; 6901.325;    0.000;    0.000
593.968; 6776.325;    0.000;    0.000
594.092; 6671.325;    0.000;    0.000
594.216; 6759.325;    0.000;    0.000
594.340; 6641.325;    0.000;    0.000
594.464; 6733.325;    0.000;    0.000
594.588; 6520.325;    0.000;    0.000
594.712; 6566.325;    0.000;    0.000
594.836; 6348.325;    0.000;    0.000
594.959; 6363.325;    0.000;    0.000
595.083; 6299.325;    0.000;    0.000
595.207; 6288.325;    0.000;    0.000
595.331; 6127.325;    0.000;    0.000
595.455; 5986.325;    0.000;    0.000
595.578; 6106.325;    0.000;    0.000
595.702; 6104.325;    0.000;    0.000
595.826; 5834.325;    0.000;    0.000
595.949; 5994.325;    0.000;    0.000
596.073; 5839.325;    0.000;    0.000
596.197; 5899.325;    0.000;    0.000
596.320; 5900.325;    0.000;    0.000
596.444; 5921.325;    0.000;    0.000
596.568; 5723.325;    0.000;    0.000
596.691; 5790.325;    0.000;    0.000
596.815; 5738.325;    0.000;    0.000
596.938; 5726.325;    0.000;    0.000
597.062; 5677.325;    0.000;    0.000
597.186; 5534.325;    0.000;    0.000
597.309; 5699.325;    0.000;    0.000
597.433; 5595.325;    0.000;    0.000
597.556; 5569.325;    0.000;    0.000
597.679; 5555.325;    0.000;    0.000
597.803; 5517.325;    0.000;    0.000
597.926; 5584.325;    0.000;    0.000
598.050; 5472.325;    0.000;    0.000
598.173; 5321.325;    0.000;    0.000
598.297; 5498.325;    0.000;    0.000
598.420; 5375.325;    0.000;    0.000
598.543; 5396.325;    0.000;    0.000
598.667; 5320.325;    0.000;    0.000
598.790; 5243.325;    0.000;    0.000
598.913; 5293.325;    0.000;    0.000
599.037; 5346.325;    0.000;    0.000
599.160; 5258.325;    0.000;    0.000
599.283; 5356.325;    0.000;    0.000
599.406; 5302.325;    0.000;    0.000
599.530; 5307.325;    0.000;    0.000
599.653; 5313.325;    0.000;    0.000
599.776; 5183.325;    0.000;    0.000
599.899; 5148.325;    0.000;    0.000
600.022; 5157.325;    0.000;    0.000
600.145; 5086.325;    0.000;    0.000
600.269; 5195.325;    0.000;    0.000
600.392; 5116.325;    0.000;    0.000
600.515; 5142.325;    0.000;    0.000
600.638; 5193.325;    0.000;    0.000
600.761; 5083.325;    0.000;    0.000
600.884; 5160.325;    0.000;    0.000
601.007; 5154.325;    0.000;    0.000
601.130; 5011.325;    0.000;    0.000
601.253; 5133.325;    0.000;    0.000
601.376; 5022.325;    0.000;    0.000
601.499; 4996.325;    0.000;    0.000
601.622; 5017.325;    0.000;    0.000
601.745; 4982.325;    0.000;    0.000
601.868; 4925.325;    0.000;    0.000
601.991; 4905.325;    0.000;    0.000
602.113; 4932.325;    0.000;    0.000
602.236; 4945.325;    0.000;    0.000
602.359; 4933.325;    0.000;    0.000
602.482; 5029.325;    0.000;    0.000
602.605; 4895.325;    0.000;    0.000
602.728; 4904.325;    0.000;    0.000
602.850; 5065.325;    0.000;    0.000
602.973; 4823.325;    0.000;    0.000
603.096; 4853.325;    0.000;    0.000
603.219; 4892.325;    0.000;    0.000
603.341; 4886.325;    0.000;    0.000
603.464; 4887.325;    0.000;    0.000
603.587; 4894.325;    0.000;    0.000
603.709; 4815.325;    0.000;    0.000
603.832; 4888.325;    0.000;    0.000
603.955; 4861.325;    0.000;    0.000
604.077; 4692.325;    0.000;    0.000
604.200; 4731.325;    0.000;    0.000
604.322; 4684.325;    0.000;    0.000
604.445; 4716.325;    0.000;    0.000
604.568; 4685.325;    0.000;    0.000
604.690; 4800.325;    0.000;    0.000
604.813; 4686.325;    0.000;    0.000
604.935; 4760.325;    0.000;    0.000
605.058; 4636.325;    0.000;    0.000
605.180; 4705.325;    0.000;    0.000
605.303; 4678.325;    0.000;    0.000
605.425; 4669.325;    0.000;    0.000
605.547; 4744.325;    0.000;    0.000
605.670; 4664.325;    0.000;    0.000
605.792; 4617.325;    0.000;    0.000
605.915; 4685.325;    0.000;    0.000
606.037; 4769.325;    0.000;    0.000
606.159; 4638.325;    0.000;    0.000
606.282; 4630.325;    0.000;    0.000
606.404; 4761.325;    0.000;    0.000
606.526; 4659.325;    0.000;    0.000
606.648; 4623.325;    0.000;    0.000
606.771; 4575.325;    0.000;    0.000
606.893; 4607.325;    0.000;    0.000
607.015; 4621.325;    0.000;    0.000
607.137; 4564.325;    0.000;    0.000
607.260; 4762.325;    0.000;    0.000
607.382; 4596.325;    0.000;    0.000
607.504; 4666.325;    0.000;    0.000
607.626; 4665.325;    0.000;    0.000
607.748; 4692.325;    0.000;    0.000
607.870; 4579.325;    0.000;    0.000
607.992; 4590.325;    0.000;    0.000
608.114; 4669.325;    0.000;    0.000
608.236; 4661.325;    0.000;    0.000
608.359; 4638.325;    0.000;    0.000
608.481; 4512.325;    0.000;    0.000
608.603; 4657.325;    0.000;    0.000
608.725; 4541.325;    0.000;    0.000
608.847; 4587.325;    0.000;    0.000
608.968; 4579.325;    0.000;    0.000
609.090; 4528.325;    0.000;    0.000
609.212; 4529.325;    0.000;    0.000
609.334; 4565.325;    0.000;    0.000
609.456; 4670.325;    0.000;    0.000
609.578; 4620.325;    0.000;    0.000
609.700; 4518.325;    0.000;    0.000
609.822; 4455.325;    0.000;    0.000
609.944; 4585.325;    0.000;    0.000
610.065; 4557.325;    0.000;    0.000
610.187; 4510.325;    0.000;    0.000
610.309; 4547.325;    0.000;    0.000
610.431; 4500.325;    0.000;    0.000
610.552; 4577.325;    0.000;    0.000
610.674; 4547.325;    0.000;    0.000
610.796; 4497.325;    0.000;    0.000
610.918; 4542.325;    0.000;    0.000
611.039; 4556.325;    0.000;    0.000
611.161; 4557.325;    0.000;    0.000
611.282; 4492.325;    0.000;    0.000
611.404; 4443.325;    0.000;    0.000
611.526; 4519.325;    0.000;    0.000
611.647; 4498.325;    0.000;    0.000
611.769; 4481.325;    0.000;    0.000
611.890; 4442.325;    0.000;    0.000
612.012; 4582.325;    0.000;    0.000
612.134; 4526.325;    0.000;    0.000
612.255; 4453.325;    0.000;    0.000
612.377; 4387.325;    0.000;    0.000
612.498; 4477.325;    0.000;    0.000
612.619; 4429.325;    0.000;    0.000
612.741; 4519.325;    0.000;    0.000
612.862; 4477.325;    0.000;    0.000
612.984; 4390.325;    0.000;    0.000
613.105; 4421.325;    0.000;    0.000
613.226; 4483.325;    0.000;    0.000
613.348; 4476.325;    0.000;    0.000
613.469; 4549.325;    0.000;    0.000
613.590; 4567.325;    0.000;    0.000
613.712; 4487.325;    0.000;    0.000
613.833; 4556.325;    0.000;    0.000
613.954; 4610.325;    0.000;    0.000
614.076; 4599.325;    0.000;    0.000
614.197; 4514.325;    0.000;    0.000
614.318; 4550.325;    0.000;    0.000
614.439; 4618.325;    0.000;    0.000
614.560; 4601.325;    0.000;    0.000
614.682; 4624.325;    0.000;    0.000
614.803; 4595.325;    0.000;    0.000
614.924; 4547.325;    0.000;    0.000
615.045; 4549.325;    0.000;    0.000
615.166; 4527.325;    0.000;    0.000
615.287; 4668.325;    0.000;    0.000
615.408; 4748.325;    0.000;    0.000
615.529; 4752.325;    0.000;    0.000
615.650; 4663.325;    0.000;    0.000
615.771; 4622.325;    0.000;    0.000
615.892; 4802.325;    0.000;    0.000
616.013; 4910.325;    0.000;    0.000
616.134; 5220.325;    0.000;    0.000
616.255; 4896.325;    0.000;    0.000
616.376; 4775.325;    0.000;    0.000
616.497; 4645.325;    0.000;    0.000
616.618; 4477.325;    0.000;    0.000
616.739; 4620.325;    0.000;    0.000
616.860; 4442.325;    0.000;    0.000
616.981; 4484.325;    0.000;    0.000
617.101; 4533.325;    0.000;    0.000
617.222; 4499.325;    0.000;    0.000
617.343; 4434.325;    0.000;    0.000
617.464; 4353.325;    0.000;    0.000
617.585; 4366.325;    0.000;    0.000
617.705; 4377.325;    0.000;    0.000
617.826; 4380.325;    0.000;    0.000
617.947; 4315.325;    0.000;    0.000
618.068; 4197.325;    0.000;    0.000
618.188; 4359.325;    0.000;    0.000
618.309; 4243.325;    0.000;    0.000
618.430; 4410.325;    0.000;    0.000
618.550; 4358.325;    0.000;    0.000
618.671; 4261.325;    0.000;    0.000
618.791; 4270.325;    0.000;    0.000
618.912; 4246.325;    0.000;    0.000
619.033; 4257.325;    0.000;    0.000
619.153; 4221.325;    0.000;    0.000
619.274; 4273.325;    0.000;    0.000
619.394; 4259.325;    0.000;    0.000
619.515; 4207.325;    0.000;    0.000
619.635; 4213.325;    0.000;    0.000
619.756; 4157.325;    0.000;    0.000
619.876; 4153.325;    0.000;    0.000
619.996; 4286.325;    0.000;    0.000
620.117; 4208.325;    0.000;    0.000
620.237; 4213.325;    0.000;    0.000
620.358; 4287.325;    0.000;    0.000
620.478; 4221.325;    0.000;    0.000
620.598; 4297.325;    0.000;    0.000
620.719; 4140.325;    0.000;    0.000
620.839; 4331.325;    0.000;    0.000
620.959; 4212.325;    0.000;    0.000
621.079; 4283.325;    0.000;    0.000
621.200; 4217.325;    0.000;    0.000
621.320; 4270.325;    0.000;    0.000
621.440; 4192.325;    0.000;    0.000
621.560; 4184.325;    0.000;    0.000
621.681; 4152.325;    0.000;    0.000
621.801; 4187.325;    0.000;    0.000
621.921; 4295.325;    0.000;    0.000
622.041; 4150.325;    0.000;    0.000
622.161; 4270.325;    0.000;    0.000
622.281; 4144.325;    0.000;    0.000
622.401; 4222.325;    0.000;    0.000
622.521; 4302.325;    0.000;    0.000
622.641; 4231.325;    0.000;    0.000
622.761; 4165.325;    0.000;    0.000
622.882; 4196.325;    0.000;    0.000
623.002; 4233.325;    0.000;    0.000
623.121; 4225.325;    0.000;    0.000
623.241; 4268.325;    0.000;    0.000
623.361; 4191.325;    0.000;    0.000
623.481; 4226.325;    0.000;    0.000
623.601; 4209.325;    0.000;    0.000
623.721; 4247.325;    0.000;    0.000
623.841; 4182.325;    0.000;    0.000
623.961; 4342.325;    0.000;    0.000
624.081; 4123.325;    0.000;    0.000
624.201; 4237.325;    0.000;    0.000
624.320; 4138.325;    0.000;    0.000
624.440; 4183.325;    0.000;    0.000
624.560; 4275.325;    0.000;    0.000
624.680; 4158.325;    0.000;    0.000
624.799; 4089.325;    0.000;    0.000
624.919; 4167.325;    0.000;    0.000
625.039; 4164.325;    0.000;    0.000
625.159; 4096.325;    0.000;    0.000
625.278; 4195.325;    0.000;    0.000
625.398; 4171.325;    0.000;    0.000
625.518; 4106.325;    0.000;    0.000
625.637; 4194.325;    0.000;    0.000
625.757; 4032.325;    0.000;    0.000
625.876; 4096.325;    0.000;    0.000
625.996; 4074.325;    0.000;    0.000
626.115; 4111.325;    0.000;    0.000
626.235; 4141.325;    0.000;    0.000
626.355; 4068.325;    0.000;    0.000
626.474; 4092.325;    0.000;    0.000
626.593; 4071.325;    0.000;    0.000
626.713; 3984.325;    0.000;    0.000
626.832; 4143.325;    0.000;    0.000
626.952; 4088.325;    0.000;    0.000
627.071; 4068.325;    0.000;    0.000
627.191; 4166.325;    0.000;    0.000
627.310; 4192.325;    0.000;    0.000
627.429; 4070.325;    0.000;    0.000
627.549; 3972.325;    0.000;    0.000
627.668; 3994.325;    0.000;    0.000
627.787; 4093.325;    0.000;    0.000
627.907; 4032.325;    0.000;    0.000
628.026; 3991.325;    0.000;    0.000
628.145; 4054.325;    0.000;    0.000
628.264; 3993.325;    0.000;    0.000
628.384; 4043.325;    0.000;    0.000
628.503; 4010.325;    0.000;    0.000
628.622; 3996.325;    0.000;    0.000
628.741; 3995.325;    0.000;    0.000
628.860; 4005.325;    0.000;    0.000
628.980; 3918.325;    0.000;    0.000
629.099; 4051.325;    0.000;    0.000
629.218; 3910.325;    0.000;    0.000
629.337; 3980.325;    0.000;    0.000
629.456; 3903.325;    0.000;    0.000
629.575; 3867.325;    0.000;    0.000
629.694; 3968.325;    0.000;    0.000
629.813; 3853.325;    0.000;    0.000
629.932; 3960.325;    0.000;    0.000
630.051; 4054.325;    0.000;    0.000
630.170; 3910.325;    0.000;    0.000
630.289; 3902.325;    0.000;    0.000
630.408; 3991.325;    0.000;    0.000
630.527; 3864.325;    0.000;    0.000
630.646; 3853.325;    0.000;    0.000
630.764; 3927.325;    0.000;    0.000
630.883; 3937.325;    0.000;    0.000
631.002; 3876.325;    0.000;    0.000
631.121; 3836.325;    0.000;    0.000
631.240; 3869.325;    0.000;    0.000
631.359; 3904.325;    0.000;    0.000
631.477; 3951.325;    0.000;    0.000
631.596; 3918.325;    0.000;    0.000
631.715; 3932.325;    0.000;    0.000
631.834; 3879.325;    0.000;    0.000
631.952; 3970.325;    0.000;    0.000
632.071; 3936.325;    0.000;    0.000
632.190; 3773.325;    0.000;    0.000
632.308; 3812.325;    0.000;    0.000
632.427; 3866.325;    0.000;    0.000
632.546; 3851.325;    0.000;    0.000
632.664; 3798.325;    0.000;    0.000
632.783; 3911.325;    0.000;    0.000
632.901; 3858.325;    0.000;    0.000
633.020; 3949.325;    0.000;    0.000
633.138; 3890.325;    0.000;    0.000
633.257; 3835.325;    0.000;    0.000
633.375; 3932.325;    0.000;    0.000
633.494; 3713.325;    0.000;    0.000
633.612; 3881.325;    0.000;    0.000
633.731; 3871.325;    0.000;    0.000
633.849; 3836.325;    0.000;    0.000
633.968; 3896.325;    0.000;    0.000
634.086; 3883.325;    0.000;    0.000
634.204; 3899.325;    0.000;    0.000
634.323; 3788.325;    0.000;    0.000
634.441; 3884.325;    0.000;    0.000
634.559; 3824.325;    0.000;    0.000
634.678; 3776.325;    0.000;    0.000
634.796; 3850.325;    0.000;    0.000
634.914; 3810.325;    0.000;    0.000
635.032; 3910.325;    0.000;    0.000
635.151; 3810.325;    0.000;    0.000
635.269; 3734.325;    0.000;    0.000
635.387; 3725.325;    0.000;    0.000
635.505; 3681.325;    0.000;    0.000
635.623; 3723.325;    0.000;    0.000
635.742; 3717.325;    0.000;    0.000
635.860; 3889.325;    0.000;    0.000
635.978; 3841.325;    0.000;    0.000
636.096; 3763.325;    0.000;    0.000
636.214; 3838.325;    0.000;    0.000
636.332; 3743.325;    0.000;    0.000
636.450; 3825.325;    0.000;    0.000
636.568; 3777.325;    0.000;    0.000
636.686; 3704.325;    0.000;    0.000
636.804; 3791.325;    0.000;    0.000
636.922; 3752.325;    0.000;    0.000
637.040; 3691.325;    0.000;    0.000
637.158; 3711.325;    0.000;    0.000
637.276; 3828.325;    0.000;    0.000
637.394; 3766.325;    0.000;    0.000
637.512; 3782.325;    0.000;    0.000
637.629; 3842.325;    0.000;    0.000
637.747; 3772.325;    0.000;    0.000
637.865; 3632.325;    0.000;    0.000
637.983; 3739.325;    0.000;    0.000
638.101; 3779.325;    0.000;    0.000
638.218; 3765.325;    0.000;    0.000
638.336; 3732.325;    0.000;    0.000
638.454; 3760.325;    0.000;    0.000
638.572; 3834.325;    0.000;    0.000
638.689; 3634.325;    0.000;    0.000
638.807; 3723.325;    0.000;    0.000
638.925; 3622.325;    0.000;    0.000
639.042; 3758.325;    0.000;    0.000
639.160; 3763.325;    0.000;    0.000
639.278; 3731.325;    0.000;    0.000
639.395; 3798.325;    0.000;    0.000
639.513; 3717.325;    0.000;    0.000
639.630; 3675.325;    0.000;    0.000
639.748; 3684.325;    0.000;    0.000
639.865; 3704.325;    0.000;    0.000
639.983; 3761.325;    0.000;    0.000
640.100; 3681.325;    0.000;    0.000
640.218; 3742.325;    0.000;    0.000
640.335; 3694.325;    0.000;    0.000
640.453; 3754.325;    0.000;    0.000
640.570; 3713.325;    0.000;    0.000
640.687; 3683.325;    0.000;    0.000
640.805; 3681.325;    0.000;    0.000
640.922; 3699.325;    0.000;    0.000
641.040; 3675.325;    0.000;    0.000
641.157; 3611.325;    0.000;    0.000
641.274; 3790.325;    0.000;    0.000
641.391; 3747.325;    0.000;    0.000
641.509; 3540.325;    0.000;    0.000
641.626; 3716.325;    0.000;    0.000
641.743; 3584.325;    0.000;    0.000
641.860; 3785.325;    0.000;    0.000
641.978; 3620.325;    0.000;    0.000
642.095; 3594.325;    0.000;    0.000
642.212; 3660.325;    0.000;    0.000
642.329; 3734.325;    0.000;    0.000
642.446; 3709.325;    0.000;    0.000
642.563; 3646.325;    0.000;    0.000
642.681; 3721.325;    0.000;    0.000
642.798; 3694.325;    0.000;    0.000
642.915; 3659.325;    0.000;    0.000
643.032; 3751.325;    0.000;    0.000
643.149; 3615.325;    0.000;    0.000
643.266; 3729.325;    0.000;    0.000
643.383; 3719.325;    0.000;    0.000
643.500; 3754.325;    0.000;    0.000
643.617; 3564.325;    0.000;    0.000
643.734; 3798.325;    0.000;    0.000
643.850; 3713.325;    0.000;    0.000
643.967; 3780.325;    0.000;    0.000
644.084; 3727.325;    0.000;    0.000
644.201; 3642.325;    0.000;    0.000
644.318; 3767.325;    0.000;    0.000
644.435; 3805.325;    0.000;    0.000
644.552; 3792.325;    0.000;    0.000
644.668; 3734.325;    0.000;    0.000
644.785; 3769.325;    0.000;    0.000
644.902; 3782.325;    0.000;    0.000
645.019; 3711.325;    0.000;    0.000
645.135; 3678.325;    0.000;    0.000
645.252; 3679.325;    0.000;    0.000
645.369; 3675.325;    0.000;    0.000
645.485; 3765.325;    0.000;    0.000
645.602; 3790.325;    0.000;    0.000
645.719; 3797.325;    0.000;    0.000
645.835; 3854.325;    0.000;    0.000
645.952; 3852.325;    0.000;    0.000
646.068; 3869.325;    0.000;    0.000
646.185; 3785.325;    0.000;    0.000
646.302; 3765.325;    0.000;    0.000
646.418; 3835.325;    0.000;    0.000
646.535; 3860.325;    0.000;    0.000
646.651; 3837.325;    0.000;    0.000
646.768; 3831.325;    0.000;    0.000
646.884; 3911.325;    0.000;    0.000
647.000; 3890.325;    0.000;    0.000
647.117; 3834.325;    0.000;    0.000
647.233; 3905.325;    0.000;    0.000
647.350; 3928.325;    0.000;    0.000
647.466; 3818.325;    0.000;    0.000
647.582; 3941.325;    0.000;    0.000
647.699; 3899.325;    0.000;    0.000
647.815; 3929.325;    0.000;    0.000
647.931; 3880.325;    0.000;    0.000
648.047; 3863.325;    0.000;    0.000
648.164; 3857.325;    0.000;    0.000
648.280; 4018.325;    0.000;    0.000
648.396; 3935.325;    0.000;    0.000
648.512; 3958.325;    0.000;    0.000
648.629; 3984.325;    0.000;    0.000
648.745; 3983.325;    0.000;    0.000
648.861; 4001.325;    0.000;    0.000
648.977; 3886.325;    0.000;    0.000
649.093; 3909.325;    0.000;    0.000
649.209; 3908.325;    0.000;    0.000
649.325; 3932.325;    0.000;    0.000
649.441; 4031.325;    0.000;    0.000
649.557; 3887.325;    0.000;    0.000
649.673; 3973.325;    0.000;    0.000
649.789; 3994.325;    0.000;    0.000
649.905; 3898.325;    0.000;    0.000
650.021; 3992.325;    0.000;    0.000
650.137; 3984.325;    0.000;    0.000
650.253; 4023.325;    0.000;    0.000
650.369; 3939.325;    0.000;    0.000
650.485; 3981.325;    0.000;    0.000
650.601; 3984.325;    0.000;    0.000
650.717; 4076.325;    0.000;    0.000
650.833; 4082.325;    0.000;    0.000
650.948; 3968.325;    0.000;    0.000
651.064; 4043.325;    0.000;    0.000
651.180; 4142.325;    0.000;    0.000
651.296; 3972.325;    0.000;    0.000
651.411; 4059.325;    0.000;    0.000
651.527; 4074.325;    0.000;    0.000
651.643; 4150.325;    0.000;    0.000
651.759; 4205.325;    0.000;    0.000
651.874; 4054.325;    0.000;    0.000
651.990; 4262.325;    0.000;    0.000
652.105; 4067.325;    0.000;    0.000
652.221; 4177.325;    0.000;    0.000
652.337; 4149.325;    0.000;    0.000
652.452; 4229.325;    0.000;    0.000
652.568; 4241.325;    0.000;    0.000
652.683; 4282.325;    0.000;    0.000
652.799; 4165.325;    0.000;    0.000
652.914; 4227.325;    0.000;    0.000
653.030; 4185.325;    0.000;    0.000
653.145; 4227.325;    0.000;    0.000
653.261; 4395.325;    0.000;    0.000
653.376; 4323.325;    0.000;    0.000
653.492; 4448.325;    0.000;    0.000
653.607; 4451.325;    0.000;    0.000
653.722; 4424.325;    0.000;    0.000
653.838; 4440.325;    0.000;    0.000
653.953; 4456.325;    0.000;    0.000
654.068; 4528.325;    0.000;    0.000
654.184; 4678.325;    0.000;    0.000
654.299; 4654.325;    0.000;    0.000
654.414; 4616.325;    0.000;    0.000
654.530; 4592.325;    0.000;    0.000
654.645; 4694.325;    0.000;    0.000
654.760; 4755.325;    0.000;    0.000
654.875; 4775.325;    0.000;    0.000
654.990; 4874.325;    0.000;    0.000
655.106; 4892.325;    0.000;    0.000
655.221; 4923.325;    0.000;    0.000
655.336; 5052.325;    0.000;    0.000
655.451; 5170.325;    0.000;    0.000
655.566; 5231.325;    0.000;    0.000
655.681; 5350.325;    0.000;    0.000
655.796; 5340.325;    0.000;    0.000
655.911; 5486.325;    0.000;    0.000
656.026; 5739.325;    0.000;    0.000
656.141; 5676.325;    0.000;    0.000
656.256; 5859.325;    0.000;    0.000
656.371; 5836.325;    0.000;    0.000
656.486; 5847.325;    0.000;    0.000
656.601; 5816.325;    0.000;    0.000
656.716; 5802.325;    0.000;    0.000
656.831; 5682.325;    0.000;    0.000
656.946; 5708.325;    0.000;    0.000
657.060; 5546.325;    0.000;    0.000
657.175; 5588.325;    0.000;    0.000
657.290; 5503.325;    0.000;    0.000
657.405; 5343.325;    0.000;    0.000
657.520; 5280.325;    0.000;    0.000
657.634; 5195.325;    0.000;    0.000
657.749; 5244.325;    0.000;    0.000
657.864; 5178.325;    0.000;    0.000
657.979; 5102.325;    0.000;    0.000
658.093; 5028.325;    0.000;    0.000
658.208; 5074.325;    0.000;    0.000
658.323; 5010.325;    0.000;    0.000
658.437; 4945.325;    0.000;    0.000
658.552; 4913.325;    0.000;    0.000
658.666; 4792.325;    0.000;    0.000
658.781; 4913.325;    0.000;    0.000
658.895; 4867.325;    0.000;    0.000
659.010; 4795.325;    0.000;    0.000
659.125; 4595.325;    0.000;    0.000
659.239; 4678.325;    0.000;    0.000
659.353; 4661.325;    0.000;    0.000
659.468; 4620.325;    0.000;    0.000
659.582; 4652.325;    0.000;    0.000
659.697; 4638.325;    0.000;    0.000
659.811; 4655.325;    0.000;    0.000
659.926; 4613.325;    0.000;    0.000
660.040; 4492.325;    0.000;    0.000
660.154; 4404.325;    0.000;    0.000
660.269; 4507.325;    0.000;    0.000
660.383; 4490.325;    0.000;    0.000
660.497; 4449.325;    0.000;    0.000
660.612; 4432.325;    0.000;    0.000
660.726; 4372.325;    0.000;    0.000
660.840; 4336.325;    0.000;    0.000
660.954; 4289.325;    0.000;    0.000
661.068; 4379.325;    0.000;    0.000
661.183; 4254.325;    0.000;    0.000
661.297; 4124.325;    0.000;    0.000
661.411; 4210.325;    0.000;    0.000
661.525; 4107.325;    0.000;    0.000
661.639; 4170.325;    0.000;    0.000
661.753; 4161.325;    0.000;    0.000
661.867; 4150.325;    0.000;    0.000
661.981; 4099.325;    0.000;    0.000
662.095; 4090.325;    0.000;    0.000
662.209; 4075.325;    0.000;    0.000
662.323; 4051.325;    0.000;    0.000
662.437; 3953.325;    0.000;    0.000
662.551; 4002.325;    0.000;    0.000
662.665; 3987.325;    0.000;    0.000
662.779; 3902.325;    0.000;    0.000
662.893; 3986.325;    0.000;    0.000
663.007; 3821.325;    0.000;    0.000
663.121; 3879.325;    0.000;    0.000
663.235; 3878.325;    0.000;    0.000
663.348; 3789.325;    0.000;    0.000
663.462; 3925.325;    0.000;    0.000
663.576; 3839.325;    0.000;    0.000
663.690; 3798.325;    0.000;    0.000
663.804; 3781.325;    0.000;    0.000
663.917; 3681.325;    0.000;    0.000
664.031; 3737.325;    0.000;    0.000
664.145; 3694.325;    0.000;    0.000
664.258; 3719.325;    0.000;    0.000
664.372; 3737.325;    0.000;    0.000
664.486; 3717.325;    0.000;    0.000
664.599; 3695.325;    0.000;    0.000
664.713; 3729.325;    0.000;    0.000
664.827; 3520.325;    0.000;    0.000
664.940; 3663.325;    0.000;    0.000
665.054; 3673.325;    0.000;    0.000
665.167; 3668.325;    0.000;    0.000
665.281; 3735.325;    0.000;    0.000
665.394; 3636.325;    0.000;    0.000
665.508; 3626.325;    0.000;    0.000
665.621; 3581.325;    0.000;    0.000
665.735; 3644.325;    0.000;    0.000
665.848; 3580.325;    0.000;    0.000
665.961; 3550.325;    0.000;    0.000
666.075; 3561.325;    0.000;    0.000
666.188; 3567.325;    0.000;    0.000
666.301; 3480.325;    0.000;    0.000
666.415; 3502.325;    0.000;    0.000
666.528; 3419.325;    0.000;    0.000
666.641; 3483.325;    0.000;    0.000
666.755; 3514.325;    0.000;    0.000
666.868; 3428.325;    0.000;    0.000
666.981; 3503.325;    0.000;    0.000
667.094; 3420.325;    0.000;    0.000
667.207; 3436.325;    0.000;    0.000
667.321; 3325.325;    0.000;    0.000
667.434; 3352.325;    0.000;    0.000
667.547; 3432.325;    0.000;    0.000
667.660; 3396.325;    0.000;    0.000
667.773; 3452.325;    0.000;    0.000
667.886; 3417.325;    0.000;    0.000
667.999; 3366.325;    0.000;    0.000
668.112; 3318.325;    0.000;    0.000
668.225; 3320.325;    0.000;    0.000
668.338; 3294.325;    0.000;    0.000
668.451; 3319.325;    0.000;    0.000
668.564; 3373.325;    0.000;    0.000
668.677; 3387.325;    0.000;    0.000
668.790; 3258.325;    0.000;    0.000
668.903; 3335.325;    0.000;    0.000
669.016; 3236.325;    0.000;    0.000
669.129; 3199.325;    0.000;    0.000
669.242; 3212.325;    0.000;    0.000
669.355; 3255.325;    0.000;    0.000
669.467; 3192.325;    0.000;    0.000
669.580; 3286.325;    0.000;    0.000
669.693; 3172.325;    0.000;    0.000
669.806; 3242.325;    0.000;    0.000
669.918; 3244.325;    0.000;    0.000
670.031; 3308.325;    0.000;    0.000
670.144; 3233.325;    0.000;    0.000
670.256; 3224.325;    0.000;    0.000
670.369; 3237.325;    0.000;    0.000
670.482; 3318.325;    0.000;    0.000
670.594; 3222.325;    0.000;    0.000
670.707; 3201.325;    0.000;    0.000
670.820; 3152.325;    0.000;    0.000
670.932; 3201.325;    0.000;    0.000
671.045; 3173.325;    0.000;    0.000
671.157; 3233.325;    0.000;    0.000
671.270; 3165.325;    0.000;    0.000
671.382; 3182.325;    0.000;    0.000
671.495; 3135.325;    0.000;    0.000
671.607; 3105.325;    0.000;    0.000
671.720; 3139.325;    0.000;    0.000
671.832; 3055.325;    0.000;    0.000
671.944; 3163.325;    0.000;    0.000
672.057; 3098.325;    0.000;    0.000
672.169; 3135.325;    0.000;    0.000
672.282; 3182.325;    0.000;    0.000
672.394; 3094.325;    0.000;    0.000
672.506; 3128.325;    0.000;    0.000
672.618; 3191.325;    0.000;    0.000
672.731; 3116.325;    0.000;    0.000
672.843; 3153.325;    0.000;    0.000
672.955; 3179.325;    0.000;    0.000
673.067; 3054.325;    0.000;    0.000
673.180; 3088.325;    0.000;    0.000
673.292; 3118.325;    0.000;    0.000
673.404; 3019.325;    0.000;    0.000
673.516; 3012.325;    0.000;    0.000
673.628; 3109.325;    0.000;    0.000
673.740; 3036.325;    0.000;    0.000
673.852; 3059.325;    0.000;    0.000
673.964; 3106.325;    0.000;    0.000
674.076; 2984.325;    0.000;    0.000
674.188; 3109.325;    0.000;    0.000
674.300; 3100.325;    0.000;    0.000
674.412; 2990.325;    0.000;    0.000
674.524; 3049.325;    0.000;    0.000
674.636; 3112.325;    0.000;    0.000
674.748; 3069.325;    0.000;    0.000
674.860; 3012.325;    0.000;    0.000
674.972; 3031.325;    0.000;    0.000
675.084; 2997.325;    0.000;    0.000
675.196; 3034.325;    0.000;    0.000
675.307; 3133.325;    0.000;    0.000
675.419; 2964.325;    0.000;    0.000
675.531; 3042.325;    0.000;    0.000
675.643; 3025.325;    0.000;    0.000
675.755; 2929.325;    0.000;    0.000
675.866; 2973.325;    0.000;    0.000
675.978; 2984.325;    0.000;    0.000
676.090; 3015.325;    0.000;    0.000
676.201; 2939.325;    0.000;    0.000
676.313; 2879.325;    0.000;    0.000
676.425; 2935.325;    0.000;    0.000
676.536; 2972.325;    0.000;    0.000
676.648; 2978.325;    0.000;    0.000
676.759; 2994.325;    0.000;    0.000
676.871; 2950.325;    0.000;    0.000
676.983; 2836.325;    0.000;    0.000
677.094; 2876.325;    0.000;    0.000
677.206; 2947.325;    0.000;    0.000
677.317; 2929.325;    0.000;    0.000
677.429; 2947.325;    0.000;    0.000
677.540; 2924.325;    0.000;    0.000
677.651; 2914.325;    0.000;    0.000
677.763; 2946.325;    0.000;    0.000
677.874; 2909.325;    0.000;    0.000
677.986; 2880.325;    0.000;    0.000
678.097; 2904.325;    0.000;    0.000
678.208; 2945.325;    0.000;    0.000
678.320; 2951.325;    0.000;    0.000
678.431; 2849.325;    0.000;    0.000
678.542; 2850.325;    0.000;    0.000
678.653; 2866.325;    0.000;    0.000
678.765; 2887.325;    0.000;    0.000
678.876; 2888.325;    0.000;    0.000
678.987; 2863.325;    0.000;    0.000
679.098; 2829.325;    0.000;    0.000
679.209; 2833.325;    0.000;    0.000
679.320; 2922.325;    0.000;    0.000
679.432; 2794.325;    0.000;    0.000
679.543; 2782.325;    0.000;    0.000
679.654; 2901.325;    0.000;    0.000
679.765; 2785.325;    0.000;    0.000
679.876; 2911.325;    0.000;    0.000
679.987; 2731.325;    0.000;    0.000
680.098; 2911.325;    0.000;    0.000
680.209; 2881.325;    0.000;    0.000
680.320; 2817.325;    0.000;    0.000
680.431; 2910.325;    0.000;    0.000
680.542; 2734.325;    0.000;    0.000
680.653; 2920.325;    0.000;    0.000
680.763; 2739.325;    0.000;    0.000
680.874; 2809.325;    0.000;    0.000
680.985; 2779.325;    0.000;    0.000
681.096; 2861.325;    0.000;    0.000
681.207; 2826.325;    0.000;    0.000
681.318; 2758.325;    0.000;    0.000
681.428; 2749.325;    0.000;    0.000
681.539; 2814.325;    0.000;    0.000
681.650; 2737.325;    0.000;    0.000
681.761; 2781.325;    0.000;    0.000
681.871; 2711.325;    0.000;    0.000
681.982; 2711.325;    0.000;    0.000
682.093; 2811.325;    0.000;    0.000
682.203; 2875.325;    0.000;    0.000
682.314; 2765.325;    0.000;    0.000
682.424; 2838.325;    0.000;    0.000
682.535; 2758.325;    0.000;    0.000
682.645; 2794.325;    0.000;    0.000
682.756; 2878.325;    0.000;    0.000
682.867; 2765.325;    0.000;    0.000
682.977; 2791.325;    0.000;    0.000
683.087; 2785.325;    0.000;    0.000
683.198; 2677.325;    0.000;    0.000
683.308; 2803.325;    0.000;    0.000
683.419; 2731.325;    0.000;    0.000
683.529; 2662.325;    0.000;    0.000
683.640; 2775.325;    0.000;    0.000
683.750; 2761.325;    0.000;    0.000
683.860; 2824.325;    0.000;    0.000
683.971; 2744.325;    0.000;    0.000
684.081; 2791.325;    0.000;    0.000
684.191; 2804.325;    0.000;    0.000
684.301; 2677.325;    0.000;    0.000
684.412; 2830.325;    0.000;    0.000
684.522; 2826.325;    0.000;    0.000
684.632; 2788.325;    0.000;    0.000
684.742; 2750.325;    0.000;    0.000
684.852; 2813.325;    0.000;    0.000
684.963; 2749.325;    0.000;    0.000
685.073; 2627.325;    0.000;    0.000
685.183; 2704.325;    0.000;    0.000
685.293; 2699.325;    0.000;    0.000
685.403; 2757.325;    0.000;    0.000
685.513; 2843.325;    0.000;    0.000
685.623; 2732.325;    0.000;    0.000
685.733; 2764.325;    0.000;    0.000
685.843; 2702.325;    0.000;    0.000
685.953; 2771.325;    0.000;    0.000
686.063; 2788.325;    0.000;    0.000
686.173; 2722.325;    0.000;    0.000
686.283; 2774.325;    0.000;    0.000
686.393; 2727.325;    0.000;    0.000
686.503; 2678.325;    0.000;    0.000
686.612; 2800.325;    0.000;    0.000
686.722; 2757.325;    0.000;    0.000
686.832; 2713.325;    0.000;    0.000
686.942; 2870.325;    0.000;    0.000
687.052; 2725.325;    0.000;    0.000
687.161; 2824.325;    0.000;    0.000
687.271; 2795.325;    0.000;    0.000
687.381; 2701.325;    0.000;    0.000
687.491; 2829.325;    0.000;    0.000
687.600; 2809.325;    0.000;    0.000
687.710; 2682.325;    0.000;    0.000
687.820; 2730.325;    0.000;    0.000
687.929; 2759.325;    0.000;    0.000
688.039; 2687.325;    0.000;    0.000
688.148; 2789.325;    0.000;    0.000
688.258; 2741.325;    0.000;    0.000
688.367; 2675.325;    0.000;    0.000
688.477; 2676.325;    0.000;    0.000
688.586; 2736.325;    0.000;    0.000
688.696; 2729.325;    0.000;    0.000
688.805; 2683.325;    0.000;    0.000
688.915; 2688.325;    0.000;    0.000
689.024; 2690.325;    0.000;    0.000
689.134; 2674.325;    0.000;    0.000
689.243; 2627.325;    0.000;    0.000
689.352; 2750.325;    0.000;    0.000
689.462; 2760.325;    0.000;    0.000
689.571; 2737.325;    0.000;    0.000
689.680; 2653.325;    0.000;    0.000
689.790; 2612.325;    0.000;    0.000
689.899; 2641.325;    0.000;    0.000
690.008; 2678.325;    0.000;    0.000
690.117; 2683.325;    0.000;    0.000
690.227; 2775.325;    0.000;    0.000
690.336; 2746.325;    0.000;    0.000
690.445; 2657.325;    0.000;    0.000
690.554; 2627.325;    0.000;    0.000
690.663; 2622.325;    0.000;    0.000
690.772; 2692.325;    0.000;    0.000
690.881; 2681.325;    0.000;    0.000
690.990; 2577.325;    0.000;    0.000
691.100; 2558.325;    0.000;    0.000
691.209; 2647.325;    0.000;    0.000
691.318; 2640.325;    0.000;    0.000
691.427; 2679.325;    0.000;    0.000
691.535; 2681.325;    0.000;    0.000
691.644; 2727.325;    0.000;    0.000
691.753; 2684.325;    0.000;    0.000
691.862; 2610.325;    0.000;    0.000
691.971; 2602.325;    0.000;    0.000
692.080; 2607.325;    0.000;    0.000
692.189; 2724.325;    0.000;    0.000
692.298; 2720.325;    0.000;    0.000
692.407; 2659.325;    0.000;    0.000
692.515; 2663.325;    0.000;    0.000
692.624; 2690.325;    0.000;    0.000
692.733; 2688.325;    0.000;    0.000
692.842; 2714.325;    0.000;    0.000
692.950; 2668.325;    0.000;    0.000
693.059; 2628.325;    0.000;    0.000
693.168; 2677.325;    0.000;    0.000
693.276; 2674.325;    0.000;    0.000
693.385; 2655.325;    0.000;    0.000
693.494; 2686.325;    0.000;    0.000
693.602; 2658.325;    0.000;    0.000
693.711; 2669.325;    0.000;    0.000
693.819; 2681.325;    0.000;    0.000
693.928; 2642.325;    0.000;    0.000
694.036; 2587.325;    0.000;    0.000
694.145; 2715.325;    0.000;    0.000
694.253; 2695.325;    0.000;    0.000
694.362; 2597.325;    0.000;    0.000
694.470; 2695.325;    0.000;    0.000
694.579; 2678.325;    0.000;    0.000
694.687; 2778.325;    0.000;    0.000
694.795; 2776.325;    0.000;    0.000
694.904; 2655.325;    0.000;    0.000
695.012; 2650.325;    0.000;    0.000
695.120; 2671.325;    0.000;    0.000
695.229; 2649.325;    0.000;    0.000
695.337; 2638.325;    0.000;    0.000
695.445; 2728.325;    0.000;    0.000
695.553; 2659.325;    0.000;    0.000
695.662; 2670.325;    0.000;    0.000
695.770; 2691.325;    0.000;    0.000
695.878; 2631.325;    0.000;    0.000
695.986; 2692.325;    0.000;    0.000
696.094; 2654.325;    0.000;    0.000
696.202; 2635.325;    0.000;    0.000
696.310; 2612.325;    0.000;    0.000
696.419; 2642.325;    0.000;    0.000
696.527; 2646.325;    0.000;    0.000
696.635; 2697.325;    0.000;    0.000
696.743; 2658.325;    0.000;    0.000
696.851; 2680.325;    0.000;    0.000
696.959; 2633.325;    0.000;    0.000
697.067; 2715.325;    0.000;    0.000
697.174; 2667.325;    0.000;    0.000
697.282; 2709.325;    0.000;    0.000
697.390; 2648.325;    0.000;    0.000
697.498; 2607.325;    0.000;    0.000
697.606; 2638.325;    0.000;    0.000
697.714; 2612.325;    0.000;    0.000
697.822; 2683.325;    0.000;    0.000
697.929; 2582.325;    0.000;    0.000
698.037; 2664.325;    0.000;    0.000
698.145; 2711.325;    0.000;    0.000
698.253; 2612.325;    0.000;    0.000
698.360; 2690.325;    0.000;    0.000
698.468; 2689.325;    0.000;    0.000
698.576; 2720.325;    0.000;    0.000
698.683; 2724.325;    0.000;    0.000
698.791; 2640.325;    0.000;    0.000
698.899; 2637.325;    0.000;    0.000
699.006; 2641.325;    0.000;    0.000
699.114; 2676.325;    0.000;    0.000
699.221; 2662.325;    0.000;    0.000
699.329; 2624.325;    0.000;    0.000
699.436; 2693.325;    0.000;    0.000
699.544; 2723.325;    0.000;    0.000
699.651; 2700.325;    0.000;    0.000
699.759; 2699.325;    0.000;    0.000
699.866; 2676.325;    0.000;    0.000
699.974; 2643.325;    0.000;    0.000
700.081; 2668.325;    0.000;    0.000
700.188; 2740.325;    0.000;    0.000
700.296; 2676.325;    0.000;    0.000
700.403; 2616.325;    0.000;    0.000
700.510; 2600.325;    0.000;    0.000
700.618; 2594.325;    0.000;    0.000
700.725; 2678.325;    0.000;    0.000
700.832; 2642.325;    0.000;    0.000
700.940; 2696.325;    0.000;    0.000
701.047; 2586.325;    0.000;    0.000
701.154; 2641.325;    0.000;    0.000
701.261; 2597.325;    0.000;    0.000
701.368; 2721.325;    0.000;    0.000
701.475; 2680.325;    0.000;    0.000
701.582; 2675.325;    0.000;    0.000
701.690; 2645.325;    0.000;    0.000
701.797; 2725.325;    0.000;    0.000
701.904; 2757.325;    0.000;    0.000
702.011; 2716.325;    0.000;    0.000
702.118; 2694.325;    0.000;    0.000
702.225; 2655.325;    0.000;    0.000
702.332; 2651.325;    0.000;    0.000
702.439; 2627.325;    0.000;    0.000
702.546; 2696.325;    0.000;    0.000
702.652; 2767.325;    0.000;    0.000
702.759; 2636.325;    0.000;    0.000
702.866; 2644.325;    0.000;    0.000
702.973; 2694.325;    0.000;    0.000
703.080; 2738.325;    0.000;    0.000
703.187; 2710.325;    0.000;    0.000
703.293; 2746.325;    0.000;    0.000
703.400; 2504.325;    0.000;    0.000
703.507;  567.325;    0.000;    0.000
703.614;  301.325;    0.000;    0.000
703.720;  303.325;    0.000;    0.000
703.827;  305.325;    0.000;    0.000
703.934;  310.325;    0.000;    0.000
704.040;  288.325;    0.000;    0.000
704.147;  305.325;    0.000;    0.000
704.254;  354.325;    0.000;    0.000
704.360;  301.325;    0.000;    0.000
704.467;  327.325;    0.000;    0.000
704.573;  342.325;    0.000;    0.000
704.680;  355.325;    0.000;    0.000
704.786;  321.325;    0.000;    0.000
704.893;  299.325;    0.000;    0.000
704.999;  296.325;    0.000;    0.000
705.106;  307.325;    0.000;    0.000

