
Integration time [ms]:   1.000
Averaging Nr. [scans]: 1
Smoothing Nr. [pixels]: 0
Data measured with spectrometer [name]: UV1
Wave   ;Sample   ;Dark     ;Reference
[nm]   ;[counts] ;[counts] ;[counts] 

236.381;  152.750;    0.000;    0.000
236.451;  169.750;    0.000;    0.000
236.520;  201.750;    0.000;    0.000
236.590;  196.750;    0.000;    0.000
236.660;  210.750;    0.000;    0.000
236.730;  186.750;    0.000;    0.000
236.799;  201.750;    0.000;    0.000
236.869;  209.750;    0.000;    0.000
236.939;  168.750;    0.000;    0.000
237.009;  165.750;    0.000;    0.000
237.078;  167.750;    0.000;    0.000
237.148;  193.750;    0.000;    0.000
237.218;  197.750;    0.000;    0.000
237.287;  168.750;    0.000;    0.000
237.357;  169.750;    0.000;    0.000
237.427;  154.750;    0.000;    0.000
237.496;  345.750;    0.000;    0.000
237.566;  333.750;    0.000;    0.000
237.636;  320.750;    0.000;    0.000
237.705;  367.750;    0.000;    0.000
237.775;  323.750;    0.000;    0.000
237.845;  365.750;    0.000;    0.000
237.914;  313.750;    0.000;    0.000
237.984;  370.750;    0.000;    0.000
238.054;  302.750;    0.000;    0.000
238.123;  356.750;    0.000;    0.000
238.193;  311.750;    0.000;    0.000
238.263;  351.750;    0.000;    0.000
238.332;  305.750;    0.000;    0.000
238.402;  331.750;    0.000;    0.000
238.471;  298.750;    0.000;    0.000
238.541;  336.750;    0.000;    0.000
238.611;  318.750;    0.000;    0.000
238.680;  305.750;    0.000;    0.000
238.750;  276.750;    0.000;    0.000
238.819;  331.750;    0.000;    0.000
238.889;  320.750;    0.000;    0.000
238.958;  327.750;    0.000;    0.000
239.028;  341.750;    0.000;    0.000
239.097;  336.750;    0.000;    0.000
239.167;  338.750;    0.000;    0.000
239.237;  338.750;    0.000;    0.000
239.306;  266.750;    0.000;    0.000
239.376;  341.750;    0.000;    0.000
239.445;  386.750;    0.000;    0.000
239.515;  345.750;    0.000;    0.000
239.584;  315.750;    0.000;    0.000
239.654;  285.750;    0.000;    0.000
239.723;  317.750;    0.000;    0.000
239.793;  313.750;    0.000;    0.000
239.862;  349.750;    0.000;    0.000
239.932;  296.750;    0.000;    0.000
240.001;  317.750;    0.000;    0.000
240.070;  309.750;    0.000;    0.000
240.140;  321.750;    0.000;    0.000
240.209;  335.750;    0.000;    0.000
240.279;  332.750;    0.000;    0.000
240.348;  341.750;    0.000;    0.000
240.418;  333.750;    0.000;    0.000
240.487;  327.750;    0.000;    0.000
240.556;  342.750;    0.000;    0.000
240.626;  344.750;    0.000;    0.000
240.695;  329.750;    0.000;    0.000
240.765;  315.750;    0.000;    0.000
240.834;  310.750;    0.000;    0.000
240.903;  319.750;    0.000;    0.000
240.973;  288.750;    0.000;    0.000
241.042;  287.750;    0.000;    0.000
241.112;  334.750;    0.000;    0.000
241.181;  323.750;    0.000;    0.000
241.250;  284.750;    0.000;    0.000
241.320;  342.750;    0.000;    0.000
241.389;  300.750;    0.000;    0.000
241.458;  309.750;    0.000;    0.000
241.528;  312.750;    0.000;    0.000
241.597;  328.750;    0.000;    0.000
241.666;  325.750;    0.000;    0.000
241.736;  342.750;    0.000;    0.000
241.805;  281.750;    0.000;    0.000
241.874;  328.750;    0.000;    0.000
241.943;  346.750;    0.000;    0.000
242.013;  335.750;    0.000;    0.000
242.082;  331.750;    0.000;    0.000
242.151;  337.750;    0.000;    0.000
242.221;  346.750;    0.000;    0.000
242.290;  325.750;    0.000;    0.000
242.359;  266.750;    0.000;    0.000
242.428;  318.750;    0.000;    0.000
242.498;  279.750;    0.000;    0.000
242.567;  313.750;    0.000;    0.000
242.636;  337.750;    0.000;    0.000
242.705;  319.750;    0.000;    0.000
242.774;  335.750;    0.000;    0.000
242.844;  304.750;    0.000;    0.000
242.913;  319.750;    0.000;    0.000
242.982;  297.750;    0.000;    0.000
243.051;  306.750;    0.000;    0.000
243.120;  316.750;    0.000;    0.000
243.190;  292.750;    0.000;    0.000
243.259;  334.750;    0.000;    0.000
243.328;  325.750;    0.000;    0.000
243.397;  297.750;    0.000;    0.000
243.466;  320.750;    0.000;    0.000
243.535;  274.750;    0.000;    0.000
243.605;  295.750;    0.000;    0.000
243.674;  307.750;    0.000;    0.000
243.743;  325.750;    0.000;    0.000
243.812;  306.750;    0.000;    0.000
243.881;  315.750;    0.000;    0.000
243.950;  260.750;    0.000;    0.000
244.019;  314.750;    0.000;    0.000
244.088;  311.750;    0.000;    0.000
244.158;  355.750;    0.000;    0.000
244.227;  292.750;    0.000;    0.000
244.296;  286.750;    0.000;    0.000
244.365;  317.750;    0.000;    0.000
244.434;  280.750;    0.000;    0.000
244.503;  322.750;    0.000;    0.000
244.572;  314.750;    0.000;    0.000
244.641;  271.750;    0.000;    0.000
244.710;  333.750;    0.000;    0.000
244.779;  316.750;    0.000;    0.000
244.848;  273.750;    0.000;    0.000
244.917;  317.750;    0.000;    0.000
244.986;  314.750;    0.000;    0.000
245.055;  299.750;    0.000;    0.000
245.124;  326.750;    0.000;    0.000
245.193;  283.750;    0.000;    0.000
245.262;  307.750;    0.000;    0.000
245.331;  341.750;    0.000;    0.000
245.400;  296.750;    0.000;    0.000
245.469;  337.750;    0.000;    0.000
245.538;  296.750;    0.000;    0.000
245.607;  344.750;    0.000;    0.000
245.676;  319.750;    0.000;    0.000
245.745;  306.750;    0.000;    0.000
245.814;  313.750;    0.000;    0.000
245.883;  342.750;    0.000;    0.000
245.952;  316.750;    0.000;    0.000
246.021;  332.750;    0.000;    0.000
246.090;  311.750;    0.000;    0.000
246.159;  327.750;    0.000;    0.000
246.227;  279.750;    0.000;    0.000
246.296;  322.750;    0.000;    0.000
246.365;  322.750;    0.000;    0.000
246.434;  400.750;    0.000;    0.000
246.503;  310.750;    0.000;    0.000
246.572;  334.750;    0.000;    0.000
246.641;  335.750;    0.000;    0.000
246.710;  365.750;    0.000;    0.000
246.779;  336.750;    0.000;    0.000
246.847;  307.750;    0.000;    0.000
246.916;  327.750;    0.000;    0.000
246.985;  310.750;    0.000;    0.000
247.054;  321.750;    0.000;    0.000
247.123;  316.750;    0.000;    0.000
247.192;  326.750;    0.000;    0.000
247.260;  274.750;    0.000;    0.000
247.329;  345.750;    0.000;    0.000
247.398;  365.750;    0.000;    0.000
247.467;  326.750;    0.000;    0.000
247.536;  373.750;    0.000;    0.000
247.604;  329.750;    0.000;    0.000
247.673;  291.750;    0.000;    0.000
247.742;  299.750;    0.000;    0.000
247.811;  333.750;    0.000;    0.000
247.879;  317.750;    0.000;    0.000
247.948;  343.750;    0.000;    0.000
248.017;  336.750;    0.000;    0.000
248.086;  336.750;    0.000;    0.000
248.154;  315.750;    0.000;    0.000
248.223;  303.750;    0.000;    0.000
248.292;  322.750;    0.000;    0.000
248.361;  348.750;    0.000;    0.000
248.429;  302.750;    0.000;    0.000
248.498;  302.750;    0.000;    0.000
248.567;  366.750;    0.000;    0.000
248.635;  379.750;    0.000;    0.000
248.704;  372.750;    0.000;    0.000
248.773;  311.750;    0.000;    0.000
248.841;  305.750;    0.000;    0.000
248.910;  347.750;    0.000;    0.000
248.979;  356.750;    0.000;    0.000
249.047;  292.750;    0.000;    0.000
249.116;  356.750;    0.000;    0.000
249.185;  357.750;    0.000;    0.000
249.253;  330.750;    0.000;    0.000
249.322;  312.750;    0.000;    0.000
249.390;  306.750;    0.000;    0.000
249.459;  304.750;    0.000;    0.000
249.528;  321.750;    0.000;    0.000
249.596;  321.750;    0.000;    0.000
249.665;  312.750;    0.000;    0.000
249.733;  339.750;    0.000;    0.000
249.802;  334.750;    0.000;    0.000
249.871;  303.750;    0.000;    0.000
249.939;  297.750;    0.000;    0.000
250.008;  292.750;    0.000;    0.000
250.076;  310.750;    0.000;    0.000
250.145;  293.750;    0.000;    0.000
250.213;  266.750;    0.000;    0.000
250.282;  277.750;    0.000;    0.000
250.350;  262.750;    0.000;    0.000
250.419;  299.750;    0.000;    0.000
250.487;  295.750;    0.000;    0.000
250.556;  325.750;    0.000;    0.000
250.624;  331.750;    0.000;    0.000
250.693;  297.750;    0.000;    0.000
250.761;  294.750;    0.000;    0.000
250.830;  284.750;    0.000;    0.000
250.898;  299.750;    0.000;    0.000
250.967;  302.750;    0.000;    0.000
251.035;  273.750;    0.000;    0.000
251.104;  307.750;    0.000;    0.000
251.172;  264.750;    0.000;    0.000
251.241;  258.750;    0.000;    0.000
251.309;  271.750;    0.000;    0.000
251.378;  267.750;    0.000;    0.000
251.446;  234.750;    0.000;    0.000
251.514;  286.750;    0.000;    0.000
251.583;  273.750;    0.000;    0.000
251.651;  256.750;    0.000;    0.000
251.720;  278.750;    0.000;    0.000
251.788;  315.750;    0.000;    0.000
251.856;  283.750;    0.000;    0.000
251.925;  249.750;    0.000;    0.000
251.993;  294.750;    0.000;    0.000
252.062;  311.750;    0.000;    0.000
252.130;  252.750;    0.000;    0.000
252.198;  282.750;    0.000;    0.000
252.267;  251.750;    0.000;    0.000
252.335;  231.750;    0.000;    0.000
252.403;  258.750;    0.000;    0.000
252.472;  300.750;    0.000;    0.000
252.540;  261.750;    0.000;    0.000
252.608;  268.750;    0.000;    0.000
252.677;  226.750;    0.000;    0.000
252.745;  287.750;    0.000;    0.000
252.813;  272.750;    0.000;    0.000
252.881;  219.750;    0.000;    0.000
252.950;  268.750;    0.000;    0.000
253.018;  285.750;    0.000;    0.000
253.086;  266.750;    0.000;    0.000
253.155;  210.750;    0.000;    0.000
253.223;  260.750;    0.000;    0.000
253.291;  226.750;    0.000;    0.000
253.359;  239.750;    0.000;    0.000
253.428;  323.750;    0.000;    0.000
253.496;  293.750;    0.000;    0.000
253.564;  200.750;    0.000;    0.000
253.632;  237.750;    0.000;    0.000
253.700;  264.750;    0.000;    0.000
253.769;  224.750;    0.000;    0.000
253.837;  287.750;    0.000;    0.000
253.905;  240.750;    0.000;    0.000
253.973;  267.750;    0.000;    0.000
254.041;  254.750;    0.000;    0.000
254.110;  254.750;    0.000;    0.000
254.178;  258.750;    0.000;    0.000
254.246;  242.750;    0.000;    0.000
254.314;  272.750;    0.000;    0.000
254.382;  237.750;    0.000;    0.000
254.450;  255.750;    0.000;    0.000
254.518;  241.750;    0.000;    0.000
254.587;  253.750;    0.000;    0.000
254.655;  282.750;    0.000;    0.000
254.723;  273.750;    0.000;    0.000
254.791;  292.750;    0.000;    0.000
254.859;  269.750;    0.000;    0.000
254.927;  279.750;    0.000;    0.000
254.995;  199.750;    0.000;    0.000
255.063;  267.750;    0.000;    0.000
255.131;  262.750;    0.000;    0.000
255.199;  277.750;    0.000;    0.000
255.267;  240.750;    0.000;    0.000
255.336;  282.750;    0.000;    0.000
255.404;  212.750;    0.000;    0.000
255.472;  263.750;    0.000;    0.000
255.540;  285.750;    0.000;    0.000
255.608;  294.750;    0.000;    0.000
255.676;  281.750;    0.000;    0.000
255.744;  276.750;    0.000;    0.000
255.812;  242.750;    0.000;    0.000
255.880;  299.750;    0.000;    0.000
255.948;  289.750;    0.000;    0.000
256.016;  253.750;    0.000;    0.000
256.084;  280.750;    0.000;    0.000
256.152;  257.750;    0.000;    0.000
256.220;  244.750;    0.000;    0.000
256.288;  265.750;    0.000;    0.000
256.356;  235.750;    0.000;    0.000
256.424;  254.750;    0.000;    0.000
256.491;  235.750;    0.000;    0.000
256.559;  250.750;    0.000;    0.000
256.627;  261.750;    0.000;    0.000
256.695;  266.750;    0.000;    0.000
256.763;  275.750;    0.000;    0.000
256.831;  220.750;    0.000;    0.000
256.899;  249.750;    0.000;    0.000
256.967;  207.750;    0.000;    0.000
257.035;  291.750;    0.000;    0.000
257.103;  266.750;    0.000;    0.000
257.171;  214.750;    0.000;    0.000
257.238;  205.750;    0.000;    0.000
257.306;  260.750;    0.000;    0.000
257.374;  266.750;    0.000;    0.000
257.442;  249.750;    0.000;    0.000
257.510;  259.750;    0.000;    0.000
257.578;  231.750;    0.000;    0.000
257.646;  268.750;    0.000;    0.000
257.713;  249.750;    0.000;    0.000
257.781;  265.750;    0.000;    0.000
257.849;  258.750;    0.000;    0.000
257.917;  234.750;    0.000;    0.000
257.985;  250.750;    0.000;    0.000
258.052;  261.750;    0.000;    0.000
258.120;  279.750;    0.000;    0.000
258.188;  257.750;    0.000;    0.000
258.256;  273.750;    0.000;    0.000
258.324;  265.750;    0.000;    0.000
258.391;  283.750;    0.000;    0.000
258.459;  304.750;    0.000;    0.000
258.527;  267.750;    0.000;    0.000
258.595;  243.750;    0.000;    0.000
258.662;  233.750;    0.000;    0.000
258.730;  290.750;    0.000;    0.000
258.798;  246.750;    0.000;    0.000
258.865;  280.750;    0.000;    0.000
258.933;  316.750;    0.000;    0.000
259.001;  271.750;    0.000;    0.000
259.069;  249.750;    0.000;    0.000
259.136;  277.750;    0.000;    0.000
259.204;  274.750;    0.000;    0.000
259.272;  298.750;    0.000;    0.000
259.339;  266.750;    0.000;    0.000
259.407;  319.750;    0.000;    0.000
259.475;  275.750;    0.000;    0.000
259.542;  255.750;    0.000;    0.000
259.610;  265.750;    0.000;    0.000
259.677;  295.750;    0.000;    0.000
259.745;  276.750;    0.000;    0.000
259.813;  306.750;    0.000;    0.000
259.880;  318.750;    0.000;    0.000
259.948;  293.750;    0.000;    0.000
260.016;  306.750;    0.000;    0.000
260.083;  304.750;    0.000;    0.000
260.151;  285.750;    0.000;    0.000
260.218;  345.750;    0.000;    0.000
260.286;  301.750;    0.000;    0.000
260.353;  309.750;    0.000;    0.000
260.421;  274.750;    0.000;    0.000
260.489;  329.750;    0.000;    0.000
260.556;  337.750;    0.000;    0.000
260.624;  313.750;    0.000;    0.000
260.691;  293.750;    0.000;    0.000
260.759;  367.750;    0.000;    0.000
260.826;  267.750;    0.000;    0.000
260.894;  293.750;    0.000;    0.000
260.961;  321.750;    0.000;    0.000
261.029;  333.750;    0.000;    0.000
261.096;  338.750;    0.000;    0.000
261.164;  320.750;    0.000;    0.000
261.231;  335.750;    0.000;    0.000
261.299;  327.750;    0.000;    0.000
261.366;  297.750;    0.000;    0.000
261.434;  321.750;    0.000;    0.000
261.501;  320.750;    0.000;    0.000
261.568;  334.750;    0.000;    0.000
261.636;  364.750;    0.000;    0.000
261.703;  399.750;    0.000;    0.000
261.771;  333.750;    0.000;    0.000
261.838;  368.750;    0.000;    0.000
261.906;  371.750;    0.000;    0.000
261.973;  368.750;    0.000;    0.000
262.040;  324.750;    0.000;    0.000
262.108;  343.750;    0.000;    0.000
262.175;  320.750;    0.000;    0.000
262.243;  386.750;    0.000;    0.000
262.310;  382.750;    0.000;    0.000
262.377;  404.750;    0.000;    0.000
262.445;  394.750;    0.000;    0.000
262.512;  374.750;    0.000;    0.000
262.579;  339.750;    0.000;    0.000
262.647;  413.750;    0.000;    0.000
262.714;  402.750;    0.000;    0.000
262.781;  385.750;    0.000;    0.000
262.849;  381.750;    0.000;    0.000
262.916;  390.750;    0.000;    0.000
262.983;  383.750;    0.000;    0.000
263.051;  371.750;    0.000;    0.000
263.118;  325.750;    0.000;    0.000
263.185;  363.750;    0.000;    0.000
263.252;  367.750;    0.000;    0.000
263.320;  392.750;    0.000;    0.000
263.387;  380.750;    0.000;    0.000
263.454;  417.750;    0.000;    0.000
263.522;  396.750;    0.000;    0.000
263.589;  408.750;    0.000;    0.000
263.656;  380.750;    0.000;    0.000
263.723;  414.750;    0.000;    0.000
263.790;  453.750;    0.000;    0.000
263.858;  432.750;    0.000;    0.000
263.925;  412.750;    0.000;    0.000
263.992;  420.750;    0.000;    0.000
264.059;  403.750;    0.000;    0.000
264.126;  395.750;    0.000;    0.000
264.194;  412.750;    0.000;    0.000
264.261;  462.750;    0.000;    0.000
264.328;  400.750;    0.000;    0.000
264.395;  444.750;    0.000;    0.000
264.462;  450.750;    0.000;    0.000
264.529;  418.750;    0.000;    0.000
264.597;  407.750;    0.000;    0.000
264.664;  448.750;    0.000;    0.000
264.731;  432.750;    0.000;    0.000
264.798;  445.750;    0.000;    0.000
264.865;  447.750;    0.000;    0.000
264.932;  458.750;    0.000;    0.000
264.999;  416.750;    0.000;    0.000
265.066;  472.750;    0.000;    0.000
265.133;  441.750;    0.000;    0.000
265.201;  438.750;    0.000;    0.000
265.268;  417.750;    0.000;    0.000
265.335;  472.750;    0.000;    0.000
265.402;  462.750;    0.000;    0.000
265.469;  445.750;    0.000;    0.000
265.536;  475.750;    0.000;    0.000
265.603;  499.750;    0.000;    0.000
265.670;  456.750;    0.000;    0.000
265.737;  465.750;    0.000;    0.000
265.804;  459.750;    0.000;    0.000
265.871;  452.750;    0.000;    0.000
265.938;  468.750;    0.000;    0.000
266.005;  518.750;    0.000;    0.000
266.072;  455.750;    0.000;    0.000
266.139;  506.750;    0.000;    0.000
266.206;  498.750;    0.000;    0.000
266.273;  462.750;    0.000;    0.000
266.340;  471.750;    0.000;    0.000
266.407;  494.750;    0.000;    0.000
266.474;  441.750;    0.000;    0.000
266.541;  431.750;    0.000;    0.000
266.608;  455.750;    0.000;    0.000
266.675;  542.750;    0.000;    0.000
266.742;  497.750;    0.000;    0.000
266.808;  469.750;    0.000;    0.000
266.875;  508.750;    0.000;    0.000
266.942;  532.750;    0.000;    0.000
267.009;  547.750;    0.000;    0.000
267.076;  545.750;    0.000;    0.000
267.143;  477.750;    0.000;    0.000
267.210;  462.750;    0.000;    0.000
267.277;  508.750;    0.000;    0.000
267.344;  536.750;    0.000;    0.000
267.410;  509.750;    0.000;    0.000
267.477;  545.750;    0.000;    0.000
267.544;  519.750;    0.000;    0.000
267.611;  550.750;    0.000;    0.000
267.678;  504.750;    0.000;    0.000
267.745;  549.750;    0.000;    0.000
267.811;  545.750;    0.000;    0.000
267.878;  524.750;    0.000;    0.000
267.945;  495.750;    0.000;    0.000
268.012;  528.750;    0.000;    0.000
268.079;  545.750;    0.000;    0.000
268.145;  543.750;    0.000;    0.000
268.212;  506.750;    0.000;    0.000
268.279;  510.750;    0.000;    0.000
268.346;  566.750;    0.000;    0.000
268.412;  513.750;    0.000;    0.000
268.479;  498.750;    0.000;    0.000
268.546;  525.750;    0.000;    0.000
268.613;  529.750;    0.000;    0.000
268.679;  561.750;    0.000;    0.000
268.746;  525.750;    0.000;    0.000
268.813;  537.750;    0.000;    0.000
268.879;  523.750;    0.000;    0.000
268.946;  577.750;    0.000;    0.000
269.013;  523.750;    0.000;    0.000
269.079;  547.750;    0.000;    0.000
269.146;  521.750;    0.000;    0.000
269.213;  550.750;    0.000;    0.000
269.280;  503.750;    0.000;    0.000
269.346;  536.750;    0.000;    0.000
269.413;  438.750;    0.000;    0.000
269.479;  569.750;    0.000;    0.000
269.546;  577.750;    0.000;    0.000
269.613;  492.750;    0.000;    0.000
269.679;  566.750;    0.000;    0.000
269.746;  519.750;    0.000;    0.000
269.813;  501.750;    0.000;    0.000
269.879;  515.750;    0.000;    0.000
269.946;  552.750;    0.000;    0.000
270.012;  551.750;    0.000;    0.000
270.079;  516.750;    0.000;    0.000
270.145;  535.750;    0.000;    0.000
270.212;  544.750;    0.000;    0.000
270.279;  540.750;    0.000;    0.000
270.345;  490.750;    0.000;    0.000
270.412;  500.750;    0.000;    0.000
270.478;  534.750;    0.000;    0.000
270.545;  500.750;    0.000;    0.000
270.611;  552.750;    0.000;    0.000
270.678;  485.750;    0.000;    0.000
270.744;  480.750;    0.000;    0.000
270.811;  553.750;    0.000;    0.000
270.877;  500.750;    0.000;    0.000
270.944;  522.750;    0.000;    0.000
271.010;  501.750;    0.000;    0.000
271.077;  490.750;    0.000;    0.000
271.143;  547.750;    0.000;    0.000
271.210;  470.750;    0.000;    0.000
271.276;  473.750;    0.000;    0.000
271.342;  545.750;    0.000;    0.000
271.409;  483.750;    0.000;    0.000
271.475;  526.750;    0.000;    0.000
271.542;  487.750;    0.000;    0.000
271.608;  543.750;    0.000;    0.000
271.675;  479.750;    0.000;    0.000
271.741;  552.750;    0.000;    0.000
271.807;  525.750;    0.000;    0.000
271.874;  532.750;    0.000;    0.000
271.940;  526.750;    0.000;    0.000
272.007;  538.750;    0.000;    0.000
272.073;  544.750;    0.000;    0.000
272.139;  559.750;    0.000;    0.000
272.206;  528.750;    0.000;    0.000
272.272;  573.750;    0.000;    0.000
272.338;  533.750;    0.000;    0.000
272.405;  510.750;    0.000;    0.000
272.471;  472.750;    0.000;    0.000
272.537;  574.750;    0.000;    0.000
272.604;  545.750;    0.000;    0.000
272.670;  551.750;    0.000;    0.000
272.736;  539.750;    0.000;    0.000
272.802;  546.750;    0.000;    0.000
272.869;  513.750;    0.000;    0.000
272.935;  519.750;    0.000;    0.000
273.001;  538.750;    0.000;    0.000
273.068;  528.750;    0.000;    0.000
273.134;  549.750;    0.000;    0.000
273.200;  531.750;    0.000;    0.000
273.266;  486.750;    0.000;    0.000
273.333;  515.750;    0.000;    0.000
273.399;  510.750;    0.000;    0.000
273.465;  543.750;    0.000;    0.000
273.531;  508.750;    0.000;    0.000
273.597;  553.750;    0.000;    0.000
273.664;  562.750;    0.000;    0.000
273.730;  541.750;    0.000;    0.000
273.796;  534.750;    0.000;    0.000
273.862;  562.750;    0.000;    0.000
273.928;  529.750;    0.000;    0.000
273.995;  531.750;    0.000;    0.000
274.061;  571.750;    0.000;    0.000
274.127;  519.750;    0.000;    0.000
274.193;  517.750;    0.000;    0.000
274.259;  539.750;    0.000;    0.000
274.325;  530.750;    0.000;    0.000
274.391;  540.750;    0.000;    0.000
274.457;  552.750;    0.000;    0.000
274.524;  553.750;    0.000;    0.000
274.590;  498.750;    0.000;    0.000
274.656;  541.750;    0.000;    0.000
274.722;  570.750;    0.000;    0.000
274.788;  554.750;    0.000;    0.000
274.854;  553.750;    0.000;    0.000
274.920;  529.750;    0.000;    0.000
274.986;  587.750;    0.000;    0.000
275.052;  551.750;    0.000;    0.000
275.118;  529.750;    0.000;    0.000
275.184;  605.750;    0.000;    0.000
275.250;  559.750;    0.000;    0.000
275.316;  588.750;    0.000;    0.000
275.382;  576.750;    0.000;    0.000
275.448;  613.750;    0.000;    0.000
275.514;  577.750;    0.000;    0.000
275.580;  578.750;    0.000;    0.000
275.646;  582.750;    0.000;    0.000
275.712;  620.750;    0.000;    0.000
275.778;  597.750;    0.000;    0.000
275.844;  637.750;    0.000;    0.000
275.910;  583.750;    0.000;    0.000
275.976;  615.750;    0.000;    0.000
276.042;  626.750;    0.000;    0.000
276.108;  577.750;    0.000;    0.000
276.174;  631.750;    0.000;    0.000
276.240;  640.750;    0.000;    0.000
276.306;  612.750;    0.000;    0.000
276.372;  623.750;    0.000;    0.000
276.437;  637.750;    0.000;    0.000
276.503;  690.750;    0.000;    0.000
276.569;  692.750;    0.000;    0.000
276.635;  682.750;    0.000;    0.000
276.701;  688.750;    0.000;    0.000
276.767;  637.750;    0.000;    0.000
276.833;  681.750;    0.000;    0.000
276.899;  686.750;    0.000;    0.000
276.964;  785.750;    0.000;    0.000
277.030;  790.750;    0.000;    0.000
277.096;  707.750;    0.000;    0.000
277.162;  801.750;    0.000;    0.000
277.228;  791.750;    0.000;    0.000
277.293;  783.750;    0.000;    0.000
277.359;  823.750;    0.000;    0.000
277.425;  898.750;    0.000;    0.000
277.491;  883.750;    0.000;    0.000
277.557;  938.750;    0.000;    0.000
277.622; 1232.750;    0.000;    0.000
277.688; 1306.750;    0.000;    0.000
277.754; 1189.750;    0.000;    0.000
277.820; 1312.750;    0.000;    0.000
277.885; 1449.750;    0.000;    0.000
277.951; 1738.750;    0.000;    0.000
278.017; 1679.750;    0.000;    0.000
278.083; 1503.750;    0.000;    0.000
278.148; 1442.750;    0.000;    0.000
278.214; 1433.750;    0.000;    0.000
278.280; 1495.750;    0.000;    0.000
278.345; 1442.750;    0.000;    0.000
278.411; 1260.750;    0.000;    0.000
278.477; 1367.750;    0.000;    0.000
278.542; 1421.750;    0.000;    0.000
278.608; 1520.750;    0.000;    0.000
278.674; 1685.750;    0.000;    0.000
278.739; 1796.750;    0.000;    0.000
278.805; 1902.750;    0.000;    0.000
278.871; 2097.750;    0.000;    0.000
278.936; 2504.750;    0.000;    0.000
279.002; 3081.750;    0.000;    0.000
279.067; 4030.750;    0.000;    0.000
279.133; 4165.750;    0.000;    0.000
279.199; 4027.750;    0.000;    0.000
279.264; 4184.750;    0.000;    0.000
279.330; 4603.750;    0.000;    0.000
279.395; 5403.750;    0.000;    0.000
279.461; 6419.750;    0.000;    0.000
279.527; 6770.750;    0.000;    0.000
279.592; 7056.750;    0.000;    0.000
279.658; 6658.750;    0.000;    0.000
279.723; 6024.750;    0.000;    0.000
279.789; 6132.750;    0.000;    0.000
279.854; 5893.750;    0.000;    0.000
279.920; 5328.750;    0.000;    0.000
279.985; 4783.750;    0.000;    0.000
280.051; 4852.750;    0.000;    0.000
280.116; 5078.750;    0.000;    0.000
280.182; 6001.750;    0.000;    0.000
280.247; 6726.750;    0.000;    0.000
280.313; 6556.750;    0.000;    0.000
280.378; 5460.750;    0.000;    0.000
280.444; 4423.750;    0.000;    0.000
280.509; 3603.750;    0.000;    0.000
280.574; 3169.750;    0.000;    0.000
280.640; 2702.750;    0.000;    0.000
280.705; 2490.750;    0.000;    0.000
280.771; 2322.750;    0.000;    0.000
280.836; 2088.750;    0.000;    0.000
280.902; 2051.750;    0.000;    0.000
280.967; 1889.750;    0.000;    0.000
281.032; 1871.750;    0.000;    0.000
281.098; 1733.750;    0.000;    0.000
281.163; 1710.750;    0.000;    0.000
281.229; 1596.750;    0.000;    0.000
281.294; 1591.750;    0.000;    0.000
281.359; 1512.750;    0.000;    0.000
281.425; 1463.750;    0.000;    0.000
281.490; 1405.750;    0.000;    0.000
281.555; 1418.750;    0.000;    0.000
281.621; 1270.750;    0.000;    0.000
281.686; 1254.750;    0.000;    0.000
281.751; 1234.750;    0.000;    0.000
281.816; 1213.750;    0.000;    0.000
281.882; 1201.750;    0.000;    0.000
281.947; 1187.750;    0.000;    0.000
282.012; 1093.750;    0.000;    0.000
282.078; 1121.750;    0.000;    0.000
282.143; 1045.750;    0.000;    0.000
282.208; 1071.750;    0.000;    0.000
282.273; 1074.750;    0.000;    0.000
282.339; 1017.750;    0.000;    0.000
282.404; 1067.750;    0.000;    0.000
282.469; 1011.750;    0.000;    0.000
282.534;  954.750;    0.000;    0.000
282.600;  939.750;    0.000;    0.000
282.665;  971.750;    0.000;    0.000
282.730;  910.750;    0.000;    0.000
282.795;  934.750;    0.000;    0.000
282.860;  935.750;    0.000;    0.000
282.926;  970.750;    0.000;    0.000
282.991;  898.750;    0.000;    0.000
283.056;  857.750;    0.000;    0.000
283.121;  939.750;    0.000;    0.000
283.186;  896.750;    0.000;    0.000
283.251;  887.750;    0.000;    0.000
283.316;  863.750;    0.000;    0.000
283.382;  849.750;    0.000;    0.000
283.447;  904.750;    0.000;    0.000
283.512;  880.750;    0.000;    0.000
283.577;  838.750;    0.000;    0.000
283.642;  866.750;    0.000;    0.000
283.707;  799.750;    0.000;    0.000
283.772;  852.750;    0.000;    0.000
283.837;  796.750;    0.000;    0.000
283.902;  845.750;    0.000;    0.000
283.967;  855.750;    0.000;    0.000
284.032;  844.750;    0.000;    0.000
284.097;  876.750;    0.000;    0.000
284.163;  816.750;    0.000;    0.000
284.228;  857.750;    0.000;    0.000
284.293;  848.750;    0.000;    0.000
284.358;  812.750;    0.000;    0.000
284.423;  840.750;    0.000;    0.000
284.488;  918.750;    0.000;    0.000
284.553;  877.750;    0.000;    0.000
284.618;  886.750;    0.000;    0.000
284.683;  886.750;    0.000;    0.000
284.748;  952.750;    0.000;    0.000
284.812; 1017.750;    0.000;    0.000
284.877; 1071.750;    0.000;    0.000
284.942; 1211.750;    0.000;    0.000
285.007; 1295.750;    0.000;    0.000
285.072; 1602.750;    0.000;    0.000
285.137; 1971.750;    0.000;    0.000
285.202; 2314.750;    0.000;    0.000
285.267; 2546.750;    0.000;    0.000
285.332; 2194.750;    0.000;    0.000
285.397; 1751.750;    0.000;    0.000
285.462; 1444.750;    0.000;    0.000
285.527; 1337.750;    0.000;    0.000
285.591; 1155.750;    0.000;    0.000
285.656; 1109.750;    0.000;    0.000
285.721; 1016.750;    0.000;    0.000
285.786; 1072.750;    0.000;    0.000
285.851; 1029.750;    0.000;    0.000
285.916;  966.750;    0.000;    0.000
285.981;  905.750;    0.000;    0.000
286.045;  870.750;    0.000;    0.000
286.110;  948.750;    0.000;    0.000
286.175;  893.750;    0.000;    0.000
286.240;  855.750;    0.000;    0.000
286.305;  885.750;    0.000;    0.000
286.369;  859.750;    0.000;    0.000
286.434;  894.750;    0.000;    0.000
286.499;  881.750;    0.000;    0.000
286.564;  908.750;    0.000;    0.000
286.628;  769.750;    0.000;    0.000
286.693;  848.750;    0.000;    0.000
286.758;  833.750;    0.000;    0.000
286.823;  845.750;    0.000;    0.000
286.887;  778.750;    0.000;    0.000
286.952;  755.750;    0.000;    0.000
287.017;  816.750;    0.000;    0.000
287.082;  849.750;    0.000;    0.000
287.146;  829.750;    0.000;    0.000
287.211;  831.750;    0.000;    0.000
287.276;  788.750;    0.000;    0.000
287.340;  806.750;    0.000;    0.000
287.405;  773.750;    0.000;    0.000
287.470;  771.750;    0.000;    0.000
287.534;  846.750;    0.000;    0.000
287.599;  792.750;    0.000;    0.000
287.663;  861.750;    0.000;    0.000
287.728;  781.750;    0.000;    0.000
287.793;  830.750;    0.000;    0.000
287.857;  817.750;    0.000;    0.000
287.922;  804.750;    0.000;    0.000
287.987;  871.750;    0.000;    0.000
288.051;  811.750;    0.000;    0.000
288.116;  805.750;    0.000;    0.000
288.180;  821.750;    0.000;    0.000
288.245;  832.750;    0.000;    0.000
288.309;  818.750;    0.000;    0.000
288.374;  834.750;    0.000;    0.000
288.439;  825.750;    0.000;    0.000
288.503;  739.750;    0.000;    0.000
288.568;  834.750;    0.000;    0.000
288.632;  843.750;    0.000;    0.000
288.697;  781.750;    0.000;    0.000
288.761;  699.750;    0.000;    0.000
288.826;  802.750;    0.000;    0.000
288.890;  871.750;    0.000;    0.000
288.955;  820.750;    0.000;    0.000
289.019;  821.750;    0.000;    0.000
289.084;  766.750;    0.000;    0.000
289.148;  819.750;    0.000;    0.000
289.212;  846.750;    0.000;    0.000
289.277;  784.750;    0.000;    0.000
289.341;  845.750;    0.000;    0.000
289.406;  757.750;    0.000;    0.000
289.470;  814.750;    0.000;    0.000
289.535;  853.750;    0.000;    0.000
289.599;  794.750;    0.000;    0.000
289.663;  763.750;    0.000;    0.000
289.728;  807.750;    0.000;    0.000
289.792;  815.750;    0.000;    0.000
289.857;  853.750;    0.000;    0.000
289.921;  801.750;    0.000;    0.000
289.985;  808.750;    0.000;    0.000
290.050;  826.750;    0.000;    0.000
290.114;  750.750;    0.000;    0.000
290.178;  805.750;    0.000;    0.000
290.243;  769.750;    0.000;    0.000
290.307;  906.750;    0.000;    0.000
290.371;  771.750;    0.000;    0.000
290.436;  867.750;    0.000;    0.000
290.500;  737.750;    0.000;    0.000
290.564;  831.750;    0.000;    0.000
290.629;  807.750;    0.000;    0.000
290.693;  782.750;    0.000;    0.000
290.757;  850.750;    0.000;    0.000
290.821;  791.750;    0.000;    0.000
290.886;  818.750;    0.000;    0.000
290.950;  884.750;    0.000;    0.000
291.014;  811.750;    0.000;    0.000
291.078;  817.750;    0.000;    0.000
291.143;  850.750;    0.000;    0.000
291.207;  897.750;    0.000;    0.000
291.271;  854.750;    0.000;    0.000
291.335;  902.750;    0.000;    0.000
291.399;  871.750;    0.000;    0.000
291.464;  871.750;    0.000;    0.000
291.528;  943.750;    0.000;    0.000
291.592;  933.750;    0.000;    0.000
291.656;  887.750;    0.000;    0.000
291.720;  876.750;    0.000;    0.000
291.784;  938.750;    0.000;    0.000
291.849;  890.750;    0.000;    0.000
291.913;  879.750;    0.000;    0.000
291.977;  832.750;    0.000;    0.000
292.041;  920.750;    0.000;    0.000
292.105;  903.750;    0.000;    0.000
292.169;  897.750;    0.000;    0.000
292.233;  968.750;    0.000;    0.000
292.297;  972.750;    0.000;    0.000
292.361;  922.750;    0.000;    0.000
292.425;  956.750;    0.000;    0.000
292.490;  919.750;    0.000;    0.000
292.554;  950.750;    0.000;    0.000
292.618; 1030.750;    0.000;    0.000
292.682; 1055.750;    0.000;    0.000
292.746; 1200.750;    0.000;    0.000
292.810; 1238.750;    0.000;    0.000
292.874; 1445.750;    0.000;    0.000
292.938; 1569.750;    0.000;    0.000
293.002; 1482.750;    0.000;    0.000
293.066; 1440.750;    0.000;    0.000
293.130; 1427.750;    0.000;    0.000
293.194; 1443.750;    0.000;    0.000
293.258; 1381.750;    0.000;    0.000
293.322; 1315.750;    0.000;    0.000
293.386; 1322.750;    0.000;    0.000
293.450; 1498.750;    0.000;    0.000
293.514; 1480.750;    0.000;    0.000
293.577; 1641.750;    0.000;    0.000
293.641; 2000.750;    0.000;    0.000
293.705; 2351.750;    0.000;    0.000
293.769; 2219.750;    0.000;    0.000
293.833; 2088.750;    0.000;    0.000
293.897; 1835.750;    0.000;    0.000
293.961; 1768.750;    0.000;    0.000
294.025; 1718.750;    0.000;    0.000
294.089; 1544.750;    0.000;    0.000
294.152; 1474.750;    0.000;    0.000
294.216; 1504.750;    0.000;    0.000
294.280; 1398.750;    0.000;    0.000
294.344; 1413.750;    0.000;    0.000
294.408; 1360.750;    0.000;    0.000
294.472; 1301.750;    0.000;    0.000
294.536; 1282.750;    0.000;    0.000
294.599; 1217.750;    0.000;    0.000
294.663; 1205.750;    0.000;    0.000
294.727; 1248.750;    0.000;    0.000
294.791; 1221.750;    0.000;    0.000
294.855; 1191.750;    0.000;    0.000
294.918; 1079.750;    0.000;    0.000
294.982; 1095.750;    0.000;    0.000
295.046; 1130.750;    0.000;    0.000
295.110; 1095.750;    0.000;    0.000
295.173; 1030.750;    0.000;    0.000
295.237; 1052.750;    0.000;    0.000
295.301; 1044.750;    0.000;    0.000
295.364; 1083.750;    0.000;    0.000
295.428; 1110.750;    0.000;    0.000
295.492; 1067.750;    0.000;    0.000
295.556; 1118.750;    0.000;    0.000
295.619; 1074.750;    0.000;    0.000
295.683; 1022.750;    0.000;    0.000
295.747; 1055.750;    0.000;    0.000
295.810; 1028.750;    0.000;    0.000
295.874;  995.750;    0.000;    0.000
295.938;  967.750;    0.000;    0.000
296.001; 1013.750;    0.000;    0.000
296.065;  992.750;    0.000;    0.000
296.128; 1006.750;    0.000;    0.000
296.192; 1068.750;    0.000;    0.000
296.256;  990.750;    0.000;    0.000
296.319; 1011.750;    0.000;    0.000
296.383; 1002.750;    0.000;    0.000
296.447;  965.750;    0.000;    0.000
296.510;  988.750;    0.000;    0.000
296.574;  985.750;    0.000;    0.000
296.637;  966.750;    0.000;    0.000
296.701; 1023.750;    0.000;    0.000
296.764;  965.750;    0.000;    0.000
296.828;  986.750;    0.000;    0.000
296.891;  971.750;    0.000;    0.000
296.955;  989.750;    0.000;    0.000
297.018;  964.750;    0.000;    0.000
297.082;  989.750;    0.000;    0.000
297.145;  981.750;    0.000;    0.000
297.209;  978.750;    0.000;    0.000
297.272;  969.750;    0.000;    0.000
297.336;  964.750;    0.000;    0.000
297.399;  949.750;    0.000;    0.000
297.463; 1011.750;    0.000;    0.000
297.526;  981.750;    0.000;    0.000
297.590;  981.750;    0.000;    0.000
297.653;  982.750;    0.000;    0.000
297.717; 1009.750;    0.000;    0.000
297.780;  958.750;    0.000;    0.000
297.843;  951.750;    0.000;    0.000
297.907;  951.750;    0.000;    0.000
297.970;  935.750;    0.000;    0.000
298.034;  951.750;    0.000;    0.000
298.097;  915.750;    0.000;    0.000
298.160;  964.750;    0.000;    0.000
298.224;  920.750;    0.000;    0.000
298.287;  988.750;    0.000;    0.000
298.350; 1000.750;    0.000;    0.000
298.414;  990.750;    0.000;    0.000
298.477;  922.750;    0.000;    0.000
298.540;  988.750;    0.000;    0.000
298.604;  986.750;    0.000;    0.000
298.667;  976.750;    0.000;    0.000
298.730;  917.750;    0.000;    0.000
298.794;  983.750;    0.000;    0.000
298.857;  982.750;    0.000;    0.000
298.920;  945.750;    0.000;    0.000
298.984;  996.750;    0.000;    0.000
299.047;  913.750;    0.000;    0.000
299.110;  936.750;    0.000;    0.000
299.173;  991.750;    0.000;    0.000
299.237;  969.750;    0.000;    0.000
299.300;  946.750;    0.000;    0.000
299.363;  893.750;    0.000;    0.000
299.426;  916.750;    0.000;    0.000
299.489;  920.750;    0.000;    0.000
299.553;  967.750;    0.000;    0.000
299.616;  979.750;    0.000;    0.000
299.679;  927.750;    0.000;    0.000
299.742;  948.750;    0.000;    0.000
299.805;  930.750;    0.000;    0.000
299.868;  926.750;    0.000;    0.000
299.932;  972.750;    0.000;    0.000
299.995;  932.750;    0.000;    0.000
300.058;  906.750;    0.000;    0.000
300.121;  905.750;    0.000;    0.000
300.184;  933.750;    0.000;    0.000
300.247;  922.750;    0.000;    0.000
300.310;  944.750;    0.000;    0.000
300.374;  991.750;    0.000;    0.000
300.437;  879.750;    0.000;    0.000
300.500;  921.750;    0.000;    0.000
300.563;  947.750;    0.000;    0.000
300.626;  948.750;    0.000;    0.000
300.689;  934.750;    0.000;    0.000
300.752;  914.750;    0.000;    0.000
300.815;  953.750;    0.000;    0.000
300.878;  858.750;    0.000;    0.000
300.941;  930.750;    0.000;    0.000
301.004;  855.750;    0.000;    0.000
301.067;  935.750;    0.000;    0.000
301.130;  947.750;    0.000;    0.000
301.193;  917.750;    0.000;    0.000
301.256;  945.750;    0.000;    0.000
301.319;  908.750;    0.000;    0.000
301.382;  914.750;    0.000;    0.000
301.445;  980.750;    0.000;    0.000
301.508;  901.750;    0.000;    0.000
301.571;  921.750;    0.000;    0.000
301.634;  948.750;    0.000;    0.000
301.697;  929.750;    0.000;    0.000
301.760;  970.750;    0.000;    0.000
301.823;  933.750;    0.000;    0.000
301.885;  945.750;    0.000;    0.000
301.948;  952.750;    0.000;    0.000
302.011;  959.750;    0.000;    0.000
302.074; 1027.750;    0.000;    0.000
302.137;  873.750;    0.000;    0.000
302.200;  925.750;    0.000;    0.000
302.263; 1008.750;    0.000;    0.000
302.326;  912.750;    0.000;    0.000
302.388;  990.750;    0.000;    0.000
302.451;  861.750;    0.000;    0.000
302.514;  953.750;    0.000;    0.000
302.577;  994.750;    0.000;    0.000
302.640;  882.750;    0.000;    0.000
302.703; 1031.750;    0.000;    0.000
302.765; 1015.750;    0.000;    0.000
302.828; 1041.750;    0.000;    0.000
302.891;  961.750;    0.000;    0.000
302.954;  991.750;    0.000;    0.000
303.016;  996.750;    0.000;    0.000
303.079;  992.750;    0.000;    0.000
303.142;  995.750;    0.000;    0.000
303.205;  973.750;    0.000;    0.000
303.267;  972.750;    0.000;    0.000
303.330;  990.750;    0.000;    0.000
303.393;  918.750;    0.000;    0.000
303.456;  998.750;    0.000;    0.000
303.518; 1021.750;    0.000;    0.000
303.581;  954.750;    0.000;    0.000
303.644;  971.750;    0.000;    0.000
303.706;  977.750;    0.000;    0.000
303.769; 1063.750;    0.000;    0.000
303.832;  945.750;    0.000;    0.000
303.894;  985.750;    0.000;    0.000
303.957;  972.750;    0.000;    0.000
304.020; 1023.750;    0.000;    0.000
304.082;  962.750;    0.000;    0.000
304.145; 1025.750;    0.000;    0.000
304.207; 1039.750;    0.000;    0.000
304.270; 1034.750;    0.000;    0.000
304.333; 1024.750;    0.000;    0.000
304.395; 1049.750;    0.000;    0.000
304.458; 1029.750;    0.000;    0.000
304.520; 1016.750;    0.000;    0.000
304.583;  993.750;    0.000;    0.000
304.646;  964.750;    0.000;    0.000
304.708; 1005.750;    0.000;    0.000
304.771; 1027.750;    0.000;    0.000
304.833; 1010.750;    0.000;    0.000
304.896; 1027.750;    0.000;    0.000
304.958;  992.750;    0.000;    0.000
305.021; 1025.750;    0.000;    0.000
305.083; 1064.750;    0.000;    0.000
305.146; 1029.750;    0.000;    0.000
305.208; 1038.750;    0.000;    0.000
305.271; 1036.750;    0.000;    0.000
305.333; 1067.750;    0.000;    0.000
305.396; 1074.750;    0.000;    0.000
305.458; 1059.750;    0.000;    0.000
305.520; 1097.750;    0.000;    0.000
305.583; 1060.750;    0.000;    0.000
305.645; 1096.750;    0.000;    0.000
305.708; 1065.750;    0.000;    0.000
305.770; 1090.750;    0.000;    0.000
305.833; 1051.750;    0.000;    0.000
305.895; 1040.750;    0.000;    0.000
305.957; 1048.750;    0.000;    0.000
306.020; 1073.750;    0.000;    0.000
306.082; 1157.750;    0.000;    0.000
306.144; 1082.750;    0.000;    0.000
306.207; 1082.750;    0.000;    0.000
306.269; 1066.750;    0.000;    0.000
306.331; 1047.750;    0.000;    0.000
306.394; 1039.750;    0.000;    0.000
306.456; 1079.750;    0.000;    0.000
306.518; 1093.750;    0.000;    0.000
306.581; 1115.750;    0.000;    0.000
306.643; 1084.750;    0.000;    0.000
306.705; 1082.750;    0.000;    0.000
306.768; 1072.750;    0.000;    0.000
306.830; 1111.750;    0.000;    0.000
306.892; 1134.750;    0.000;    0.000
306.954; 1146.750;    0.000;    0.000
307.017; 1215.750;    0.000;    0.000
307.079; 1180.750;    0.000;    0.000
307.141; 1094.750;    0.000;    0.000
307.203; 1167.750;    0.000;    0.000
307.266; 1125.750;    0.000;    0.000
307.328; 1154.750;    0.000;    0.000
307.390; 1134.750;    0.000;    0.000
307.452; 1129.750;    0.000;    0.000
307.514; 1174.750;    0.000;    0.000
307.577; 1175.750;    0.000;    0.000
307.639; 1167.750;    0.000;    0.000
307.701; 1173.750;    0.000;    0.000
307.763; 1177.750;    0.000;    0.000
307.825; 1189.750;    0.000;    0.000
307.887; 1222.750;    0.000;    0.000
307.949; 1144.750;    0.000;    0.000
308.012; 1251.750;    0.000;    0.000
308.074; 1191.750;    0.000;    0.000
308.136; 1167.750;    0.000;    0.000
308.198; 1135.750;    0.000;    0.000
308.260; 1160.750;    0.000;    0.000
308.322; 1186.750;    0.000;    0.000
308.384; 1200.750;    0.000;    0.000
308.446; 1146.750;    0.000;    0.000
308.508; 1312.750;    0.000;    0.000
308.570; 1256.750;    0.000;    0.000
308.632; 1277.750;    0.000;    0.000
308.694; 1252.750;    0.000;    0.000
308.756; 1209.750;    0.000;    0.000
308.818; 1248.750;    0.000;    0.000
308.880; 1280.750;    0.000;    0.000
308.942; 1305.750;    0.000;    0.000
309.004; 1346.750;    0.000;    0.000
309.066; 1347.750;    0.000;    0.000
309.128; 1242.750;    0.000;    0.000
309.190; 1330.750;    0.000;    0.000
309.252; 1415.750;    0.000;    0.000
309.314; 1385.750;    0.000;    0.000
309.376; 1386.750;    0.000;    0.000
309.438; 1313.750;    0.000;    0.000
309.500; 1371.750;    0.000;    0.000
309.562; 1400.750;    0.000;    0.000
309.624; 1363.750;    0.000;    0.000
309.686; 1405.750;    0.000;    0.000
309.747; 1407.750;    0.000;    0.000
309.809; 1422.750;    0.000;    0.000
309.871; 1394.750;    0.000;    0.000
309.933; 1348.750;    0.000;    0.000
309.995; 1311.750;    0.000;    0.000
310.057; 1296.750;    0.000;    0.000
310.119; 1353.750;    0.000;    0.000
310.180; 1301.750;    0.000;    0.000
310.242; 1304.750;    0.000;    0.000
310.304; 1332.750;    0.000;    0.000
310.366; 1342.750;    0.000;    0.000
310.428; 1251.750;    0.000;    0.000
310.489; 1259.750;    0.000;    0.000
310.551; 1240.750;    0.000;    0.000
310.613; 1340.750;    0.000;    0.000
310.675; 1315.750;    0.000;    0.000
310.737; 1296.750;    0.000;    0.000
310.798; 1314.750;    0.000;    0.000
310.860; 1230.750;    0.000;    0.000
310.922; 1290.750;    0.000;    0.000
310.983; 1282.750;    0.000;    0.000
311.045; 1310.750;    0.000;    0.000
311.107; 1295.750;    0.000;    0.000
311.169; 1193.750;    0.000;    0.000
311.230; 1247.750;    0.000;    0.000
311.292; 1303.750;    0.000;    0.000
311.354; 1241.750;    0.000;    0.000
311.415; 1298.750;    0.000;    0.000
311.477; 1233.750;    0.000;    0.000
311.539; 1286.750;    0.000;    0.000
311.600; 1340.750;    0.000;    0.000
311.662; 1289.750;    0.000;    0.000
311.724; 1263.750;    0.000;    0.000
311.785; 1339.750;    0.000;    0.000
311.847; 1311.750;    0.000;    0.000
311.908; 1250.750;    0.000;    0.000
311.970; 1275.750;    0.000;    0.000
312.032; 1348.750;    0.000;    0.000
312.093; 1336.750;    0.000;    0.000
312.155; 1306.750;    0.000;    0.000
312.216; 1253.750;    0.000;    0.000
312.278; 1330.750;    0.000;    0.000
312.339; 1304.750;    0.000;    0.000
312.401; 1308.750;    0.000;    0.000
312.462; 1193.750;    0.000;    0.000
312.524; 1295.750;    0.000;    0.000
312.585; 1329.750;    0.000;    0.000
312.647; 1252.750;    0.000;    0.000
312.708; 1320.750;    0.000;    0.000
312.770; 1389.750;    0.000;    0.000
312.831; 1318.750;    0.000;    0.000
312.893; 1335.750;    0.000;    0.000
312.954; 1322.750;    0.000;    0.000
313.016; 1348.750;    0.000;    0.000
313.077; 1313.750;    0.000;    0.000
313.139; 1287.750;    0.000;    0.000
313.200; 1350.750;    0.000;    0.000
313.261; 1345.750;    0.000;    0.000
313.323; 1348.750;    0.000;    0.000
313.384; 1319.750;    0.000;    0.000
313.446; 1374.750;    0.000;    0.000
313.507; 1357.750;    0.000;    0.000
313.568; 1381.750;    0.000;    0.000
313.630; 1346.750;    0.000;    0.000
313.691; 1354.750;    0.000;    0.000
313.752; 1345.750;    0.000;    0.000
313.814; 1303.750;    0.000;    0.000
313.875; 1375.750;    0.000;    0.000
313.936; 1369.750;    0.000;    0.000
313.998; 1273.750;    0.000;    0.000
314.059; 1335.750;    0.000;    0.000
314.120; 1280.750;    0.000;    0.000
314.182; 1302.750;    0.000;    0.000
314.243; 1375.750;    0.000;    0.000
314.304; 1287.750;    0.000;    0.000
314.365; 1378.750;    0.000;    0.000
314.427; 1334.750;    0.000;    0.000
314.488; 1337.750;    0.000;    0.000
314.549; 1346.750;    0.000;    0.000
314.610; 1316.750;    0.000;    0.000
314.672; 1363.750;    0.000;    0.000
314.733; 1369.750;    0.000;    0.000
314.794; 1343.750;    0.000;    0.000
314.855; 1345.750;    0.000;    0.000
314.917; 1294.750;    0.000;    0.000
314.978; 1352.750;    0.000;    0.000
315.039; 1375.750;    0.000;    0.000
315.100; 1364.750;    0.000;    0.000
315.161; 1445.750;    0.000;    0.000
315.222; 1417.750;    0.000;    0.000
315.283; 1380.750;    0.000;    0.000
315.345; 1398.750;    0.000;    0.000
315.406; 1432.750;    0.000;    0.000
315.467; 1417.750;    0.000;    0.000
315.528; 1339.750;    0.000;    0.000
315.589; 1352.750;    0.000;    0.000
315.650; 1407.750;    0.000;    0.000
315.711; 1368.750;    0.000;    0.000
315.772; 1349.750;    0.000;    0.000
315.833; 1434.750;    0.000;    0.000
315.894; 1384.750;    0.000;    0.000
315.955; 1330.750;    0.000;    0.000
316.016; 1402.750;    0.000;    0.000
316.078; 1359.750;    0.000;    0.000
316.139; 1371.750;    0.000;    0.000
316.200; 1358.750;    0.000;    0.000
316.261; 1387.750;    0.000;    0.000
316.322; 1387.750;    0.000;    0.000
316.383; 1398.750;    0.000;    0.000
316.444; 1406.750;    0.000;    0.000
316.504; 1393.750;    0.000;    0.000
316.565; 1434.750;    0.000;    0.000
316.626; 1436.750;    0.000;    0.000
316.687; 1367.750;    0.000;    0.000
316.748; 1421.750;    0.000;    0.000
316.809; 1457.750;    0.000;    0.000
316.870; 1433.750;    0.000;    0.000
316.931; 1484.750;    0.000;    0.000
316.992; 1486.750;    0.000;    0.000
317.053; 1483.750;    0.000;    0.000
317.114; 1489.750;    0.000;    0.000
317.175; 1469.750;    0.000;    0.000
317.235; 1456.750;    0.000;    0.000
317.296; 1471.750;    0.000;    0.000
317.357; 1468.750;    0.000;    0.000
317.418; 1459.750;    0.000;    0.000
317.479; 1465.750;    0.000;    0.000
317.540; 1448.750;    0.000;    0.000
317.601; 1400.750;    0.000;    0.000
317.661; 1416.750;    0.000;    0.000
317.722; 1440.750;    0.000;    0.000
317.783; 1325.750;    0.000;    0.000
317.844; 1458.750;    0.000;    0.000
317.904; 1408.750;    0.000;    0.000
317.965; 1430.750;    0.000;    0.000
318.026; 1430.750;    0.000;    0.000
318.087; 1523.750;    0.000;    0.000
318.148; 1453.750;    0.000;    0.000
318.208; 1506.750;    0.000;    0.000
318.269; 1433.750;    0.000;    0.000
318.330; 1459.750;    0.000;    0.000
318.390; 1458.750;    0.000;    0.000
318.451; 1453.750;    0.000;    0.000
318.512; 1491.750;    0.000;    0.000
318.572; 1399.750;    0.000;    0.000
318.633; 1530.750;    0.000;    0.000
318.694; 1473.750;    0.000;    0.000
318.754; 1427.750;    0.000;    0.000
318.815; 1474.750;    0.000;    0.000
318.876; 1492.750;    0.000;    0.000
318.936; 1435.750;    0.000;    0.000
318.997; 1425.750;    0.000;    0.000
319.058; 1432.750;    0.000;    0.000
319.118; 1473.750;    0.000;    0.000
319.179; 1414.750;    0.000;    0.000
319.239; 1424.750;    0.000;    0.000
319.300; 1495.750;    0.000;    0.000
319.361; 1440.750;    0.000;    0.000
319.421; 1427.750;    0.000;    0.000
319.482; 1399.750;    0.000;    0.000
319.542; 1408.750;    0.000;    0.000
319.603; 1442.750;    0.000;    0.000
319.663; 1438.750;    0.000;    0.000
319.724; 1424.750;    0.000;    0.000
319.784; 1424.750;    0.000;    0.000
319.845; 1392.750;    0.000;    0.000
319.905; 1485.750;    0.000;    0.000
319.966; 1487.750;    0.000;    0.000
320.026; 1474.750;    0.000;    0.000
320.087; 1476.750;    0.000;    0.000
320.147; 1408.750;    0.000;    0.000
320.208; 1505.750;    0.000;    0.000
320.268; 1432.750;    0.000;    0.000
320.329; 1451.750;    0.000;    0.000
320.389; 1540.750;    0.000;    0.000
320.449; 1494.750;    0.000;    0.000
320.510; 1531.750;    0.000;    0.000
320.570; 1512.750;    0.000;    0.000
320.631; 1494.750;    0.000;    0.000
320.691; 1486.750;    0.000;    0.000
320.751; 1499.750;    0.000;    0.000
320.812; 1484.750;    0.000;    0.000
320.872; 1484.750;    0.000;    0.000
320.932; 1549.750;    0.000;    0.000
320.993; 1473.750;    0.000;    0.000
321.053; 1492.750;    0.000;    0.000
321.113; 1546.750;    0.000;    0.000
321.174; 1570.750;    0.000;    0.000
321.234; 1529.750;    0.000;    0.000
321.294; 1427.750;    0.000;    0.000
321.355; 1450.750;    0.000;    0.000
321.415; 1525.750;    0.000;    0.000
321.475; 1503.750;    0.000;    0.000
321.535; 1547.750;    0.000;    0.000
321.596; 1532.750;    0.000;    0.000
321.656; 1523.750;    0.000;    0.000
321.716; 1505.750;    0.000;    0.000
321.776; 1466.750;    0.000;    0.000
321.837; 1536.750;    0.000;    0.000
321.897; 1512.750;    0.000;    0.000
321.957; 1508.750;    0.000;    0.000
322.017; 1569.750;    0.000;    0.000
322.077; 1571.750;    0.000;    0.000
322.138; 1518.750;    0.000;    0.000
322.198; 1478.750;    0.000;    0.000
322.258; 1566.750;    0.000;    0.000
322.318; 1517.750;    0.000;    0.000
322.378; 1560.750;    0.000;    0.000
322.438; 1571.750;    0.000;    0.000
322.499; 1563.750;    0.000;    0.000
322.559; 1573.750;    0.000;    0.000
322.619; 1533.750;    0.000;    0.000
322.679; 1544.750;    0.000;    0.000
322.739; 1560.750;    0.000;    0.000
322.799; 1580.750;    0.000;    0.000
322.859; 1573.750;    0.000;    0.000
322.919; 1573.750;    0.000;    0.000
322.979; 1568.750;    0.000;    0.000
323.039; 1578.750;    0.000;    0.000
323.099; 1470.750;    0.000;    0.000
323.159; 1579.750;    0.000;    0.000
323.219; 1569.750;    0.000;    0.000
323.279; 1514.750;    0.000;    0.000
323.339; 1641.750;    0.000;    0.000
323.399; 1591.750;    0.000;    0.000
323.459; 1574.750;    0.000;    0.000
323.519; 1639.750;    0.000;    0.000
323.579; 1625.750;    0.000;    0.000
323.639; 1659.750;    0.000;    0.000
323.699; 1650.750;    0.000;    0.000
323.759; 1593.750;    0.000;    0.000
323.819; 1658.750;    0.000;    0.000
323.879; 1593.750;    0.000;    0.000
323.939; 1654.750;    0.000;    0.000
323.999; 1619.750;    0.000;    0.000
324.059; 1629.750;    0.000;    0.000
324.119; 1653.750;    0.000;    0.000
324.178; 1609.750;    0.000;    0.000
324.238; 1645.750;    0.000;    0.000
324.298; 1604.750;    0.000;    0.000
324.358; 1559.750;    0.000;    0.000
324.418; 1595.750;    0.000;    0.000
324.478; 1603.750;    0.000;    0.000
324.538; 1575.750;    0.000;    0.000
324.597; 1600.750;    0.000;    0.000
324.657; 1614.750;    0.000;    0.000
324.717; 1622.750;    0.000;    0.000
324.777; 1544.750;    0.000;    0.000
324.837; 1570.750;    0.000;    0.000
324.896; 1602.750;    0.000;    0.000
324.956; 1533.750;    0.000;    0.000
325.016; 1473.750;    0.000;    0.000
325.076; 1540.750;    0.000;    0.000
325.135; 1557.750;    0.000;    0.000
325.195; 1595.750;    0.000;    0.000
325.255; 1523.750;    0.000;    0.000
325.315; 1561.750;    0.000;    0.000
325.374; 1540.750;    0.000;    0.000
325.434; 1551.750;    0.000;    0.000
325.494; 1586.750;    0.000;    0.000
325.553; 1584.750;    0.000;    0.000
325.613; 1713.750;    0.000;    0.000
325.673; 1514.750;    0.000;    0.000
325.732; 1582.750;    0.000;    0.000
325.792; 1579.750;    0.000;    0.000
325.852; 1548.750;    0.000;    0.000
325.911; 1507.750;    0.000;    0.000
325.971; 1493.750;    0.000;    0.000
326.031; 1517.750;    0.000;    0.000
326.090; 1548.750;    0.000;    0.000
326.150; 1512.750;    0.000;    0.000
326.209; 1640.750;    0.000;    0.000
326.269; 1553.750;    0.000;    0.000
326.328; 1639.750;    0.000;    0.000
326.388; 1566.750;    0.000;    0.000
326.448; 1752.750;    0.000;    0.000
326.507; 1634.750;    0.000;    0.000
326.567; 1639.750;    0.000;    0.000
326.626; 1576.750;    0.000;    0.000
326.686; 1515.750;    0.000;    0.000
326.745; 1548.750;    0.000;    0.000
326.805; 1547.750;    0.000;    0.000
326.864; 1584.750;    0.000;    0.000
326.924; 1606.750;    0.000;    0.000
326.983; 1504.750;    0.000;    0.000
327.043; 1578.750;    0.000;    0.000
327.102; 1566.750;    0.000;    0.000
327.161; 1598.750;    0.000;    0.000
327.221; 1513.750;    0.000;    0.000
327.280; 1594.750;    0.000;    0.000
327.340; 1649.750;    0.000;    0.000
327.399; 1639.750;    0.000;    0.000
327.459; 1621.750;    0.000;    0.000
327.518; 1553.750;    0.000;    0.000
327.577; 1545.750;    0.000;    0.000
327.637; 1551.750;    0.000;    0.000
327.696; 1542.750;    0.000;    0.000
327.755; 1581.750;    0.000;    0.000
327.815; 1569.750;    0.000;    0.000
327.874; 1705.750;    0.000;    0.000
327.933; 1596.750;    0.000;    0.000
327.993; 1661.750;    0.000;    0.000
328.052; 1619.750;    0.000;    0.000
328.111; 1615.750;    0.000;    0.000
328.171; 1619.750;    0.000;    0.000
328.230; 1582.750;    0.000;    0.000
328.289; 1627.750;    0.000;    0.000
328.349; 1626.750;    0.000;    0.000
328.408; 1676.750;    0.000;    0.000
328.467; 1666.750;    0.000;    0.000
328.526; 1611.750;    0.000;    0.000
328.586; 1600.750;    0.000;    0.000
328.645; 1639.750;    0.000;    0.000
328.704; 1618.750;    0.000;    0.000
328.763; 1611.750;    0.000;    0.000
328.822; 1656.750;    0.000;    0.000
328.882; 1634.750;    0.000;    0.000
328.941; 1614.750;    0.000;    0.000
329.000; 1591.750;    0.000;    0.000
329.059; 1600.750;    0.000;    0.000
329.118; 1626.750;    0.000;    0.000
329.177; 1659.750;    0.000;    0.000
329.237; 1757.750;    0.000;    0.000
329.296; 1688.750;    0.000;    0.000
329.355; 1606.750;    0.000;    0.000
329.414; 1663.750;    0.000;    0.000
329.473; 1618.750;    0.000;    0.000
329.532; 1629.750;    0.000;    0.000
329.591; 1580.750;    0.000;    0.000
329.650; 1685.750;    0.000;    0.000
329.709; 1734.750;    0.000;    0.000
329.768; 1745.750;    0.000;    0.000
329.827; 1845.750;    0.000;    0.000
329.886; 1844.750;    0.000;    0.000
329.945; 1841.750;    0.000;    0.000
330.004; 1897.750;    0.000;    0.000
330.063; 1859.750;    0.000;    0.000
330.122; 1891.750;    0.000;    0.000
330.181; 1896.750;    0.000;    0.000
330.240; 1917.750;    0.000;    0.000
330.299; 1831.750;    0.000;    0.000
330.358; 1786.750;    0.000;    0.000
330.417; 1800.750;    0.000;    0.000
330.476; 1764.750;    0.000;    0.000
330.535; 1721.750;    0.000;    0.000
330.594; 1762.750;    0.000;    0.000
330.653; 1701.750;    0.000;    0.000
330.712; 1790.750;    0.000;    0.000
330.771; 1710.750;    0.000;    0.000
330.830; 1755.750;    0.000;    0.000
330.889; 1695.750;    0.000;    0.000
330.948; 1723.750;    0.000;    0.000
331.006; 1699.750;    0.000;    0.000
331.065; 1733.750;    0.000;    0.000
331.124; 1676.750;    0.000;    0.000
331.183; 1598.750;    0.000;    0.000
331.242; 1620.750;    0.000;    0.000
331.301; 1616.750;    0.000;    0.000
331.359; 1671.750;    0.000;    0.000
331.418; 1698.750;    0.000;    0.000
331.477; 1625.750;    0.000;    0.000
331.536; 1610.750;    0.000;    0.000
331.595; 1600.750;    0.000;    0.000
331.653; 1646.750;    0.000;    0.000
331.712; 1645.750;    0.000;    0.000
331.771; 1635.750;    0.000;    0.000
331.830; 1595.750;    0.000;    0.000
331.888; 1662.750;    0.000;    0.000
331.947; 1641.750;    0.000;    0.000
332.006; 1611.750;    0.000;    0.000
332.065; 1612.750;    0.000;    0.000
332.123; 1638.750;    0.000;    0.000
332.182; 1713.750;    0.000;    0.000
332.241; 1705.750;    0.000;    0.000
332.299; 1628.750;    0.000;    0.000
332.358; 1642.750;    0.000;    0.000
332.417; 1699.750;    0.000;    0.000
332.475; 1673.750;    0.000;    0.000
332.534; 1697.750;    0.000;    0.000
332.592; 1732.750;    0.000;    0.000
332.651; 1665.750;    0.000;    0.000
332.710; 1722.750;    0.000;    0.000
332.768; 1653.750;    0.000;    0.000
332.827; 1557.750;    0.000;    0.000
332.885; 1638.750;    0.000;    0.000
332.944; 1655.750;    0.000;    0.000
333.003; 1627.750;    0.000;    0.000
333.061; 1687.750;    0.000;    0.000
333.120; 1717.750;    0.000;    0.000
333.178; 1783.750;    0.000;    0.000
333.237; 1802.750;    0.000;    0.000
333.295; 1848.750;    0.000;    0.000
333.354; 1770.750;    0.000;    0.000
333.412; 1803.750;    0.000;    0.000
333.471; 1762.750;    0.000;    0.000
333.529; 1981.750;    0.000;    0.000
333.588; 1950.750;    0.000;    0.000
333.646; 1931.750;    0.000;    0.000
333.705; 1886.750;    0.000;    0.000
333.763; 1857.750;    0.000;    0.000
333.822; 1891.750;    0.000;    0.000
333.880; 1819.750;    0.000;    0.000
333.938; 1816.750;    0.000;    0.000
333.997; 1859.750;    0.000;    0.000
334.055; 1833.750;    0.000;    0.000
334.114; 1880.750;    0.000;    0.000
334.172; 1828.750;    0.000;    0.000
334.230; 1794.750;    0.000;    0.000
334.289; 1794.750;    0.000;    0.000
334.347; 1793.750;    0.000;    0.000
334.405; 1818.750;    0.000;    0.000
334.464; 1796.750;    0.000;    0.000
334.522; 1841.750;    0.000;    0.000
334.580; 1805.750;    0.000;    0.000
334.639; 1837.750;    0.000;    0.000
334.697; 1793.750;    0.000;    0.000
334.755; 1802.750;    0.000;    0.000
334.814; 1791.750;    0.000;    0.000
334.872; 1697.750;    0.000;    0.000
334.930; 1653.750;    0.000;    0.000
334.988; 1759.750;    0.000;    0.000
335.047; 1775.750;    0.000;    0.000
335.105; 1800.750;    0.000;    0.000
335.163; 1829.750;    0.000;    0.000
335.221; 1869.750;    0.000;    0.000
335.280; 1784.750;    0.000;    0.000
335.338; 1882.750;    0.000;    0.000
335.396; 1856.750;    0.000;    0.000
335.454; 1711.750;    0.000;    0.000
335.512; 1763.750;    0.000;    0.000
335.570; 1770.750;    0.000;    0.000
335.629; 1921.750;    0.000;    0.000
335.687; 1896.750;    0.000;    0.000
335.745; 1962.750;    0.000;    0.000
335.803; 1948.750;    0.000;    0.000
335.861; 1955.750;    0.000;    0.000
335.919; 1913.750;    0.000;    0.000
335.977; 1892.750;    0.000;    0.000
336.035; 1927.750;    0.000;    0.000
336.094; 1874.750;    0.000;    0.000
336.152; 2020.750;    0.000;    0.000
336.210; 2059.750;    0.000;    0.000
336.268; 2004.750;    0.000;    0.000
336.326; 1970.750;    0.000;    0.000
336.384; 1945.750;    0.000;    0.000
336.442; 1906.750;    0.000;    0.000
336.500; 1906.750;    0.000;    0.000
336.558; 1868.750;    0.000;    0.000
336.616; 1975.750;    0.000;    0.000
336.674; 1953.750;    0.000;    0.000
336.732; 2035.750;    0.000;    0.000
336.790; 1953.750;    0.000;    0.000
336.848; 1918.750;    0.000;    0.000
336.906; 2006.750;    0.000;    0.000
336.964; 1907.750;    0.000;    0.000
337.022; 1976.750;    0.000;    0.000
337.080; 2061.750;    0.000;    0.000
337.138; 1959.750;    0.000;    0.000
337.195; 1955.750;    0.000;    0.000
337.253; 1956.750;    0.000;    0.000
337.311; 1860.750;    0.000;    0.000
337.369; 1919.750;    0.000;    0.000
337.427; 1880.750;    0.000;    0.000
337.485; 1828.750;    0.000;    0.000
337.543; 1882.750;    0.000;    0.000
337.601; 1874.750;    0.000;    0.000
337.658; 1874.750;    0.000;    0.000
337.716; 1790.750;    0.000;    0.000
337.774; 1892.750;    0.000;    0.000
337.832; 1837.750;    0.000;    0.000
337.890; 1785.750;    0.000;    0.000
337.947; 1859.750;    0.000;    0.000
338.005; 1739.750;    0.000;    0.000
338.063; 1814.750;    0.000;    0.000
338.121; 1899.750;    0.000;    0.000
338.178; 1905.750;    0.000;    0.000
338.236; 1902.750;    0.000;    0.000
338.294; 1906.750;    0.000;    0.000
338.352; 1939.750;    0.000;    0.000
338.409; 1812.750;    0.000;    0.000
338.467; 1895.750;    0.000;    0.000
338.525; 1781.750;    0.000;    0.000
338.583; 1723.750;    0.000;    0.000
338.640; 1796.750;    0.000;    0.000
338.698; 1804.750;    0.000;    0.000
338.756; 1828.750;    0.000;    0.000
338.813; 1849.750;    0.000;    0.000
338.871; 1926.750;    0.000;    0.000
338.928; 1926.750;    0.000;    0.000
338.986; 1880.750;    0.000;    0.000
339.044; 1930.750;    0.000;    0.000
339.101; 1943.750;    0.000;    0.000
339.159; 1903.750;    0.000;    0.000
339.216; 1939.750;    0.000;    0.000
339.274; 1850.750;    0.000;    0.000
339.332; 1931.750;    0.000;    0.000
339.389; 1880.750;    0.000;    0.000
339.447; 1882.750;    0.000;    0.000
339.504; 1880.750;    0.000;    0.000
339.562; 1865.750;    0.000;    0.000
339.619; 1918.750;    0.000;    0.000
339.677; 1978.750;    0.000;    0.000
339.734; 1905.750;    0.000;    0.000
339.792; 1878.750;    0.000;    0.000
339.849; 1971.750;    0.000;    0.000
339.907; 1967.750;    0.000;    0.000
339.964; 1881.750;    0.000;    0.000
340.022; 1923.750;    0.000;    0.000
340.079; 1909.750;    0.000;    0.000
340.137; 1826.750;    0.000;    0.000
340.194; 1902.750;    0.000;    0.000
340.252; 1817.750;    0.000;    0.000
340.309; 1824.750;    0.000;    0.000
340.366; 1821.750;    0.000;    0.000
340.424; 1779.750;    0.000;    0.000
340.481; 1829.750;    0.000;    0.000
340.538; 1905.750;    0.000;    0.000
340.596; 1884.750;    0.000;    0.000
340.653; 1999.750;    0.000;    0.000
340.711; 2012.750;    0.000;    0.000
340.768; 2011.750;    0.000;    0.000
340.825; 2009.750;    0.000;    0.000
340.883; 1964.750;    0.000;    0.000
340.940; 2022.750;    0.000;    0.000
340.997; 1952.750;    0.000;    0.000
341.054; 1888.750;    0.000;    0.000
341.112; 1969.750;    0.000;    0.000
341.169; 1978.750;    0.000;    0.000
341.226; 2007.750;    0.000;    0.000
341.284; 2000.750;    0.000;    0.000
341.341; 2014.750;    0.000;    0.000
341.398; 1983.750;    0.000;    0.000
341.455; 1965.750;    0.000;    0.000
341.512; 1984.750;    0.000;    0.000
341.570; 2010.750;    0.000;    0.000
341.627; 1947.750;    0.000;    0.000
341.684; 1846.750;    0.000;    0.000
341.741; 1989.750;    0.000;    0.000
341.798; 1928.750;    0.000;    0.000
341.856; 1955.750;    0.000;    0.000
341.913; 2034.750;    0.000;    0.000
341.970; 2057.750;    0.000;    0.000
342.027; 2011.750;    0.000;    0.000
342.084; 2050.750;    0.000;    0.000
342.141; 2028.750;    0.000;    0.000
342.198; 2121.750;    0.000;    0.000
342.255; 2137.750;    0.000;    0.000
342.313; 2004.750;    0.000;    0.000
342.370; 1911.750;    0.000;    0.000
342.427; 1922.750;    0.000;    0.000
342.484; 1911.750;    0.000;    0.000
342.541; 1841.750;    0.000;    0.000
342.598; 1892.750;    0.000;    0.000
342.655; 1860.750;    0.000;    0.000
342.712; 1873.750;    0.000;    0.000
342.769; 1878.750;    0.000;    0.000
342.826; 1921.750;    0.000;    0.000
342.883; 1834.750;    0.000;    0.000
342.940; 1874.750;    0.000;    0.000
342.997; 1871.750;    0.000;    0.000
343.054; 1959.750;    0.000;    0.000
343.111; 1793.750;    0.000;    0.000
343.168; 1891.750;    0.000;    0.000
343.225; 1957.750;    0.000;    0.000
343.282; 1908.750;    0.000;    0.000
343.339; 1892.750;    0.000;    0.000
343.395; 1909.750;    0.000;    0.000
343.452; 1982.750;    0.000;    0.000
343.509; 1887.750;    0.000;    0.000
343.566; 1924.750;    0.000;    0.000
343.623; 1898.750;    0.000;    0.000
343.680; 1851.750;    0.000;    0.000
343.737; 1979.750;    0.000;    0.000
343.794; 2002.750;    0.000;    0.000
343.850; 1962.750;    0.000;    0.000
343.907; 1943.750;    0.000;    0.000
343.964; 2000.750;    0.000;    0.000
344.021; 1962.750;    0.000;    0.000
344.078; 2017.750;    0.000;    0.000
344.134; 2023.750;    0.000;    0.000
344.191; 1968.750;    0.000;    0.000
344.248; 1902.750;    0.000;    0.000
344.305; 2025.750;    0.000;    0.000
344.361; 1951.750;    0.000;    0.000
344.418; 1920.750;    0.000;    0.000
344.475; 2026.750;    0.000;    0.000
344.532; 1913.750;    0.000;    0.000
344.588; 1975.750;    0.000;    0.000
344.645; 1956.750;    0.000;    0.000
344.702; 1870.750;    0.000;    0.000
344.758; 2015.750;    0.000;    0.000
344.815; 1957.750;    0.000;    0.000
344.872; 2068.750;    0.000;    0.000
344.928; 2072.750;    0.000;    0.000
344.985; 2011.750;    0.000;    0.000
345.042; 1988.750;    0.000;    0.000
345.098; 2041.750;    0.000;    0.000
345.155; 1972.750;    0.000;    0.000
345.212; 1970.750;    0.000;    0.000
345.268; 2024.750;    0.000;    0.000
345.325; 1962.750;    0.000;    0.000
345.381; 2123.750;    0.000;    0.000
345.438; 2090.750;    0.000;    0.000
345.495; 2155.750;    0.000;    0.000
345.551; 2174.750;    0.000;    0.000
345.608; 2083.750;    0.000;    0.000
345.664; 2006.750;    0.000;    0.000
345.721; 1935.750;    0.000;    0.000
345.777; 1910.750;    0.000;    0.000
345.834; 1871.750;    0.000;    0.000
345.890; 1942.750;    0.000;    0.000
345.947; 1967.750;    0.000;    0.000
346.003; 1944.750;    0.000;    0.000
346.060; 1929.750;    0.000;    0.000
346.116; 1934.750;    0.000;    0.000
346.173; 1935.750;    0.000;    0.000
346.229; 2034.750;    0.000;    0.000
346.285; 1996.750;    0.000;    0.000
346.342; 2029.750;    0.000;    0.000
346.398; 2023.750;    0.000;    0.000
346.455; 2078.750;    0.000;    0.000
346.511; 2085.750;    0.000;    0.000
346.567; 2090.750;    0.000;    0.000
346.624; 2001.750;    0.000;    0.000
346.680; 1978.750;    0.000;    0.000
346.737; 2061.750;    0.000;    0.000
346.793; 2081.750;    0.000;    0.000
346.849; 2117.750;    0.000;    0.000
346.906; 2197.750;    0.000;    0.000
346.962; 2213.750;    0.000;    0.000
347.018; 2225.750;    0.000;    0.000
347.074; 2105.750;    0.000;    0.000
347.131; 2153.750;    0.000;    0.000
347.187; 2153.750;    0.000;    0.000
347.243; 2135.750;    0.000;    0.000
347.300; 2075.750;    0.000;    0.000
347.356; 2057.750;    0.000;    0.000
347.412; 2003.750;    0.000;    0.000
347.468; 1963.750;    0.000;    0.000
347.524; 1922.750;    0.000;    0.000
347.581; 2042.750;    0.000;    0.000
347.637; 1997.750;    0.000;    0.000
347.693; 2078.750;    0.000;    0.000
347.749; 2004.750;    0.000;    0.000
347.805; 2013.750;    0.000;    0.000
347.862; 1979.750;    0.000;    0.000
347.918; 2035.750;    0.000;    0.000
347.974; 2063.750;    0.000;    0.000
348.030; 1932.750;    0.000;    0.000
348.086; 1923.750;    0.000;    0.000
348.142; 2060.750;    0.000;    0.000
348.198; 1924.750;    0.000;    0.000
348.254; 2044.750;    0.000;    0.000
348.311; 1936.750;    0.000;    0.000
348.367; 1980.750;    0.000;    0.000
348.423; 1964.750;    0.000;    0.000
348.479; 1898.750;    0.000;    0.000
348.535; 2010.750;    0.000;    0.000
348.591; 1996.750;    0.000;    0.000
348.647; 1924.750;    0.000;    0.000
348.703; 2060.750;    0.000;    0.000
348.759; 1947.750;    0.000;    0.000
348.815; 1853.750;    0.000;    0.000
348.871; 1970.750;    0.000;    0.000
348.927; 1992.750;    0.000;    0.000
348.983; 2034.750;    0.000;    0.000
349.039; 2096.750;    0.000;    0.000
349.095; 2061.750;    0.000;    0.000
349.151; 1951.750;    0.000;    0.000
349.207; 2026.750;    0.000;    0.000
349.263; 2003.750;    0.000;    0.000
349.319; 1992.750;    0.000;    0.000
349.374; 1975.750;    0.000;    0.000
349.430; 2036.750;    0.000;    0.000
349.486; 2075.750;    0.000;    0.000
349.542; 2008.750;    0.000;    0.000
349.598; 2092.750;    0.000;    0.000
349.654; 2072.750;    0.000;    0.000
349.710; 2038.750;    0.000;    0.000
349.766; 2046.750;    0.000;    0.000
349.821; 2100.750;    0.000;    0.000
349.877; 2110.750;    0.000;    0.000
349.933; 2046.750;    0.000;    0.000
349.989; 2107.750;    0.000;    0.000
350.045; 1989.750;    0.000;    0.000
350.100; 2010.750;    0.000;    0.000
350.156; 1979.750;    0.000;    0.000
350.212; 2103.750;    0.000;    0.000
350.268; 1974.750;    0.000;    0.000
350.323; 2001.750;    0.000;    0.000
350.379; 2009.750;    0.000;    0.000
350.435; 2026.750;    0.000;    0.000
350.491; 1990.750;    0.000;    0.000
350.546; 1935.750;    0.000;    0.000
350.602; 1933.750;    0.000;    0.000
350.658; 2007.750;    0.000;    0.000
350.713; 2031.750;    0.000;    0.000
350.769; 1979.750;    0.000;    0.000
350.825; 1928.750;    0.000;    0.000
350.880; 2011.750;    0.000;    0.000
350.936; 1994.750;    0.000;    0.000
350.992; 2018.750;    0.000;    0.000
351.047; 1992.750;    0.000;    0.000
351.103; 2012.750;    0.000;    0.000
351.158; 1992.750;    0.000;    0.000
351.214; 1991.750;    0.000;    0.000
351.270; 1907.750;    0.000;    0.000
351.325; 1928.750;    0.000;    0.000
351.381; 1928.750;    0.000;    0.000
351.436; 1982.750;    0.000;    0.000
351.492; 2020.750;    0.000;    0.000
351.547; 2094.750;    0.000;    0.000
351.603; 2126.750;    0.000;    0.000
351.658; 2044.750;    0.000;    0.000
351.714; 1991.750;    0.000;    0.000
351.769; 2058.750;    0.000;    0.000
351.825; 2071.750;    0.000;    0.000
351.880; 2041.750;    0.000;    0.000
351.936; 2100.750;    0.000;    0.000
351.991; 2114.750;    0.000;    0.000
352.047; 2111.750;    0.000;    0.000
352.102; 2076.750;    0.000;    0.000
352.158; 1993.750;    0.000;    0.000
352.213; 1978.750;    0.000;    0.000
352.268; 1983.750;    0.000;    0.000
352.324; 2002.750;    0.000;    0.000
352.379; 2094.750;    0.000;    0.000
352.434; 2019.750;    0.000;    0.000
352.490; 2083.750;    0.000;    0.000
352.545; 2120.750;    0.000;    0.000
352.601; 2087.750;    0.000;    0.000
352.656; 1973.750;    0.000;    0.000
352.711; 1952.750;    0.000;    0.000
352.767; 1934.750;    0.000;    0.000
352.822; 1964.750;    0.000;    0.000
352.877; 1956.750;    0.000;    0.000
352.932; 2009.750;    0.000;    0.000
352.988; 1968.750;    0.000;    0.000
353.043; 2003.750;    0.000;    0.000
353.098; 2066.750;    0.000;    0.000
353.153; 2086.750;    0.000;    0.000
353.209; 1949.750;    0.000;    0.000
353.264; 1934.750;    0.000;    0.000
353.319; 1948.750;    0.000;    0.000
353.374; 1919.750;    0.000;    0.000
353.430; 1933.750;    0.000;    0.000
353.485; 2047.750;    0.000;    0.000
353.540; 1983.750;    0.000;    0.000
353.595; 1924.750;    0.000;    0.000
353.650; 1948.750;    0.000;    0.000
353.705; 1949.750;    0.000;    0.000
353.761; 2002.750;    0.000;    0.000
353.816; 1984.750;    0.000;    0.000
353.871; 1954.750;    0.000;    0.000
353.926; 1996.750;    0.000;    0.000
353.981; 1941.750;    0.000;    0.000
354.036; 1905.750;    0.000;    0.000
354.091; 1780.750;    0.000;    0.000
354.146; 2007.750;    0.000;    0.000
354.201; 1864.750;    0.000;    0.000
354.256; 1955.750;    0.000;    0.000
354.311; 1971.750;    0.000;    0.000
354.367; 1890.750;    0.000;    0.000
354.422; 1898.750;    0.000;    0.000
354.477; 1960.750;    0.000;    0.000
354.532; 1966.750;    0.000;    0.000
354.587; 1966.750;    0.000;    0.000
354.642; 1903.750;    0.000;    0.000
354.697; 2067.750;    0.000;    0.000
354.751; 2060.750;    0.000;    0.000
354.806; 2045.750;    0.000;    0.000
354.861; 1991.750;    0.000;    0.000
354.916; 2050.750;    0.000;    0.000
354.971; 2018.750;    0.000;    0.000
355.026; 1932.750;    0.000;    0.000
355.081; 1919.750;    0.000;    0.000
355.136; 1886.750;    0.000;    0.000
355.191; 1945.750;    0.000;    0.000
355.246; 1935.750;    0.000;    0.000
355.301; 1884.750;    0.000;    0.000
355.355; 1958.750;    0.000;    0.000
355.410; 1937.750;    0.000;    0.000
355.465; 1879.750;    0.000;    0.000
355.520; 1960.750;    0.000;    0.000
355.575; 1926.750;    0.000;    0.000
355.630; 1933.750;    0.000;    0.000
355.684; 1883.750;    0.000;    0.000
355.739; 1912.750;    0.000;    0.000
355.794; 1880.750;    0.000;    0.000
355.849; 1919.750;    0.000;    0.000
355.904; 1877.750;    0.000;    0.000
355.958; 1886.750;    0.000;    0.000
356.013; 1890.750;    0.000;    0.000
356.068; 1948.750;    0.000;    0.000
356.123; 1938.750;    0.000;    0.000
356.177; 1915.750;    0.000;    0.000
356.232; 1975.750;    0.000;    0.000
356.287; 1973.750;    0.000;    0.000
356.341; 1984.750;    0.000;    0.000
356.396; 1905.750;    0.000;    0.000
356.451; 1972.750;    0.000;    0.000
356.505; 1910.750;    0.000;    0.000
356.560; 1959.750;    0.000;    0.000
356.615; 1894.750;    0.000;    0.000
356.669; 1887.750;    0.000;    0.000
356.724; 1918.750;    0.000;    0.000
356.778; 1963.750;    0.000;    0.000
356.833; 1934.750;    0.000;    0.000
356.888; 1923.750;    0.000;    0.000
356.942; 1898.750;    0.000;    0.000
356.997; 1901.750;    0.000;    0.000
357.051; 1824.750;    0.000;    0.000
357.106; 1853.750;    0.000;    0.000
357.160; 1942.750;    0.000;    0.000
357.215; 1833.750;    0.000;    0.000
357.269; 1909.750;    0.000;    0.000
357.324; 1916.750;    0.000;    0.000
357.378; 1869.750;    0.000;    0.000
357.433; 1871.750;    0.000;    0.000
357.487; 1819.750;    0.000;    0.000
357.542; 1843.750;    0.000;    0.000
357.596; 1894.750;    0.000;    0.000
357.651; 1885.750;    0.000;    0.000
357.705; 1834.750;    0.000;    0.000
357.760; 1874.750;    0.000;    0.000
357.814; 1794.750;    0.000;    0.000
357.868; 1813.750;    0.000;    0.000
357.923; 1813.750;    0.000;    0.000
357.977; 1845.750;    0.000;    0.000
358.032; 1861.750;    0.000;    0.000
358.086; 1833.750;    0.000;    0.000
358.140; 1893.750;    0.000;    0.000
358.195; 1923.750;    0.000;    0.000
358.249; 1895.750;    0.000;    0.000
358.303; 1863.750;    0.000;    0.000
358.358; 1863.750;    0.000;    0.000
358.412; 1853.750;    0.000;    0.000
358.466; 1856.750;    0.000;    0.000
358.521; 1838.750;    0.000;    0.000
358.575; 1952.750;    0.000;    0.000
358.629; 1830.750;    0.000;    0.000
358.683; 1911.750;    0.000;    0.000
358.738; 1862.750;    0.000;    0.000
358.792; 1797.750;    0.000;    0.000
358.846; 1902.750;    0.000;    0.000
358.900; 1905.750;    0.000;    0.000
358.954; 1848.750;    0.000;    0.000
359.009; 1931.750;    0.000;    0.000
359.063; 1843.750;    0.000;    0.000
359.117; 1895.750;    0.000;    0.000
359.171; 1915.750;    0.000;    0.000
359.225; 1872.750;    0.000;    0.000
359.280; 1828.750;    0.000;    0.000
359.334; 1860.750;    0.000;    0.000
359.388; 1942.750;    0.000;    0.000
359.442; 1846.750;    0.000;    0.000
359.496; 1802.750;    0.000;    0.000
359.550; 1896.750;    0.000;    0.000
359.604; 1878.750;    0.000;    0.000
359.658; 1843.750;    0.000;    0.000
359.712; 1881.750;    0.000;    0.000
359.766; 1829.750;    0.000;    0.000
359.820; 1826.750;    0.000;    0.000
359.875; 1769.750;    0.000;    0.000
359.929; 1794.750;    0.000;    0.000
359.983; 1855.750;    0.000;    0.000
360.037; 1837.750;    0.000;    0.000
360.091; 1843.750;    0.000;    0.000
360.145; 1789.750;    0.000;    0.000
360.199; 1853.750;    0.000;    0.000
360.253; 1798.750;    0.000;    0.000
360.306; 1791.750;    0.000;    0.000
360.360; 1752.750;    0.000;    0.000
360.414; 1847.750;    0.000;    0.000
360.468; 1751.750;    0.000;    0.000
360.522; 1779.750;    0.000;    0.000
360.576; 1718.750;    0.000;    0.000
360.630; 1770.750;    0.000;    0.000
360.684; 1846.750;    0.000;    0.000
360.738; 1798.750;    0.000;    0.000
360.792; 1852.750;    0.000;    0.000
360.846; 1797.750;    0.000;    0.000
360.899; 1889.750;    0.000;    0.000
360.953; 1871.750;    0.000;    0.000
361.007; 1881.750;    0.000;    0.000
361.061; 1764.750;    0.000;    0.000
361.115; 1775.750;    0.000;    0.000
361.168; 1829.750;    0.000;    0.000
361.222; 1764.750;    0.000;    0.000
361.276; 1825.750;    0.000;    0.000
361.330; 1782.750;    0.000;    0.000
361.384; 1720.750;    0.000;    0.000
361.437; 1737.750;    0.000;    0.000
361.491; 1738.750;    0.000;    0.000
361.545; 1785.750;    0.000;    0.000
361.599; 1813.750;    0.000;    0.000
361.652; 1804.750;    0.000;    0.000
361.706; 1803.750;    0.000;    0.000
361.760; 1737.750;    0.000;    0.000
361.813; 1753.750;    0.000;    0.000
361.867; 1829.750;    0.000;    0.000
361.921; 1680.750;    0.000;    0.000
361.974; 1706.750;    0.000;    0.000
362.028; 1827.750;    0.000;    0.000
362.082; 1763.750;    0.000;    0.000
362.135; 1703.750;    0.000;    0.000
362.189; 1752.750;    0.000;    0.000
362.242; 1741.750;    0.000;    0.000
362.296; 1696.750;    0.000;    0.000
362.350; 1744.750;    0.000;    0.000
362.403; 1744.750;    0.000;    0.000
362.457; 1822.750;    0.000;    0.000
362.510; 1827.750;    0.000;    0.000
362.564; 1740.750;    0.000;    0.000
362.617; 1740.750;    0.000;    0.000
362.671; 1740.750;    0.000;    0.000
362.724; 1721.750;    0.000;    0.000
362.778; 1700.750;    0.000;    0.000
362.831; 1730.750;    0.000;    0.000
362.885; 1670.750;    0.000;    0.000
362.938; 1648.750;    0.000;    0.000
362.992;  377.750;    0.000;    0.000
363.045;  310.750;    0.000;    0.000
363.099;  289.750;    0.000;    0.000
363.152;  315.750;    0.000;    0.000
363.205;  298.750;    0.000;    0.000
363.259;  259.750;    0.000;    0.000
363.312;  313.750;    0.000;    0.000
363.366;  303.750;    0.000;    0.000
363.419;  330.750;    0.000;    0.000
363.472;  311.750;    0.000;    0.000
363.526;  288.750;    0.000;    0.000
363.579;  321.750;    0.000;    0.000
363.632;  266.750;    0.000;    0.000
363.686;  287.750;    0.000;    0.000
363.739;  280.750;    0.000;    0.000
363.792;  274.750;    0.000;    0.000

