Sulfato50_Burst5-n5
Integration time [ms]:   1.000
Averaging Nr. [scans]: 1
Smoothing Nr. [pixels]: 0
Data measured with spectrometer [name]: UV1
Wave   ;Sample   ;Dark     ;Reference
[nm]   ;[counts] ;[counts] ;[counts] 

236.381;  154.900;    0.000;    0.000
236.451;  169.900;    0.000;    0.000
236.520;  188.900;    0.000;    0.000
236.590;  177.900;    0.000;    0.000
236.660;  182.900;    0.000;    0.000
236.730;  188.900;    0.000;    0.000
236.799;  202.900;    0.000;    0.000
236.869;  181.900;    0.000;    0.000
236.939;  202.900;    0.000;    0.000
237.009;  198.900;    0.000;    0.000
237.078;  185.900;    0.000;    0.000
237.148;  164.900;    0.000;    0.000
237.218;  212.900;    0.000;    0.000
237.287;  172.900;    0.000;    0.000
237.357;  188.900;    0.000;    0.000
237.427;  168.900;    0.000;    0.000
237.496;  407.900;    0.000;    0.000
237.566;  389.900;    0.000;    0.000
237.636;  341.900;    0.000;    0.000
237.705;  377.900;    0.000;    0.000
237.775;  387.900;    0.000;    0.000
237.845;  395.900;    0.000;    0.000
237.914;  362.900;    0.000;    0.000
237.984;  392.900;    0.000;    0.000
238.054;  360.900;    0.000;    0.000
238.123;  385.900;    0.000;    0.000
238.193;  389.900;    0.000;    0.000
238.263;  334.900;    0.000;    0.000
238.332;  321.900;    0.000;    0.000
238.402;  389.900;    0.000;    0.000
238.471;  320.900;    0.000;    0.000
238.541;  386.900;    0.000;    0.000
238.611;  334.900;    0.000;    0.000
238.680;  368.900;    0.000;    0.000
238.750;  356.900;    0.000;    0.000
238.819;  359.900;    0.000;    0.000
238.889;  334.900;    0.000;    0.000
238.958;  402.900;    0.000;    0.000
239.028;  389.900;    0.000;    0.000
239.097;  359.900;    0.000;    0.000
239.167;  399.900;    0.000;    0.000
239.237;  376.900;    0.000;    0.000
239.306;  328.900;    0.000;    0.000
239.376;  392.900;    0.000;    0.000
239.445;  401.900;    0.000;    0.000
239.515;  361.900;    0.000;    0.000
239.584;  397.900;    0.000;    0.000
239.654;  313.900;    0.000;    0.000
239.723;  339.900;    0.000;    0.000
239.793;  368.900;    0.000;    0.000
239.862;  326.900;    0.000;    0.000
239.932;  350.900;    0.000;    0.000
240.001;  364.900;    0.000;    0.000
240.070;  381.900;    0.000;    0.000
240.140;  393.900;    0.000;    0.000
240.209;  358.900;    0.000;    0.000
240.279;  328.900;    0.000;    0.000
240.348;  371.900;    0.000;    0.000
240.418;  360.900;    0.000;    0.000
240.487;  340.900;    0.000;    0.000
240.556;  408.900;    0.000;    0.000
240.626;  343.900;    0.000;    0.000
240.695;  375.900;    0.000;    0.000
240.765;  339.900;    0.000;    0.000
240.834;  337.900;    0.000;    0.000
240.903;  337.900;    0.000;    0.000
240.973;  335.900;    0.000;    0.000
241.042;  411.900;    0.000;    0.000
241.112;  367.900;    0.000;    0.000
241.181;  346.900;    0.000;    0.000
241.250;  340.900;    0.000;    0.000
241.320;  399.900;    0.000;    0.000
241.389;  313.900;    0.000;    0.000
241.458;  355.900;    0.000;    0.000
241.528;  330.900;    0.000;    0.000
241.597;  357.900;    0.000;    0.000
241.666;  345.900;    0.000;    0.000
241.736;  392.900;    0.000;    0.000
241.805;  347.900;    0.000;    0.000
241.874;  416.900;    0.000;    0.000
241.943;  348.900;    0.000;    0.000
242.013;  386.900;    0.000;    0.000
242.082;  369.900;    0.000;    0.000
242.151;  345.900;    0.000;    0.000
242.221;  321.900;    0.000;    0.000
242.290;  393.900;    0.000;    0.000
242.359;  320.900;    0.000;    0.000
242.428;  364.900;    0.000;    0.000
242.498;  306.900;    0.000;    0.000
242.567;  380.900;    0.000;    0.000
242.636;  392.900;    0.000;    0.000
242.705;  399.900;    0.000;    0.000
242.774;  313.900;    0.000;    0.000
242.844;  362.900;    0.000;    0.000
242.913;  353.900;    0.000;    0.000
242.982;  353.900;    0.000;    0.000
243.051;  343.900;    0.000;    0.000
243.120;  338.900;    0.000;    0.000
243.190;  348.900;    0.000;    0.000
243.259;  364.900;    0.000;    0.000
243.328;  328.900;    0.000;    0.000
243.397;  371.900;    0.000;    0.000
243.466;  358.900;    0.000;    0.000
243.535;  375.900;    0.000;    0.000
243.605;  367.900;    0.000;    0.000
243.674;  351.900;    0.000;    0.000
243.743;  353.900;    0.000;    0.000
243.812;  334.900;    0.000;    0.000
243.881;  351.900;    0.000;    0.000
243.950;  335.900;    0.000;    0.000
244.019;  357.900;    0.000;    0.000
244.088;  342.900;    0.000;    0.000
244.158;  382.900;    0.000;    0.000
244.227;  355.900;    0.000;    0.000
244.296;  371.900;    0.000;    0.000
244.365;  376.900;    0.000;    0.000
244.434;  304.900;    0.000;    0.000
244.503;  362.900;    0.000;    0.000
244.572;  331.900;    0.000;    0.000
244.641;  345.900;    0.000;    0.000
244.710;  351.900;    0.000;    0.000
244.779;  345.900;    0.000;    0.000
244.848;  348.900;    0.000;    0.000
244.917;  365.900;    0.000;    0.000
244.986;  352.900;    0.000;    0.000
245.055;  341.900;    0.000;    0.000
245.124;  410.900;    0.000;    0.000
245.193;  359.900;    0.000;    0.000
245.262;  344.900;    0.000;    0.000
245.331;  383.900;    0.000;    0.000
245.400;  334.900;    0.000;    0.000
245.469;  384.900;    0.000;    0.000
245.538;  337.900;    0.000;    0.000
245.607;  387.900;    0.000;    0.000
245.676;  363.900;    0.000;    0.000
245.745;  404.900;    0.000;    0.000
245.814;  383.900;    0.000;    0.000
245.883;  376.900;    0.000;    0.000
245.952;  337.900;    0.000;    0.000
246.021;  359.900;    0.000;    0.000
246.090;  353.900;    0.000;    0.000
246.159;  367.900;    0.000;    0.000
246.227;  323.900;    0.000;    0.000
246.296;  380.900;    0.000;    0.000
246.365;  367.900;    0.000;    0.000
246.434;  372.900;    0.000;    0.000
246.503;  379.900;    0.000;    0.000
246.572;  355.900;    0.000;    0.000
246.641;  329.900;    0.000;    0.000
246.710;  381.900;    0.000;    0.000
246.779;  395.900;    0.000;    0.000
246.847;  347.900;    0.000;    0.000
246.916;  371.900;    0.000;    0.000
246.985;  362.900;    0.000;    0.000
247.054;  376.900;    0.000;    0.000
247.123;  319.900;    0.000;    0.000
247.192;  345.900;    0.000;    0.000
247.260;  311.900;    0.000;    0.000
247.329;  366.900;    0.000;    0.000
247.398;  345.900;    0.000;    0.000
247.467;  331.900;    0.000;    0.000
247.536;  386.900;    0.000;    0.000
247.604;  411.900;    0.000;    0.000
247.673;  360.900;    0.000;    0.000
247.742;  350.900;    0.000;    0.000
247.811;  371.900;    0.000;    0.000
247.879;  362.900;    0.000;    0.000
247.948;  381.900;    0.000;    0.000
248.017;  337.900;    0.000;    0.000
248.086;  354.900;    0.000;    0.000
248.154;  379.900;    0.000;    0.000
248.223;  388.900;    0.000;    0.000
248.292;  382.900;    0.000;    0.000
248.360;  364.900;    0.000;    0.000
248.429;  364.900;    0.000;    0.000
248.498;  387.900;    0.000;    0.000
248.567;  393.900;    0.000;    0.000
248.635;  366.900;    0.000;    0.000
248.704;  373.900;    0.000;    0.000
248.773;  377.900;    0.000;    0.000
248.841;  399.900;    0.000;    0.000
248.910;  366.900;    0.000;    0.000
248.979;  334.900;    0.000;    0.000
249.047;  322.900;    0.000;    0.000
249.116;  332.900;    0.000;    0.000
249.185;  365.900;    0.000;    0.000
249.253;  350.900;    0.000;    0.000
249.322;  382.900;    0.000;    0.000
249.390;  352.900;    0.000;    0.000
249.459;  349.900;    0.000;    0.000
249.528;  348.900;    0.000;    0.000
249.596;  354.900;    0.000;    0.000
249.665;  352.900;    0.000;    0.000
249.733;  347.900;    0.000;    0.000
249.802;  330.900;    0.000;    0.000
249.871;  393.900;    0.000;    0.000
249.939;  322.900;    0.000;    0.000
250.008;  315.900;    0.000;    0.000
250.076;  375.900;    0.000;    0.000
250.145;  328.900;    0.000;    0.000
250.213;  284.900;    0.000;    0.000
250.282;  322.900;    0.000;    0.000
250.350;  335.900;    0.000;    0.000
250.419;  353.900;    0.000;    0.000
250.487;  333.900;    0.000;    0.000
250.556;  379.900;    0.000;    0.000
250.624;  356.900;    0.000;    0.000
250.693;  289.900;    0.000;    0.000
250.761;  290.900;    0.000;    0.000
250.830;  344.900;    0.000;    0.000
250.898;  307.900;    0.000;    0.000
250.967;  297.900;    0.000;    0.000
251.035;  268.900;    0.000;    0.000
251.104;  284.900;    0.000;    0.000
251.172;  315.900;    0.000;    0.000
251.241;  297.900;    0.000;    0.000
251.309;  302.900;    0.000;    0.000
251.378;  315.900;    0.000;    0.000
251.446;  311.900;    0.000;    0.000
251.514;  315.900;    0.000;    0.000
251.583;  332.900;    0.000;    0.000
251.651;  288.900;    0.000;    0.000
251.720;  317.900;    0.000;    0.000
251.788;  367.900;    0.000;    0.000
251.856;  285.900;    0.000;    0.000
251.925;  287.900;    0.000;    0.000
251.993;  309.900;    0.000;    0.000
252.062;  322.900;    0.000;    0.000
252.130;  311.900;    0.000;    0.000
252.198;  278.900;    0.000;    0.000
252.267;  303.900;    0.000;    0.000
252.335;  294.900;    0.000;    0.000
252.403;  288.900;    0.000;    0.000
252.472;  289.900;    0.000;    0.000
252.540;  294.900;    0.000;    0.000
252.608;  297.900;    0.000;    0.000
252.677;  260.900;    0.000;    0.000
252.745;  311.900;    0.000;    0.000
252.813;  296.900;    0.000;    0.000
252.881;  246.900;    0.000;    0.000
252.950;  272.900;    0.000;    0.000
253.018;  291.900;    0.000;    0.000
253.086;  249.900;    0.000;    0.000
253.155;  293.900;    0.000;    0.000
253.223;  264.900;    0.000;    0.000
253.291;  313.900;    0.000;    0.000
253.359;  303.900;    0.000;    0.000
253.427;  308.900;    0.000;    0.000
253.496;  288.900;    0.000;    0.000
253.564;  293.900;    0.000;    0.000
253.632;  246.900;    0.000;    0.000
253.700;  289.900;    0.000;    0.000
253.769;  271.900;    0.000;    0.000
253.837;  319.900;    0.000;    0.000
253.905;  248.900;    0.000;    0.000
253.973;  240.900;    0.000;    0.000
254.041;  274.900;    0.000;    0.000
254.110;  267.900;    0.000;    0.000
254.178;  263.900;    0.000;    0.000
254.246;  247.900;    0.000;    0.000
254.314;  279.900;    0.000;    0.000
254.382;  308.900;    0.000;    0.000
254.450;  249.900;    0.000;    0.000
254.518;  241.900;    0.000;    0.000
254.587;  273.900;    0.000;    0.000
254.655;  275.900;    0.000;    0.000
254.723;  273.900;    0.000;    0.000
254.791;  262.900;    0.000;    0.000
254.859;  280.900;    0.000;    0.000
254.927;  294.900;    0.000;    0.000
254.995;  251.900;    0.000;    0.000
255.063;  288.900;    0.000;    0.000
255.131;  256.900;    0.000;    0.000
255.199;  255.900;    0.000;    0.000
255.267;  248.900;    0.000;    0.000
255.336;  307.900;    0.000;    0.000
255.404;  279.900;    0.000;    0.000
255.472;  309.900;    0.000;    0.000
255.540;  267.900;    0.000;    0.000
255.608;  297.900;    0.000;    0.000
255.676;  265.900;    0.000;    0.000
255.744;  271.900;    0.000;    0.000
255.812;  290.900;    0.000;    0.000
255.880;  329.900;    0.000;    0.000
255.948;  300.900;    0.000;    0.000
256.016;  280.900;    0.000;    0.000
256.084;  327.900;    0.000;    0.000
256.152;  312.900;    0.000;    0.000
256.220;  278.900;    0.000;    0.000
256.288;  245.900;    0.000;    0.000
256.356;  261.900;    0.000;    0.000
256.424;  249.900;    0.000;    0.000
256.491;  255.900;    0.000;    0.000
256.559;  270.900;    0.000;    0.000
256.627;  252.900;    0.000;    0.000
256.695;  234.900;    0.000;    0.000
256.763;  294.900;    0.000;    0.000
256.831;  289.900;    0.000;    0.000
256.899;  274.900;    0.000;    0.000
256.967;  263.900;    0.000;    0.000
257.035;  294.900;    0.000;    0.000
257.103;  324.900;    0.000;    0.000
257.171;  254.900;    0.000;    0.000
257.238;  274.900;    0.000;    0.000
257.306;  269.900;    0.000;    0.000
257.374;  258.900;    0.000;    0.000
257.442;  269.900;    0.000;    0.000
257.510;  264.900;    0.000;    0.000
257.578;  224.900;    0.000;    0.000
257.646;  246.900;    0.000;    0.000
257.713;  260.900;    0.000;    0.000
257.781;  260.900;    0.000;    0.000
257.849;  283.900;    0.000;    0.000
257.917;  289.900;    0.000;    0.000
257.985;  268.900;    0.000;    0.000
258.052;  293.900;    0.000;    0.000
258.120;  279.900;    0.000;    0.000
258.188;  267.900;    0.000;    0.000
258.256;  282.900;    0.000;    0.000
258.324;  335.900;    0.000;    0.000
258.391;  306.900;    0.000;    0.000
258.459;  319.900;    0.000;    0.000
258.527;  281.900;    0.000;    0.000
258.595;  280.900;    0.000;    0.000
258.662;  239.900;    0.000;    0.000
258.730;  282.900;    0.000;    0.000
258.798;  315.900;    0.000;    0.000
258.865;  326.900;    0.000;    0.000
258.933;  317.900;    0.000;    0.000
259.001;  323.900;    0.000;    0.000
259.069;  236.900;    0.000;    0.000
259.136;  257.900;    0.000;    0.000
259.204;  314.900;    0.000;    0.000
259.272;  334.900;    0.000;    0.000
259.339;  323.900;    0.000;    0.000
259.407;  335.900;    0.000;    0.000
259.475;  286.900;    0.000;    0.000
259.542;  304.900;    0.000;    0.000
259.610;  328.900;    0.000;    0.000
259.677;  293.900;    0.000;    0.000
259.745;  305.900;    0.000;    0.000
259.813;  322.900;    0.000;    0.000
259.880;  375.900;    0.000;    0.000
259.948;  355.900;    0.000;    0.000
260.016;  320.900;    0.000;    0.000
260.083;  360.900;    0.000;    0.000
260.151;  314.900;    0.000;    0.000
260.218;  385.900;    0.000;    0.000
260.286;  341.900;    0.000;    0.000
260.353;  331.900;    0.000;    0.000
260.421;  333.900;    0.000;    0.000
260.489;  342.900;    0.000;    0.000
260.556;  344.900;    0.000;    0.000
260.624;  334.900;    0.000;    0.000
260.691;  327.900;    0.000;    0.000
260.759;  360.900;    0.000;    0.000
260.826;  328.900;    0.000;    0.000
260.894;  331.900;    0.000;    0.000
260.961;  366.900;    0.000;    0.000
261.029;  393.900;    0.000;    0.000
261.096;  389.900;    0.000;    0.000
261.164;  361.900;    0.000;    0.000
261.231;  335.900;    0.000;    0.000
261.299;  380.900;    0.000;    0.000
261.366;  376.900;    0.000;    0.000
261.434;  368.900;    0.000;    0.000
261.501;  368.900;    0.000;    0.000
261.568;  353.900;    0.000;    0.000
261.636;  379.900;    0.000;    0.000
261.703;  439.900;    0.000;    0.000
261.771;  411.900;    0.000;    0.000
261.838;  419.900;    0.000;    0.000
261.906;  362.900;    0.000;    0.000
261.973;  409.900;    0.000;    0.000
262.040;  425.900;    0.000;    0.000
262.108;  401.900;    0.000;    0.000
262.175;  387.900;    0.000;    0.000
262.243;  426.900;    0.000;    0.000
262.310;  332.900;    0.000;    0.000
262.377;  414.900;    0.000;    0.000
262.445;  392.900;    0.000;    0.000
262.512;  383.900;    0.000;    0.000
262.579;  448.900;    0.000;    0.000
262.647;  417.900;    0.000;    0.000
262.714;  420.900;    0.000;    0.000
262.781;  399.900;    0.000;    0.000
262.849;  383.900;    0.000;    0.000
262.916;  413.900;    0.000;    0.000
262.983;  486.900;    0.000;    0.000
263.051;  419.900;    0.000;    0.000
263.118;  445.900;    0.000;    0.000
263.185;  469.900;    0.000;    0.000
263.252;  396.900;    0.000;    0.000
263.320;  418.900;    0.000;    0.000
263.387;  451.900;    0.000;    0.000
263.454;  400.900;    0.000;    0.000
263.522;  412.900;    0.000;    0.000
263.589;  481.900;    0.000;    0.000
263.656;  456.900;    0.000;    0.000
263.723;  417.900;    0.000;    0.000
263.790;  443.900;    0.000;    0.000
263.858;  471.900;    0.000;    0.000
263.925;  468.900;    0.000;    0.000
263.992;  469.900;    0.000;    0.000
264.059;  492.900;    0.000;    0.000
264.126;  447.900;    0.000;    0.000
264.194;  457.900;    0.000;    0.000
264.261;  489.900;    0.000;    0.000
264.328;  508.900;    0.000;    0.000
264.395;  491.900;    0.000;    0.000
264.462;  499.900;    0.000;    0.000
264.529;  482.900;    0.000;    0.000
264.597;  478.900;    0.000;    0.000
264.664;  501.900;    0.000;    0.000
264.731;  517.900;    0.000;    0.000
264.798;  509.900;    0.000;    0.000
264.865;  472.900;    0.000;    0.000
264.932;  486.900;    0.000;    0.000
264.999;  456.900;    0.000;    0.000
265.066;  504.900;    0.000;    0.000
265.133;  522.900;    0.000;    0.000
265.201;  539.900;    0.000;    0.000
265.268;  472.900;    0.000;    0.000
265.335;  493.900;    0.000;    0.000
265.402;  551.900;    0.000;    0.000
265.469;  524.900;    0.000;    0.000
265.536;  549.900;    0.000;    0.000
265.603;  517.900;    0.000;    0.000
265.670;  550.900;    0.000;    0.000
265.737;  519.900;    0.000;    0.000
265.804;  585.900;    0.000;    0.000
265.871;  540.900;    0.000;    0.000
265.938;  520.900;    0.000;    0.000
266.005;  520.900;    0.000;    0.000
266.072;  479.900;    0.000;    0.000
266.139;  540.900;    0.000;    0.000
266.206;  505.900;    0.000;    0.000
266.273;  541.900;    0.000;    0.000
266.340;  503.900;    0.000;    0.000
266.407;  529.900;    0.000;    0.000
266.474;  491.900;    0.000;    0.000
266.541;  594.900;    0.000;    0.000
266.608;  514.900;    0.000;    0.000
266.675;  609.900;    0.000;    0.000
266.742;  574.900;    0.000;    0.000
266.808;  585.900;    0.000;    0.000
266.875;  582.900;    0.000;    0.000
266.942;  558.900;    0.000;    0.000
267.009;  542.900;    0.000;    0.000
267.076;  540.900;    0.000;    0.000
267.143;  560.900;    0.000;    0.000
267.210;  632.900;    0.000;    0.000
267.277;  490.900;    0.000;    0.000
267.344;  544.900;    0.000;    0.000
267.410;  553.900;    0.000;    0.000
267.477;  575.900;    0.000;    0.000
267.544;  573.900;    0.000;    0.000
267.611;  610.900;    0.000;    0.000
267.678;  559.900;    0.000;    0.000
267.745;  568.900;    0.000;    0.000
267.811;  545.900;    0.000;    0.000
267.878;  590.900;    0.000;    0.000
267.945;  552.900;    0.000;    0.000
268.012;  587.900;    0.000;    0.000
268.079;  609.900;    0.000;    0.000
268.145;  600.900;    0.000;    0.000
268.212;  582.900;    0.000;    0.000
268.279;  561.900;    0.000;    0.000
268.346;  569.900;    0.000;    0.000
268.412;  606.900;    0.000;    0.000
268.479;  589.900;    0.000;    0.000
268.546;  600.900;    0.000;    0.000
268.613;  608.900;    0.000;    0.000
268.679;  620.900;    0.000;    0.000
268.746;  596.900;    0.000;    0.000
268.813;  590.900;    0.000;    0.000
268.879;  567.900;    0.000;    0.000
268.946;  619.900;    0.000;    0.000
269.013;  599.900;    0.000;    0.000
269.079;  601.900;    0.000;    0.000
269.146;  586.900;    0.000;    0.000
269.213;  639.900;    0.000;    0.000
269.279;  609.900;    0.000;    0.000
269.346;  611.900;    0.000;    0.000
269.413;  578.900;    0.000;    0.000
269.479;  656.900;    0.000;    0.000
269.546;  605.900;    0.000;    0.000
269.613;  550.900;    0.000;    0.000
269.679;  579.900;    0.000;    0.000
269.746;  546.900;    0.000;    0.000
269.813;  583.900;    0.000;    0.000
269.879;  618.900;    0.000;    0.000
269.946;  634.900;    0.000;    0.000
270.012;  603.900;    0.000;    0.000
270.079;  556.900;    0.000;    0.000
270.145;  567.900;    0.000;    0.000
270.212;  566.900;    0.000;    0.000
270.279;  608.900;    0.000;    0.000
270.345;  593.900;    0.000;    0.000
270.412;  609.900;    0.000;    0.000
270.478;  571.900;    0.000;    0.000
270.545;  596.900;    0.000;    0.000
270.611;  639.900;    0.000;    0.000
270.678;  574.900;    0.000;    0.000
270.744;  598.900;    0.000;    0.000
270.811;  607.900;    0.000;    0.000
270.877;  543.900;    0.000;    0.000
270.944;  607.900;    0.000;    0.000
271.010;  548.900;    0.000;    0.000
271.077;  554.900;    0.000;    0.000
271.143;  613.900;    0.000;    0.000
271.210;  569.900;    0.000;    0.000
271.276;  587.900;    0.000;    0.000
271.343;  643.900;    0.000;    0.000
271.409;  602.900;    0.000;    0.000
271.475;  586.900;    0.000;    0.000
271.542;  572.900;    0.000;    0.000
271.608;  567.900;    0.000;    0.000
271.675;  595.900;    0.000;    0.000
271.741;  570.900;    0.000;    0.000
271.807;  600.900;    0.000;    0.000
271.874;  661.900;    0.000;    0.000
271.940;  601.900;    0.000;    0.000
272.007;  551.900;    0.000;    0.000
272.073;  584.900;    0.000;    0.000
272.139;  583.900;    0.000;    0.000
272.206;  604.900;    0.000;    0.000
272.272;  622.900;    0.000;    0.000
272.338;  607.900;    0.000;    0.000
272.405;  567.900;    0.000;    0.000
272.471;  565.900;    0.000;    0.000
272.537;  619.900;    0.000;    0.000
272.604;  536.900;    0.000;    0.000
272.670;  619.900;    0.000;    0.000
272.736;  583.900;    0.000;    0.000
272.803;  624.900;    0.000;    0.000
272.869;  553.900;    0.000;    0.000
272.935;  567.900;    0.000;    0.000
273.001;  613.900;    0.000;    0.000
273.068;  583.900;    0.000;    0.000
273.134;  567.900;    0.000;    0.000
273.200;  628.900;    0.000;    0.000
273.266;  593.900;    0.000;    0.000
273.333;  644.900;    0.000;    0.000
273.399;  549.900;    0.000;    0.000
273.465;  661.900;    0.000;    0.000
273.531;  571.900;    0.000;    0.000
273.597;  624.900;    0.000;    0.000
273.664;  649.900;    0.000;    0.000
273.730;  544.900;    0.000;    0.000
273.796;  642.900;    0.000;    0.000
273.862;  661.900;    0.000;    0.000
273.928;  589.900;    0.000;    0.000
273.994;  634.900;    0.000;    0.000
274.061;  617.900;    0.000;    0.000
274.127;  596.900;    0.000;    0.000
274.193;  614.900;    0.000;    0.000
274.259;  618.900;    0.000;    0.000
274.325;  584.900;    0.000;    0.000
274.391;  610.900;    0.000;    0.000
274.457;  567.900;    0.000;    0.000
274.524;  664.900;    0.000;    0.000
274.590;  590.900;    0.000;    0.000
274.656;  563.900;    0.000;    0.000
274.722;  656.900;    0.000;    0.000
274.788;  621.900;    0.000;    0.000
274.854;  627.900;    0.000;    0.000
274.920;  570.900;    0.000;    0.000
274.986;  633.900;    0.000;    0.000
275.052;  607.900;    0.000;    0.000
275.118;  626.900;    0.000;    0.000
275.184;  673.900;    0.000;    0.000
275.250;  640.900;    0.000;    0.000
275.316;  654.900;    0.000;    0.000
275.382;  607.900;    0.000;    0.000
275.448;  658.900;    0.000;    0.000
275.514;  650.900;    0.000;    0.000
275.580;  691.900;    0.000;    0.000
275.646;  642.900;    0.000;    0.000
275.712;  629.900;    0.000;    0.000
275.778;  674.900;    0.000;    0.000
275.844;  678.900;    0.000;    0.000
275.910;  719.900;    0.000;    0.000
275.976;  706.900;    0.000;    0.000
276.042;  674.900;    0.000;    0.000
276.108;  778.900;    0.000;    0.000
276.174;  686.900;    0.000;    0.000
276.240;  737.900;    0.000;    0.000
276.306;  694.900;    0.000;    0.000
276.372;  724.900;    0.000;    0.000
276.437;  690.900;    0.000;    0.000
276.503;  738.900;    0.000;    0.000
276.569;  718.900;    0.000;    0.000
276.635;  702.900;    0.000;    0.000
276.701;  777.900;    0.000;    0.000
276.767;  770.900;    0.000;    0.000
276.833;  756.900;    0.000;    0.000
276.899;  816.900;    0.000;    0.000
276.964;  826.900;    0.000;    0.000
277.030;  810.900;    0.000;    0.000
277.096;  818.900;    0.000;    0.000
277.162;  941.900;    0.000;    0.000
277.228;  899.900;    0.000;    0.000
277.293;  910.900;    0.000;    0.000
277.359;  920.900;    0.000;    0.000
277.425; 1042.900;    0.000;    0.000
277.491; 1046.900;    0.000;    0.000
277.557; 1119.900;    0.000;    0.000
277.622; 1442.900;    0.000;    0.000
277.688; 1585.900;    0.000;    0.000
277.754; 1534.900;    0.000;    0.000
277.820; 1764.900;    0.000;    0.000
277.885; 1773.900;    0.000;    0.000
277.951; 2310.900;    0.000;    0.000
278.017; 2276.900;    0.000;    0.000
278.083; 1826.900;    0.000;    0.000
278.148; 1821.900;    0.000;    0.000
278.214; 1782.900;    0.000;    0.000
278.280; 1924.900;    0.000;    0.000
278.345; 1783.900;    0.000;    0.000
278.411; 1606.900;    0.000;    0.000
278.477; 1616.900;    0.000;    0.000
278.542; 1676.900;    0.000;    0.000
278.608; 1909.900;    0.000;    0.000
278.674; 2043.900;    0.000;    0.000
278.739; 2118.900;    0.000;    0.000
278.805; 2455.900;    0.000;    0.000
278.871; 2739.900;    0.000;    0.000
278.936; 3274.900;    0.000;    0.000
279.002; 4641.900;    0.000;    0.000
279.067; 6494.900;    0.000;    0.000
279.133; 7041.900;    0.000;    0.000
279.199; 6223.900;    0.000;    0.000
279.264; 6104.900;    0.000;    0.000
279.330; 6882.900;    0.000;    0.000
279.395; 8662.900;    0.000;    0.000
279.461;11302.900;    0.000;    0.000
279.527;13937.900;    0.000;    0.000
279.592;13593.900;    0.000;    0.000
279.658;11444.900;    0.000;    0.000
279.723;10396.900;    0.000;    0.000
279.789;11020.900;    0.000;    0.000
279.854;10198.900;    0.000;    0.000
279.920; 8314.900;    0.000;    0.000
279.985; 7313.900;    0.000;    0.000
280.051; 7021.900;    0.000;    0.000
280.116; 8113.900;    0.000;    0.000
280.182;10608.900;    0.000;    0.000
280.247;13112.900;    0.000;    0.000
280.313;12118.900;    0.000;    0.000
280.378; 8978.900;    0.000;    0.000
280.444; 6352.900;    0.000;    0.000
280.509; 4835.900;    0.000;    0.000
280.574; 4085.900;    0.000;    0.000
280.640; 3532.900;    0.000;    0.000
280.705; 3148.900;    0.000;    0.000
280.771; 2837.900;    0.000;    0.000
280.836; 2711.900;    0.000;    0.000
280.902; 2480.900;    0.000;    0.000
280.967; 2405.900;    0.000;    0.000
281.032; 2141.900;    0.000;    0.000
281.098; 2072.900;    0.000;    0.000
281.163; 1951.900;    0.000;    0.000
281.229; 1955.900;    0.000;    0.000
281.294; 1800.900;    0.000;    0.000
281.359; 1724.900;    0.000;    0.000
281.425; 1707.900;    0.000;    0.000
281.490; 1549.900;    0.000;    0.000
281.555; 1557.900;    0.000;    0.000
281.621; 1463.900;    0.000;    0.000
281.686; 1451.900;    0.000;    0.000
281.751; 1433.900;    0.000;    0.000
281.817; 1416.900;    0.000;    0.000
281.882; 1394.900;    0.000;    0.000
281.947; 1295.900;    0.000;    0.000
282.012; 1293.900;    0.000;    0.000
282.078; 1350.900;    0.000;    0.000
282.143; 1213.900;    0.000;    0.000
282.208; 1290.900;    0.000;    0.000
282.273; 1249.900;    0.000;    0.000
282.339; 1158.900;    0.000;    0.000
282.404; 1170.900;    0.000;    0.000
282.469; 1056.900;    0.000;    0.000
282.534; 1094.900;    0.000;    0.000
282.600; 1176.900;    0.000;    0.000
282.665; 1080.900;    0.000;    0.000
282.730; 1062.900;    0.000;    0.000
282.795; 1093.900;    0.000;    0.000
282.860; 1094.900;    0.000;    0.000
282.926; 1127.900;    0.000;    0.000
282.991; 1011.900;    0.000;    0.000
283.056; 1066.900;    0.000;    0.000
283.121; 1052.900;    0.000;    0.000
283.186;  966.900;    0.000;    0.000
283.251; 1021.900;    0.000;    0.000
283.316; 1095.900;    0.000;    0.000
283.382;  992.900;    0.000;    0.000
283.447; 1051.900;    0.000;    0.000
283.512; 1030.900;    0.000;    0.000
283.577; 1060.900;    0.000;    0.000
283.642;  973.900;    0.000;    0.000
283.707;  973.900;    0.000;    0.000
283.772;  941.900;    0.000;    0.000
283.837;  918.900;    0.000;    0.000
283.902;  955.900;    0.000;    0.000
283.967; 1034.900;    0.000;    0.000
284.032;  988.900;    0.000;    0.000
284.097;  950.900;    0.000;    0.000
284.163;  910.900;    0.000;    0.000
284.228; 1015.900;    0.000;    0.000
284.293;  996.900;    0.000;    0.000
284.358; 1031.900;    0.000;    0.000
284.423;  972.900;    0.000;    0.000
284.488; 1062.900;    0.000;    0.000
284.553; 1105.900;    0.000;    0.000
284.618; 1027.900;    0.000;    0.000
284.683; 1041.900;    0.000;    0.000
284.748; 1165.900;    0.000;    0.000
284.812; 1148.900;    0.000;    0.000
284.877; 1268.900;    0.000;    0.000
284.942; 1423.900;    0.000;    0.000
285.007; 1626.900;    0.000;    0.000
285.072; 1956.900;    0.000;    0.000
285.137; 2965.900;    0.000;    0.000
285.202; 4531.900;    0.000;    0.000
285.267; 4629.900;    0.000;    0.000
285.332; 3092.900;    0.000;    0.000
285.397; 2105.900;    0.000;    0.000
285.462; 1800.900;    0.000;    0.000
285.527; 1563.900;    0.000;    0.000
285.591; 1354.900;    0.000;    0.000
285.656; 1285.900;    0.000;    0.000
285.721; 1220.900;    0.000;    0.000
285.786; 1163.900;    0.000;    0.000
285.851; 1149.900;    0.000;    0.000
285.916; 1152.900;    0.000;    0.000
285.981; 1096.900;    0.000;    0.000
286.045; 1041.900;    0.000;    0.000
286.110; 1061.900;    0.000;    0.000
286.175; 1022.900;    0.000;    0.000
286.240;  953.900;    0.000;    0.000
286.305; 1019.900;    0.000;    0.000
286.369;  988.900;    0.000;    0.000
286.434; 1028.900;    0.000;    0.000
286.499;  926.900;    0.000;    0.000
286.564;  948.900;    0.000;    0.000
286.628;  971.900;    0.000;    0.000
286.693;  907.900;    0.000;    0.000
286.758;  911.900;    0.000;    0.000
286.823;  924.900;    0.000;    0.000
286.887;  899.900;    0.000;    0.000
286.952;  953.900;    0.000;    0.000
287.017;  945.900;    0.000;    0.000
287.082;  899.900;    0.000;    0.000
287.146;  905.900;    0.000;    0.000
287.211;  875.900;    0.000;    0.000
287.276;  930.900;    0.000;    0.000
287.340;  902.900;    0.000;    0.000
287.405;  913.900;    0.000;    0.000
287.470;  826.900;    0.000;    0.000
287.534;  939.900;    0.000;    0.000
287.599;  852.900;    0.000;    0.000
287.663;  946.900;    0.000;    0.000
287.728;  876.900;    0.000;    0.000
287.793;  948.900;    0.000;    0.000
287.857;  931.900;    0.000;    0.000
287.922;  883.900;    0.000;    0.000
287.987;  890.900;    0.000;    0.000
288.051;  925.900;    0.000;    0.000
288.116;  915.900;    0.000;    0.000
288.180;  937.900;    0.000;    0.000
288.245;  925.900;    0.000;    0.000
288.309;  926.900;    0.000;    0.000
288.374;  916.900;    0.000;    0.000
288.439;  927.900;    0.000;    0.000
288.503;  914.900;    0.000;    0.000
288.568;  918.900;    0.000;    0.000
288.632;  888.900;    0.000;    0.000
288.697;  939.900;    0.000;    0.000
288.761;  913.900;    0.000;    0.000
288.826;  908.900;    0.000;    0.000
288.890;  922.900;    0.000;    0.000
288.955;  903.900;    0.000;    0.000
289.019;  939.900;    0.000;    0.000
289.084;  914.900;    0.000;    0.000
289.148;  921.900;    0.000;    0.000
289.212;  918.900;    0.000;    0.000
289.277;  899.900;    0.000;    0.000
289.341;  917.900;    0.000;    0.000
289.406;  860.900;    0.000;    0.000
289.470;  944.900;    0.000;    0.000
289.535;  962.900;    0.000;    0.000
289.599;  937.900;    0.000;    0.000
289.663;  930.900;    0.000;    0.000
289.728;  927.900;    0.000;    0.000
289.792;  915.900;    0.000;    0.000
289.857;  940.900;    0.000;    0.000
289.921;  918.900;    0.000;    0.000
289.985;  880.900;    0.000;    0.000
290.050;  953.900;    0.000;    0.000
290.114;  863.900;    0.000;    0.000
290.178;  905.900;    0.000;    0.000
290.243;  858.900;    0.000;    0.000
290.307;  919.900;    0.000;    0.000
290.371;  892.900;    0.000;    0.000
290.436;  905.900;    0.000;    0.000
290.500;  870.900;    0.000;    0.000
290.564;  936.900;    0.000;    0.000
290.629;  883.900;    0.000;    0.000
290.693;  927.900;    0.000;    0.000
290.757;  926.900;    0.000;    0.000
290.821;  900.900;    0.000;    0.000
290.886;  965.900;    0.000;    0.000
290.950;  969.900;    0.000;    0.000
291.014;  967.900;    0.000;    0.000
291.078;  944.900;    0.000;    0.000
291.143;  899.900;    0.000;    0.000
291.207; 1000.900;    0.000;    0.000
291.271;  956.900;    0.000;    0.000
291.335; 1003.900;    0.000;    0.000
291.399; 1029.900;    0.000;    0.000
291.464; 1003.900;    0.000;    0.000
291.528; 1127.900;    0.000;    0.000
291.592; 1035.900;    0.000;    0.000
291.656; 1141.900;    0.000;    0.000
291.720; 1042.900;    0.000;    0.000
291.784; 1063.900;    0.000;    0.000
291.849; 1013.900;    0.000;    0.000
291.913;  999.900;    0.000;    0.000
291.977; 1034.900;    0.000;    0.000
292.041; 1052.900;    0.000;    0.000
292.105; 1087.900;    0.000;    0.000
292.169; 1064.900;    0.000;    0.000
292.233; 1089.900;    0.000;    0.000
292.297; 1056.900;    0.000;    0.000
292.361; 1097.900;    0.000;    0.000
292.425; 1141.900;    0.000;    0.000
292.490; 1191.900;    0.000;    0.000
292.554; 1180.900;    0.000;    0.000
292.618; 1265.900;    0.000;    0.000
292.682; 1306.900;    0.000;    0.000
292.746; 1410.900;    0.000;    0.000
292.810; 1727.900;    0.000;    0.000
292.874; 2341.900;    0.000;    0.000
292.938; 2406.900;    0.000;    0.000
293.002; 2236.900;    0.000;    0.000
293.066; 1984.900;    0.000;    0.000
293.130; 1831.900;    0.000;    0.000
293.194; 1758.900;    0.000;    0.000
293.258; 1738.900;    0.000;    0.000
293.322; 1627.900;    0.000;    0.000
293.386; 1747.900;    0.000;    0.000
293.450; 1723.900;    0.000;    0.000
293.514; 1958.900;    0.000;    0.000
293.577; 2400.900;    0.000;    0.000
293.641; 3363.900;    0.000;    0.000
293.705; 3841.900;    0.000;    0.000
293.769; 3503.900;    0.000;    0.000
293.833; 3010.900;    0.000;    0.000
293.897; 2633.900;    0.000;    0.000
293.961; 2363.900;    0.000;    0.000
294.025; 2094.900;    0.000;    0.000
294.089; 1939.900;    0.000;    0.000
294.153; 1948.900;    0.000;    0.000
294.216; 1804.900;    0.000;    0.000
294.280; 1613.900;    0.000;    0.000
294.344; 1646.900;    0.000;    0.000
294.408; 1637.900;    0.000;    0.000
294.472; 1547.900;    0.000;    0.000
294.536; 1519.900;    0.000;    0.000
294.599; 1428.900;    0.000;    0.000
294.663; 1428.900;    0.000;    0.000
294.727; 1326.900;    0.000;    0.000
294.791; 1299.900;    0.000;    0.000
294.855; 1359.900;    0.000;    0.000
294.918; 1299.900;    0.000;    0.000
294.982; 1261.900;    0.000;    0.000
295.046; 1322.900;    0.000;    0.000
295.110; 1225.900;    0.000;    0.000
295.173; 1253.900;    0.000;    0.000
295.237; 1231.900;    0.000;    0.000
295.301; 1226.900;    0.000;    0.000
295.364; 1230.900;    0.000;    0.000
295.428; 1214.900;    0.000;    0.000
295.492; 1256.900;    0.000;    0.000
295.556; 1165.900;    0.000;    0.000
295.619; 1188.900;    0.000;    0.000
295.683; 1200.900;    0.000;    0.000
295.747; 1136.900;    0.000;    0.000
295.810; 1187.900;    0.000;    0.000
295.874; 1140.900;    0.000;    0.000
295.938; 1135.900;    0.000;    0.000
296.001; 1151.900;    0.000;    0.000
296.065; 1153.900;    0.000;    0.000
296.128; 1079.900;    0.000;    0.000
296.192; 1137.900;    0.000;    0.000
296.256; 1117.900;    0.000;    0.000
296.319; 1119.900;    0.000;    0.000
296.383; 1144.900;    0.000;    0.000
296.446; 1127.900;    0.000;    0.000
296.510; 1188.900;    0.000;    0.000
296.574; 1146.900;    0.000;    0.000
296.637; 1083.900;    0.000;    0.000
296.701; 1145.900;    0.000;    0.000
296.764; 1073.900;    0.000;    0.000
296.828; 1171.900;    0.000;    0.000
296.891; 1104.900;    0.000;    0.000
296.955; 1053.900;    0.000;    0.000
297.018; 1048.900;    0.000;    0.000
297.082; 1090.900;    0.000;    0.000
297.145; 1123.900;    0.000;    0.000
297.209; 1089.900;    0.000;    0.000
297.272; 1142.900;    0.000;    0.000
297.336; 1125.900;    0.000;    0.000
297.399; 1102.900;    0.000;    0.000
297.463; 1135.900;    0.000;    0.000
297.526; 1102.900;    0.000;    0.000
297.590; 1096.900;    0.000;    0.000
297.653; 1078.900;    0.000;    0.000
297.717; 1114.900;    0.000;    0.000
297.780; 1119.900;    0.000;    0.000
297.843; 1148.900;    0.000;    0.000
297.907; 1129.900;    0.000;    0.000
297.970; 1132.900;    0.000;    0.000
298.034; 1102.900;    0.000;    0.000
298.097; 1111.900;    0.000;    0.000
298.160; 1081.900;    0.000;    0.000
298.224; 1090.900;    0.000;    0.000
298.287; 1107.900;    0.000;    0.000
298.350; 1094.900;    0.000;    0.000
298.414; 1129.900;    0.000;    0.000
298.477; 1080.900;    0.000;    0.000
298.540; 1080.900;    0.000;    0.000
298.604; 1083.900;    0.000;    0.000
298.667; 1110.900;    0.000;    0.000
298.730; 1072.900;    0.000;    0.000
298.794; 1065.900;    0.000;    0.000
298.857; 1159.900;    0.000;    0.000
298.920; 1049.900;    0.000;    0.000
298.984; 1076.900;    0.000;    0.000
299.047; 1091.900;    0.000;    0.000
299.110; 1014.900;    0.000;    0.000
299.173; 1105.900;    0.000;    0.000
299.237; 1104.900;    0.000;    0.000
299.300; 1101.900;    0.000;    0.000
299.363; 1045.900;    0.000;    0.000
299.426; 1080.900;    0.000;    0.000
299.489; 1052.900;    0.000;    0.000
299.553; 1087.900;    0.000;    0.000
299.616; 1058.900;    0.000;    0.000
299.679; 1018.900;    0.000;    0.000
299.742;  997.900;    0.000;    0.000
299.805; 1077.900;    0.000;    0.000
299.868; 1041.900;    0.000;    0.000
299.932; 1072.900;    0.000;    0.000
299.995; 1044.900;    0.000;    0.000
300.058; 1040.900;    0.000;    0.000
300.121; 1002.900;    0.000;    0.000
300.184; 1060.900;    0.000;    0.000
300.247; 1059.900;    0.000;    0.000
300.310;  971.900;    0.000;    0.000
300.374; 1059.900;    0.000;    0.000
300.437; 1070.900;    0.000;    0.000
300.500; 1053.900;    0.000;    0.000
300.563; 1039.900;    0.000;    0.000
300.626; 1077.900;    0.000;    0.000
300.689; 1029.900;    0.000;    0.000
300.752; 1038.900;    0.000;    0.000
300.815; 1054.900;    0.000;    0.000
300.878; 1075.900;    0.000;    0.000
300.941; 1036.900;    0.000;    0.000
301.004; 1052.900;    0.000;    0.000
301.067; 1080.900;    0.000;    0.000
301.130; 1056.900;    0.000;    0.000
301.193; 1085.900;    0.000;    0.000
301.256; 1077.900;    0.000;    0.000
301.319; 1107.900;    0.000;    0.000
301.382; 1091.900;    0.000;    0.000
301.445; 1103.900;    0.000;    0.000
301.508; 1056.900;    0.000;    0.000
301.571;  994.900;    0.000;    0.000
301.634; 1121.900;    0.000;    0.000
301.697; 1063.900;    0.000;    0.000
301.760; 1061.900;    0.000;    0.000
301.823; 1055.900;    0.000;    0.000
301.885; 1080.900;    0.000;    0.000
301.948; 1070.900;    0.000;    0.000
302.011; 1069.900;    0.000;    0.000
302.074; 1122.900;    0.000;    0.000
302.137; 1039.900;    0.000;    0.000
302.200; 1093.900;    0.000;    0.000
302.263; 1148.900;    0.000;    0.000
302.326; 1036.900;    0.000;    0.000
302.388; 1044.900;    0.000;    0.000
302.451; 1077.900;    0.000;    0.000
302.514; 1094.900;    0.000;    0.000
302.577; 1043.900;    0.000;    0.000
302.640; 1139.900;    0.000;    0.000
302.703; 1049.900;    0.000;    0.000
302.765; 1052.900;    0.000;    0.000
302.828; 1144.900;    0.000;    0.000
302.891; 1105.900;    0.000;    0.000
302.954; 1067.900;    0.000;    0.000
303.016; 1104.900;    0.000;    0.000
303.079; 1041.900;    0.000;    0.000
303.142; 1137.900;    0.000;    0.000
303.205; 1112.900;    0.000;    0.000
303.267; 1129.900;    0.000;    0.000
303.330; 1089.900;    0.000;    0.000
303.393; 1204.900;    0.000;    0.000
303.456; 1140.900;    0.000;    0.000
303.518; 1143.900;    0.000;    0.000
303.581; 1070.900;    0.000;    0.000
303.644; 1080.900;    0.000;    0.000
303.706; 1129.900;    0.000;    0.000
303.769; 1135.900;    0.000;    0.000
303.832; 1091.900;    0.000;    0.000
303.894; 1152.900;    0.000;    0.000
303.957; 1145.900;    0.000;    0.000
304.020; 1196.900;    0.000;    0.000
304.082; 1137.900;    0.000;    0.000
304.145; 1145.900;    0.000;    0.000
304.207; 1105.900;    0.000;    0.000
304.270; 1146.900;    0.000;    0.000
304.333; 1113.900;    0.000;    0.000
304.395; 1214.900;    0.000;    0.000
304.458; 1134.900;    0.000;    0.000
304.520; 1184.900;    0.000;    0.000
304.583; 1182.900;    0.000;    0.000
304.646; 1138.900;    0.000;    0.000
304.708; 1146.900;    0.000;    0.000
304.771; 1142.900;    0.000;    0.000
304.833; 1111.900;    0.000;    0.000
304.896; 1208.900;    0.000;    0.000
304.958; 1140.900;    0.000;    0.000
305.021; 1174.900;    0.000;    0.000
305.083; 1196.900;    0.000;    0.000
305.146; 1159.900;    0.000;    0.000
305.208; 1165.900;    0.000;    0.000
305.271; 1187.900;    0.000;    0.000
305.333; 1248.900;    0.000;    0.000
305.396; 1249.900;    0.000;    0.000
305.458; 1215.900;    0.000;    0.000
305.520; 1210.900;    0.000;    0.000
305.583; 1167.900;    0.000;    0.000
305.645; 1265.900;    0.000;    0.000
305.708; 1206.900;    0.000;    0.000
305.770; 1229.900;    0.000;    0.000
305.833; 1202.900;    0.000;    0.000
305.895; 1231.900;    0.000;    0.000
305.957; 1198.900;    0.000;    0.000
306.020; 1198.900;    0.000;    0.000
306.082; 1252.900;    0.000;    0.000
306.144; 1198.900;    0.000;    0.000
306.207; 1259.900;    0.000;    0.000
306.269; 1236.900;    0.000;    0.000
306.331; 1184.900;    0.000;    0.000
306.394; 1211.900;    0.000;    0.000
306.456; 1214.900;    0.000;    0.000
306.518; 1261.900;    0.000;    0.000
306.581; 1241.900;    0.000;    0.000
306.643; 1189.900;    0.000;    0.000
306.705; 1241.900;    0.000;    0.000
306.768; 1262.900;    0.000;    0.000
306.830; 1202.900;    0.000;    0.000
306.892; 1232.900;    0.000;    0.000
306.954; 1256.900;    0.000;    0.000
307.017; 1312.900;    0.000;    0.000
307.079; 1278.900;    0.000;    0.000
307.141; 1280.900;    0.000;    0.000
307.203; 1209.900;    0.000;    0.000
307.266; 1279.900;    0.000;    0.000
307.328; 1345.900;    0.000;    0.000
307.390; 1310.900;    0.000;    0.000
307.452; 1245.900;    0.000;    0.000
307.514; 1338.900;    0.000;    0.000
307.577; 1299.900;    0.000;    0.000
307.639; 1358.900;    0.000;    0.000
307.701; 1304.900;    0.000;    0.000
307.763; 1370.900;    0.000;    0.000
307.825; 1376.900;    0.000;    0.000
307.887; 1375.900;    0.000;    0.000
307.949; 1348.900;    0.000;    0.000
308.011; 1405.900;    0.000;    0.000
308.074; 1370.900;    0.000;    0.000
308.136; 1301.900;    0.000;    0.000
308.198; 1413.900;    0.000;    0.000
308.260; 1379.900;    0.000;    0.000
308.322; 1344.900;    0.000;    0.000
308.384; 1388.900;    0.000;    0.000
308.446; 1336.900;    0.000;    0.000
308.508; 1402.900;    0.000;    0.000
308.570; 1419.900;    0.000;    0.000
308.632; 1419.900;    0.000;    0.000
308.694; 1435.900;    0.000;    0.000
308.756; 1421.900;    0.000;    0.000
308.818; 1388.900;    0.000;    0.000
308.880; 1441.900;    0.000;    0.000
308.942; 1407.900;    0.000;    0.000
309.004; 1509.900;    0.000;    0.000
309.066; 1472.900;    0.000;    0.000
309.128; 1451.900;    0.000;    0.000
309.190; 1516.900;    0.000;    0.000
309.252; 1545.900;    0.000;    0.000
309.314; 1552.900;    0.000;    0.000
309.376; 1571.900;    0.000;    0.000
309.438; 1555.900;    0.000;    0.000
309.500; 1599.900;    0.000;    0.000
309.562; 1542.900;    0.000;    0.000
309.624; 1539.900;    0.000;    0.000
309.686; 1647.900;    0.000;    0.000
309.747; 1583.900;    0.000;    0.000
309.809; 1613.900;    0.000;    0.000
309.871; 1596.900;    0.000;    0.000
309.933; 1601.900;    0.000;    0.000
309.995; 1517.900;    0.000;    0.000
310.057; 1491.900;    0.000;    0.000
310.119; 1512.900;    0.000;    0.000
310.180; 1461.900;    0.000;    0.000
310.242; 1440.900;    0.000;    0.000
310.304; 1524.900;    0.000;    0.000
310.366; 1463.900;    0.000;    0.000
310.428; 1427.900;    0.000;    0.000
310.489; 1466.900;    0.000;    0.000
310.551; 1547.900;    0.000;    0.000
310.613; 1479.900;    0.000;    0.000
310.675; 1481.900;    0.000;    0.000
310.737; 1501.900;    0.000;    0.000
310.798; 1448.900;    0.000;    0.000
310.860; 1497.900;    0.000;    0.000
310.922; 1403.900;    0.000;    0.000
310.983; 1410.900;    0.000;    0.000
311.045; 1478.900;    0.000;    0.000
311.107; 1403.900;    0.000;    0.000
311.169; 1484.900;    0.000;    0.000
311.230; 1437.900;    0.000;    0.000
311.292; 1424.900;    0.000;    0.000
311.354; 1458.900;    0.000;    0.000
311.415; 1449.900;    0.000;    0.000
311.477; 1455.900;    0.000;    0.000
311.539; 1502.900;    0.000;    0.000
311.600; 1473.900;    0.000;    0.000
311.662; 1546.900;    0.000;    0.000
311.724; 1496.900;    0.000;    0.000
311.785; 1489.900;    0.000;    0.000
311.847; 1436.900;    0.000;    0.000
311.908; 1426.900;    0.000;    0.000
311.970; 1482.900;    0.000;    0.000
312.032; 1445.900;    0.000;    0.000
312.093; 1460.900;    0.000;    0.000
312.155; 1445.900;    0.000;    0.000
312.216; 1490.900;    0.000;    0.000
312.278; 1380.900;    0.000;    0.000
312.339; 1424.900;    0.000;    0.000
312.401; 1457.900;    0.000;    0.000
312.462; 1530.900;    0.000;    0.000
312.524; 1516.900;    0.000;    0.000
312.585; 1505.900;    0.000;    0.000
312.647; 1497.900;    0.000;    0.000
312.708; 1492.900;    0.000;    0.000
312.770; 1514.900;    0.000;    0.000
312.831; 1493.900;    0.000;    0.000
312.893; 1470.900;    0.000;    0.000
312.954; 1530.900;    0.000;    0.000
313.016; 1503.900;    0.000;    0.000
313.077; 1508.900;    0.000;    0.000
313.139; 1494.900;    0.000;    0.000
313.200; 1504.900;    0.000;    0.000
313.261; 1504.900;    0.000;    0.000
313.323; 1453.900;    0.000;    0.000
313.384; 1535.900;    0.000;    0.000
313.446; 1496.900;    0.000;    0.000
313.507; 1493.900;    0.000;    0.000
313.568; 1425.900;    0.000;    0.000
313.630; 1470.900;    0.000;    0.000
313.691; 1491.900;    0.000;    0.000
313.752; 1517.900;    0.000;    0.000
313.814; 1520.900;    0.000;    0.000
313.875; 1574.900;    0.000;    0.000
313.936; 1446.900;    0.000;    0.000
313.998; 1473.900;    0.000;    0.000
314.059; 1530.900;    0.000;    0.000
314.120; 1485.900;    0.000;    0.000
314.182; 1522.900;    0.000;    0.000
314.243; 1552.900;    0.000;    0.000
314.304; 1590.900;    0.000;    0.000
314.365; 1556.900;    0.000;    0.000
314.427; 1552.900;    0.000;    0.000
314.488; 1550.900;    0.000;    0.000
314.549; 1525.900;    0.000;    0.000
314.610; 1550.900;    0.000;    0.000
314.672; 1493.900;    0.000;    0.000
314.733; 1477.900;    0.000;    0.000
314.794; 1498.900;    0.000;    0.000
314.855; 1566.900;    0.000;    0.000
314.916; 1580.900;    0.000;    0.000
314.978; 1524.900;    0.000;    0.000
315.039; 1520.900;    0.000;    0.000
315.100; 1590.900;    0.000;    0.000
315.161; 1624.900;    0.000;    0.000
315.222; 1563.900;    0.000;    0.000
315.283; 1581.900;    0.000;    0.000
315.345; 1475.900;    0.000;    0.000
315.406; 1566.900;    0.000;    0.000
315.467; 1529.900;    0.000;    0.000
315.528; 1537.900;    0.000;    0.000
315.589; 1512.900;    0.000;    0.000
315.650; 1557.900;    0.000;    0.000
315.711; 1516.900;    0.000;    0.000
315.772; 1518.900;    0.000;    0.000
315.833; 1582.900;    0.000;    0.000
315.894; 1539.900;    0.000;    0.000
315.955; 1492.900;    0.000;    0.000
316.016; 1545.900;    0.000;    0.000
316.078; 1502.900;    0.000;    0.000
316.139; 1582.900;    0.000;    0.000
316.200; 1493.900;    0.000;    0.000
316.261; 1595.900;    0.000;    0.000
316.322; 1560.900;    0.000;    0.000
316.383; 1608.900;    0.000;    0.000
316.444; 1496.900;    0.000;    0.000
316.504; 1598.900;    0.000;    0.000
316.565; 1565.900;    0.000;    0.000
316.626; 1589.900;    0.000;    0.000
316.687; 1521.900;    0.000;    0.000
316.748; 1547.900;    0.000;    0.000
316.809; 1590.900;    0.000;    0.000
316.870; 1504.900;    0.000;    0.000
316.931; 1580.900;    0.000;    0.000
316.992; 1650.900;    0.000;    0.000
317.053; 1555.900;    0.000;    0.000
317.114; 1644.900;    0.000;    0.000
317.175; 1609.900;    0.000;    0.000
317.235; 1545.900;    0.000;    0.000
317.296; 1676.900;    0.000;    0.000
317.357; 1533.900;    0.000;    0.000
317.418; 1635.900;    0.000;    0.000
317.479; 1628.900;    0.000;    0.000
317.540; 1534.900;    0.000;    0.000
317.601; 1647.900;    0.000;    0.000
317.661; 1536.900;    0.000;    0.000
317.722; 1487.900;    0.000;    0.000
317.783; 1485.900;    0.000;    0.000
317.844; 1596.900;    0.000;    0.000
317.904; 1627.900;    0.000;    0.000
317.965; 1611.900;    0.000;    0.000
318.026; 1545.900;    0.000;    0.000
318.087; 1596.900;    0.000;    0.000
318.148; 1565.900;    0.000;    0.000
318.208; 1619.900;    0.000;    0.000
318.269; 1593.900;    0.000;    0.000
318.330; 1606.900;    0.000;    0.000
318.390; 1565.900;    0.000;    0.000
318.451; 1558.900;    0.000;    0.000
318.512; 1665.900;    0.000;    0.000
318.572; 1632.900;    0.000;    0.000
318.633; 1662.900;    0.000;    0.000
318.694; 1674.900;    0.000;    0.000
318.754; 1640.900;    0.000;    0.000
318.815; 1582.900;    0.000;    0.000
318.876; 1641.900;    0.000;    0.000
318.936; 1606.900;    0.000;    0.000
318.997; 1542.900;    0.000;    0.000
319.058; 1627.900;    0.000;    0.000
319.118; 1616.900;    0.000;    0.000
319.179; 1614.900;    0.000;    0.000
319.239; 1610.900;    0.000;    0.000
319.300; 1604.900;    0.000;    0.000
319.361; 1587.900;    0.000;    0.000
319.421; 1653.900;    0.000;    0.000
319.482; 1544.900;    0.000;    0.000
319.542; 1552.900;    0.000;    0.000
319.603; 1567.900;    0.000;    0.000
319.663; 1517.900;    0.000;    0.000
319.724; 1552.900;    0.000;    0.000
319.784; 1625.900;    0.000;    0.000
319.845; 1605.900;    0.000;    0.000
319.905; 1591.900;    0.000;    0.000
319.966; 1590.900;    0.000;    0.000
320.026; 1625.900;    0.000;    0.000
320.087; 1618.900;    0.000;    0.000
320.147; 1670.900;    0.000;    0.000
320.208; 1661.900;    0.000;    0.000
320.268; 1652.900;    0.000;    0.000
320.329; 1634.900;    0.000;    0.000
320.389; 1628.900;    0.000;    0.000
320.449; 1696.900;    0.000;    0.000
320.510; 1710.900;    0.000;    0.000
320.570; 1639.900;    0.000;    0.000
320.631; 1674.900;    0.000;    0.000
320.691; 1663.900;    0.000;    0.000
320.751; 1617.900;    0.000;    0.000
320.812; 1646.900;    0.000;    0.000
320.872; 1689.900;    0.000;    0.000
320.932; 1632.900;    0.000;    0.000
320.993; 1663.900;    0.000;    0.000
321.053; 1726.900;    0.000;    0.000
321.113; 1640.900;    0.000;    0.000
321.174; 1682.900;    0.000;    0.000
321.234; 1713.900;    0.000;    0.000
321.294; 1633.900;    0.000;    0.000
321.355; 1662.900;    0.000;    0.000
321.415; 1623.900;    0.000;    0.000
321.475; 1618.900;    0.000;    0.000
321.535; 1710.900;    0.000;    0.000
321.596; 1740.900;    0.000;    0.000
321.656; 1746.900;    0.000;    0.000
321.716; 1659.900;    0.000;    0.000
321.776; 1714.900;    0.000;    0.000
321.837; 1662.900;    0.000;    0.000
321.897; 1725.900;    0.000;    0.000
321.957; 1684.900;    0.000;    0.000
322.017; 1691.900;    0.000;    0.000
322.077; 1736.900;    0.000;    0.000
322.138; 1618.900;    0.000;    0.000
322.198; 1636.900;    0.000;    0.000
322.258; 1699.900;    0.000;    0.000
322.318; 1679.900;    0.000;    0.000
322.378; 1733.900;    0.000;    0.000
322.438; 1710.900;    0.000;    0.000
322.499; 1815.900;    0.000;    0.000
322.559; 1733.900;    0.000;    0.000
322.619; 1763.900;    0.000;    0.000
322.679; 1710.900;    0.000;    0.000
322.739; 1680.900;    0.000;    0.000
322.799; 1785.900;    0.000;    0.000
322.859; 1794.900;    0.000;    0.000
322.919; 1729.900;    0.000;    0.000
322.979; 1638.900;    0.000;    0.000
323.039; 1703.900;    0.000;    0.000
323.099; 1612.900;    0.000;    0.000
323.159; 1698.900;    0.000;    0.000
323.219; 1600.900;    0.000;    0.000
323.279; 1688.900;    0.000;    0.000
323.339; 1763.900;    0.000;    0.000
323.399; 1743.900;    0.000;    0.000
323.459; 1772.900;    0.000;    0.000
323.519; 1813.900;    0.000;    0.000
323.579; 1821.900;    0.000;    0.000
323.639; 1771.900;    0.000;    0.000
323.699; 1831.900;    0.000;    0.000
323.759; 1739.900;    0.000;    0.000
323.819; 1706.900;    0.000;    0.000
323.879; 1794.900;    0.000;    0.000
323.939; 1751.900;    0.000;    0.000
323.999; 1795.900;    0.000;    0.000
324.059; 1719.900;    0.000;    0.000
324.119; 1804.900;    0.000;    0.000
324.179; 1702.900;    0.000;    0.000
324.238; 1723.900;    0.000;    0.000
324.298; 1689.900;    0.000;    0.000
324.358; 1687.900;    0.000;    0.000
324.418; 1803.900;    0.000;    0.000
324.478; 1694.900;    0.000;    0.000
324.538; 1737.900;    0.000;    0.000
324.597; 1742.900;    0.000;    0.000
324.657; 1627.900;    0.000;    0.000
324.717; 1693.900;    0.000;    0.000
324.777; 1738.900;    0.000;    0.000
324.837; 1660.900;    0.000;    0.000
324.896; 1760.900;    0.000;    0.000
324.956; 1761.900;    0.000;    0.000
325.016; 1768.900;    0.000;    0.000
325.076; 1760.900;    0.000;    0.000
325.135; 1707.900;    0.000;    0.000
325.195; 1763.900;    0.000;    0.000
325.255; 1778.900;    0.000;    0.000
325.315; 1763.900;    0.000;    0.000
325.374; 1787.900;    0.000;    0.000
325.434; 1725.900;    0.000;    0.000
325.494; 1771.900;    0.000;    0.000
325.553; 1774.900;    0.000;    0.000
325.613; 1799.900;    0.000;    0.000
325.673; 1707.900;    0.000;    0.000
325.732; 1722.900;    0.000;    0.000
325.792; 1693.900;    0.000;    0.000
325.852; 1656.900;    0.000;    0.000
325.911; 1775.900;    0.000;    0.000
325.971; 1707.900;    0.000;    0.000
326.031; 1710.900;    0.000;    0.000
326.090; 1694.900;    0.000;    0.000
326.150; 1673.900;    0.000;    0.000
326.209; 1747.900;    0.000;    0.000
326.269; 1717.900;    0.000;    0.000
326.328; 1738.900;    0.000;    0.000
326.388; 1738.900;    0.000;    0.000
326.448; 1860.900;    0.000;    0.000
326.507; 1781.900;    0.000;    0.000
326.567; 1740.900;    0.000;    0.000
326.626; 1778.900;    0.000;    0.000
326.686; 1694.900;    0.000;    0.000
326.745; 1725.900;    0.000;    0.000
326.805; 1650.900;    0.000;    0.000
326.864; 1767.900;    0.000;    0.000
326.924; 1808.900;    0.000;    0.000
326.983; 1834.900;    0.000;    0.000
327.043; 1718.900;    0.000;    0.000
327.102; 1744.900;    0.000;    0.000
327.161; 1745.900;    0.000;    0.000
327.221; 1763.900;    0.000;    0.000
327.280; 1768.900;    0.000;    0.000
327.340; 1716.900;    0.000;    0.000
327.399; 1799.900;    0.000;    0.000
327.459; 1748.900;    0.000;    0.000
327.518; 1767.900;    0.000;    0.000
327.577; 1753.900;    0.000;    0.000
327.637; 1777.900;    0.000;    0.000
327.696; 1759.900;    0.000;    0.000
327.755; 1711.900;    0.000;    0.000
327.815; 1773.900;    0.000;    0.000
327.874; 1764.900;    0.000;    0.000
327.933; 1788.900;    0.000;    0.000
327.993; 1773.900;    0.000;    0.000
328.052; 1807.900;    0.000;    0.000
328.111; 1718.900;    0.000;    0.000
328.171; 1771.900;    0.000;    0.000
328.230; 1831.900;    0.000;    0.000
328.289; 1798.900;    0.000;    0.000
328.349; 1787.900;    0.000;    0.000
328.408; 1810.900;    0.000;    0.000
328.467; 1789.900;    0.000;    0.000
328.526; 1779.900;    0.000;    0.000
328.586; 1854.900;    0.000;    0.000
328.645; 1751.900;    0.000;    0.000
328.704; 1782.900;    0.000;    0.000
328.763; 1766.900;    0.000;    0.000
328.822; 1809.900;    0.000;    0.000
328.882; 1856.900;    0.000;    0.000
328.941; 1771.900;    0.000;    0.000
329.000; 1854.900;    0.000;    0.000
329.059; 1724.900;    0.000;    0.000
329.118; 1806.900;    0.000;    0.000
329.177; 1801.900;    0.000;    0.000
329.237; 1953.900;    0.000;    0.000
329.296; 1850.900;    0.000;    0.000
329.355; 1869.900;    0.000;    0.000
329.414; 1764.900;    0.000;    0.000
329.473; 1816.900;    0.000;    0.000
329.532; 1746.900;    0.000;    0.000
329.591; 1818.900;    0.000;    0.000
329.650; 1822.900;    0.000;    0.000
329.709; 1979.900;    0.000;    0.000
329.768; 2005.900;    0.000;    0.000
329.827; 1990.900;    0.000;    0.000
329.886; 2110.900;    0.000;    0.000
329.945; 2080.900;    0.000;    0.000
330.004; 2071.900;    0.000;    0.000
330.063; 2010.900;    0.000;    0.000
330.122; 2136.900;    0.000;    0.000
330.181; 2216.900;    0.000;    0.000
330.240; 2207.900;    0.000;    0.000
330.299; 2113.900;    0.000;    0.000
330.358; 1998.900;    0.000;    0.000
330.417; 1939.900;    0.000;    0.000
330.476; 1929.900;    0.000;    0.000
330.535; 1855.900;    0.000;    0.000
330.594; 1862.900;    0.000;    0.000
330.653; 1854.900;    0.000;    0.000
330.712; 1811.900;    0.000;    0.000
330.771; 1844.900;    0.000;    0.000
330.830; 1813.900;    0.000;    0.000
330.889; 1888.900;    0.000;    0.000
330.948; 1792.900;    0.000;    0.000
331.006; 1903.900;    0.000;    0.000
331.065; 1885.900;    0.000;    0.000
331.124; 1854.900;    0.000;    0.000
331.183; 1779.900;    0.000;    0.000
331.242; 1839.900;    0.000;    0.000
331.301; 1843.900;    0.000;    0.000
331.359; 1818.900;    0.000;    0.000
331.418; 1810.900;    0.000;    0.000
331.477; 1845.900;    0.000;    0.000
331.536; 1867.900;    0.000;    0.000
331.595; 1743.900;    0.000;    0.000
331.653; 1780.900;    0.000;    0.000
331.712; 1830.900;    0.000;    0.000
331.771; 1770.900;    0.000;    0.000
331.830; 1783.900;    0.000;    0.000
331.888; 1779.900;    0.000;    0.000
331.947; 1789.900;    0.000;    0.000
332.006; 1810.900;    0.000;    0.000
332.065; 1768.900;    0.000;    0.000
332.123; 1833.900;    0.000;    0.000
332.182; 1809.900;    0.000;    0.000
332.241; 1794.900;    0.000;    0.000
332.299; 1796.900;    0.000;    0.000
332.358; 1887.900;    0.000;    0.000
332.417; 1904.900;    0.000;    0.000
332.475; 1798.900;    0.000;    0.000
332.534; 1832.900;    0.000;    0.000
332.592; 1907.900;    0.000;    0.000
332.651; 1823.900;    0.000;    0.000
332.710; 1851.900;    0.000;    0.000
332.768; 1836.900;    0.000;    0.000
332.827; 1787.900;    0.000;    0.000
332.885; 1791.900;    0.000;    0.000
332.944; 1699.900;    0.000;    0.000
333.003; 1707.900;    0.000;    0.000
333.061; 1839.900;    0.000;    0.000
333.120; 1885.900;    0.000;    0.000
333.178; 1991.900;    0.000;    0.000
333.237; 1937.900;    0.000;    0.000
333.295; 1979.900;    0.000;    0.000
333.354; 1965.900;    0.000;    0.000
333.412; 1990.900;    0.000;    0.000
333.471; 2061.900;    0.000;    0.000
333.529; 2004.900;    0.000;    0.000
333.588; 2079.900;    0.000;    0.000
333.646; 2072.900;    0.000;    0.000
333.705; 2116.900;    0.000;    0.000
333.763; 2056.900;    0.000;    0.000
333.822; 2001.900;    0.000;    0.000
333.880; 2045.900;    0.000;    0.000
333.938; 2003.900;    0.000;    0.000
333.997; 1985.900;    0.000;    0.000
334.055; 2001.900;    0.000;    0.000
334.114; 2026.900;    0.000;    0.000
334.172; 1950.900;    0.000;    0.000
334.230; 2013.900;    0.000;    0.000
334.289; 2006.900;    0.000;    0.000
334.347; 2102.900;    0.000;    0.000
334.405; 1980.900;    0.000;    0.000
334.464; 2014.900;    0.000;    0.000
334.522; 1992.900;    0.000;    0.000
334.580; 1968.900;    0.000;    0.000
334.639; 1972.900;    0.000;    0.000
334.697; 1889.900;    0.000;    0.000
334.755; 1980.900;    0.000;    0.000
334.814; 1839.900;    0.000;    0.000
334.872; 1915.900;    0.000;    0.000
334.930; 1835.900;    0.000;    0.000
334.988; 1910.900;    0.000;    0.000
335.047; 1933.900;    0.000;    0.000
335.105; 1975.900;    0.000;    0.000
335.163; 1975.900;    0.000;    0.000
335.221; 2013.900;    0.000;    0.000
335.280; 1918.900;    0.000;    0.000
335.338; 2026.900;    0.000;    0.000
335.396; 1995.900;    0.000;    0.000
335.454; 1937.900;    0.000;    0.000
335.512; 1958.900;    0.000;    0.000
335.570; 1946.900;    0.000;    0.000
335.629; 2054.900;    0.000;    0.000
335.687; 2083.900;    0.000;    0.000
335.745; 2134.900;    0.000;    0.000
335.803; 2104.900;    0.000;    0.000
335.861; 2078.900;    0.000;    0.000
335.919; 2116.900;    0.000;    0.000
335.977; 2075.900;    0.000;    0.000
336.035; 2018.900;    0.000;    0.000
336.094; 2037.900;    0.000;    0.000
336.152; 2196.900;    0.000;    0.000
336.210; 2221.900;    0.000;    0.000
336.268; 2119.900;    0.000;    0.000
336.326; 2188.900;    0.000;    0.000
336.384; 2126.900;    0.000;    0.000
336.442; 2103.900;    0.000;    0.000
336.500; 2126.900;    0.000;    0.000
336.558; 2127.900;    0.000;    0.000
336.616; 2115.900;    0.000;    0.000
336.674; 2088.900;    0.000;    0.000
336.732; 2073.900;    0.000;    0.000
336.790; 2090.900;    0.000;    0.000
336.848; 2127.900;    0.000;    0.000
336.906; 2097.900;    0.000;    0.000
336.964; 2115.900;    0.000;    0.000
337.022; 2102.900;    0.000;    0.000
337.080; 2152.900;    0.000;    0.000
337.138; 2167.900;    0.000;    0.000
337.195; 2060.900;    0.000;    0.000
337.253; 2173.900;    0.000;    0.000
337.311; 2102.900;    0.000;    0.000
337.369; 2031.900;    0.000;    0.000
337.427; 2049.900;    0.000;    0.000
337.485; 1993.900;    0.000;    0.000
337.543; 2024.900;    0.000;    0.000
337.601; 2062.900;    0.000;    0.000
337.658; 2037.900;    0.000;    0.000
337.716; 2078.900;    0.000;    0.000
337.774; 1984.900;    0.000;    0.000
337.832; 1939.900;    0.000;    0.000
337.890; 1910.900;    0.000;    0.000
337.947; 1908.900;    0.000;    0.000
338.005; 1988.900;    0.000;    0.000
338.063; 1979.900;    0.000;    0.000
338.121; 2009.900;    0.000;    0.000
338.178; 2018.900;    0.000;    0.000
338.236; 2015.900;    0.000;    0.000
338.294; 2119.900;    0.000;    0.000
338.352; 2007.900;    0.000;    0.000
338.409; 2066.900;    0.000;    0.000
338.467; 2028.900;    0.000;    0.000
338.525; 1983.900;    0.000;    0.000
338.583; 1935.900;    0.000;    0.000
338.640; 1977.900;    0.000;    0.000
338.698; 1926.900;    0.000;    0.000
338.756; 2009.900;    0.000;    0.000
338.813; 2165.900;    0.000;    0.000
338.871; 2125.900;    0.000;    0.000
338.928; 2130.900;    0.000;    0.000
338.986; 2080.900;    0.000;    0.000
339.044; 2120.900;    0.000;    0.000
339.101; 2080.900;    0.000;    0.000
339.159; 2026.900;    0.000;    0.000
339.217; 2046.900;    0.000;    0.000
339.274; 2077.900;    0.000;    0.000
339.332; 2131.900;    0.000;    0.000
339.389; 2095.900;    0.000;    0.000
339.447; 2072.900;    0.000;    0.000
339.504; 2114.900;    0.000;    0.000
339.562; 2116.900;    0.000;    0.000
339.619; 2139.900;    0.000;    0.000
339.677; 2175.900;    0.000;    0.000
339.734; 2057.900;    0.000;    0.000
339.792; 2046.900;    0.000;    0.000
339.849; 2039.900;    0.000;    0.000
339.907; 2047.900;    0.000;    0.000
339.964; 2019.900;    0.000;    0.000
340.022; 2052.900;    0.000;    0.000
340.079; 2134.900;    0.000;    0.000
340.137; 2113.900;    0.000;    0.000
340.194; 2025.900;    0.000;    0.000
340.252; 2087.900;    0.000;    0.000
340.309; 1983.900;    0.000;    0.000
340.366; 1916.900;    0.000;    0.000
340.424; 2100.900;    0.000;    0.000
340.481; 2036.900;    0.000;    0.000
340.538; 2039.900;    0.000;    0.000
340.596; 2003.900;    0.000;    0.000
340.653; 2143.900;    0.000;    0.000
340.711; 2211.900;    0.000;    0.000
340.768; 2263.900;    0.000;    0.000
340.825; 2137.900;    0.000;    0.000
340.883; 2309.900;    0.000;    0.000
340.940; 2179.900;    0.000;    0.000
340.997; 2035.900;    0.000;    0.000
341.054; 2055.900;    0.000;    0.000
341.112; 2142.900;    0.000;    0.000
341.169; 2124.900;    0.000;    0.000
341.226; 2179.900;    0.000;    0.000
341.284; 2109.900;    0.000;    0.000
341.341; 2047.900;    0.000;    0.000
341.398; 2028.900;    0.000;    0.000
341.455; 2047.900;    0.000;    0.000
341.512; 2063.900;    0.000;    0.000
341.570; 2056.900;    0.000;    0.000
341.627; 2075.900;    0.000;    0.000
341.684; 2009.900;    0.000;    0.000
341.741; 2149.900;    0.000;    0.000
341.798; 2145.900;    0.000;    0.000
341.856; 2109.900;    0.000;    0.000
341.913; 2061.900;    0.000;    0.000
341.970; 2154.900;    0.000;    0.000
342.027; 2134.900;    0.000;    0.000
342.084; 2204.900;    0.000;    0.000
342.141; 2260.900;    0.000;    0.000
342.198; 2294.900;    0.000;    0.000
342.255; 2180.900;    0.000;    0.000
342.313; 2288.900;    0.000;    0.000
342.370; 2087.900;    0.000;    0.000
342.427; 2073.900;    0.000;    0.000
342.484; 2086.900;    0.000;    0.000
342.541; 2021.900;    0.000;    0.000
342.598; 2037.900;    0.000;    0.000
342.655; 2065.900;    0.000;    0.000
342.712; 2120.900;    0.000;    0.000
342.769; 2154.900;    0.000;    0.000
342.826; 2018.900;    0.000;    0.000
342.883; 2018.900;    0.000;    0.000
342.940; 2004.900;    0.000;    0.000
342.997; 2075.900;    0.000;    0.000
343.054; 2064.900;    0.000;    0.000
343.111; 2014.900;    0.000;    0.000
343.168; 2106.900;    0.000;    0.000
343.225; 2121.900;    0.000;    0.000
343.282; 2197.900;    0.000;    0.000
343.339; 2171.900;    0.000;    0.000
343.395; 2116.900;    0.000;    0.000
343.452; 2070.900;    0.000;    0.000
343.509; 2090.900;    0.000;    0.000
343.566; 2150.900;    0.000;    0.000
343.623; 2075.900;    0.000;    0.000
343.680; 2095.900;    0.000;    0.000
343.737; 2108.900;    0.000;    0.000
343.794; 2104.900;    0.000;    0.000
343.850; 2158.900;    0.000;    0.000
343.907; 2213.900;    0.000;    0.000
343.964; 2155.900;    0.000;    0.000
344.021; 2141.900;    0.000;    0.000
344.078; 2141.900;    0.000;    0.000
344.134; 2148.900;    0.000;    0.000
344.191; 2224.900;    0.000;    0.000
344.248; 2195.900;    0.000;    0.000
344.305; 2256.900;    0.000;    0.000
344.361; 2128.900;    0.000;    0.000
344.418; 2215.900;    0.000;    0.000
344.475; 2267.900;    0.000;    0.000
344.532; 2217.900;    0.000;    0.000
344.588; 2207.900;    0.000;    0.000
344.645; 2179.900;    0.000;    0.000
344.702; 2129.900;    0.000;    0.000
344.758; 2295.900;    0.000;    0.000
344.815; 2132.900;    0.000;    0.000
344.872; 2179.900;    0.000;    0.000
344.928; 2307.900;    0.000;    0.000
344.985; 2276.900;    0.000;    0.000
345.042; 2193.900;    0.000;    0.000
345.098; 2231.900;    0.000;    0.000
345.155; 2175.900;    0.000;    0.000
345.212; 2225.900;    0.000;    0.000
345.268; 2225.900;    0.000;    0.000
345.325; 2182.900;    0.000;    0.000
345.381; 2225.900;    0.000;    0.000
345.438; 2239.900;    0.000;    0.000
345.495; 2348.900;    0.000;    0.000
345.551; 2206.900;    0.000;    0.000
345.608; 2178.900;    0.000;    0.000
345.664; 2194.900;    0.000;    0.000
345.721; 2089.900;    0.000;    0.000
345.777; 2195.900;    0.000;    0.000
345.834; 2018.900;    0.000;    0.000
345.890; 2102.900;    0.000;    0.000
345.947; 2138.900;    0.000;    0.000
346.003; 2186.900;    0.000;    0.000
346.060; 2121.900;    0.000;    0.000
346.116; 2140.900;    0.000;    0.000
346.173; 2150.900;    0.000;    0.000
346.229; 2082.900;    0.000;    0.000
346.285; 2200.900;    0.000;    0.000
346.342; 2158.900;    0.000;    0.000
346.398; 2105.900;    0.000;    0.000
346.455; 2230.900;    0.000;    0.000
346.511; 2284.900;    0.000;    0.000
346.567; 2359.900;    0.000;    0.000
346.624; 2210.900;    0.000;    0.000
346.680; 2232.900;    0.000;    0.000
346.737; 2272.900;    0.000;    0.000
346.793; 2233.900;    0.000;    0.000
346.849; 2303.900;    0.000;    0.000
346.906; 2316.900;    0.000;    0.000
346.962; 2313.900;    0.000;    0.000
347.018; 2263.900;    0.000;    0.000
347.074; 2274.900;    0.000;    0.000
347.131; 2269.900;    0.000;    0.000
347.187; 2303.900;    0.000;    0.000
347.243; 2254.900;    0.000;    0.000
347.300; 2265.900;    0.000;    0.000
347.356; 2200.900;    0.000;    0.000
347.412; 2246.900;    0.000;    0.000
347.468; 2217.900;    0.000;    0.000
347.524; 2238.900;    0.000;    0.000
347.581; 2250.900;    0.000;    0.000
347.637; 2245.900;    0.000;    0.000
347.693; 2136.900;    0.000;    0.000
347.749; 2192.900;    0.000;    0.000
347.805; 2188.900;    0.000;    0.000
347.862; 2190.900;    0.000;    0.000
347.918; 2126.900;    0.000;    0.000
347.974; 2185.900;    0.000;    0.000
348.030; 2209.900;    0.000;    0.000
348.086; 2105.900;    0.000;    0.000
348.142; 2210.900;    0.000;    0.000
348.198; 2190.900;    0.000;    0.000
348.254; 2082.900;    0.000;    0.000
348.311; 2192.900;    0.000;    0.000
348.367; 2142.900;    0.000;    0.000
348.423; 2082.900;    0.000;    0.000
348.479; 2118.900;    0.000;    0.000
348.535; 2162.900;    0.000;    0.000
348.591; 2225.900;    0.000;    0.000
348.647; 2158.900;    0.000;    0.000
348.703; 2246.900;    0.000;    0.000
348.759; 2132.900;    0.000;    0.000
348.815; 2202.900;    0.000;    0.000
348.871; 2126.900;    0.000;    0.000
348.927; 2196.900;    0.000;    0.000
348.983; 2240.900;    0.000;    0.000
349.039; 2223.900;    0.000;    0.000
349.095; 2220.900;    0.000;    0.000
349.151; 2172.900;    0.000;    0.000
349.207; 2295.900;    0.000;    0.000
349.263; 2137.900;    0.000;    0.000
349.319; 2265.900;    0.000;    0.000
349.374; 2153.900;    0.000;    0.000
349.430; 2245.900;    0.000;    0.000
349.486; 2189.900;    0.000;    0.000
349.542; 2220.900;    0.000;    0.000
349.598; 2254.900;    0.000;    0.000
349.654; 2238.900;    0.000;    0.000
349.710; 2248.900;    0.000;    0.000
349.766; 2238.900;    0.000;    0.000
349.821; 2301.900;    0.000;    0.000
349.877; 2258.900;    0.000;    0.000
349.933; 2206.900;    0.000;    0.000
349.989; 2271.900;    0.000;    0.000
350.045; 2210.900;    0.000;    0.000
350.100; 2226.900;    0.000;    0.000
350.156; 2202.900;    0.000;    0.000
350.212; 2168.900;    0.000;    0.000
350.268; 2183.900;    0.000;    0.000
350.323; 2218.900;    0.000;    0.000
350.379; 2238.900;    0.000;    0.000
350.435; 2218.900;    0.000;    0.000
350.491; 2175.900;    0.000;    0.000
350.546; 2187.900;    0.000;    0.000
350.602; 2140.900;    0.000;    0.000
350.658; 2178.900;    0.000;    0.000
350.713; 2174.900;    0.000;    0.000
350.769; 2135.900;    0.000;    0.000
350.825; 2189.900;    0.000;    0.000
350.880; 2221.900;    0.000;    0.000
350.936; 2206.900;    0.000;    0.000
350.992; 2166.900;    0.000;    0.000
351.047; 2229.900;    0.000;    0.000
351.103; 2212.900;    0.000;    0.000
351.158; 2178.900;    0.000;    0.000
351.214; 2220.900;    0.000;    0.000
351.270; 2174.900;    0.000;    0.000
351.325; 2130.900;    0.000;    0.000
351.381; 2175.900;    0.000;    0.000
351.436; 2240.900;    0.000;    0.000
351.492; 2235.900;    0.000;    0.000
351.547; 2306.900;    0.000;    0.000
351.603; 2232.900;    0.000;    0.000
351.658; 2283.900;    0.000;    0.000
351.714; 2207.900;    0.000;    0.000
351.769; 2219.900;    0.000;    0.000
351.825; 2236.900;    0.000;    0.000
351.880; 2259.900;    0.000;    0.000
351.936; 2259.900;    0.000;    0.000
351.991; 2345.900;    0.000;    0.000
352.047; 2325.900;    0.000;    0.000
352.102; 2321.900;    0.000;    0.000
352.157; 2291.900;    0.000;    0.000
352.213; 2209.900;    0.000;    0.000
352.268; 2198.900;    0.000;    0.000
352.324; 2268.900;    0.000;    0.000
352.379; 2234.900;    0.000;    0.000
352.434; 2311.900;    0.000;    0.000
352.490; 2092.900;    0.000;    0.000
352.545; 2298.900;    0.000;    0.000
352.601; 2253.900;    0.000;    0.000
352.656; 2184.900;    0.000;    0.000
352.711; 2171.900;    0.000;    0.000
352.767; 2079.900;    0.000;    0.000
352.822; 2118.900;    0.000;    0.000
352.877; 2114.900;    0.000;    0.000
352.932; 2135.900;    0.000;    0.000
352.988; 2129.900;    0.000;    0.000
353.043; 2273.900;    0.000;    0.000
353.098; 2278.900;    0.000;    0.000
353.153; 2278.900;    0.000;    0.000
353.209; 2219.900;    0.000;    0.000
353.264; 2200.900;    0.000;    0.000
353.319; 2172.900;    0.000;    0.000
353.374; 2220.900;    0.000;    0.000
353.430; 2206.900;    0.000;    0.000
353.485; 2193.900;    0.000;    0.000
353.540; 2249.900;    0.000;    0.000
353.595; 2201.900;    0.000;    0.000
353.650; 2179.900;    0.000;    0.000
353.705; 2142.900;    0.000;    0.000
353.761; 2182.900;    0.000;    0.000
353.816; 2136.900;    0.000;    0.000
353.871; 2206.900;    0.000;    0.000
353.926; 2255.900;    0.000;    0.000
353.981; 2168.900;    0.000;    0.000
354.036; 2180.900;    0.000;    0.000
354.091; 2103.900;    0.000;    0.000
354.146; 2154.900;    0.000;    0.000
354.201; 2149.900;    0.000;    0.000
354.256; 2117.900;    0.000;    0.000
354.311; 2235.900;    0.000;    0.000
354.367; 2157.900;    0.000;    0.000
354.422; 2216.900;    0.000;    0.000
354.477; 2144.900;    0.000;    0.000
354.532; 2200.900;    0.000;    0.000
354.587; 2245.900;    0.000;    0.000
354.642; 2176.900;    0.000;    0.000
354.697; 2219.900;    0.000;    0.000
354.752; 2219.900;    0.000;    0.000
354.806; 2269.900;    0.000;    0.000
354.861; 2236.900;    0.000;    0.000
354.916; 2193.900;    0.000;    0.000
354.971; 2233.900;    0.000;    0.000
355.026; 2145.900;    0.000;    0.000
355.081; 2174.900;    0.000;    0.000
355.136; 2075.900;    0.000;    0.000
355.191; 2102.900;    0.000;    0.000
355.246; 2056.900;    0.000;    0.000
355.301; 2178.900;    0.000;    0.000
355.356; 2160.900;    0.000;    0.000
355.410; 2199.900;    0.000;    0.000
355.465; 2156.900;    0.000;    0.000
355.520; 2135.900;    0.000;    0.000
355.575; 2222.900;    0.000;    0.000
355.630; 2107.900;    0.000;    0.000
355.684; 2097.900;    0.000;    0.000
355.739; 2087.900;    0.000;    0.000
355.794; 2115.900;    0.000;    0.000
355.849; 2102.900;    0.000;    0.000
355.904; 2077.900;    0.000;    0.000
355.958; 2116.900;    0.000;    0.000
356.013; 2143.900;    0.000;    0.000
356.068; 2209.900;    0.000;    0.000
356.123; 2144.900;    0.000;    0.000
356.177; 2242.900;    0.000;    0.000
356.232; 2243.900;    0.000;    0.000
356.287; 2233.900;    0.000;    0.000
356.341; 2164.900;    0.000;    0.000
356.396; 2193.900;    0.000;    0.000
356.451; 2112.900;    0.000;    0.000
356.505; 2135.900;    0.000;    0.000
356.560; 2124.900;    0.000;    0.000
356.615; 2037.900;    0.000;    0.000
356.669; 2192.900;    0.000;    0.000
356.724; 2129.900;    0.000;    0.000
356.778; 2195.900;    0.000;    0.000
356.833; 2157.900;    0.000;    0.000
356.888; 2180.900;    0.000;    0.000
356.942; 2115.900;    0.000;    0.000
356.997; 2130.900;    0.000;    0.000
357.051; 2165.900;    0.000;    0.000
357.106; 2132.900;    0.000;    0.000
357.160; 2101.900;    0.000;    0.000
357.215; 2023.900;    0.000;    0.000
357.269; 2134.900;    0.000;    0.000
357.324; 2106.900;    0.000;    0.000
357.378; 2059.900;    0.000;    0.000
357.433; 2168.900;    0.000;    0.000
357.487; 2147.900;    0.000;    0.000
357.542; 2088.900;    0.000;    0.000
357.596; 2076.900;    0.000;    0.000
357.651; 2139.900;    0.000;    0.000
357.705; 2149.900;    0.000;    0.000
357.760; 2039.900;    0.000;    0.000
357.814; 2087.900;    0.000;    0.000
357.868; 2029.900;    0.000;    0.000
357.923; 2099.900;    0.000;    0.000
357.977; 2092.900;    0.000;    0.000
358.032; 2095.900;    0.000;    0.000
358.086; 2135.900;    0.000;    0.000
358.140; 2122.900;    0.000;    0.000
358.195; 2145.900;    0.000;    0.000
358.249; 2167.900;    0.000;    0.000
358.303; 2213.900;    0.000;    0.000
358.358; 2077.900;    0.000;    0.000
358.412; 2128.900;    0.000;    0.000
358.466; 2108.900;    0.000;    0.000
358.521; 2141.900;    0.000;    0.000
358.575; 2130.900;    0.000;    0.000
358.629; 2008.900;    0.000;    0.000
358.683; 2175.900;    0.000;    0.000
358.738; 2041.900;    0.000;    0.000
358.792; 2066.900;    0.000;    0.000
358.846; 2058.900;    0.000;    0.000
358.900; 2115.900;    0.000;    0.000
358.954; 2105.900;    0.000;    0.000
359.009; 2062.900;    0.000;    0.000
359.063; 1998.900;    0.000;    0.000
359.117; 2114.900;    0.000;    0.000
359.171; 2065.900;    0.000;    0.000
359.225; 2108.900;    0.000;    0.000
359.280; 2098.900;    0.000;    0.000
359.334; 2168.900;    0.000;    0.000
359.388; 2196.900;    0.000;    0.000
359.442; 2106.900;    0.000;    0.000
359.496; 2073.900;    0.000;    0.000
359.550; 2190.900;    0.000;    0.000
359.604; 2061.900;    0.000;    0.000
359.658; 2103.900;    0.000;    0.000
359.712; 2026.900;    0.000;    0.000
359.766; 2048.900;    0.000;    0.000
359.820; 2038.900;    0.000;    0.000
359.875; 2000.900;    0.000;    0.000
359.929; 2001.900;    0.000;    0.000
359.983; 2044.900;    0.000;    0.000
360.037; 2051.900;    0.000;    0.000
360.091; 2068.900;    0.000;    0.000
360.145; 2009.900;    0.000;    0.000
360.199; 2002.900;    0.000;    0.000
360.253; 1963.900;    0.000;    0.000
360.306; 2057.900;    0.000;    0.000
360.360; 2001.900;    0.000;    0.000
360.414; 1956.900;    0.000;    0.000
360.468; 2114.900;    0.000;    0.000
360.522; 2007.900;    0.000;    0.000
360.576; 2086.900;    0.000;    0.000
360.630; 2070.900;    0.000;    0.000
360.684; 2003.900;    0.000;    0.000
360.738; 2048.900;    0.000;    0.000
360.792; 2021.900;    0.000;    0.000
360.846; 1984.900;    0.000;    0.000
360.899; 2114.900;    0.000;    0.000
360.953; 2015.900;    0.000;    0.000
361.007; 2063.900;    0.000;    0.000
361.061; 2028.900;    0.000;    0.000
361.115; 2031.900;    0.000;    0.000
361.168; 2080.900;    0.000;    0.000
361.222; 2017.900;    0.000;    0.000
361.276; 2027.900;    0.000;    0.000
361.330; 2027.900;    0.000;    0.000
361.384; 1971.900;    0.000;    0.000
361.437; 2021.900;    0.000;    0.000
361.491; 2086.900;    0.000;    0.000
361.545; 1993.900;    0.000;    0.000
361.599; 2005.900;    0.000;    0.000
361.652; 1981.900;    0.000;    0.000
361.706; 2060.900;    0.000;    0.000
361.760; 2036.900;    0.000;    0.000
361.813; 2070.900;    0.000;    0.000
361.867; 2018.900;    0.000;    0.000
361.921; 1896.900;    0.000;    0.000
361.974; 1969.900;    0.000;    0.000
362.028; 1989.900;    0.000;    0.000
362.082; 1964.900;    0.000;    0.000
362.135; 1912.900;    0.000;    0.000
362.189; 1993.900;    0.000;    0.000
362.242; 1992.900;    0.000;    0.000
362.296; 1994.900;    0.000;    0.000
362.350; 1925.900;    0.000;    0.000
362.403; 1955.900;    0.000;    0.000
362.457; 1978.900;    0.000;    0.000
362.510; 2021.900;    0.000;    0.000
362.564; 1980.900;    0.000;    0.000
362.617; 1932.900;    0.000;    0.000
362.671; 1963.900;    0.000;    0.000
362.724; 1960.900;    0.000;    0.000
362.778; 1954.900;    0.000;    0.000
362.831; 1925.900;    0.000;    0.000
362.885; 1963.900;    0.000;    0.000
362.938; 1823.900;    0.000;    0.000
362.992;  389.900;    0.000;    0.000
363.045;  288.900;    0.000;    0.000
363.099;  278.900;    0.000;    0.000
363.152;  317.900;    0.000;    0.000
363.205;  293.900;    0.000;    0.000
363.259;  266.900;    0.000;    0.000
363.312;  343.900;    0.000;    0.000
363.366;  322.900;    0.000;    0.000
363.419;  298.900;    0.000;    0.000
363.472;  320.900;    0.000;    0.000
363.526;  330.900;    0.000;    0.000
363.579;  313.900;    0.000;    0.000
363.632;  274.900;    0.000;    0.000
363.686;  282.900;    0.000;    0.000
363.739;  257.900;    0.000;    0.000
363.792;  284.900;    0.000;    0.000

