
Integration time [ms]:   1.000
Averaging Nr. [scans]: 1
Smoothing Nr. [pixels]: 0
Data measured with spectrometer [name]: NIR
Wave   ;Sample   ;Dark     ;Reference
[nm]   ;[counts] ;[counts] ;[counts] 

691.496;  -39.525;  163.125;    0.000
691.696;    5.475;  208.125;    0.000
691.896;  -38.525;  111.125;    0.000
692.096;  -11.525;  178.125;    0.000
692.296;  -70.525;   93.125;    0.000
692.496;   -6.525;  161.125;    0.000
692.695;   -4.525;  135.125;    0.000
692.895;    5.475;  179.125;    0.000
693.095;  -36.525;  158.125;    0.000
693.295;   -6.525;  168.125;    0.000
693.495;  -12.525;  170.125;    0.000
693.695;  -21.525;  155.125;    0.000
693.894;    1.475;  151.125;    0.000
694.094;  -15.525;  164.125;    0.000
694.294;  -16.525;  129.125;    0.000
694.494;  374.475;  170.125;    0.000
694.693; 3792.475;  137.125;    0.000
694.893; 4133.475;  163.125;    0.000
695.093; 4153.475;  121.125;    0.000
695.293; 4168.475;  144.125;    0.000
695.492; 4208.475;   88.125;    0.000
695.692; 4277.475;  148.125;    0.000
695.891; 4229.475;  125.125;    0.000
696.091; 4395.475;  184.125;    0.000
696.291; 4245.475;  153.125;    0.000
696.490; 4365.475;  131.125;    0.000
696.690; 4313.475;  123.125;    0.000
696.889; 4361.475;  180.125;    0.000
697.089; 4382.475;  147.125;    0.000
697.288; 4361.475;  164.125;    0.000
697.488; 4427.475;  133.125;    0.000
697.687; 4447.475;  153.125;    0.000
697.887; 4307.475;  119.125;    0.000
698.086; 4332.475;  143.125;    0.000
698.286; 4465.475;  125.125;    0.000
698.485; 4446.475;  120.125;    0.000
698.684; 4352.475;  116.125;    0.000
698.884; 4290.475;  131.125;    0.000
699.083; 4385.475;  115.125;    0.000
699.282; 4287.475;  144.125;    0.000
699.482; 4494.475;  109.125;    0.000
699.681; 4457.475;  115.125;    0.000
699.880; 4564.475;  125.125;    0.000
700.080; 4517.475;  139.125;    0.000
700.279; 4440.475;  111.125;    0.000
700.478; 4502.475;  146.125;    0.000
700.677; 4361.475;  131.125;    0.000
700.877; 4517.475;  156.125;    0.000
701.076; 4495.475;  153.125;    0.000
701.275; 4509.475;  123.125;    0.000
701.474; 4458.475;  150.125;    0.000
701.673; 4477.475;   97.125;    0.000
701.872; 4491.475;  139.125;    0.000
702.071; 4468.475;  108.125;    0.000
702.271; 4631.475;  125.125;    0.000
702.470; 4674.475;  108.125;    0.000
702.669; 4619.475;  102.125;    0.000
702.868; 4520.475;  153.125;    0.000
703.067; 4669.475;  145.125;    0.000
703.266; 4554.475;   96.125;    0.000
703.465; 4646.475;  165.125;    0.000
703.664; 4610.475;  106.125;    0.000
703.863; 4685.475;  144.125;    0.000
704.062; 4533.475;   86.125;    0.000
704.260; 4658.475;   99.125;    0.000
704.459; 4646.475;  112.125;    0.000
704.658; 4708.475;  106.125;    0.000
704.857; 4603.475;  129.125;    0.000
705.056; 4709.475;   98.125;    0.000
705.255; 4596.475;   97.125;    0.000
705.454; 4684.475;  101.125;    0.000
705.652; 4721.475;  142.125;    0.000
705.851; 4630.475;  100.125;    0.000
706.050; 4739.475;  162.125;    0.000
706.249; 4675.475;  146.125;    0.000
706.447; 4811.475;  120.125;    0.000
706.646; 4631.475;  114.125;    0.000
706.845; 4720.475;  117.125;    0.000
707.043; 4658.475;  136.125;    0.000
707.242; 4798.475;   90.125;    0.000
707.441; 4674.475;  131.125;    0.000
707.639; 4732.475;  120.125;    0.000
707.838; 4695.475;  122.125;    0.000
708.037; 4770.475;  109.125;    0.000
708.235; 4698.475;  122.125;    0.000
708.434; 4562.475;  109.125;    0.000
708.632; 4781.475;   47.125;    0.000
708.831; 4870.475;  122.125;    0.000
709.029; 4772.475;  130.125;    0.000
709.228; 4732.475;  112.125;    0.000
709.426; 4742.475;  128.125;    0.000
709.625; 4837.475;  129.125;    0.000
709.823; 4758.475;  130.125;    0.000
710.022; 4821.475;   90.125;    0.000
710.220; 4887.475;  131.125;    0.000
710.418; 4866.475;  133.125;    0.000
710.617; 4871.475;   82.125;    0.000
710.815; 4904.475;   90.125;    0.000
711.013; 4953.475;   86.125;    0.000
711.212; 4902.475;  117.125;    0.000
711.410; 4968.475;  106.125;    0.000
711.608; 4916.475;  138.125;    0.000
711.807; 4955.475;  116.125;    0.000
712.005; 5083.475;   82.125;    0.000
712.203; 5064.475;   90.125;    0.000
712.401; 4953.475;  124.125;    0.000
712.599; 5035.475;   64.125;    0.000
712.798; 5028.475;  113.125;    0.000
712.996; 5070.475;  100.125;    0.000
713.194; 5009.475;  130.125;    0.000
713.392; 5087.475;   89.125;    0.000
713.590; 5156.475;  105.125;    0.000
713.788; 5109.475;  100.125;    0.000
713.986; 5320.475;  117.125;    0.000
714.184; 5167.475;   72.125;    0.000
714.382; 5242.475;   88.125;    0.000
714.580; 5359.475;   88.125;    0.000
714.778; 5333.475;  129.125;    0.000
714.976; 5255.475;   90.125;    0.000
715.174; 5510.475;  119.125;    0.000
715.372; 5594.475;  117.125;    0.000
715.570; 5796.475;  101.125;    0.000
715.768; 6241.475;  122.125;    0.000
715.966; 6260.475;  114.125;    0.000
716.164; 6116.475;  135.125;    0.000
716.362; 6194.475;  126.125;    0.000
716.560; 6013.475;  126.125;    0.000
716.758; 5855.475;   98.125;    0.000
716.955; 5853.475;   76.125;    0.000
717.153; 5713.475;   45.125;    0.000
717.351; 5670.475;  106.125;    0.000
717.549; 5647.475;  108.125;    0.000
717.746; 5590.475;   66.125;    0.000
717.944; 5627.475;  127.125;    0.000
718.142; 5533.475;  148.125;    0.000
718.340; 5566.475;   94.125;    0.000
718.537; 5554.475;  107.125;    0.000
718.735; 5610.475;  130.125;    0.000
718.933; 5698.475;  111.125;    0.000
719.130; 5599.475;  107.125;    0.000
719.328; 5568.475;  128.125;    0.000
719.525; 5536.475;  141.125;    0.000
719.723; 5574.475;  122.125;    0.000
719.920; 5470.475;   85.125;    0.000
720.118; 5450.475;  115.125;    0.000
720.316; 5667.475;  153.125;    0.000
720.513; 5489.475;  120.125;    0.000
720.711; 5482.475;  134.125;    0.000
720.908; 5532.475;  126.125;    0.000
721.105; 5594.475;  119.125;    0.000
721.303; 5506.475;  112.125;    0.000
721.500; 5629.475;  125.125;    0.000
721.698; 5464.475;   94.125;    0.000
721.895; 5563.475;  118.125;    0.000
722.092; 5594.475;   77.125;    0.000
722.290; 5504.475;  135.125;    0.000
722.487; 5515.475;  154.125;    0.000
722.684; 5409.475;  122.125;    0.000
722.882; 5484.475;   90.125;    0.000
723.079; 5574.475;  132.125;    0.000
723.276; 5537.475;   95.125;    0.000
723.473; 5420.475;  106.125;    0.000
723.671; 5451.475;   80.125;    0.000
723.868; 5687.475;  112.125;    0.000
724.065; 5580.475;  107.125;    0.000
724.262; 5551.475;  119.125;    0.000
724.459; 5603.475;   80.125;    0.000
724.656; 5688.475;  109.125;    0.000
724.854; 5574.475;  107.125;    0.000
725.051; 5641.475;  103.125;    0.000
725.248; 5714.475;  101.125;    0.000
725.445; 5598.475;   93.125;    0.000
725.642; 5665.475;   92.125;    0.000
725.839; 5660.475;  157.125;    0.000
726.036; 5635.475;   71.125;    0.000
726.233; 5572.475;   80.125;    0.000
726.430; 5710.475;  146.125;    0.000
726.627; 5681.475;  103.125;    0.000
726.824; 5617.475;   46.125;    0.000
727.021; 5654.475;  149.125;    0.000
727.218; 5657.475;   87.125;    0.000
727.414; 5772.475;  112.125;    0.000
727.611; 5849.475;  111.125;    0.000
727.808; 5753.475;  122.125;    0.000
728.005; 5772.475;   58.125;    0.000
728.202; 5767.475;  129.125;    0.000
728.399; 5777.475;  111.125;    0.000
728.595; 5741.475;   93.125;    0.000
728.792; 5749.475;   78.125;    0.000
728.989; 5713.475;  104.125;    0.000
729.186; 5876.475;  110.125;    0.000
729.382; 5839.475;   93.125;    0.000
729.579; 5891.475;  102.125;    0.000
729.776; 5797.475;  112.125;    0.000
729.972; 5793.475;  101.125;    0.000
730.169; 5795.475;  150.125;    0.000
730.366; 5816.475;   92.125;    0.000
730.562; 5832.475;   74.125;    0.000
730.759; 5919.475;   97.125;    0.000
730.955; 5879.475;   86.125;    0.000
731.152; 5772.475;   88.125;    0.000
731.348; 5833.475;  117.125;    0.000
731.545; 5789.475;   62.125;    0.000
731.741; 5904.475;   84.125;    0.000
731.938; 5838.475;  108.125;    0.000
732.134; 5829.475;  115.125;    0.000
732.331; 5837.475;   88.125;    0.000
732.527; 5943.475;   96.125;    0.000
732.724; 5869.475;  103.125;    0.000
732.920; 5896.475;   93.125;    0.000
733.116; 6055.475;  109.125;    0.000
733.313; 5921.475;   77.125;    0.000
733.509; 5812.475;   81.125;    0.000
733.705; 6015.475;  141.125;    0.000
733.902; 5875.475;   88.125;    0.000
734.098; 5868.475;   56.125;    0.000
734.294; 5971.475;  122.125;    0.000
734.490; 6109.475;  102.125;    0.000
734.687; 5964.475;   70.125;    0.000
734.883; 5872.475;   73.125;    0.000
735.079; 5929.475;   65.125;    0.000
735.275; 5882.475;  112.125;    0.000
735.471; 6053.475;  124.125;    0.000
735.667; 5903.475;   94.125;    0.000
735.863; 5935.475;  106.125;    0.000
736.060; 6125.475;  106.125;    0.000
736.256; 6054.475;   95.125;    0.000
736.452; 6037.475;  103.125;    0.000
736.648; 6088.475;  106.125;    0.000
736.844; 6120.475;   98.125;    0.000
737.040; 6033.475;  118.125;    0.000
737.236; 6060.475;   95.125;    0.000
737.432; 6141.475;   59.125;    0.000
737.628; 6301.475;  120.125;    0.000
737.824; 6141.475;   78.125;    0.000
738.019; 6201.475;   98.125;    0.000
738.215; 6179.475;  127.125;    0.000
738.411; 6209.475;  111.125;    0.000
738.607; 6129.475;   69.125;    0.000
738.803; 6203.475;   40.125;    0.000
738.999; 6289.475;  128.125;    0.000
739.195; 6234.475;   81.125;    0.000
739.390; 6385.475;   97.125;    0.000
739.586; 6239.475;  100.125;    0.000
739.782; 6292.475;  135.125;    0.000
739.978; 6411.475;  121.125;    0.000
740.173; 6392.475;   92.125;    0.000
740.369; 6357.475;   92.125;    0.000
740.565; 6480.475;  119.125;    0.000
740.760; 6423.475;  139.125;    0.000
740.956; 6488.475;  134.125;    0.000
741.152; 6603.475;  107.125;    0.000
741.347; 6661.475;   63.125;    0.000
741.543; 6681.475;   99.125;    0.000
741.738; 6800.475;  119.125;    0.000
741.934; 6993.475;  156.125;    0.000
742.129; 7300.475;   87.125;    0.000
742.325; 8217.475;  143.125;    0.000
742.520; 8623.475;  109.125;    0.000
742.716; 8409.475;  135.125;    0.000
742.911; 8081.475;   77.125;    0.000
743.107; 7821.475;  117.125;    0.000
743.302; 7917.475;   93.125;    0.000
743.498; 7906.475;  118.125;    0.000
743.693; 7983.475;   95.125;    0.000
743.888; 8279.475;  122.125;    0.000
744.084; 9287.475;  104.125;    0.000
744.279;10939.475;   94.125;    0.000
744.474;10998.475;  138.125;    0.000
744.670;10364.475;  113.125;    0.000
744.865; 9570.475;  116.125;    0.000
745.060; 9006.475;   89.125;    0.000
745.255; 8816.475;  144.125;    0.000
745.451; 8582.475;   98.125;    0.000
745.646; 8523.475;  110.125;    0.000
745.841; 8380.475;   87.125;    0.000
746.036; 8518.475;   98.125;    0.000
746.231; 8761.475;  153.125;    0.000
746.426; 9116.475;   90.125;    0.000
746.622;10180.475;  154.125;    0.000
746.817;12771.475;  111.125;    0.000
747.012;14344.475;  110.125;    0.000
747.207;13181.475;   76.125;    0.000
747.402;11875.475;   94.125;    0.000
747.597;11037.475;   68.125;    0.000
747.792;10566.475;  125.125;    0.000
747.987;10183.475;   92.125;    0.000
748.182; 9895.475;  113.125;    0.000
748.377; 9408.475;   72.125;    0.000
748.572; 9101.475;  135.125;    0.000
748.767; 8920.475;   98.125;    0.000
748.961; 8822.475;  123.125;    0.000
749.156; 8384.475;   96.125;    0.000
749.351; 8273.475;  121.125;    0.000
749.546; 8037.475;   95.125;    0.000
749.741; 8029.475;  144.125;    0.000
749.936; 7844.475;  105.125;    0.000
750.130; 7629.475;  101.125;    0.000
750.325; 7557.475;  126.125;    0.000
750.520; 7647.475;  113.125;    0.000
750.715; 7453.475;  135.125;    0.000
750.909; 7535.475;  138.125;    0.000
751.104; 7359.475;   96.125;    0.000
751.299; 7281.475;  118.125;    0.000
751.493; 7388.475;  124.125;    0.000
751.688; 7253.475;  131.125;    0.000
751.882; 7216.475;   96.125;    0.000
752.077; 7254.475;  123.125;    0.000
752.272; 7153.475;  112.125;    0.000
752.466; 7007.475;  143.125;    0.000
752.661; 7051.475;  107.125;    0.000
752.855; 6855.475;   97.125;    0.000
753.050; 6986.475;  125.125;    0.000
753.244; 7067.475;  161.125;    0.000
753.439; 6916.475;  101.125;    0.000
753.633; 6828.475;  129.125;    0.000
753.828; 6882.475;  114.125;    0.000
754.022; 6816.475;  118.125;    0.000
754.216; 6860.475;  126.125;    0.000
754.411; 6717.475;  148.125;    0.000
754.605; 6869.475;  100.125;    0.000
754.799; 6814.475;  146.125;    0.000
754.994; 6825.475;  116.125;    0.000
755.188; 6707.475;  146.125;    0.000
755.382; 6857.475;  103.125;    0.000
755.576; 6785.475;  119.125;    0.000
755.771; 6762.475;  100.125;    0.000
755.965; 6715.475;  129.125;    0.000
756.159; 6700.475;  100.125;    0.000
756.353; 6731.475;  153.125;    0.000
756.547; 6861.475;  113.125;    0.000
756.742; 6742.475;  129.125;    0.000
756.936; 6696.475;   70.125;    0.000
757.130; 6667.475;   91.125;    0.000
757.324; 6760.475;   92.125;    0.000
757.518; 6729.475;  128.125;    0.000
757.712; 6710.475;  146.125;    0.000
757.906; 6775.475;  114.125;    0.000
758.100; 6708.475;  153.125;    0.000
758.294; 6717.475;  133.125;    0.000
758.488; 6673.475;  149.125;    0.000
758.682; 6634.475;  132.125;    0.000
758.876; 6580.475;  128.125;    0.000
759.070; 6675.475;  178.125;    0.000
759.264; 6581.475;   98.125;    0.000
759.458; 6639.475;  168.125;    0.000
759.651; 6714.475;  131.125;    0.000
759.845; 6621.475;  133.125;    0.000
760.039; 6536.475;  120.125;    0.000
760.233; 6727.475;  116.125;    0.000
760.427; 6564.475;  121.125;    0.000
760.620; 6620.475;  163.125;    0.000
760.814; 6523.475;  106.125;    0.000
761.008; 6627.475;  119.125;    0.000
761.202; 6502.475;  121.125;    0.000
761.395; 6655.475;  136.125;    0.000
761.589; 6715.475;  111.125;    0.000
761.783; 6672.475;  116.125;    0.000
761.976; 6676.475;  139.125;    0.000
762.170; 6694.475;  140.125;    0.000
762.363; 6500.475;  115.125;    0.000
762.557; 6730.475;  129.125;    0.000
762.750; 6707.475;   85.125;    0.000
762.944; 6747.475;  107.125;    0.000
763.138; 6608.475;   99.125;    0.000
763.331; 6823.475;   97.125;    0.000
763.524; 6746.475;  100.125;    0.000
763.718; 6946.475;  130.125;    0.000
763.911; 6792.475;  127.125;    0.000
764.105; 6777.475;   69.125;    0.000
764.298; 6866.475;   94.125;    0.000
764.492; 6784.475;  129.125;    0.000
764.685; 6756.475;  114.125;    0.000
764.878; 6765.475;  145.125;    0.000
765.072; 6641.475;  124.125;    0.000
765.265; 6858.475;  124.125;    0.000
765.458; 6811.475;  108.125;    0.000
765.651; 6997.475;  132.125;    0.000
765.845; 6749.475;  106.125;    0.000
766.038; 7151.475;  155.125;    0.000
766.231; 8326.475;  153.125;    0.000
766.424;13576.475;  165.125;    0.000
766.617;14081.475;   85.125;    0.000
766.811; 8135.475;  140.125;    0.000
767.004; 7300.475;  151.125;    0.000
767.197; 7218.475;  178.125;    0.000
767.390; 7027.475;  112.125;    0.000
767.583; 6917.475;  134.125;    0.000
767.776; 7064.475;  101.125;    0.000
767.969; 7015.475;   99.125;    0.000
768.162; 7054.475;  152.125;    0.000
768.355; 7038.475;  115.125;    0.000
768.548; 7113.475;  154.125;    0.000
768.741; 7029.475;  124.125;    0.000
768.934; 7096.475;  129.125;    0.000
769.127; 7178.475;  137.125;    0.000
769.320; 7280.475;  115.125;    0.000
769.513; 7303.475;  144.125;    0.000
769.706; 8743.475;  107.125;    0.000
769.898;13545.475;  134.125;    0.000
770.091;10134.475;  128.125;    0.000
770.284; 7789.475;   97.125;    0.000
770.477; 7582.475;  135.125;    0.000
770.670; 7400.475;  137.125;    0.000
770.862; 7607.475;  112.125;    0.000
771.055; 7472.475;  127.125;    0.000
771.248; 7609.475;  116.125;    0.000
771.441; 7722.475;  101.125;    0.000
771.633; 7593.475;  130.125;    0.000
771.826; 7672.475;  147.125;    0.000
772.018; 7847.475;  117.125;    0.000
772.211; 7693.475;  141.125;    0.000
772.404; 7866.475;  104.125;    0.000
772.596; 7931.475;  128.125;    0.000
772.789; 8103.475;  131.125;    0.000
772.981; 8182.475;  134.125;    0.000
773.174; 8183.475;  108.125;    0.000
773.366; 8334.475;  153.125;    0.000
773.559; 8220.475;  137.125;    0.000
773.751; 8522.475;  119.125;    0.000
773.944; 8668.475;  148.125;    0.000
774.136; 8744.475;  155.125;    0.000
774.329; 8988.475;  126.125;    0.000
774.521; 9227.475;  116.125;    0.000
774.713; 9730.475;  119.125;    0.000
774.906; 9711.475;  179.125;    0.000
775.098;10183.475;  127.125;    0.000
775.290;10571.475;  146.125;    0.000
775.483;11184.475;  123.125;    0.000
775.675;11852.475;  119.125;    0.000
775.867;12648.475;  119.125;    0.000
776.059;13776.475;  137.125;    0.000
776.251;15116.475;  154.125;    0.000
776.444;16929.475;  101.125;    0.000
776.636;19675.475;  153.125;    0.000
776.828;24469.475;  127.125;    0.000
777.020;33319.477;  140.125;    0.000
777.212;47565.477;  160.125;    0.000
777.404;52869.477;  170.125;    0.000
777.596;49392.477;  136.125;    0.000
777.788;38127.477;  137.125;    0.000
777.980;29720.475;  129.125;    0.000
778.172;24827.475;  139.125;    0.000
778.364;21101.475;  124.125;    0.000
778.556;18971.475;  163.125;    0.000
778.748;16950.475;  142.125;    0.000
778.940;15587.475;  178.125;    0.000
779.132;14462.475;  159.125;    0.000
779.324;13045.475;  109.125;    0.000
779.516;12296.475;  143.125;    0.000
779.708;11738.475;  158.125;    0.000
779.900;11106.475;  142.125;    0.000
780.091;10710.475;  131.125;    0.000
780.283;10189.475;  176.125;    0.000
780.475; 9997.475;  151.125;    0.000
780.667; 9588.475;  120.125;    0.000
780.859; 9378.475;  134.125;    0.000
781.050; 9152.475;  183.125;    0.000
781.242; 8935.475;   95.125;    0.000
781.434; 8831.475;  127.125;    0.000
781.625; 8537.475;  163.125;    0.000
781.817; 8438.475;  170.125;    0.000
782.008; 8339.475;  123.125;    0.000
782.200; 8120.475;  141.125;    0.000
782.392; 8074.475;  149.125;    0.000
782.583; 7907.475;  155.125;    0.000
782.775; 7802.475;  140.125;    0.000
782.966; 7832.475;  167.125;    0.000
783.158; 7623.475;  164.125;    0.000
783.349; 7656.475;  174.125;    0.000
783.541; 7498.475;  141.125;    0.000
783.732; 7334.475;  115.125;    0.000
783.924; 7533.475;  135.125;    0.000
784.115; 7414.475;  157.125;    0.000
784.306; 7391.475;  102.125;    0.000
784.498; 7230.475;  124.125;    0.000
784.689; 7210.475;  171.125;    0.000
784.880; 7107.475;  165.125;    0.000
785.072; 7198.475;  152.125;    0.000
785.263; 7112.475;  146.125;    0.000
785.454; 7118.475;  145.125;    0.000
785.645; 6952.475;  127.125;    0.000
785.837; 7020.475;  138.125;    0.000
786.028; 7024.475;  151.125;    0.000
786.219; 7041.475;  142.125;    0.000
786.410; 7092.475;  140.125;    0.000
786.601; 7073.475;  137.125;    0.000
786.792; 6973.475;  158.125;    0.000
786.984; 7015.475;  139.125;    0.000
787.175; 7007.475;  140.125;    0.000
787.366; 7037.475;  145.125;    0.000
787.557; 7051.475;  156.125;    0.000
787.748; 6963.475;  148.125;    0.000
787.939; 7100.475;  157.125;    0.000
788.130; 7228.475;  179.125;    0.000
788.321; 7081.475;  142.125;    0.000
788.512; 7168.475;  167.125;    0.000
788.703; 7202.475;  145.125;    0.000
788.894; 7265.475;  132.125;    0.000
789.084; 7161.475;  113.125;    0.000
789.275; 7089.475;  134.125;    0.000
789.466; 7327.475;  151.125;    0.000
789.657; 7180.475;  138.125;    0.000
789.848; 7491.475;  145.125;    0.000
790.039; 7305.475;  130.125;    0.000
790.229; 7475.475;  140.125;    0.000
790.420; 7272.475;  135.125;    0.000
790.611; 7277.475;  156.125;    0.000
790.801; 7252.475;   64.125;    0.000
790.992; 7273.475;  150.125;    0.000
791.183; 7146.475;  177.125;    0.000
791.373; 7295.475;   91.125;    0.000
791.564; 7337.475;   85.125;    0.000
791.755; 7209.475;  125.125;    0.000
791.945; 7209.475;   94.125;    0.000
792.136; 6968.475;   98.125;    0.000
792.326; 7262.475;  105.125;    0.000
792.517; 7255.475;  136.125;    0.000
792.707; 7221.475;  140.125;    0.000
792.898; 7283.475;  164.125;    0.000
793.088; 7441.475;  116.125;    0.000
793.279; 7304.475;  112.125;    0.000
793.469; 7458.475;  105.125;    0.000
793.660; 7543.475;  161.125;    0.000
793.850; 7848.475;  133.125;    0.000
794.040; 7943.475;  121.125;    0.000
794.231; 8307.475;  115.125;    0.000
794.421; 8734.475;  152.125;    0.000
794.611; 9838.475;  132.125;    0.000
794.802;11345.475;  144.125;    0.000
794.992;11838.475;  142.125;    0.000
795.182;11924.475;  179.125;    0.000
795.372;11274.475;  167.125;    0.000
795.563;10470.475;  149.125;    0.000
795.753; 9633.475;  117.125;    0.000
795.943; 9106.475;  146.125;    0.000
796.133; 8451.475;  119.125;    0.000
796.323; 8160.475;  141.125;    0.000
796.513; 7974.475;  134.125;    0.000
796.703; 7727.475;  116.125;    0.000
796.893; 7496.475;  120.125;    0.000
797.083; 7352.475;  131.125;    0.000
797.273; 7339.475;  118.125;    0.000
797.463; 7152.475;  130.125;    0.000
797.653; 6832.475;   87.125;    0.000
797.843; 6871.475;  123.125;    0.000
798.033; 6789.475;  115.125;    0.000
798.223; 6836.475;  142.125;    0.000
798.413; 6705.475;  148.125;    0.000
798.603; 6531.475;  147.125;    0.000
798.793; 6532.475;  107.125;    0.000
798.983; 6223.475;  121.125;    0.000
799.172; 6293.475;  120.125;    0.000
799.362; 6423.475;  145.125;    0.000
799.552; 6250.475;  101.125;    0.000
799.742; 6021.475;  149.125;    0.000
799.932; 6144.475;  104.125;    0.000
800.121; 6125.475;  175.125;    0.000
800.311; 6088.475;  132.125;    0.000
800.501; 5996.475;  118.125;    0.000
800.690; 5889.475;  162.125;    0.000
800.880; 6049.475;  141.125;    0.000
801.070; 6093.475;  151.125;    0.000
801.259; 5907.475;  167.125;    0.000
801.449; 5785.475;  108.125;    0.000
801.638; 5985.475;  176.125;    0.000
801.828; 5873.475;  118.125;    0.000
802.017; 5837.475;  179.125;    0.000
802.207; 5912.475;  127.125;    0.000
802.396; 5917.475;  167.125;    0.000
802.586; 5827.475;  129.125;    0.000
802.775; 5803.475;  142.125;    0.000
802.965; 5777.475;  147.125;    0.000
803.154; 5783.475;  179.125;    0.000
803.343; 5771.475;  117.125;    0.000
803.533; 5770.475;  120.125;    0.000
803.722; 5688.475;  122.125;    0.000
803.911; 5689.475;  155.125;    0.000
804.101; 5722.475;  147.125;    0.000
804.290; 5490.475;  160.125;    0.000
804.479; 5648.475;  139.125;    0.000
804.668; 5657.475;  180.125;    0.000
804.857; 5537.475;  131.125;    0.000
805.047; 5552.475;  119.125;    0.000
805.236; 5600.475;  139.125;    0.000
805.425; 5731.475;  163.125;    0.000
805.614; 5609.475;  103.125;    0.000
805.803; 5633.475;  133.125;    0.000
805.992; 5527.475;  147.125;    0.000
806.181; 5589.475;  109.125;    0.000
806.370; 5640.475;  133.125;    0.000
806.559; 5561.475;  119.125;    0.000
806.748; 5595.475;  144.125;    0.000
806.937; 5618.475;  147.125;    0.000
807.126; 5677.475;  134.125;    0.000
807.315; 5541.475;  132.125;    0.000
807.504; 5421.475;  141.125;    0.000
807.693; 5538.475;  145.125;    0.000
807.882; 5534.475;   91.125;    0.000
808.071; 5551.475;  116.125;    0.000
808.260; 5581.475;  105.125;    0.000
808.448; 5599.475;  184.125;    0.000
808.637; 5520.475;  146.125;    0.000
808.826; 5550.475;  153.125;    0.000
809.015; 5450.475;  113.125;    0.000
809.203; 5677.475;  166.125;    0.000
809.392; 5596.475;  117.125;    0.000
809.581; 5607.475;  186.125;    0.000
809.770; 5448.475;  122.125;    0.000
809.958; 5656.475;  140.125;    0.000
810.147; 5545.475;  130.125;    0.000
810.335; 5697.475;  112.125;    0.000
810.524; 5744.475;  106.125;    0.000
810.713; 5707.475;  154.125;    0.000
810.901; 5707.475;  131.125;    0.000
811.090; 5739.475;  164.125;    0.000
811.278; 5813.475;  159.125;    0.000
811.467; 5883.475;  194.125;    0.000
811.655; 6078.475;  164.125;    0.000
811.844; 5862.475;  149.125;    0.000
812.032; 5826.475;  169.125;    0.000
812.220; 5999.475;  163.125;    0.000
812.409; 5814.475;  134.125;    0.000
812.597; 5956.475;  165.125;    0.000
812.785; 6062.475;  180.125;    0.000
812.974; 5882.475;  166.125;    0.000
813.162; 5968.475;  171.125;    0.000
813.350; 5956.475;  142.125;    0.000
813.539; 6027.475;  126.125;    0.000
813.727; 6116.475;  153.125;    0.000
813.915; 5968.475;  138.125;    0.000
814.103; 6109.475;  191.125;    0.000
814.291; 6183.475;  142.125;    0.000
814.479; 6080.475;  156.125;    0.000
814.668; 6229.475;  152.125;    0.000
814.856; 6419.475;  150.125;    0.000
815.044; 6403.475;  165.125;    0.000
815.232; 6514.475;  172.125;    0.000
815.420; 6551.475;  147.125;    0.000
815.608; 6469.475;  143.125;    0.000
815.796; 6636.475;  126.125;    0.000
815.984; 6654.475;  152.125;    0.000
816.172; 6948.475;  129.125;    0.000
816.360; 7064.475;  177.125;    0.000
816.548; 7177.475;  141.125;    0.000
816.736; 7483.475;  142.125;    0.000
816.924; 7676.475;  161.125;    0.000
817.111; 7913.475;  138.125;    0.000
817.299; 8229.475;  112.125;    0.000
817.487; 8835.475;  180.125;    0.000
817.675; 9664.475;  138.125;    0.000
817.863;10673.475;  172.125;    0.000
818.050;13909.475;  142.125;    0.000
818.238;23431.475;  151.125;    0.000
818.426;32606.475;  129.125;    0.000
818.613;24265.475;  124.125;    0.000
818.801;20525.475;  209.125;    0.000
818.989;19761.475;  178.125;    0.000
819.176;20738.475;  155.125;    0.000
819.364;28918.475;  174.125;    0.000
819.552;40609.477;  131.125;    0.000
819.739;29967.475;  184.125;    0.000
819.927;21935.475;  132.125;    0.000
820.114;18732.475;  173.125;    0.000
820.302;16848.475;  140.125;    0.000
820.489;15653.475;  133.125;    0.000
820.677;14738.475;  167.125;    0.000
820.864;14178.475;  161.125;    0.000
821.052;14781.475;  134.125;    0.000
821.239;15045.475;  149.125;    0.000
821.426;15959.475;  160.125;    0.000
821.614;18822.475;  143.125;    0.000
821.801;20276.475;  118.125;    0.000
821.988;18085.475;  154.125;    0.000
822.176;17259.475;  112.125;    0.000
822.363;17626.475;  131.125;    0.000
822.550;16674.475;  131.125;    0.000
822.737;14973.475;  104.125;    0.000
822.924;13847.475;  160.125;    0.000
823.112;13170.475;  161.125;    0.000
823.299;12234.475;  169.125;    0.000
823.486;11770.475;  129.125;    0.000
823.673;11205.475;  135.125;    0.000
823.860;11024.475;  169.125;    0.000
824.047;10980.475;  124.125;    0.000
824.234;11980.475;  160.125;    0.000
824.421;12262.475;  114.125;    0.000
824.608;11051.475;  191.125;    0.000
824.795;10047.475;  160.125;    0.000
824.982; 9355.475;  139.125;    0.000
825.169; 8805.475;  121.125;    0.000
825.356; 8466.475;  148.125;    0.000
825.543; 8088.475;  167.125;    0.000
825.730; 7790.475;  103.125;    0.000
825.917; 7532.475;  113.125;    0.000
826.104; 7343.475;  188.125;    0.000
826.290; 7092.475;  193.125;    0.000
826.477; 6895.475;  175.125;    0.000
826.664; 6778.475;  151.125;    0.000
826.851; 6539.475;  122.125;    0.000
827.038; 6464.475;  121.125;    0.000
827.224; 6409.475;  124.125;    0.000
827.411; 6342.475;  155.125;    0.000
827.598; 6084.475;  127.125;    0.000
827.784; 5930.475;  140.125;    0.000
827.971; 5963.475;  114.125;    0.000
828.157; 5927.475;  135.125;    0.000
828.344; 5848.475;  173.125;    0.000
828.531; 5635.475;  113.125;    0.000
828.717; 5622.475;  137.125;    0.000
828.904; 5526.475;  158.125;    0.000
829.090; 5564.475;  199.125;    0.000
829.277; 5495.475;  156.125;    0.000
829.463; 5404.475;  154.125;    0.000
829.650; 5354.475;  174.125;    0.000
829.836; 5318.475;  136.125;    0.000
830.022; 5371.475;  143.125;    0.000
830.209; 5198.475;  157.125;    0.000
830.395; 5039.475;  156.125;    0.000
830.581; 5174.475;  148.125;    0.000
830.768; 5004.475;  169.125;    0.000
830.954; 4974.475;  169.125;    0.000
831.140; 5050.475;  124.125;    0.000
831.327; 4922.475;  157.125;    0.000
831.513; 5068.475;  163.125;    0.000
831.699; 4925.475;  176.125;    0.000
831.885; 4938.475;  154.125;    0.000
832.071; 4804.475;  159.125;    0.000
832.257; 4734.475;  142.125;    0.000
832.444; 4715.475;  159.125;    0.000
832.630; 4693.475;  129.125;    0.000
832.816; 4672.475;  132.125;    0.000
833.002; 4555.475;  125.125;    0.000
833.188; 4622.475;  144.125;    0.000
833.374; 4572.475;  131.125;    0.000
833.560; 4507.475;  154.125;    0.000
833.746; 4647.475;  171.125;    0.000
833.932; 4488.475;  162.125;    0.000
834.118; 4458.475;  131.125;    0.000
834.303; 4405.475;  113.125;    0.000
834.489; 4516.475;  170.125;    0.000
834.675; 4452.475;  177.125;    0.000
834.861; 4399.475;  154.125;    0.000
835.047; 4508.475;  171.125;    0.000
835.233; 4361.475;   98.125;    0.000
835.418; 4375.475;  138.125;    0.000
835.604; 4435.475;  140.125;    0.000
835.790; 4318.475;  130.125;    0.000
835.976; 4397.475;  129.125;    0.000
836.161; 4401.475;  142.125;    0.000
836.347; 4326.475;  128.125;    0.000
836.533; 4368.475;  143.125;    0.000
836.718; 4364.475;  164.125;    0.000
836.904; 4187.475;  172.125;    0.000
837.089; 4305.475;  152.125;    0.000
837.275; 4322.475;  143.125;    0.000
837.460; 4357.475;  125.125;    0.000
837.646; 4301.475;  137.125;    0.000
837.831; 4296.475;  153.125;    0.000
838.017; 4265.475;  171.125;    0.000
838.202; 4316.475;  111.125;    0.000
838.388; 4431.475;  140.125;    0.000
838.573; 4277.475;  158.125;    0.000
838.759; 4335.475;  188.125;    0.000
838.944; 4251.475;  125.125;    0.000
839.129; 4321.475;  123.125;    0.000
839.315; 4256.475;  181.125;    0.000
839.500; 4421.475;  150.125;    0.000
839.685; 4374.475;  109.125;    0.000
839.870; 4394.475;  202.125;    0.000
840.056; 4435.475;  101.125;    0.000
840.241; 4271.475;  184.125;    0.000
840.426; 4433.475;  192.125;    0.000
840.611; 4436.475;  180.125;    0.000
840.796; 4424.475;  156.125;    0.000
840.981; 4452.475;  142.125;    0.000
841.166; 4488.475;  161.125;    0.000
841.352; 4631.475;  185.125;    0.000
841.537; 4607.475;  139.125;    0.000
841.722; 4669.475;  143.125;    0.000
841.907; 4575.475;  140.125;    0.000
842.092; 4725.475;  176.125;    0.000
842.277; 4756.475;  136.125;    0.000
842.461; 4906.475;  155.125;    0.000
842.646; 4897.475;  163.125;    0.000
842.831; 4986.475;  153.125;    0.000
843.016; 5225.475;  187.125;    0.000
843.201; 5417.475;  179.125;    0.000
843.386; 5430.475;  167.125;    0.000
843.571; 5791.475;  129.125;    0.000
843.755; 6250.475;  136.125;    0.000
843.940; 6487.475;  121.125;    0.000
844.125; 7259.475;  157.125;    0.000
844.310; 8608.475;  175.125;    0.000
844.494;11234.475;  164.125;    0.000
844.679;15006.475;  167.125;    0.000
844.864;14854.475;  166.125;    0.000
845.048;12312.475;  132.125;    0.000
845.233;10477.475;  175.125;    0.000
845.418; 9334.475;  159.125;    0.000
845.602; 8326.475;  147.125;    0.000
845.787; 7492.475;  132.125;    0.000
845.971; 7045.475;  187.125;    0.000
846.156; 6467.475;  141.125;    0.000
846.340; 6232.475;  153.125;    0.000
846.525; 5780.475;  157.125;    0.000
846.709; 5593.475;  117.125;    0.000
846.893; 5451.475;  147.125;    0.000
847.078; 5370.475;  170.125;    0.000
847.262; 5093.475;  150.125;    0.000
847.447; 4945.475;  132.125;    0.000
847.631; 4703.475;  144.125;    0.000
847.815; 4674.475;  157.125;    0.000
848.000; 4560.475;  164.125;    0.000
848.184; 4541.475;  174.125;    0.000
848.368; 4391.475;  149.125;    0.000
848.552; 4432.475;  143.125;    0.000
848.736; 4392.475;  132.125;    0.000
848.921; 4235.475;  147.125;    0.000
849.105; 4211.475;  150.125;    0.000
849.289; 4134.475;  146.125;    0.000
849.473; 4189.475;  167.125;    0.000
849.657; 4163.475;  149.125;    0.000
849.841; 4100.475;  181.125;    0.000
850.025; 4090.475;  154.125;    0.000
850.209; 3920.475;  152.125;    0.000
850.393; 3953.475;  139.125;    0.000
850.577; 3956.475;  128.125;    0.000
850.761; 3903.475;  194.125;    0.000
850.945; 3866.475;  152.125;    0.000
851.129; 3775.475;  157.125;    0.000
851.313; 3801.475;  181.125;    0.000
851.497; 3823.475;  145.125;    0.000
851.680; 3820.475;  168.125;    0.000
851.864; 3874.475;  185.125;    0.000
852.048; 3788.475;  170.125;    0.000
852.232; 3739.475;  192.125;    0.000
852.416; 3952.475;  182.125;    0.000
852.599; 3809.475;  169.125;    0.000
852.783; 3732.475;  168.125;    0.000
852.967; 3741.475;  184.125;    0.000
853.150; 3738.475;  163.125;    0.000
853.334; 3839.475;  164.125;    0.000
853.518; 3791.475;  190.125;    0.000
853.701; 3637.475;  137.125;    0.000
853.885; 3735.475;  177.125;    0.000
854.068; 3834.475;  163.125;    0.000
854.252; 3710.475;  139.125;    0.000
854.435; 3636.475;  152.125;    0.000
854.619; 3603.475;  148.125;    0.000
854.802; 3710.475;  168.125;    0.000
854.986; 3682.475;  157.125;    0.000
855.169; 3722.475;  147.125;    0.000
855.353; 3691.475;  173.125;    0.000
855.536; 3684.475;  127.125;    0.000
855.719; 3766.475;  191.125;    0.000
855.903; 3746.475;  186.125;    0.000
856.086; 3802.475;  145.125;    0.000
856.269; 3786.475;  130.125;    0.000
856.452; 3807.475;  153.125;    0.000
856.636; 3904.475;  129.125;    0.000
856.819; 4166.475;  134.125;    0.000
857.002; 4260.475;  152.125;    0.000
857.185; 4186.475;  140.125;    0.000
857.368; 4086.475;  170.125;    0.000
857.552; 4071.475;  132.125;    0.000
857.735; 3950.475;  160.125;    0.000
857.918; 3921.475;  139.125;    0.000
858.101; 3940.475;  159.125;    0.000
858.284; 3934.475;  136.125;    0.000
858.467; 4034.475;  147.125;    0.000
858.650; 4128.475;  153.125;    0.000
858.833; 4113.475;  113.125;    0.000
859.016; 4279.475;  167.125;    0.000
859.199; 4324.475;  141.125;    0.000
859.382; 4664.475;  155.125;    0.000
859.564; 5055.475;  136.125;    0.000
859.747; 4909.475;  142.125;    0.000
859.930; 4800.475;  141.125;    0.000
860.113; 4643.475;  156.125;    0.000
860.296; 4533.475;  167.125;    0.000
860.478; 4488.475;  121.125;    0.000
860.661; 4431.475;  230.125;    0.000
860.844; 4365.475;  186.125;    0.000
861.027; 4282.475;  155.125;    0.000
861.209; 4303.475;  151.125;    0.000
861.392; 4361.475;  162.125;    0.000
861.575; 4342.475;  150.125;    0.000
861.757; 4437.475;  162.125;    0.000
861.940; 4482.475;  207.125;    0.000
862.122; 4426.475;  113.125;    0.000
862.305; 4513.475;  114.125;    0.000
862.487; 4690.475;  162.125;    0.000
862.670; 5013.475;  148.125;    0.000
862.852; 5810.475;  131.125;    0.000
863.035; 6872.475;  174.125;    0.000
863.217; 6865.475;  170.125;    0.000
863.400; 6380.475;  148.125;    0.000
863.582; 5901.475;  129.125;    0.000
863.764; 5652.475;  181.125;    0.000
863.947; 5461.475;  152.125;    0.000
864.129; 5325.475;  178.125;    0.000
864.311; 5225.475;  139.125;    0.000
864.493; 5077.475;  166.125;    0.000
864.676; 5065.475;  148.125;    0.000
864.858; 5025.475;  123.125;    0.000
865.040; 4927.475;  180.125;    0.000
865.222; 4937.475;  131.125;    0.000
865.404; 5113.475;  146.125;    0.000
865.587; 5321.475;  175.125;    0.000
865.769; 5451.475;  183.125;    0.000
865.951; 5438.475;  171.125;    0.000
866.133; 5429.475;  165.125;    0.000
866.315; 5417.475;  138.125;    0.000
866.497; 5545.475;  139.125;    0.000
866.679; 5606.475;  167.125;    0.000
866.861; 5886.475;  151.125;    0.000
867.043; 6027.475;  190.125;    0.000
867.225; 6517.475;  140.125;    0.000
867.407; 7007.475;  125.125;    0.000
867.589; 7884.475;  141.125;    0.000
867.770; 9456.475;  149.125;    0.000
867.952;12704.475;  138.125;    0.000
868.134;16277.475;  153.125;    0.000
868.316;16272.475;  148.125;    0.000
868.498;15725.475;  180.125;    0.000
868.679;13917.475;  152.125;    0.000
868.861;11821.475;  174.125;    0.000
869.043;10043.475;  152.125;    0.000
869.224; 8957.475;  177.125;    0.000
869.406; 8133.475;  171.125;    0.000
869.588; 7703.475;  177.125;    0.000
869.769; 7203.475;  174.125;    0.000
869.951; 7110.475;  167.125;    0.000
870.132; 7213.475;  144.125;    0.000
870.314; 7767.475;  143.125;    0.000
870.495; 8034.475;  162.125;    0.000
870.677; 7382.475;  136.125;    0.000
870.858; 7146.475;  155.125;    0.000
871.040; 7435.475;  179.125;    0.000
871.221; 8086.475;  177.125;    0.000
871.403; 8032.475;  180.125;    0.000
871.584; 7222.475;  157.125;    0.000
871.765; 7260.475;  183.125;    0.000
871.947; 7642.475;  169.125;    0.000
872.128; 7100.475;  162.125;    0.000
872.309; 6297.475;  159.125;    0.000
872.491; 5748.475;  148.125;    0.000
872.672; 5269.475;  163.125;    0.000
872.853; 5224.475;  152.125;    0.000
873.034; 5131.475;  166.125;    0.000
873.215; 4861.475;  155.125;    0.000
873.396; 4597.475;  147.125;    0.000
873.578; 4505.475;  147.125;    0.000
873.759; 4363.475;  153.125;    0.000
873.940; 4334.475;  194.125;    0.000
874.121; 4075.475;  179.125;    0.000
874.302; 4029.475;  155.125;    0.000
874.483; 4057.475;  131.125;    0.000
874.664; 3966.475;  106.125;    0.000
874.845; 4076.475;  122.125;    0.000
875.026; 3880.475;  127.125;    0.000
875.207; 3805.475;  151.125;    0.000
875.388; 3791.475;  149.125;    0.000
875.568; 3668.475;  164.125;    0.000
875.749; 3623.475;  176.125;    0.000
875.930; 3627.475;  207.125;    0.000
876.111; 3583.475;  177.125;    0.000
876.292; 3428.475;  178.125;    0.000
876.472; 3483.475;  163.125;    0.000
876.653; 3468.475;  159.125;    0.000
876.834; 3480.475;  177.125;    0.000
877.015; 3442.475;  212.125;    0.000
877.195; 3465.475;  166.125;    0.000
877.376; 3352.475;  157.125;    0.000
877.556; 3339.475;  175.125;    0.000
877.737; 3267.475;  220.125;    0.000
877.918; 3294.475;  163.125;    0.000
878.098; 3275.475;  166.125;    0.000
878.279; 3267.475;  136.125;    0.000
878.459; 3206.475;  167.125;    0.000
878.640; 3124.475;  167.125;    0.000
878.820; 3124.475;  155.125;    0.000
879.000; 3116.475;  158.125;    0.000
879.181; 3146.475;  155.125;    0.000
879.361; 3182.475;  181.125;    0.000
879.542; 3185.475;  181.125;    0.000
879.722; 3187.475;  117.125;    0.000
879.902; 3141.475;  180.125;    0.000
880.083; 3206.475;  139.125;    0.000
880.263; 3326.475;  168.125;    0.000
880.443; 3505.475;  206.125;    0.000
880.623; 4258.475;  132.125;    0.000
880.803; 5009.475;  149.125;    0.000
880.984; 4180.475;  189.125;    0.000
881.164; 3692.475;  171.125;    0.000
881.344; 3549.475;  150.125;    0.000
881.524; 3420.475;  185.125;    0.000
881.704; 3631.475;  152.125;    0.000
881.884; 3655.475;  188.125;    0.000
882.064; 3753.475;  155.125;    0.000
882.244; 3801.475;  182.125;    0.000
882.424; 3629.475;  154.125;    0.000
882.604; 3410.475;  175.125;    0.000
882.784; 3394.475;  137.125;    0.000
882.964; 3259.475;  135.125;    0.000
883.144; 3211.475;  142.125;    0.000
883.324; 3259.475;  192.125;    0.000
883.504; 3136.475;  193.125;    0.000
883.683; 3096.475;  208.125;    0.000
883.863; 2974.475;  127.125;    0.000
884.043; 3006.475;  140.125;    0.000
884.223; 2968.475;  167.125;    0.000
884.402; 3033.475;  156.125;    0.000
884.582; 2937.475;  185.125;    0.000
884.762; 2950.475;  187.125;    0.000
884.941; 2868.475;  201.125;    0.000
885.121; 2811.475;  157.125;    0.000
885.301; 2897.475;  173.125;    0.000
885.480; 2857.475;  158.125;    0.000
885.660; 2850.475;  153.125;    0.000
885.839; 2955.475;  144.125;    0.000
886.019; 2912.475;  184.125;    0.000
886.198; 2771.475;  132.125;    0.000
886.378; 2827.475;  124.125;    0.000
886.557; 2858.475;  146.125;    0.000
886.737; 2794.475;  157.125;    0.000
886.916; 2731.475;  203.125;    0.000
887.095; 2820.475;  151.125;    0.000
887.275; 2852.475;  143.125;    0.000
887.454; 2802.475;  140.125;    0.000
887.633; 2826.475;  196.125;    0.000
887.813; 2776.475;  161.125;    0.000
887.992; 2763.475;  183.125;    0.000
888.171; 2729.475;  153.125;    0.000
888.350; 2762.475;  185.125;    0.000
888.530; 2758.475;  163.125;    0.000
888.709; 2731.475;  174.125;    0.000
888.888; 2820.475;  179.125;    0.000
889.067; 2663.475;  178.125;    0.000
889.246; 2802.475;  184.125;    0.000
889.425; 2708.475;  169.125;    0.000
889.604; 2700.475;  210.125;    0.000
889.783; 2683.475;  183.125;    0.000
889.962; 2644.475;  116.125;    0.000
890.141; 2732.475;  179.125;    0.000
890.320; 2721.475;  182.125;    0.000
890.499; 2751.475;  188.125;    0.000
890.678; 2772.475;  167.125;    0.000
890.857; 2653.475;  141.125;    0.000
891.036; 2643.475;  179.125;    0.000
891.214; 2679.475;  156.125;    0.000
891.393; 2732.475;  209.125;    0.000
891.572; 2719.475;  181.125;    0.000
891.751; 2729.475;  172.125;    0.000
891.930; 2756.475;  169.125;    0.000
892.108; 2614.475;  131.125;    0.000
892.287; 2667.475;  162.125;    0.000
892.466; 2652.475;  178.125;    0.000
892.644; 2691.475;  161.125;    0.000
892.823; 2715.475;  180.125;    0.000
893.001; 2644.475;  179.125;    0.000
893.180; 2612.475;  152.125;    0.000
893.359; 2673.475;  184.125;    0.000
893.537; 2622.475;  178.125;    0.000
893.716; 2632.475;  169.125;    0.000
893.894; 2681.475;  159.125;    0.000
894.073; 2645.475;  179.125;    0.000
894.251; 2695.475;  167.125;    0.000
894.429; 2690.475;  142.125;    0.000
894.608; 2737.475;  166.125;    0.000
894.786; 2673.475;  153.125;    0.000
894.964; 2701.475;  181.125;    0.000
895.143; 2634.475;  161.125;    0.000
895.321; 2676.475;  198.125;    0.000
895.499; 2621.475;  184.125;    0.000
895.677; 2603.475;  178.125;    0.000
895.856; 2709.475;  226.125;    0.000
896.034; 2672.475;  180.125;    0.000
896.212; 2787.475;  200.125;    0.000
896.390; 2693.475;  161.125;    0.000
896.568; 2676.475;  204.125;    0.000
896.746; 2725.475;  136.125;    0.000
896.924; 2693.475;  171.125;    0.000
897.102; 2622.475;  203.125;    0.000
897.280; 2647.475;  142.125;    0.000
897.458; 2655.475;  159.125;    0.000
897.636; 2697.475;  163.125;    0.000
897.814; 2769.475;  137.125;    0.000
897.992; 2762.475;  199.125;    0.000
898.170; 2666.475;  176.125;    0.000
898.348; 2762.475;  195.125;    0.000
898.526; 2649.475;  199.125;    0.000
898.704; 2767.475;  260.125;    0.000
898.882; 2726.475;  185.125;    0.000
899.059; 2786.475;  169.125;    0.000
899.237; 2708.475;  197.125;    0.000
899.415; 2841.475;  207.125;    0.000
899.593; 2728.475;  169.125;    0.000
899.770; 2760.475;  182.125;    0.000
899.948; 2852.475;  198.125;    0.000
900.125; 2829.475;  200.125;    0.000
900.303; 2821.475;  165.125;    0.000
900.481; 2805.475;  182.125;    0.000
900.658; 2935.475;  206.125;    0.000
900.836; 2933.475;  188.125;    0.000
901.013; 2919.475;  169.125;    0.000
901.191; 2891.475;  172.125;    0.000
901.368; 2887.475;  170.125;    0.000
901.546; 2890.475;  234.125;    0.000
901.723; 3099.475;  173.125;    0.000
901.901; 3116.475;  190.125;    0.000
902.078; 3182.475;  145.125;    0.000
902.255; 3162.475;  204.125;    0.000
902.433; 3162.475;  198.125;    0.000
902.610; 3164.475;  190.125;    0.000
902.787; 3169.475;  204.125;    0.000
902.964; 3246.475;  208.125;    0.000
903.142; 3354.475;  187.125;    0.000
903.319; 3358.475;  216.125;    0.000
903.496; 3455.475;  186.125;    0.000
903.673; 3489.475;  201.125;    0.000
903.850; 3552.475;  195.125;    0.000
904.027; 3648.475;  211.125;    0.000
904.204; 3772.475;  197.125;    0.000
904.381; 4068.475;  198.125;    0.000
904.558; 4631.475;  188.125;    0.000
904.735; 5213.475;  207.125;    0.000
904.912; 5139.475;  217.125;    0.000
905.089; 5385.475;  188.125;    0.000
905.266; 4895.475;  160.125;    0.000
905.443; 4536.475;  221.125;    0.000
905.620; 4301.475;  163.125;    0.000
905.797; 4034.475;  186.125;    0.000
905.974; 4017.475;  205.125;    0.000
906.151; 3888.475;  159.125;    0.000
906.327; 3875.475;  206.125;    0.000
906.504; 3799.475;  201.125;    0.000
906.681; 3750.475;  202.125;    0.000
906.858; 3561.475;  188.125;    0.000
907.034; 3583.475;  207.125;    0.000
907.211; 3474.475;  182.125;    0.000
907.388; 3444.475;  184.125;    0.000
907.564; 3346.475;  148.125;    0.000
907.741; 3271.475;  181.125;    0.000
907.917; 3318.475;  191.125;    0.000
908.094; 3288.475;  210.125;    0.000
908.271; 3145.475;  171.125;    0.000
908.447; 3214.475;  241.125;    0.000
908.623; 3048.475;  188.125;    0.000
908.800; 3126.475;  205.125;    0.000
908.976; 3047.475;  210.125;    0.000
909.153; 3047.475;  193.125;    0.000
909.329; 3022.475;  206.125;    0.000
909.505; 3097.475;  181.125;    0.000
909.682; 3060.475;  192.125;    0.000
909.858; 2920.475;  134.125;    0.000
910.034; 2976.475;  214.125;    0.000
910.211; 2916.475;  182.125;    0.000
910.387; 2891.475;  194.125;    0.000
910.563; 2963.475;  199.125;    0.000
910.739; 2923.475;  188.125;    0.000
910.915; 2965.475;  192.125;    0.000
911.091; 2925.475;  198.125;    0.000
911.268; 2824.475;  178.125;    0.000
911.444; 2944.475;  201.125;    0.000
911.620; 2884.475;  181.125;    0.000
911.796; 2787.475;  185.125;    0.000
911.972; 2867.475;  176.125;    0.000
912.148; 2907.475;  196.125;    0.000
912.324; 2841.475;  192.125;    0.000
912.500; 2841.475;  204.125;    0.000
912.676; 2934.475;  164.125;    0.000
912.851; 2848.475;  193.125;    0.000
913.027; 2834.475;  175.125;    0.000
913.203; 2889.475;  193.125;    0.000
913.379; 2815.475;  213.125;    0.000
913.555; 2862.475;  211.125;    0.000
913.730; 2831.475;  194.125;    0.000
913.906; 2840.475;  153.125;    0.000
914.082; 2869.475;  212.125;    0.000
914.258; 2938.475;  194.125;    0.000
914.433; 2842.475;  191.125;    0.000
914.609; 2874.475;  208.125;    0.000
914.784; 2855.475;  176.125;    0.000
914.960; 2951.475;  227.125;    0.000
915.136; 2818.475;  152.125;    0.000
915.311; 2892.475;  171.125;    0.000
915.487; 2748.475;  173.125;    0.000
915.662; 2946.475;  189.125;    0.000
915.838; 2930.475;  179.125;    0.000
916.013; 2850.475;  191.125;    0.000
916.189; 2847.475;  207.125;    0.000
916.364; 2903.475;  194.125;    0.000
916.539; 2896.475;  174.125;    0.000
916.715; 2864.475;  207.125;    0.000
916.890; 2906.475;  193.125;    0.000
917.065; 2874.475;  199.125;    0.000
917.240; 2838.475;  214.125;    0.000
917.416; 2937.475;  194.125;    0.000
917.591; 2911.475;  213.125;    0.000
917.766; 2938.475;  194.125;    0.000
917.941; 2934.475;  201.125;    0.000
918.116; 2932.475;  198.125;    0.000
918.292; 2891.475;  176.125;    0.000
918.467; 2994.475;  190.125;    0.000
918.642; 2880.475;  200.125;    0.000
918.817; 2948.475;  186.125;    0.000
918.992; 2937.475;  174.125;    0.000
919.167; 2994.475;  197.125;    0.000
919.342; 3006.475;  188.125;    0.000
919.517; 2989.475;  179.125;    0.000
919.692; 3103.475;  182.125;    0.000
919.867; 3131.475;  216.125;    0.000
920.041; 3036.475;  208.125;    0.000
920.216; 3136.475;  223.125;    0.000
920.391; 3243.475;  203.125;    0.000
920.566; 3218.475;  202.125;    0.000
920.741; 3344.475;  197.125;    0.000
920.915; 3463.475;  223.125;    0.000
921.090; 3655.475;  183.125;    0.000
921.265; 4210.475;  169.125;    0.000
921.439; 4772.475;  212.125;    0.000
921.614; 4325.475;  190.125;    0.000
921.789; 4002.475;  177.125;    0.000
921.963; 3818.475;  233.125;    0.000
922.138; 3588.475;  156.125;    0.000
922.312; 3677.475;  193.125;    0.000
922.487; 3685.475;  208.125;    0.000
922.661; 3778.475;  212.125;    0.000
922.836; 4050.475;  210.125;    0.000
923.010; 4207.475;  183.125;    0.000
923.185; 3819.475;  228.125;    0.000
923.359; 3761.475;  227.125;    0.000
923.534; 3700.475;  189.125;    0.000
923.708; 3812.475;  210.125;    0.000
923.882; 3964.475;  217.125;    0.000
924.057; 3834.475;  195.125;    0.000
924.231; 3733.475;  201.125;    0.000
924.405; 3687.475;  188.125;    0.000
924.579; 3645.475;  188.125;    0.000
924.753; 3469.475;  174.125;    0.000
924.928; 3472.475;  179.125;    0.000
925.102; 3455.475;  186.125;    0.000
925.276; 3494.475;  201.125;    0.000
925.450; 3431.475;  211.125;    0.000
925.624; 3629.475;  238.125;    0.000
925.798; 3639.475;  191.125;    0.000
925.972; 3724.475;  192.125;    0.000
926.146; 4026.475;  198.125;    0.000
926.320; 4202.475;  151.125;    0.000
926.494; 4523.475;  202.125;    0.000
926.668; 4766.475;  197.125;    0.000
926.842; 5015.475;  177.125;    0.000
927.016; 4940.475;  202.125;    0.000
927.190; 4786.475;  207.125;    0.000
927.363; 4650.475;  180.125;    0.000
927.537; 4598.475;  212.125;    0.000
927.711; 4408.475;  148.125;    0.000
927.885; 4383.475;  196.125;    0.000
928.058; 4276.475;  173.125;    0.000
928.232; 4294.475;  219.125;    0.000
928.406; 4098.475;  141.125;    0.000
928.579; 4021.475;  157.125;    0.000
928.753; 4078.475;  205.125;    0.000
928.927; 3907.475;  196.125;    0.000
929.100; 3794.475;  237.125;    0.000
929.274; 3822.475;  166.125;    0.000
929.447; 3663.475;  150.125;    0.000
929.621; 3652.475;  188.125;    0.000
929.794; 3566.475;  169.125;    0.000
929.968; 3566.475;  194.125;    0.000
930.141; 3432.475;  226.125;    0.000
930.315; 3422.475;  196.125;    0.000
930.488; 3445.475;  233.125;    0.000
930.661; 3376.475;  188.125;    0.000
930.835; 3362.475;  170.125;    0.000
931.008; 3289.475;  176.125;    0.000
931.181; 3208.475;  175.125;    0.000
931.354; 3187.475;  212.125;    0.000
931.528; 3259.475;  177.125;    0.000
931.701; 3204.475;  218.125;    0.000
931.874; 3059.475;  175.125;    0.000
932.047; 3039.475;  157.125;    0.000
932.220; 3116.475;  187.125;    0.000
932.393; 3004.475;  166.125;    0.000
932.566; 3001.475;  168.125;    0.000
932.739; 3020.475;  203.125;    0.000
932.912; 2970.475;  202.125;    0.000
933.085; 2945.475;  209.125;    0.000
933.258; 2885.475;  196.125;    0.000
933.431; 2923.475;  207.125;    0.000
933.604; 2997.475;  201.125;    0.000
933.777; 2912.475;  202.125;    0.000
933.950; 2849.475;  184.125;    0.000
934.123; 2781.475;  167.125;    0.000
934.296; 2894.475;  209.125;    0.000
934.468; 2757.475;  216.125;    0.000
934.641; 2865.475;  156.125;    0.000
934.814; 2829.475;  215.125;    0.000
934.987; 2901.475;  201.125;    0.000
935.159; 2888.475;  176.125;    0.000
935.332; 2855.475;  203.125;    0.000
935.505; 2769.475;  163.125;    0.000
935.677; 2785.475;  169.125;    0.000
935.850; 2809.475;  178.125;    0.000
936.022; 2841.475;  187.125;    0.000
936.195; 2814.475;  207.125;    0.000
936.367; 2827.475;  191.125;    0.000
936.540; 2913.475;  214.125;    0.000
936.712; 2871.475;  202.125;    0.000
936.885; 2837.475;  195.125;    0.000
937.057; 2792.475;  173.125;    0.000
937.229; 2976.475;  179.125;    0.000
937.402; 3033.475;  174.125;    0.000
937.574; 2928.475;  140.125;    0.000
937.746; 2959.475;  153.125;    0.000
937.919; 3141.475;  196.125;    0.000
938.091; 3239.475;  173.125;    0.000
938.263; 3461.475;  206.125;    0.000
938.435; 3701.475;  213.125;    0.000
938.608; 4178.475;  204.125;    0.000
938.780; 4633.475;  199.125;    0.000
938.952; 4872.475;  190.125;    0.000
939.124; 5011.475;  182.125;    0.000
939.296; 5689.475;  188.125;    0.000
939.468; 5840.475;  119.125;    0.000
939.640; 5183.475;  171.125;    0.000
939.812; 4829.475;  222.125;    0.000
939.984; 4370.475;  172.125;    0.000
940.156; 4059.475;  171.125;    0.000
940.328; 3805.475;  215.125;    0.000
940.500; 3644.475;  179.125;    0.000
940.672; 3511.475;  178.125;    0.000
940.843; 3460.475;  193.125;    0.000
941.015; 3334.475;  207.125;    0.000
941.187; 3273.475;  179.125;    0.000
941.359; 3217.475;  191.125;    0.000
941.531; 3110.475;  160.125;    0.000
941.702; 3101.475;  208.125;    0.000
941.874; 3066.475;  143.125;    0.000
942.046; 2963.475;  189.125;    0.000
942.217; 2949.475;  167.125;    0.000
942.389; 2940.475;  199.125;    0.000
942.560; 2805.475;  179.125;    0.000
942.732; 2836.475;  209.125;    0.000
942.904; 2804.475;  180.125;    0.000
943.075; 2781.475;  197.125;    0.000
943.247; 2697.475;  207.125;    0.000
943.418; 2697.475;  183.125;    0.000
943.589; 2705.475;  176.125;    0.000
943.761; 2735.475;  165.125;    0.000
943.932; 2633.475;  170.125;    0.000
944.104; 2649.475;  147.125;    0.000
944.275; 2551.475;  149.125;    0.000
944.446; 2541.475;  191.125;    0.000
944.617; 2524.475;  128.125;    0.000
944.789; 2547.475;  166.125;    0.000
944.960; 2575.475;  195.125;    0.000
945.131; 2476.475;  164.125;    0.000
945.302; 2449.475;  229.125;    0.000
945.473; 2473.475;  153.125;    0.000
945.645; 2550.475;  166.125;    0.000
945.816; 2552.475;  187.125;    0.000
945.987; 2653.475;  193.125;    0.000
946.158; 2623.475;  166.125;    0.000
946.329; 2671.475;  196.125;    0.000
946.500; 2488.475;  152.125;    0.000
946.671; 2517.475;  161.125;    0.000
946.842; 2517.475;  176.125;    0.000
947.013; 2456.475;  188.125;    0.000
947.183; 2500.475;  213.125;    0.000
947.354; 2401.475;  163.125;    0.000
947.525; 2455.475;  204.125;    0.000
947.696; 2457.475;  159.125;    0.000
947.867; 2425.475;  197.125;    0.000
948.037; 2381.475;  174.125;    0.000
948.208; 2349.475;  163.125;    0.000
948.379; 2432.475;  189.125;    0.000
948.550; 2345.475;  173.125;    0.000
948.720; 2371.475;  186.125;    0.000
948.891; 2397.475;  166.125;    0.000
949.061; 2407.475;  197.125;    0.000
949.232; 2339.475;  168.125;    0.000
949.403; 2363.475;  188.125;    0.000
949.573; 2324.475;  164.125;    0.000
949.744; 2265.475;  194.125;    0.000
949.914; 2352.475;  154.125;    0.000
950.085; 2410.475;  197.125;    0.000
950.255; 2340.475;  187.125;    0.000
950.425; 2359.475;  193.125;    0.000
950.596; 2367.475;  182.125;    0.000
950.766; 2309.475;  202.125;    0.000
950.936; 2272.475;  230.125;    0.000
951.107; 2221.475;  133.125;    0.000
951.277; 2278.475;  234.125;    0.000
951.447; 2268.475;  200.125;    0.000
951.617; 2265.475;  212.125;    0.000
951.788; 2263.475;  176.125;    0.000
951.958; 2269.475;  218.125;    0.000
952.128; 2236.475;  198.125;    0.000
952.298; 2297.475;  185.125;    0.000
952.468; 2275.475;  231.125;    0.000
952.638; 2236.475;  213.125;    0.000
952.808; 2163.475;  218.125;    0.000
952.978; 2161.475;  252.125;    0.000
953.148; 2299.475;  200.125;    0.000
953.318; 2218.475;  243.125;    0.000
953.488; 2179.475;  140.125;    0.000
953.658; 2238.475;  208.125;    0.000
953.828; 2183.475;  179.125;    0.000
953.998; 2152.475;  211.125;    0.000
954.167; 2138.475;  197.125;    0.000
954.337; 2100.475;  217.125;    0.000
954.507; 2108.475;  219.125;    0.000
954.677; 2154.475;  201.125;    0.000
954.846; 2143.475;  241.125;    0.000
955.016; 2118.475;  222.125;    0.000
955.186; 2185.475;  200.125;    0.000
955.355; 2165.475;  247.125;    0.000
955.525; 2112.475;  212.125;    0.000
955.695; 2096.475;  200.125;    0.000
955.864; 2112.475;  196.125;    0.000
956.034; 2127.475;  195.125;    0.000
956.203; 2047.475;  243.125;    0.000
956.373; 2001.475;  197.125;    0.000
956.542; 2031.475;  237.125;    0.000
956.711; 2019.475;  249.125;    0.000
956.881; 2094.475;  235.125;    0.000
957.050; 2160.475;  259.125;    0.000
957.220; 2087.475;  234.125;    0.000
957.389; 2072.475;  250.125;    0.000
957.558; 2052.475;  214.125;    0.000
957.727; 2126.475;  225.125;    0.000
957.897; 2029.475;  211.125;    0.000
958.066; 2038.475;  200.125;    0.000
958.235; 2033.475;  202.125;    0.000
958.404; 2037.475;  242.125;    0.000
958.573; 1986.475;  222.125;    0.000
958.743; 1991.475;  191.125;    0.000
958.912; 2006.475;  183.125;    0.000
959.081; 1927.475;  212.125;    0.000
959.250; 1955.475;  192.125;    0.000
959.419; 2092.475;  238.125;    0.000
959.588; 2008.475;  205.125;    0.000
959.757; 1978.475;  213.125;    0.000
959.926; 1974.475;  217.125;    0.000
960.094; 1956.475;  215.125;    0.000
960.263; 1953.475;  220.125;    0.000
960.432; 1941.475;  164.125;    0.000
960.601; 1890.475;  228.125;    0.000
960.770; 1878.475;  176.125;    0.000
960.939; 1977.475;  201.125;    0.000
961.107; 1935.475;  183.125;    0.000
961.276; 1909.475;  199.125;    0.000
961.445; 1872.475;  205.125;    0.000
961.613; 1864.475;  183.125;    0.000
961.782; 1927.475;  216.125;    0.000
961.951; 1906.475;  169.125;    0.000
962.119; 1949.475;  211.125;    0.000
962.288; 1873.475;  204.125;    0.000
962.456; 1867.475;  187.125;    0.000
962.625; 1942.475;  223.125;    0.000
962.793; 1904.475;  200.125;    0.000
962.962; 1981.475;  185.125;    0.000
963.130; 1875.475;  195.125;    0.000
963.298; 1962.475;  187.125;    0.000
963.467; 1908.475;  247.125;    0.000
963.635; 1867.475;  165.125;    0.000
963.803; 1957.475;  192.125;    0.000
963.972; 1962.475;  191.125;    0.000
964.140; 1906.475;  163.125;    0.000
964.308; 1927.475;  161.125;    0.000
964.477; 1906.475;  182.125;    0.000
964.645; 1945.475;  195.125;    0.000
964.813; 1912.475;  165.125;    0.000
964.981; 1970.475;  193.125;    0.000
965.149; 1936.475;  174.125;    0.000
965.317; 1942.475;  194.125;    0.000
965.485; 1939.475;  209.125;    0.000
965.653; 1823.475;  210.125;    0.000
965.821; 1928.475;  194.125;    0.000
965.989; 1919.475;  182.125;    0.000
966.157; 1912.475;  180.125;    0.000
966.325; 1846.475;  198.125;    0.000
966.493; 1916.475;  182.125;    0.000
966.661; 1879.475;  200.125;    0.000
966.829; 1744.475;  190.125;    0.000
966.996; 1899.475;  221.125;    0.000
967.164; 1868.475;  176.125;    0.000
967.332; 1901.475;  228.125;    0.000
967.500; 1898.475;  177.125;    0.000
967.667; 1931.475;  202.125;    0.000
967.835; 1904.475;  220.125;    0.000
968.003; 1967.475;  183.125;    0.000
968.170; 1937.475;  163.125;    0.000
968.338; 1954.475;  162.125;    0.000
968.505; 1850.475;  198.125;    0.000
968.673; 1973.475;  213.125;    0.000
968.841; 1812.475;  131.125;    0.000
969.008; 1923.475;  225.125;    0.000
969.175; 1852.475;  202.125;    0.000
969.343; 1870.475;  222.125;    0.000
969.510; 1879.475;  230.125;    0.000
969.678; 1873.475;  161.125;    0.000
969.845; 1910.475;  208.125;    0.000
970.012; 1859.475;  186.125;    0.000
970.180; 1894.475;  226.125;    0.000
970.347; 1810.475;  222.125;    0.000
970.514; 1767.475;  206.125;    0.000
970.681; 1774.475;  173.125;    0.000
970.849; 1874.475;  190.125;    0.000
971.016; 1864.475;  220.125;    0.000
971.183; 1804.475;  202.125;    0.000
971.350; 1842.475;  196.125;    0.000
971.517; 1840.475;  218.125;    0.000
971.684; 1888.475;  228.125;    0.000
971.851; 1851.475;  235.125;    0.000
972.018; 1883.475;  200.125;    0.000
972.185; 1844.475;  183.125;    0.000
972.352; 1869.475;  216.125;    0.000
972.519; 1867.475;  227.125;    0.000
972.686; 1804.475;  209.125;    0.000
972.853; 1804.475;  157.125;    0.000
973.020; 1803.475;  179.125;    0.000
973.186; 1729.475;  173.125;    0.000
973.353; 1872.475;  189.125;    0.000
973.520; 1913.475;  228.125;    0.000
973.687; 1849.475;  190.125;    0.000
973.853; 1814.475;  197.125;    0.000
974.020; 1901.475;  208.125;    0.000
974.187; 1825.475;  158.125;    0.000
974.353; 1841.475;  201.125;    0.000
974.520; 1753.475;  158.125;    0.000
974.687; 1866.475;  192.125;    0.000
974.853; 1823.475;  177.125;    0.000
975.020; 1765.475;  212.125;    0.000
975.186; 1797.475;  200.125;    0.000
975.353; 1857.475;  208.125;    0.000
975.519; 1804.475;  169.125;    0.000
975.685; 1822.475;  176.125;    0.000
975.852; 1801.475;  201.125;    0.000
976.018; 1803.475;  209.125;    0.000
976.184; 1825.475;  197.125;    0.000
976.351; 1789.475;  196.125;    0.000
976.517; 1896.475;  243.125;    0.000
976.683; 1893.475;  210.125;    0.000
976.849; 1832.475;  226.125;    0.000
977.016; 1757.475;  218.125;    0.000
977.182; 1755.475;  213.125;    0.000
977.348; 1753.475;  205.125;    0.000
977.514; 1763.475;  210.125;    0.000
977.680; 1793.475;  226.125;    0.000
977.846; 1749.475;  206.125;    0.000
978.012; 1842.475;  222.125;    0.000
978.178; 1745.475;  216.125;    0.000
978.344; 1722.475;  172.125;    0.000
978.510; 1763.475;  210.125;    0.000
978.676; 1777.475;  184.125;    0.000
978.842; 1786.475;  190.125;    0.000
979.008; 1783.475;  203.125;    0.000
979.174; 1748.475;  211.125;    0.000
979.340; 1782.475;  190.125;    0.000
979.505; 1757.475;  235.125;    0.000
979.671; 1762.475;  182.125;    0.000
979.837; 1818.475;  235.125;    0.000
980.003; 1729.475;  183.125;    0.000
980.168; 1838.475;  220.125;    0.000
980.334; 1809.475;  161.125;    0.000
980.499; 1784.475;  212.125;    0.000
980.665; 1828.475;  219.125;    0.000
980.831; 1767.475;  201.125;    0.000
980.996; 1784.475;  189.125;    0.000
981.162; 1819.475;  222.125;    0.000
981.327; 1751.475;  173.125;    0.000
981.493; 1781.475;  197.125;    0.000
981.658; 1768.475;  178.125;    0.000
981.823; 1829.475;  196.125;    0.000
981.989; 1766.475;  248.125;    0.000
982.154; 1844.475;  222.125;    0.000
982.319; 1809.475;  226.125;    0.000
982.485; 1893.475;  188.125;    0.000
982.650; 1801.475;  203.125;    0.000
982.815; 1776.475;  237.125;    0.000
982.980; 1765.475;  210.125;    0.000
983.146; 1751.475;  202.125;    0.000
983.311; 1791.475;  195.125;    0.000
983.476; 1789.475;  207.125;    0.000
983.641; 1741.475;  198.125;    0.000
983.806; 1681.475;  136.125;    0.000
983.971; 1866.475;  248.125;    0.000
984.136; 1744.475;  213.125;    0.000
984.301; 1719.475;  181.125;    0.000
984.466; 1843.475;  210.125;    0.000
984.631; 1817.475;  219.125;    0.000
984.796; 1810.475;  207.125;    0.000
984.961; 1789.475;  214.125;    0.000
985.126; 1836.475;  218.125;    0.000
985.291; 1766.475;  214.125;    0.000
985.455; 1739.475;  187.125;    0.000
985.620; 1742.475;  191.125;    0.000
985.785; 1681.475;  190.125;    0.000
985.950; 1709.475;  184.125;    0.000
986.114; 1726.475;  242.125;    0.000
986.279; 1792.475;  251.125;    0.000
986.444; 1736.475;  177.125;    0.000
986.608; 1849.475;  216.125;    0.000
986.773; 1851.475;  211.125;    0.000
986.937; 1898.475;  244.125;    0.000
987.102; 1805.475;  187.125;    0.000
987.266; 1823.475;  178.125;    0.000
987.431; 1855.475;  205.125;    0.000
987.595; 1858.475;  221.125;    0.000
987.760; 1744.475;  205.125;    0.000
987.924; 1779.475;  195.125;    0.000
988.088; 1812.475;  184.125;    0.000
988.253; 1796.475;  188.125;    0.000
988.417; 1732.475;  196.125;    0.000
988.581; 1795.475;  218.125;    0.000
988.746; 1784.475;  203.125;    0.000
988.910; 1777.475;  195.125;    0.000
989.074; 1811.475;  187.125;    0.000
989.238; 1791.475;  243.125;    0.000
989.402; 1766.475;  242.125;    0.000
989.566; 1783.475;  205.125;    0.000
989.731; 1713.475;  195.125;    0.000
989.895; 1676.475;  211.125;    0.000
990.059; 1788.475;  175.125;    0.000
990.223; 1766.475;  176.125;    0.000
990.387; 1762.475;  234.125;    0.000
990.551; 1795.475;  231.125;    0.000
990.714; 1761.475;  209.125;    0.000
990.878; 1645.475;  187.125;    0.000
991.042; 1764.475;  183.125;    0.000
991.206; 1762.475;  216.125;    0.000
991.370; 1750.475;  257.125;    0.000
991.534; 1693.475;  188.125;    0.000
991.697; 1735.475;  203.125;    0.000
991.861; 1713.475;  219.125;    0.000
992.025; 1750.475;  221.125;    0.000
992.188; 1750.475;  188.125;    0.000
992.352; 1705.475;  205.125;    0.000
992.516; 1708.475;  189.125;    0.000
992.679; 1681.475;  207.125;    0.000
992.843; 1674.475;  210.125;    0.000
993.006; 1686.475;  191.125;    0.000
993.170; 1737.475;  228.125;    0.000
993.333; 1695.475;  142.125;    0.000
993.497; 1727.475;  175.125;    0.000
993.660; 1750.475;  220.125;    0.000
993.824; 1802.475;  193.125;    0.000
993.987; 1711.475;  219.125;    0.000
994.150; 1654.475;  166.125;    0.000
994.314; 1750.475;  207.125;    0.000
994.477; 1686.475;  227.125;    0.000
994.640; 1662.475;  210.125;    0.000
994.803; 1722.475;  219.125;    0.000
994.967; 1642.475;  192.125;    0.000
995.130; 1692.475;  197.125;    0.000
995.293; 1708.475;  189.125;    0.000
995.456; 1682.475;  180.125;    0.000
995.619; 1746.475;  239.125;    0.000
995.782; 1684.475;  209.125;    0.000
995.945; 1721.475;  216.125;    0.000
996.108; 1779.475;  198.125;    0.000
996.271; 1718.475;  205.125;    0.000
996.434; 1710.475;  205.125;    0.000
996.597; 1687.475;  208.125;    0.000
996.760; 1653.475;  205.125;    0.000
996.923; 1576.475;  174.125;    0.000
997.086; 1708.475;  198.125;    0.000
997.248; 1718.475;  214.125;    0.000
997.411; 1644.475;  237.125;    0.000
997.574; 1629.475;  182.125;    0.000
997.737; 1633.475;  188.125;    0.000
997.899; 1573.475;  216.125;    0.000
998.062; 1576.475;  210.125;    0.000
998.225; 1581.475;  202.125;    0.000
998.387; 1637.475;  202.125;    0.000
998.550; 1613.475;  193.125;    0.000
998.712; 1587.475;  225.125;    0.000
998.875; 1679.475;  228.125;    0.000
999.037; 1677.475;  186.125;    0.000
999.200; 1695.475;  212.125;    0.000
999.362; 1613.475;  234.125;    0.000
999.525; 1738.475;  170.125;    0.000
999.687; 1644.475;  191.125;    0.000
999.849; 1635.475;  218.125;    0.000
1000.012; 1662.475;  187.125;    0.000
1000.174; 1665.475;  216.125;    0.000
1000.336; 1690.475;  194.125;    0.000
1000.499; 1711.475;  209.125;    0.000
1000.661; 1726.475;  208.125;    0.000
1000.823; 1594.475;  197.125;    0.000
1000.985; 1753.475;  201.125;    0.000
1001.147; 1820.475;  234.125;    0.000
1001.309; 1706.475;  180.125;    0.000
1001.471; 1660.475;  223.125;    0.000
1001.633; 1692.475;  198.125;    0.000
1001.796; 1717.475;  200.125;    0.000
1001.958; 1737.475;  204.125;    0.000
1002.119; 1824.475;  193.125;    0.000
1002.281; 1819.475;  205.125;    0.000
1002.443; 1851.475;  236.125;    0.000
1002.605; 1949.475;  197.125;    0.000
1002.767; 1965.475;  223.125;    0.000
1002.929; 1959.475;  220.125;    0.000
1003.091; 2070.475;  214.125;    0.000
1003.252; 2158.475;  233.125;    0.000
1003.414; 2215.475;  230.125;    0.000
1003.576; 2345.475;  203.125;    0.000
1003.738; 2408.475;  201.125;    0.000
1003.899; 2484.475;  222.125;    0.000
1004.061; 2624.475;  208.125;    0.000
1004.222; 2654.475;  194.125;    0.000
1004.384; 2761.475;  205.125;    0.000
1004.546; 2819.475;  162.125;    0.000
1004.707; 2931.475;  232.125;    0.000
1004.869; 2909.475;  223.125;    0.000
1005.030; 2844.475;  204.125;    0.000
1005.191; 2761.475;  214.125;    0.000
1005.353; 2702.475;  226.125;    0.000
1005.514; 2696.475;  201.125;    0.000
1005.675; 2537.475;  205.125;    0.000
1005.837; 2455.475;  235.125;    0.000
1005.998; 2387.475;  210.125;    0.000
1006.159; 2376.475;  214.125;    0.000
1006.321; 2395.475;  236.125;    0.000
1006.482; 2541.475;  214.125;    0.000
1006.643; 2622.475;  213.125;    0.000
1006.804; 2678.475;  204.125;    0.000
1006.965; 2725.475;  212.125;    0.000
1007.126; 2702.475;  251.125;    0.000
1007.287; 2815.475;  238.125;    0.000
1007.448; 2682.475;  198.125;    0.000
1007.609; 2704.475;  241.125;    0.000
1007.770; 2567.475;  213.125;    0.000
1007.931; 2636.475;  225.125;    0.000
1008.092; 2642.475;  204.125;    0.000
1008.253; 2640.475;  220.125;    0.000
1008.414; 2685.475;  180.125;    0.000
1008.575; 2798.475;  224.125;    0.000
1008.736; 2775.475;  164.125;    0.000
1008.896; 2682.475;  247.125;    0.000
1009.057; 2689.475;  263.125;    0.000
1009.218; 2781.475;  233.125;    0.000
1009.379; 2716.475;  207.125;    0.000
1009.539; 2742.475;  221.125;    0.000
1009.700; 2844.475;  209.125;    0.000
1009.860; 2837.475;  217.125;    0.000
1010.021; 2875.475;  182.125;    0.000
1010.182; 2831.475;  233.125;    0.000
1010.342; 2812.475;  210.125;    0.000
1010.503; 2853.475;  232.125;    0.000
1010.663; 3005.475;  228.125;    0.000
1010.823; 2976.475;  212.125;    0.000
1010.984; 3082.475;  244.125;    0.000
1011.144; 3087.475;  200.125;    0.000
1011.305; 3301.475;  237.125;    0.000
1011.465; 3423.475;  225.125;    0.000
1011.625; 3447.475;  215.125;    0.000
1011.785; 3570.475;  235.125;    0.000
1011.946; 3384.475;  231.125;    0.000
1012.106; 3349.475;  206.125;    0.000
1012.266; 3462.475;  218.125;    0.000
1012.426; 3318.475;  249.125;    0.000
1012.586; 3338.475;  217.125;    0.000
1012.746; 3347.475;  231.125;    0.000
1012.906; 3247.475;  230.125;    0.000
1013.066; 3334.475;  260.125;    0.000
1013.226; 3388.475;  206.125;    0.000
1013.386; 3324.475;  220.125;    0.000
1013.546; 3308.475;  233.125;    0.000
1013.706; 3138.475;  194.125;    0.000
1013.866; 3320.475;  209.125;    0.000
1014.026; 3279.475;  204.125;    0.000
1014.186; 3283.475;  203.125;    0.000
1014.346; 3305.475;  244.125;    0.000
1014.505; 3286.475;  206.125;    0.000
1014.665; 3327.475;  210.125;    0.000
1014.825; 3292.475;  235.125;    0.000
1014.985; 3260.475;  227.125;    0.000
1015.144; 3445.475;  237.125;    0.000
1015.304; 3606.475;  196.125;    0.000
1015.464; 3590.475;  228.125;    0.000
1015.623; 3443.475;  235.125;    0.000
1015.783; 3893.475;  187.125;    0.000
1015.942; 4003.475;  184.125;    0.000
1016.102; 3886.475;  245.125;    0.000
1016.261; 3832.475;  203.125;    0.000
1016.420; 4112.475;  209.125;    0.000
1016.580; 4553.475;  235.125;    0.000
1016.739; 4446.475;  175.125;    0.000
1016.899; 4342.475;  220.125;    0.000
1017.058; 4611.475;  219.125;    0.000
1017.217; 4675.475;  238.125;    0.000
1017.376; 4493.475;  235.125;    0.000
1017.536; 4206.475;  195.125;    0.000
1017.695; 4296.475;  215.125;    0.000
1017.854; 4352.475;  231.125;    0.000
1018.013; 4048.475;  184.125;    0.000
1018.172; 3933.475;  179.125;    0.000
1018.331; 4016.475;  205.125;    0.000
1018.490; 4247.475;  203.125;    0.000
1018.649; 4259.475;  261.125;    0.000
1018.808; 4523.475;  253.125;    0.000
1018.967; 4643.475;  201.125;    0.000
1019.126; 4583.475;  216.125;    0.000
1019.285; 4506.475;  169.125;    0.000
1019.444; 4432.475;  226.125;    0.000
1019.603; 4568.475;  252.125;    0.000
1019.762; 4192.475;  206.125;    0.000
1019.921; 4182.475;  235.125;    0.000
1020.079; 4462.475;  192.125;    0.000
1020.238; 4711.475;  226.125;    0.000
1020.397; 4591.475;  231.125;    0.000
1020.555; 4291.475;  218.125;    0.000
1020.714; 4344.475;  235.125;    0.000
1020.873; 4634.475;  229.125;    0.000
1021.031; 4852.475;  234.125;    0.000
1021.190; 4534.475;  223.125;    0.000
1021.348; 4280.475;  186.125;    0.000
1021.507; 4735.475;  201.125;    0.000
1021.665; 4972.475;  222.125;    0.000
1021.824; 4813.475;  208.125;    0.000
1021.982; 4546.475;  209.125;    0.000
1022.141; 4591.475;  224.125;    0.000
1022.299; 4834.475;  214.125;    0.000
1022.457; 5009.475;  176.125;    0.000
1022.616; 4737.475;  211.125;    0.000
1022.774; 4432.475;  218.125;    0.000
1022.932; 4494.475;  205.125;    0.000
1023.090; 5010.475;  246.125;    0.000
1023.249; 5287.475;  249.125;    0.000
1023.407; 4835.475;  235.125;    0.000
1023.565; 4319.475;  202.125;    0.000
1023.723; 4746.475;  210.125;    0.000
1023.881; 5340.475;  206.125;    0.000
1024.039; 5044.475;  240.125;    0.000
1024.197; 4826.475;  275.125;    0.000
1024.355; 4492.475;  228.125;    0.000
1024.513; 4658.475;  234.125;    0.000
1024.671; 5359.475;  222.125;    0.000
1024.829; 5311.475;  241.125;    0.000
1024.987; 4798.475;  209.125;    0.000
1025.145; 4455.475;  227.125;    0.000
1025.302; 4748.475;  208.125;    0.000
1025.460; 5332.475;  210.125;    0.000
1025.618; 5418.475;  192.125;    0.000
1025.776; 4950.475;  220.125;    0.000
1025.933; 4438.475;  223.125;    0.000
1026.091; 4823.475;  189.125;    0.000
1026.249; 5291.475;  210.125;    0.000
1026.406; 5430.475;  231.125;    0.000
1026.564; 5298.475;  247.125;    0.000
1026.721; 4838.475;  213.125;    0.000
1026.879; 4832.475;  208.125;    0.000
1027.036; 5364.475;  222.125;    0.000
1027.194; 5572.475;  253.125;    0.000
1027.351; 5654.475;  239.125;    0.000
1027.509; 5214.475;  232.125;    0.000
1027.666; 4797.475;  251.125;    0.000
1027.823; 5325.475;  212.125;    0.000
1027.981; 5587.475;  260.125;    0.000
1028.138; 5828.475;  263.125;    0.000
1028.295; 5230.475;  251.125;    0.000
1028.452; 5113.475;  249.125;    0.000
1028.609; 5029.475;  259.125;    0.000
1028.767; 5398.475;  255.125;    0.000
1028.924; 5899.475;  201.125;    0.000
1029.081; 5636.475;  217.125;    0.000
1029.238; 5431.475;  230.125;    0.000
1029.395; 4999.475;  263.125;    0.000
1029.552; 5228.475;  207.125;    0.000
1029.709; 5812.475;  220.125;    0.000
1029.866; 6057.475;  214.125;    0.000
1030.023; 5688.475;  224.125;    0.000
1030.180; 5168.475;  209.125;    0.000
1030.337; 5107.475;  269.125;    0.000
1030.494; 5547.475;  207.125;    0.000
1030.650; 5783.475;  230.125;    0.000
1030.807; 6215.475;  217.125;    0.000
1030.964; 5727.475;  212.125;    0.000
1031.121; 5456.475;  220.125;    0.000
1031.277; 5218.475;  233.125;    0.000
1031.434; 5572.475;  266.125;    0.000
1031.591; 6000.475;  270.125;    0.000
1031.747; 6254.475;  229.125;    0.000
1031.904; 5975.475;  227.125;    0.000
1032.060; 5644.475;  210.125;    0.000
1032.217; 5525.475;  218.125;    0.000
1032.373; 6247.475;  190.125;    0.000
1032.530; 6428.475;  236.125;    0.000
1032.686; 7020.475;  199.125;    0.000
1032.843; 6945.475;  216.125;    0.000
1032.999; 6533.475;  204.125;    0.000
1033.155; 6482.475;  208.125;    0.000
1033.312; 6515.475;  231.125;    0.000
1033.468; 7809.475;  213.125;    0.000
1033.624; 8281.475;  235.125;    0.000
1033.780; 8751.475;  233.125;    0.000
1033.937; 8322.475;  201.125;    0.000
1034.093; 8030.475;  233.125;    0.000
1034.249; 8049.475;  214.125;    0.000
1034.405; 8037.475;  245.125;    0.000
1034.561; 8730.475;  228.125;    0.000
1034.717; 9336.475;  234.125;    0.000
1034.873; 9218.475;  248.125;    0.000
1035.029; 9565.475;  220.125;    0.000
1035.185; 8705.475;  294.125;    0.000
1035.341; 8546.475;  231.125;    0.000
1035.497; 9057.475;  254.125;    0.000
1035.653; 9482.475;  225.125;    0.000
1035.809;10249.475;  243.125;    0.000
1035.964;11213.475;  216.125;    0.000
1036.120;10516.475;  199.125;    0.000
1036.276;10483.475;  220.125;    0.000
1036.432;10308.475;  210.125;    0.000
1036.587; 9435.475;  225.125;    0.000
1036.743;10231.475;  245.125;    0.000
1036.899;10801.475;  219.125;    0.000
1037.054;11258.475;  157.125;    0.000
1037.210;12429.475;  208.125;    0.000
1037.365;12482.475;  230.125;    0.000
1037.521;11562.475;  236.125;    0.000
1037.676;11519.475;  193.125;    0.000
1037.832;10626.475;  246.125;    0.000
1037.987;10713.475;  231.125;    0.000
1038.143;11176.475;  234.125;    0.000
1038.298;12582.475;  219.125;    0.000
1038.453;12462.475;  230.125;    0.000
1038.609;13808.475;  254.125;    0.000
1038.764;13817.475;  249.125;    0.000
1038.919;12549.475;  224.125;    0.000
1039.074;12566.475;  209.125;    0.000
1039.229;11658.475;  214.125;    0.000
1039.385;11905.475;  268.125;    0.000
1039.540;12035.475;  268.125;    0.000
1039.695;13387.475;  229.125;    0.000
1039.850;14760.475;  252.125;    0.000
1040.005;15218.475;  248.125;    0.000
1040.160;16305.475;  215.125;    0.000
1040.315;15536.475;  239.125;    0.000
1040.470;14412.475;  210.125;    0.000
1040.625;13855.475;  239.125;    0.000
1040.780;13654.475;  251.125;    0.000
1040.935;13637.475;  247.125;    0.000
1041.089;14883.475;  215.125;    0.000
1041.244;16637.475;  210.125;    0.000
1041.399;17846.475;  237.125;    0.000
1041.554;18374.475;  253.125;    0.000
1041.708;20173.475;  227.125;    0.000
1041.863;19046.475;  219.125;    0.000
1042.018;18433.475;  246.125;    0.000
1042.172;18418.475;  236.125;    0.000
1042.327;17294.475;  272.125;    0.000
1042.481;17283.475;  197.125;    0.000
1042.636;17750.475;  213.125;    0.000
1042.791;18217.475;  250.125;    0.000
1042.945;21344.475;  267.125;    0.000
1043.099;22716.475;  257.125;    0.000
1043.254;22508.475;  206.125;    0.000
1043.408;23212.475;  266.125;    0.000
1043.563;24791.475;  232.125;    0.000
1043.717;23077.475;  241.125;    0.000
1043.871;21303.475;  248.125;    0.000
1044.025;21687.475;  234.125;    0.000
1044.180;22027.475;  222.125;    0.000
1044.334;21752.475;  235.125;    0.000
1044.488;22725.475;  270.125;    0.000
1044.642;23406.475;  215.125;    0.000
1044.796;26110.475;  212.125;    0.000
1044.950;28380.475;  228.125;    0.000
1045.104;30553.475;  223.125;    0.000
1045.258;31081.475;  236.125;    0.000
1045.412;30210.475;  225.125;    0.000
1045.566;29378.475;  245.125;    0.000
1045.720;28413.475;  201.125;    0.000
1045.874;26467.475;  229.125;    0.000
1046.028;25105.475;  243.125;    0.000
1046.182;25434.475;  212.125;    0.000
1046.336;26234.475;  256.125;    0.000
1046.489;27423.475;  234.125;    0.000
1046.643;29032.475;  246.125;    0.000
1046.797;31197.475;  219.125;    0.000
1046.951;30830.475;  231.125;    0.000
1047.104;32072.475;  285.125;    0.000
1047.258;33594.477;  256.125;    0.000
1047.411;34773.477;  232.125;    0.000
1047.565;34427.477;  269.125;    0.000
1047.719;33174.477;  213.125;    0.000
1047.872;31843.475;  210.125;    0.000
1048.026;30396.475;  251.125;    0.000
1048.179;30995.475;  213.125;    0.000
1048.332;30308.475;  212.125;    0.000
1048.486;30294.475;  218.125;    0.000
1048.639;30154.475;  218.125;    0.000
1048.792;30747.475;  247.125;    0.000
1048.946;33762.477;  208.125;    0.000
1049.099;36393.477;  247.125;    0.000
1049.252;35736.477;  274.125;    0.000
1049.406;34158.477;  232.125;    0.000
1049.559;36646.477;  251.125;    0.000
1049.712;40884.477;  243.125;    0.000
1049.865;44111.477;  219.125;    0.000
1050.018;40775.477;  216.125;    0.000
1050.171;36686.477;  237.125;    0.000
1050.324;36396.477;  291.125;    0.000
1050.477;37901.477;  241.125;    0.000
1050.630;40934.477;  245.125;    0.000
1050.783;41626.477;  213.125;    0.000
1050.936;38630.477;  246.125;    0.000
1051.089;38321.477;  255.125;    0.000
1051.242;39943.477;  228.125;    0.000
1051.394;44246.477;  276.125;    0.000
1051.547;44712.477;  246.125;    0.000
1051.700;42530.477;  252.125;    0.000
1051.853;41131.477;  267.125;    0.000
1052.005;43272.477;  261.125;    0.000
1052.158;48114.477;  313.125;    0.000
1052.311;51913.477;  264.125;    0.000
1052.463;49094.477;  271.125;    0.000
1052.616;43950.477;  291.125;    0.000
1052.768;40085.477;  298.125;    0.000
1052.921;38298.477;  262.125;    0.000
1053.073;42537.477;  307.125;    0.000
1053.226;48856.477;  301.125;    0.000
1053.378;55932.477;  309.125;    0.000
1053.531;56135.477;  280.125;    0.000
1053.683;53186.477;  258.125;    0.000
1053.835;45467.477;  267.125;    0.000
1053.988;35273.477;  294.125;    0.000
1054.140; 6287.475;  292.125;    0.000
1054.292; 1602.475;  249.125;    0.000
1054.444; 1242.475;  288.125;    0.000
1054.596; 1148.475;  275.125;    0.000
1054.749;  997.475;  284.125;    0.000
1054.901; 1012.475;  291.125;    0.000
1055.053;  908.475;  274.125;    0.000
1055.205;  904.475;  313.125;    0.000
1055.357;  861.475;  309.125;    0.000
1055.509;  817.475;  283.125;    0.000
1055.661;  831.475;  341.125;    0.000
1055.813;  743.475;  288.125;    0.000
1055.965;  729.475;  300.125;    0.000
1056.116;  753.475;  296.125;    0.000
1056.268;  797.475;  319.125;    0.000
1056.420;  806.475;  298.125;    0.000

