
Integration time [ms]:   1.000
Averaging Nr. [scans]: 1
Smoothing Nr. [pixels]: 0
Data measured with spectrometer [name]: NIR
Wave   ;Sample   ;Dark     ;Reference
[nm]   ;[counts] ;[counts] ;[counts] 

691.496;   37.400;  163.125;    0.000
691.696;   41.400;  208.125;    0.000
691.896;   14.400;  111.125;    0.000
692.096;   26.400;  178.125;    0.000
692.296;  -10.600;   93.125;    0.000
692.496;   41.400;  161.125;    0.000
692.695;    3.400;  135.125;    0.000
692.895;   63.400;  179.125;    0.000
693.095;   -0.600;  158.125;    0.000
693.295;   81.400;  168.125;    0.000
693.495;   29.400;  170.125;    0.000
693.695;   34.400;  155.125;    0.000
693.894;   44.400;  151.125;    0.000
694.094;   62.400;  164.125;    0.000
694.294;   25.400;  129.125;    0.000
694.494;  527.400;  170.125;    0.000
694.693; 4369.400;  137.125;    0.000
694.893; 4734.400;  163.125;    0.000
695.093; 4899.400;  121.125;    0.000
695.293; 4893.400;  144.125;    0.000
695.492; 4994.400;   88.125;    0.000
695.692; 4995.400;  148.125;    0.000
695.891; 5053.400;  125.125;    0.000
696.091; 4946.400;  184.125;    0.000
696.291; 5039.400;  153.125;    0.000
696.490; 5023.400;  131.125;    0.000
696.690; 5208.400;  123.125;    0.000
696.889; 5227.400;  180.125;    0.000
697.089; 5045.400;  147.125;    0.000
697.288; 5158.400;  164.125;    0.000
697.488; 5142.400;  133.125;    0.000
697.687; 5030.400;  153.125;    0.000
697.887; 5110.400;  119.125;    0.000
698.086; 5109.400;  143.125;    0.000
698.286; 5153.400;  125.125;    0.000
698.485; 5215.400;  120.125;    0.000
698.684; 5167.400;  116.125;    0.000
698.884; 5211.400;  131.125;    0.000
699.083; 5151.400;  115.125;    0.000
699.282; 5175.400;  144.125;    0.000
699.482; 5192.400;  109.125;    0.000
699.681; 5292.400;  115.125;    0.000
699.880; 5184.400;  125.125;    0.000
700.080; 5320.400;  139.125;    0.000
700.279; 5192.400;  111.125;    0.000
700.478; 5220.400;  146.125;    0.000
700.677; 5400.400;  131.125;    0.000
700.877; 5138.400;  156.125;    0.000
701.076; 5394.400;  153.125;    0.000
701.275; 5180.400;  123.125;    0.000
701.474; 5294.400;  150.125;    0.000
701.673; 5278.400;   97.125;    0.000
701.872; 5401.400;  139.125;    0.000
702.071; 5319.400;  108.125;    0.000
702.271; 5364.400;  125.125;    0.000
702.470; 5355.400;  108.125;    0.000
702.669; 5287.400;  102.125;    0.000
702.868; 5417.400;  153.125;    0.000
703.067; 5330.400;  145.125;    0.000
703.266; 5394.400;   96.125;    0.000
703.465; 5376.400;  165.125;    0.000
703.664; 5416.400;  106.125;    0.000
703.863; 5391.400;  144.125;    0.000
704.062; 5339.400;   86.125;    0.000
704.260; 5411.400;   99.125;    0.000
704.459; 5368.400;  112.125;    0.000
704.658; 5468.400;  106.125;    0.000
704.857; 5344.400;  129.125;    0.000
705.056; 5440.400;   98.125;    0.000
705.255; 5494.400;   97.125;    0.000
705.454; 5486.400;  101.125;    0.000
705.652; 5420.400;  142.125;    0.000
705.851; 5448.400;  100.125;    0.000
706.050; 5416.400;  162.125;    0.000
706.249; 5509.400;  146.125;    0.000
706.447; 5513.400;  120.125;    0.000
706.646; 5530.400;  114.125;    0.000
706.845; 5542.400;  117.125;    0.000
707.043; 5540.400;  136.125;    0.000
707.242; 5497.400;   90.125;    0.000
707.441; 5565.400;  131.125;    0.000
707.639; 5525.400;  120.125;    0.000
707.838; 5569.400;  122.125;    0.000
708.037; 5558.400;  109.125;    0.000
708.235; 5653.400;  122.125;    0.000
708.434; 5539.400;  109.125;    0.000
708.632; 5519.400;   47.125;    0.000
708.831; 5603.400;  122.125;    0.000
709.029; 5595.400;  130.125;    0.000
709.228; 5603.400;  112.125;    0.000
709.426; 5680.400;  128.125;    0.000
709.625; 5622.400;  129.125;    0.000
709.823; 5690.400;  130.125;    0.000
710.022; 5720.400;   90.125;    0.000
710.220; 5726.400;  131.125;    0.000
710.418; 5762.400;  133.125;    0.000
710.617; 5785.400;   82.125;    0.000
710.815; 5801.400;   90.125;    0.000
711.013; 5770.400;   86.125;    0.000
711.212; 5711.400;  117.125;    0.000
711.410; 5817.400;  106.125;    0.000
711.608; 5799.400;  138.125;    0.000
711.807; 5759.400;  116.125;    0.000
712.005; 5753.400;   82.125;    0.000
712.203; 5864.400;   90.125;    0.000
712.401; 5911.400;  124.125;    0.000
712.599; 5892.400;   64.125;    0.000
712.798; 5970.400;  113.125;    0.000
712.996; 5897.400;  100.125;    0.000
713.194; 5922.400;  130.125;    0.000
713.392; 5904.400;   89.125;    0.000
713.590; 6048.400;  105.125;    0.000
713.788; 5979.400;  100.125;    0.000
713.986; 6013.400;  117.125;    0.000
714.184; 6001.400;   72.125;    0.000
714.382; 6004.400;   88.125;    0.000
714.580; 6172.400;   88.125;    0.000
714.778; 6216.400;  129.125;    0.000
714.976; 6301.400;   90.125;    0.000
715.174; 6223.400;  119.125;    0.000
715.372; 6656.400;  117.125;    0.000
715.570; 6938.400;  101.125;    0.000
715.768; 7500.400;  122.125;    0.000
715.966; 7517.400;  114.125;    0.000
716.164; 7308.400;  135.125;    0.000
716.362; 7272.400;  126.125;    0.000
716.560; 7079.400;  126.125;    0.000
716.758; 6884.400;   98.125;    0.000
716.955; 6713.400;   76.125;    0.000
717.153; 6742.400;   45.125;    0.000
717.351; 6798.400;  106.125;    0.000
717.549; 6542.400;  108.125;    0.000
717.746; 6594.400;   66.125;    0.000
717.944; 6641.400;  127.125;    0.000
718.142; 6445.400;  148.125;    0.000
718.340; 6537.400;   94.125;    0.000
718.537; 6541.400;  107.125;    0.000
718.735; 6579.400;  130.125;    0.000
718.933; 6485.400;  111.125;    0.000
719.130; 6337.400;  107.125;    0.000
719.328; 6529.400;  128.125;    0.000
719.525; 6463.400;  141.125;    0.000
719.723; 6420.400;  122.125;    0.000
719.920; 6371.400;   85.125;    0.000
720.118; 6435.400;  115.125;    0.000
720.316; 6669.400;  153.125;    0.000
720.513; 6386.400;  120.125;    0.000
720.711; 6496.400;  134.125;    0.000
720.908; 6382.400;  126.125;    0.000
721.105; 6564.400;  119.125;    0.000
721.303; 6537.400;  112.125;    0.000
721.500; 6409.400;  125.125;    0.000
721.698; 6398.400;   94.125;    0.000
721.895; 6523.400;  118.125;    0.000
722.092; 6472.400;   77.125;    0.000
722.290; 6503.400;  135.125;    0.000
722.487; 6419.400;  154.125;    0.000
722.684; 6555.400;  122.125;    0.000
722.882; 6504.400;   90.125;    0.000
723.079; 6418.400;  132.125;    0.000
723.276; 6440.400;   95.125;    0.000
723.473; 6564.400;  106.125;    0.000
723.671; 6514.400;   80.125;    0.000
723.868; 6586.400;  112.125;    0.000
724.065; 6553.400;  107.125;    0.000
724.262; 6610.400;  119.125;    0.000
724.459; 6484.400;   80.125;    0.000
724.656; 6629.400;  109.125;    0.000
724.854; 6621.400;  107.125;    0.000
725.051; 6479.400;  103.125;    0.000
725.248; 6635.400;  101.125;    0.000
725.445; 6690.400;   93.125;    0.000
725.642; 6617.400;   92.125;    0.000
725.839; 6591.400;  157.125;    0.000
726.036; 6674.400;   71.125;    0.000
726.233; 6454.400;   80.125;    0.000
726.430; 6741.400;  146.125;    0.000
726.627; 6677.400;  103.125;    0.000
726.824; 6600.400;   46.125;    0.000
727.021; 6779.400;  149.125;    0.000
727.218; 6723.400;   87.125;    0.000
727.414; 6757.400;  112.125;    0.000
727.611; 6507.400;  111.125;    0.000
727.808; 6648.400;  122.125;    0.000
728.005; 6584.400;   58.125;    0.000
728.202; 6806.400;  129.125;    0.000
728.399; 6597.400;  111.125;    0.000
728.595; 6616.400;   93.125;    0.000
728.792; 6650.400;   78.125;    0.000
728.989; 6784.400;  104.125;    0.000
729.186; 6683.400;  110.125;    0.000
729.382; 6847.400;   93.125;    0.000
729.579; 6830.400;  102.125;    0.000
729.776; 6799.400;  112.125;    0.000
729.972; 6662.400;  101.125;    0.000
730.169; 6796.400;  150.125;    0.000
730.366; 6688.400;   92.125;    0.000
730.562; 6775.400;   74.125;    0.000
730.759; 6830.400;   97.125;    0.000
730.955; 6683.400;   86.125;    0.000
731.152; 6722.400;   88.125;    0.000
731.348; 6806.400;  117.125;    0.000
731.545; 6742.400;   62.125;    0.000
731.741; 6941.400;   84.125;    0.000
731.938; 6944.400;  108.125;    0.000
732.134; 6791.400;  115.125;    0.000
732.331; 6937.400;   88.125;    0.000
732.527; 6901.400;   96.125;    0.000
732.724; 6881.400;  103.125;    0.000
732.920; 6884.400;   93.125;    0.000
733.116; 6868.400;  109.125;    0.000
733.313; 6857.400;   77.125;    0.000
733.509; 6871.400;   81.125;    0.000
733.705; 7065.400;  141.125;    0.000
733.902; 6806.400;   88.125;    0.000
734.098; 6904.400;   56.125;    0.000
734.294; 6905.400;  122.125;    0.000
734.490; 7098.400;  102.125;    0.000
734.687; 7055.400;   70.125;    0.000
734.883; 6981.400;   73.125;    0.000
735.079; 6894.400;   65.125;    0.000
735.275; 6999.400;  112.125;    0.000
735.471; 7033.400;  124.125;    0.000
735.667; 6980.400;   94.125;    0.000
735.863; 6973.400;  106.125;    0.000
736.060; 6995.400;  106.125;    0.000
736.256; 6962.400;   95.125;    0.000
736.452; 7089.400;  103.125;    0.000
736.648; 7016.400;  106.125;    0.000
736.844; 7097.400;   98.125;    0.000
737.040; 7058.400;  118.125;    0.000
737.236; 7157.400;   95.125;    0.000
737.432; 7161.400;   59.125;    0.000
737.628; 7248.400;  120.125;    0.000
737.824; 7183.400;   78.125;    0.000
738.019; 7121.400;   98.125;    0.000
738.215; 7243.400;  127.125;    0.000
738.411; 7247.400;  111.125;    0.000
738.607; 7192.400;   69.125;    0.000
738.803; 7288.400;   40.125;    0.000
738.999; 7367.400;  128.125;    0.000
739.195; 7316.400;   81.125;    0.000
739.390; 7364.400;   97.125;    0.000
739.586; 7376.400;  100.125;    0.000
739.782; 7604.400;  135.125;    0.000
739.978; 7610.400;  121.125;    0.000
740.173; 7438.400;   92.125;    0.000
740.369; 7326.400;   92.125;    0.000
740.565; 7546.400;  119.125;    0.000
740.760; 7648.400;  139.125;    0.000
740.956; 7563.400;  134.125;    0.000
741.152; 7715.400;  107.125;    0.000
741.347; 7735.400;   63.125;    0.000
741.543; 7757.400;   99.125;    0.000
741.738; 7840.400;  119.125;    0.000
741.934; 8306.400;  156.125;    0.000
742.129; 8582.400;   87.125;    0.000
742.325; 9808.400;  143.125;    0.000
742.520;10807.400;  109.125;    0.000
742.716;10056.400;  135.125;    0.000
742.911; 9729.400;   77.125;    0.000
743.107; 9363.400;  117.125;    0.000
743.302; 9372.400;   93.125;    0.000
743.498; 9240.400;  118.125;    0.000
743.693; 9476.400;   95.125;    0.000
743.888; 9927.400;  122.125;    0.000
744.084;11376.400;  104.125;    0.000
744.279;13838.400;   94.125;    0.000
744.474;14194.400;  138.125;    0.000
744.670;12582.400;  113.125;    0.000
744.865;11732.400;  116.125;    0.000
745.060;10690.400;   89.125;    0.000
745.255;10649.400;  144.125;    0.000
745.451;10217.400;   98.125;    0.000
745.646;10027.400;  110.125;    0.000
745.841;10118.400;   87.125;    0.000
746.036;10103.400;   98.125;    0.000
746.231;10341.400;  153.125;    0.000
746.426;10971.400;   90.125;    0.000
746.622;12528.400;  154.125;    0.000
746.817;16321.400;  111.125;    0.000
747.012;18686.400;  110.125;    0.000
747.207;16557.400;   76.125;    0.000
747.402;14596.400;   94.125;    0.000
747.597;13336.400;   68.125;    0.000
747.792;12737.400;  125.125;    0.000
747.987;12243.400;   92.125;    0.000
748.182;11795.400;  113.125;    0.000
748.377;11220.400;   72.125;    0.000
748.572;10850.400;  135.125;    0.000
748.767;10321.400;   98.125;    0.000
748.961;10206.400;  123.125;    0.000
749.156; 9810.400;   96.125;    0.000
749.351; 9684.400;  121.125;    0.000
749.546; 9435.400;   95.125;    0.000
749.741; 9309.400;  144.125;    0.000
749.936; 9153.400;  105.125;    0.000
750.130; 9027.400;  101.125;    0.000
750.325; 8874.400;  126.125;    0.000
750.520; 9018.400;  113.125;    0.000
750.715; 8629.400;  135.125;    0.000
750.909; 8691.400;  138.125;    0.000
751.104; 8592.400;   96.125;    0.000
751.299; 8729.400;  118.125;    0.000
751.493; 8425.400;  124.125;    0.000
751.688; 8461.400;  131.125;    0.000
751.882; 8278.400;   96.125;    0.000
752.077; 8372.400;  123.125;    0.000
752.272; 8239.400;  112.125;    0.000
752.466; 8231.400;  143.125;    0.000
752.661; 8177.400;  107.125;    0.000
752.855; 8061.400;   97.125;    0.000
753.050; 8002.400;  125.125;    0.000
753.244; 8054.400;  161.125;    0.000
753.439; 8040.400;  101.125;    0.000
753.633; 8013.400;  129.125;    0.000
753.828; 7905.400;  114.125;    0.000
754.022; 7919.400;  118.125;    0.000
754.216; 7889.400;  126.125;    0.000
754.411; 7852.400;  148.125;    0.000
754.605; 7831.400;  100.125;    0.000
754.799; 7947.400;  146.125;    0.000
754.994; 7706.400;  116.125;    0.000
755.188; 7805.400;  146.125;    0.000
755.382; 7958.400;  103.125;    0.000
755.576; 7768.400;  119.125;    0.000
755.771; 7726.400;  100.125;    0.000
755.965; 7817.400;  129.125;    0.000
756.159; 7859.400;  100.125;    0.000
756.353; 7765.400;  153.125;    0.000
756.547; 7886.400;  113.125;    0.000
756.742; 7797.400;  129.125;    0.000
756.936; 7585.400;   70.125;    0.000
757.130; 7766.400;   91.125;    0.000
757.324; 7713.400;   92.125;    0.000
757.518; 7767.400;  128.125;    0.000
757.712; 7901.400;  146.125;    0.000
757.906; 7715.400;  114.125;    0.000
758.100; 7715.400;  153.125;    0.000
758.294; 7811.400;  133.125;    0.000
758.488; 7768.400;  149.125;    0.000
758.682; 7797.400;  132.125;    0.000
758.876; 7556.400;  128.125;    0.000
759.070; 7686.400;  178.125;    0.000
759.264; 7706.400;   98.125;    0.000
759.458; 7674.400;  168.125;    0.000
759.651; 7693.400;  131.125;    0.000
759.845; 7622.400;  133.125;    0.000
760.039; 7643.400;  120.125;    0.000
760.233; 7643.400;  116.125;    0.000
760.427; 7603.400;  121.125;    0.000
760.620; 7711.400;  163.125;    0.000
760.814; 7711.400;  106.125;    0.000
761.008; 7886.400;  119.125;    0.000
761.202; 7636.400;  121.125;    0.000
761.395; 7508.400;  136.125;    0.000
761.589; 7624.400;  111.125;    0.000
761.783; 7726.400;  116.125;    0.000
761.976; 7743.400;  139.125;    0.000
762.170; 7606.400;  140.125;    0.000
762.363; 7736.400;  115.125;    0.000
762.557; 7670.400;  129.125;    0.000
762.750; 7791.400;   85.125;    0.000
762.944; 7750.400;  107.125;    0.000
763.138; 7755.400;   99.125;    0.000
763.331; 7750.400;   97.125;    0.000
763.524; 7835.400;  100.125;    0.000
763.718; 8090.400;  130.125;    0.000
763.911; 7959.400;  127.125;    0.000
764.105; 7856.400;   69.125;    0.000
764.298; 7797.400;   94.125;    0.000
764.492; 7834.400;  129.125;    0.000
764.685; 7709.400;  114.125;    0.000
764.878; 7868.400;  145.125;    0.000
765.072; 7872.400;  124.125;    0.000
765.265; 7993.400;  124.125;    0.000
765.458; 7775.400;  108.125;    0.000
765.651; 7951.400;  132.125;    0.000
765.845; 7934.400;  106.125;    0.000
766.038; 8078.400;  155.125;    0.000
766.231; 9151.400;  153.125;    0.000
766.424;13674.400;  165.125;    0.000
766.617;14386.400;   85.125;    0.000
766.811; 8853.400;  140.125;    0.000
767.004; 8157.400;  151.125;    0.000
767.197; 8146.400;  178.125;    0.000
767.390; 7989.400;  112.125;    0.000
767.583; 8069.400;  134.125;    0.000
767.776; 7985.400;  101.125;    0.000
767.969; 7993.400;   99.125;    0.000
768.162; 8093.400;  152.125;    0.000
768.355; 7975.400;  115.125;    0.000
768.548; 8083.400;  154.125;    0.000
768.741; 8137.400;  124.125;    0.000
768.934; 8189.400;  129.125;    0.000
769.127; 8245.400;  137.125;    0.000
769.320; 8206.400;  115.125;    0.000
769.513; 8336.400;  144.125;    0.000
769.706; 9623.400;  107.125;    0.000
769.898;13687.400;  134.125;    0.000
770.091;10755.400;  128.125;    0.000
770.284; 8713.400;   97.125;    0.000
770.477; 8452.400;  135.125;    0.000
770.670; 8520.400;  137.125;    0.000
770.862; 8540.400;  112.125;    0.000
771.055; 8610.400;  127.125;    0.000
771.248; 8639.400;  116.125;    0.000
771.441; 8656.400;  101.125;    0.000
771.633; 8740.400;  130.125;    0.000
771.826; 8876.400;  147.125;    0.000
772.018; 8883.400;  117.125;    0.000
772.211; 8956.400;  141.125;    0.000
772.404; 9116.400;  104.125;    0.000
772.596; 9066.400;  128.125;    0.000
772.789; 9030.400;  131.125;    0.000
772.981; 9316.400;  134.125;    0.000
773.174; 9274.400;  108.125;    0.000
773.366; 9558.400;  153.125;    0.000
773.559; 9667.400;  137.125;    0.000
773.751; 9649.400;  119.125;    0.000
773.944; 9914.400;  148.125;    0.000
774.136;10077.400;  155.125;    0.000
774.329;10319.400;  126.125;    0.000
774.521;10650.400;  116.125;    0.000
774.713;10987.400;  119.125;    0.000
774.906;11451.400;  179.125;    0.000
775.098;11865.400;  127.125;    0.000
775.290;12210.400;  146.125;    0.000
775.483;12759.400;  123.125;    0.000
775.675;13464.400;  119.125;    0.000
775.867;14510.400;  119.125;    0.000
776.059;15791.400;  137.125;    0.000
776.251;17083.400;  154.125;    0.000
776.444;19504.400;  101.125;    0.000
776.636;22904.400;  153.125;    0.000
776.828;28501.400;  127.125;    0.000
777.020;39946.398;  140.125;    0.000
777.212;58484.398;  160.125;    0.000
777.404;64580.398;  170.125;    0.000
777.596;60408.398;  136.125;    0.000
777.788;45635.398;  137.125;    0.000
777.980;34695.398;  129.125;    0.000
778.172;28356.400;  139.125;    0.000
778.364;24270.400;  124.125;    0.000
778.556;21202.400;  163.125;    0.000
778.748;19072.400;  142.125;    0.000
778.940;17454.400;  178.125;    0.000
779.132;16240.400;  159.125;    0.000
779.324;14843.400;  109.125;    0.000
779.516;14029.400;  143.125;    0.000
779.708;13160.400;  158.125;    0.000
779.900;12513.400;  142.125;    0.000
780.091;12040.400;  131.125;    0.000
780.283;11624.400;  176.125;    0.000
780.475;11287.400;  151.125;    0.000
780.667;10886.400;  120.125;    0.000
780.859;10531.400;  134.125;    0.000
781.050;10290.400;  183.125;    0.000
781.242; 9970.400;   95.125;    0.000
781.434; 9904.400;  127.125;    0.000
781.625; 9609.400;  163.125;    0.000
781.817; 9478.400;  170.125;    0.000
782.008; 9239.400;  123.125;    0.000
782.200; 9095.400;  141.125;    0.000
782.392; 9132.400;  149.125;    0.000
782.583; 9061.400;  155.125;    0.000
782.775; 8873.400;  140.125;    0.000
782.966; 8664.400;  167.125;    0.000
783.158; 8772.400;  164.125;    0.000
783.349; 8486.400;  174.125;    0.000
783.541; 8575.400;  141.125;    0.000
783.732; 8387.400;  115.125;    0.000
783.924; 8472.400;  135.125;    0.000
784.115; 8386.400;  157.125;    0.000
784.306; 8225.400;  102.125;    0.000
784.498; 8268.400;  124.125;    0.000
784.689; 8178.400;  171.125;    0.000
784.880; 8070.400;  165.125;    0.000
785.072; 7999.400;  152.125;    0.000
785.263; 8037.400;  146.125;    0.000
785.454; 7916.400;  145.125;    0.000
785.645; 8039.400;  127.125;    0.000
785.837; 7875.400;  138.125;    0.000
786.028; 7992.400;  151.125;    0.000
786.219; 7815.400;  142.125;    0.000
786.410; 7982.400;  140.125;    0.000
786.601; 7830.400;  137.125;    0.000
786.792; 7874.400;  158.125;    0.000
786.984; 7846.400;  139.125;    0.000
787.175; 7820.400;  140.125;    0.000
787.366; 7829.400;  145.125;    0.000
787.557; 7903.400;  156.125;    0.000
787.748; 7855.400;  148.125;    0.000
787.939; 7823.400;  157.125;    0.000
788.130; 8070.400;  179.125;    0.000
788.321; 8009.400;  142.125;    0.000
788.512; 8098.400;  167.125;    0.000
788.703; 7912.400;  145.125;    0.000
788.894; 8044.400;  132.125;    0.000
789.084; 8019.400;  113.125;    0.000
789.275; 8039.400;  134.125;    0.000
789.466; 8275.400;  151.125;    0.000
789.657; 8206.400;  138.125;    0.000
789.848; 8268.400;  145.125;    0.000
790.039; 8278.400;  130.125;    0.000
790.229; 8316.400;  140.125;    0.000
790.420; 8196.400;  135.125;    0.000
790.611; 8133.400;  156.125;    0.000
790.801; 8066.400;   64.125;    0.000
790.992; 8101.400;  150.125;    0.000
791.183; 8092.400;  177.125;    0.000
791.373; 8014.400;   91.125;    0.000
791.564; 7955.400;   85.125;    0.000
791.755; 8057.400;  125.125;    0.000
791.945; 7903.400;   94.125;    0.000
792.136; 7978.400;   98.125;    0.000
792.326; 7981.400;  105.125;    0.000
792.517; 8066.400;  136.125;    0.000
792.707; 8057.400;  140.125;    0.000
792.898; 8202.400;  164.125;    0.000
793.088; 8309.400;  116.125;    0.000
793.279; 8241.400;  112.125;    0.000
793.469; 8371.400;  105.125;    0.000
793.660; 8467.400;  161.125;    0.000
793.850; 8725.400;  133.125;    0.000
794.040; 8999.400;  121.125;    0.000
794.231; 9473.400;  115.125;    0.000
794.421;10018.400;  152.125;    0.000
794.611;11360.400;  132.125;    0.000
794.802;13163.400;  144.125;    0.000
794.992;14014.400;  142.125;    0.000
795.182;14041.400;  179.125;    0.000
795.372;13325.400;  167.125;    0.000
795.563;11932.400;  149.125;    0.000
795.753;10934.400;  117.125;    0.000
795.943;10205.400;  146.125;    0.000
796.133; 9685.400;  119.125;    0.000
796.323; 9325.400;  141.125;    0.000
796.513; 8924.400;  134.125;    0.000
796.703; 8653.400;  116.125;    0.000
796.893; 8523.400;  120.125;    0.000
797.083; 8315.400;  131.125;    0.000
797.273; 8175.400;  118.125;    0.000
797.463; 7932.400;  130.125;    0.000
797.653; 7709.400;   87.125;    0.000
797.843; 7802.400;  123.125;    0.000
798.033; 7792.400;  115.125;    0.000
798.223; 7524.400;  142.125;    0.000
798.413; 7510.400;  148.125;    0.000
798.603; 7199.400;  147.125;    0.000
798.793; 7351.400;  107.125;    0.000
798.983; 7266.400;  121.125;    0.000
799.172; 7080.400;  120.125;    0.000
799.362; 7025.400;  145.125;    0.000
799.552; 7106.400;  101.125;    0.000
799.742; 6982.400;  149.125;    0.000
799.932; 6943.400;  104.125;    0.000
800.121; 6908.400;  175.125;    0.000
800.311; 6845.400;  132.125;    0.000
800.501; 6823.400;  118.125;    0.000
800.690; 6853.400;  162.125;    0.000
800.880; 6760.400;  141.125;    0.000
801.070; 6714.400;  151.125;    0.000
801.259; 6695.400;  167.125;    0.000
801.449; 6638.400;  108.125;    0.000
801.638; 6835.400;  176.125;    0.000
801.828; 6550.400;  118.125;    0.000
802.017; 6617.400;  179.125;    0.000
802.207; 6516.400;  127.125;    0.000
802.396; 6737.400;  167.125;    0.000
802.586; 6464.400;  129.125;    0.000
802.775; 6631.400;  142.125;    0.000
802.965; 6435.400;  147.125;    0.000
803.154; 6552.400;  179.125;    0.000
803.343; 6511.400;  117.125;    0.000
803.533; 6466.400;  120.125;    0.000
803.722; 6424.400;  122.125;    0.000
803.911; 6426.400;  155.125;    0.000
804.101; 6402.400;  147.125;    0.000
804.290; 6398.400;  160.125;    0.000
804.479; 6383.400;  139.125;    0.000
804.668; 6344.400;  180.125;    0.000
804.857; 6313.400;  131.125;    0.000
805.047; 6209.400;  119.125;    0.000
805.236; 6333.400;  139.125;    0.000
805.425; 6374.400;  163.125;    0.000
805.614; 6218.400;  103.125;    0.000
805.803; 6381.400;  133.125;    0.000
805.992; 6397.400;  147.125;    0.000
806.181; 6219.400;  109.125;    0.000
806.370; 6247.400;  133.125;    0.000
806.559; 6191.400;  119.125;    0.000
806.748; 6305.400;  144.125;    0.000
806.937; 6227.400;  147.125;    0.000
807.126; 6190.400;  134.125;    0.000
807.315; 6380.400;  132.125;    0.000
807.504; 6276.400;  141.125;    0.000
807.693; 6337.400;  145.125;    0.000
807.882; 6136.400;   91.125;    0.000
808.071; 6261.400;  116.125;    0.000
808.260; 6256.400;  105.125;    0.000
808.448; 6230.400;  184.125;    0.000
808.637; 6293.400;  146.125;    0.000
808.826; 6254.400;  153.125;    0.000
809.015; 6183.400;  113.125;    0.000
809.203; 6326.400;  166.125;    0.000
809.392; 6297.400;  117.125;    0.000
809.581; 6315.400;  186.125;    0.000
809.770; 6279.400;  122.125;    0.000
809.958; 6324.400;  140.125;    0.000
810.147; 6267.400;  130.125;    0.000
810.335; 6381.400;  112.125;    0.000
810.524; 6278.400;  106.125;    0.000
810.713; 6442.400;  154.125;    0.000
810.901; 6522.400;  131.125;    0.000
811.090; 6496.400;  164.125;    0.000
811.278; 6405.400;  159.125;    0.000
811.467; 6809.400;  194.125;    0.000
811.655; 6827.400;  164.125;    0.000
811.844; 6855.400;  149.125;    0.000
812.032; 6648.400;  169.125;    0.000
812.220; 6741.400;  163.125;    0.000
812.409; 6501.400;  134.125;    0.000
812.597; 6582.400;  165.125;    0.000
812.785; 6760.400;  180.125;    0.000
812.974; 6538.400;  166.125;    0.000
813.162; 6681.400;  171.125;    0.000
813.350; 6643.400;  142.125;    0.000
813.539; 6747.400;  126.125;    0.000
813.727; 6816.400;  153.125;    0.000
813.915; 6701.400;  138.125;    0.000
814.103; 6737.400;  191.125;    0.000
814.291; 6684.400;  142.125;    0.000
814.479; 6870.400;  156.125;    0.000
814.668; 6934.400;  152.125;    0.000
814.856; 7045.400;  150.125;    0.000
815.044; 7115.400;  165.125;    0.000
815.232; 7186.400;  172.125;    0.000
815.420; 7287.400;  147.125;    0.000
815.608; 7247.400;  143.125;    0.000
815.796; 7391.400;  126.125;    0.000
815.984; 7434.400;  152.125;    0.000
816.172; 7577.400;  129.125;    0.000
816.360; 7698.400;  177.125;    0.000
816.548; 7854.400;  141.125;    0.000
816.736; 8070.400;  142.125;    0.000
816.924; 8413.400;  161.125;    0.000
817.111; 8759.400;  138.125;    0.000
817.299; 9211.400;  112.125;    0.000
817.487; 9691.400;  180.125;    0.000
817.675;10557.400;  138.125;    0.000
817.863;11693.400;  172.125;    0.000
818.050;14818.400;  142.125;    0.000
818.238;24602.400;  151.125;    0.000
818.426;34068.398;  129.125;    0.000
818.613;26435.400;  124.125;    0.000
818.801;23315.400;  209.125;    0.000
818.989;22501.400;  178.125;    0.000
819.176;22533.400;  155.125;    0.000
819.364;30188.400;  174.125;    0.000
819.552;42314.398;  131.125;    0.000
819.739;30368.400;  184.125;    0.000
819.927;22981.400;  132.125;    0.000
820.114;20329.400;  173.125;    0.000
820.302;18386.400;  140.125;    0.000
820.489;16853.400;  133.125;    0.000
820.677;15912.400;  167.125;    0.000
820.864;15871.400;  161.125;    0.000
821.052;16535.400;  134.125;    0.000
821.239;17525.400;  149.125;    0.000
821.426;18705.400;  160.125;    0.000
821.614;23154.400;  143.125;    0.000
821.801;25206.400;  118.125;    0.000
821.988;22054.400;  154.125;    0.000
822.176;21081.400;  112.125;    0.000
822.363;21715.400;  131.125;    0.000
822.550;19845.400;  131.125;    0.000
822.737;17413.400;  104.125;    0.000
822.924;16353.400;  160.125;    0.000
823.112;15397.400;  161.125;    0.000
823.299;14450.400;  169.125;    0.000
823.486;13487.400;  129.125;    0.000
823.673;12763.400;  135.125;    0.000
823.860;12405.400;  169.125;    0.000
824.047;12569.400;  124.125;    0.000
824.234;14311.400;  160.125;    0.000
824.421;14430.400;  114.125;    0.000
824.608;12932.400;  191.125;    0.000
824.795;11537.400;  160.125;    0.000
824.982;10717.400;  139.125;    0.000
825.169;10170.400;  121.125;    0.000
825.356; 9369.400;  148.125;    0.000
825.543; 9054.400;  167.125;    0.000
825.730; 8609.400;  103.125;    0.000
825.917; 8499.400;  113.125;    0.000
826.104; 8171.400;  188.125;    0.000
826.290; 7819.400;  193.125;    0.000
826.477; 7617.400;  175.125;    0.000
826.664; 7671.400;  151.125;    0.000
826.851; 7244.400;  122.125;    0.000
827.038; 7162.400;  121.125;    0.000
827.224; 7072.400;  124.125;    0.000
827.411; 6915.400;  155.125;    0.000
827.598; 6798.400;  127.125;    0.000
827.784; 6854.400;  140.125;    0.000
827.971; 6627.400;  114.125;    0.000
828.157; 6486.400;  135.125;    0.000
828.344; 6336.400;  173.125;    0.000
828.531; 6359.400;  113.125;    0.000
828.717; 6185.400;  137.125;    0.000
828.904; 6214.400;  158.125;    0.000
829.090; 6155.400;  199.125;    0.000
829.277; 6106.400;  156.125;    0.000
829.463; 5964.400;  154.125;    0.000
829.650; 5943.400;  174.125;    0.000
829.836; 5875.400;  136.125;    0.000
830.022; 5866.400;  143.125;    0.000
830.209; 5781.400;  157.125;    0.000
830.395; 5734.400;  156.125;    0.000
830.581; 5710.400;  148.125;    0.000
830.768; 5628.400;  169.125;    0.000
830.954; 5471.400;  169.125;    0.000
831.140; 5527.400;  124.125;    0.000
831.327; 5491.400;  157.125;    0.000
831.513; 5535.400;  163.125;    0.000
831.699; 5452.400;  176.125;    0.000
831.885; 5410.400;  154.125;    0.000
832.071; 5472.400;  159.125;    0.000
832.257; 5188.400;  142.125;    0.000
832.444; 5314.400;  159.125;    0.000
832.630; 5204.400;  129.125;    0.000
832.816; 5271.400;  132.125;    0.000
833.002; 5210.400;  125.125;    0.000
833.188; 5172.400;  144.125;    0.000
833.374; 5167.400;  131.125;    0.000
833.560; 5142.400;  154.125;    0.000
833.746; 5072.400;  171.125;    0.000
833.932; 4941.400;  162.125;    0.000
834.118; 5058.400;  131.125;    0.000
834.303; 4994.400;  113.125;    0.000
834.489; 4993.400;  170.125;    0.000
834.675; 5096.400;  177.125;    0.000
834.861; 4977.400;  154.125;    0.000
835.047; 4901.400;  171.125;    0.000
835.233; 4921.400;   98.125;    0.000
835.418; 4967.400;  138.125;    0.000
835.604; 4948.400;  140.125;    0.000
835.790; 4907.400;  130.125;    0.000
835.976; 4877.400;  129.125;    0.000
836.161; 4863.400;  142.125;    0.000
836.347; 4876.400;  128.125;    0.000
836.533; 4916.400;  143.125;    0.000
836.718; 4960.400;  164.125;    0.000
836.904; 4771.400;  172.125;    0.000
837.089; 4860.400;  152.125;    0.000
837.275; 4844.400;  143.125;    0.000
837.460; 4904.400;  125.125;    0.000
837.646; 4852.400;  137.125;    0.000
837.831; 4836.400;  153.125;    0.000
838.017; 4902.400;  171.125;    0.000
838.202; 4840.400;  111.125;    0.000
838.388; 4846.400;  140.125;    0.000
838.573; 4868.400;  158.125;    0.000
838.759; 4774.400;  188.125;    0.000
838.944; 4815.400;  125.125;    0.000
839.129; 4816.400;  123.125;    0.000
839.315; 4885.400;  181.125;    0.000
839.500; 4858.400;  150.125;    0.000
839.685; 4825.400;  109.125;    0.000
839.870; 4898.400;  202.125;    0.000
840.056; 4842.400;  101.125;    0.000
840.241; 4871.400;  184.125;    0.000
840.426; 4931.400;  192.125;    0.000
840.611; 4909.400;  180.125;    0.000
840.796; 5071.400;  156.125;    0.000
840.981; 5071.400;  142.125;    0.000
841.166; 5036.400;  161.125;    0.000
841.352; 5124.400;  185.125;    0.000
841.537; 5215.400;  139.125;    0.000
841.722; 5208.400;  143.125;    0.000
841.907; 5268.400;  140.125;    0.000
842.092; 5326.400;  176.125;    0.000
842.277; 5416.400;  136.125;    0.000
842.461; 5506.400;  155.125;    0.000
842.646; 5674.400;  163.125;    0.000
842.831; 5786.400;  153.125;    0.000
843.016; 5853.400;  187.125;    0.000
843.201; 6168.400;  179.125;    0.000
843.386; 6283.400;  167.125;    0.000
843.571; 6593.400;  129.125;    0.000
843.755; 7069.400;  136.125;    0.000
843.940; 7695.400;  121.125;    0.000
844.125; 8592.400;  157.125;    0.000
844.310;10170.400;  175.125;    0.000
844.494;13677.400;  164.125;    0.000
844.679;18979.400;  167.125;    0.000
844.864;18512.400;  166.125;    0.000
845.048;14772.400;  132.125;    0.000
845.233;12377.400;  175.125;    0.000
845.418;10647.400;  159.125;    0.000
845.602; 9472.400;  147.125;    0.000
845.787; 8568.400;  132.125;    0.000
845.971; 7944.400;  187.125;    0.000
846.156; 7277.400;  141.125;    0.000
846.340; 6792.400;  153.125;    0.000
846.525; 6650.400;  157.125;    0.000
846.709; 6280.400;  117.125;    0.000
846.893; 6078.400;  147.125;    0.000
847.078; 5967.400;  170.125;    0.000
847.262; 5682.400;  150.125;    0.000
847.447; 5489.400;  132.125;    0.000
847.631; 5444.400;  144.125;    0.000
847.815; 5221.400;  157.125;    0.000
848.000; 5120.400;  164.125;    0.000
848.184; 5065.400;  174.125;    0.000
848.368; 4983.400;  149.125;    0.000
848.552; 4878.400;  143.125;    0.000
848.736; 4975.400;  132.125;    0.000
848.921; 4814.400;  147.125;    0.000
849.105; 4769.400;  150.125;    0.000
849.289; 4770.400;  146.125;    0.000
849.473; 4623.400;  167.125;    0.000
849.657; 4580.400;  149.125;    0.000
849.841; 4537.400;  181.125;    0.000
850.025; 4523.400;  154.125;    0.000
850.209; 4537.400;  152.125;    0.000
850.393; 4432.400;  139.125;    0.000
850.577; 4462.400;  128.125;    0.000
850.761; 4453.400;  194.125;    0.000
850.945; 4390.400;  152.125;    0.000
851.129; 4413.400;  157.125;    0.000
851.313; 4342.400;  181.125;    0.000
851.497; 4339.400;  145.125;    0.000
851.680; 4319.400;  168.125;    0.000
851.864; 4355.400;  185.125;    0.000
852.048; 4433.400;  170.125;    0.000
852.232; 4325.400;  192.125;    0.000
852.416; 4390.400;  182.125;    0.000
852.599; 4170.400;  169.125;    0.000
852.783; 4330.400;  168.125;    0.000
852.967; 4161.400;  184.125;    0.000
853.150; 4155.400;  163.125;    0.000
853.334; 4213.400;  164.125;    0.000
853.518; 4153.400;  190.125;    0.000
853.701; 4129.400;  137.125;    0.000
853.885; 4163.400;  177.125;    0.000
854.068; 4220.400;  163.125;    0.000
854.252; 4153.400;  139.125;    0.000
854.435; 4233.400;  152.125;    0.000
854.619; 4149.400;  148.125;    0.000
854.802; 4216.400;  168.125;    0.000
854.986; 4206.400;  157.125;    0.000
855.169; 4235.400;  147.125;    0.000
855.353; 4199.400;  173.125;    0.000
855.536; 4189.400;  127.125;    0.000
855.719; 4198.400;  191.125;    0.000
855.903; 4313.400;  186.125;    0.000
856.086; 4278.400;  145.125;    0.000
856.269; 4206.400;  130.125;    0.000
856.452; 4469.400;  153.125;    0.000
856.636; 4575.400;  129.125;    0.000
856.819; 4979.400;  134.125;    0.000
857.002; 5135.400;  152.125;    0.000
857.185; 4893.400;  140.125;    0.000
857.368; 4671.400;  170.125;    0.000
857.552; 4716.400;  132.125;    0.000
857.735; 4726.400;  160.125;    0.000
857.918; 4586.400;  139.125;    0.000
858.101; 4509.400;  159.125;    0.000
858.284; 4536.400;  136.125;    0.000
858.467; 4586.400;  147.125;    0.000
858.650; 4741.400;  153.125;    0.000
858.833; 4661.400;  113.125;    0.000
859.016; 4819.400;  167.125;    0.000
859.199; 5086.400;  141.125;    0.000
859.382; 5639.400;  155.125;    0.000
859.564; 6039.400;  136.125;    0.000
859.747; 6001.400;  142.125;    0.000
859.930; 5530.400;  141.125;    0.000
860.113; 5411.400;  156.125;    0.000
860.296; 5316.400;  167.125;    0.000
860.478; 5040.400;  121.125;    0.000
860.661; 5177.400;  230.125;    0.000
860.844; 4921.400;  186.125;    0.000
861.027; 5042.400;  155.125;    0.000
861.209; 5082.400;  151.125;    0.000
861.392; 4984.400;  162.125;    0.000
861.575; 5099.400;  150.125;    0.000
861.757; 5075.400;  162.125;    0.000
861.940; 5129.400;  207.125;    0.000
862.122; 5209.400;  113.125;    0.000
862.305; 5414.400;  114.125;    0.000
862.487; 5652.400;  162.125;    0.000
862.670; 6200.400;  148.125;    0.000
862.852; 7225.400;  131.125;    0.000
863.035; 8801.400;  174.125;    0.000
863.217; 8747.400;  170.125;    0.000
863.400; 7874.400;  148.125;    0.000
863.582; 7240.400;  129.125;    0.000
863.764; 6731.400;  181.125;    0.000
863.947; 6529.400;  152.125;    0.000
864.129; 6252.400;  178.125;    0.000
864.311; 6017.400;  139.125;    0.000
864.493; 5978.400;  166.125;    0.000
864.676; 6006.400;  148.125;    0.000
864.858; 5845.400;  123.125;    0.000
865.040; 5834.400;  180.125;    0.000
865.222; 5811.400;  131.125;    0.000
865.404; 5989.400;  146.125;    0.000
865.587; 6221.400;  175.125;    0.000
865.769; 6561.400;  183.125;    0.000
865.951; 6645.400;  171.125;    0.000
866.133; 6466.400;  165.125;    0.000
866.315; 6581.400;  138.125;    0.000
866.497; 6537.400;  139.125;    0.000
866.679; 6813.400;  167.125;    0.000
866.861; 7063.400;  151.125;    0.000
867.043; 7293.400;  190.125;    0.000
867.225; 7751.400;  140.125;    0.000
867.407; 8479.400;  125.125;    0.000
867.589; 9629.400;  141.125;    0.000
867.770;11844.400;  149.125;    0.000
867.952;16479.400;  138.125;    0.000
868.134;21592.400;  153.125;    0.000
868.316;21618.400;  148.125;    0.000
868.498;20687.400;  180.125;    0.000
868.679;17950.400;  152.125;    0.000
868.861;15060.400;  174.125;    0.000
869.043;12576.400;  152.125;    0.000
869.224;11065.400;  177.125;    0.000
869.406; 9956.400;  171.125;    0.000
869.588; 9367.400;  177.125;    0.000
869.769; 8778.400;  174.125;    0.000
869.951; 8484.400;  167.125;    0.000
870.132; 8663.400;  144.125;    0.000
870.314; 9564.400;  143.125;    0.000
870.495; 9844.400;  162.125;    0.000
870.677; 9051.400;  136.125;    0.000
870.858; 8630.400;  155.125;    0.000
871.040; 9084.400;  179.125;    0.000
871.221;10238.400;  177.125;    0.000
871.403; 9776.400;  180.125;    0.000
871.584; 8780.400;  157.125;    0.000
871.765; 8703.400;  183.125;    0.000
871.947; 9516.400;  169.125;    0.000
872.128; 8765.400;  162.125;    0.000
872.309; 7662.400;  159.125;    0.000
872.491; 6932.400;  148.125;    0.000
872.672; 6482.400;  163.125;    0.000
872.853; 6334.400;  152.125;    0.000
873.034; 6071.400;  166.125;    0.000
873.215; 5819.400;  155.125;    0.000
873.396; 5532.400;  147.125;    0.000
873.578; 5155.400;  147.125;    0.000
873.759; 5079.400;  153.125;    0.000
873.940; 4900.400;  194.125;    0.000
874.121; 4764.400;  179.125;    0.000
874.302; 4674.400;  155.125;    0.000
874.483; 4496.400;  131.125;    0.000
874.664; 4624.400;  106.125;    0.000
874.845; 4622.400;  122.125;    0.000
875.026; 4484.400;  127.125;    0.000
875.207; 4365.400;  151.125;    0.000
875.388; 4226.400;  149.125;    0.000
875.568; 4208.400;  164.125;    0.000
875.749; 4037.400;  176.125;    0.000
875.930; 4040.400;  207.125;    0.000
876.111; 4013.400;  177.125;    0.000
876.292; 4057.400;  178.125;    0.000
876.472; 4000.400;  163.125;    0.000
876.653; 3931.400;  159.125;    0.000
876.834; 3788.400;  177.125;    0.000
877.015; 3807.400;  212.125;    0.000
877.195; 3849.400;  166.125;    0.000
877.376; 3762.400;  157.125;    0.000
877.556; 3712.400;  175.125;    0.000
877.737; 3712.400;  220.125;    0.000
877.918; 3672.400;  163.125;    0.000
878.098; 3611.400;  166.125;    0.000
878.279; 3549.400;  136.125;    0.000
878.459; 3576.400;  167.125;    0.000
878.640; 3656.400;  167.125;    0.000
878.820; 3528.400;  155.125;    0.000
879.000; 3520.400;  158.125;    0.000
879.181; 3417.400;  155.125;    0.000
879.361; 3520.400;  181.125;    0.000
879.542; 3440.400;  181.125;    0.000
879.722; 3556.400;  117.125;    0.000
879.902; 3482.400;  180.125;    0.000
880.083; 3585.400;  139.125;    0.000
880.263; 3472.400;  168.125;    0.000
880.443; 3820.400;  206.125;    0.000
880.623; 4286.400;  132.125;    0.000
880.803; 4745.400;  149.125;    0.000
880.984; 4203.400;  189.125;    0.000
881.164; 4022.400;  171.125;    0.000
881.344; 3798.400;  150.125;    0.000
881.524; 3843.400;  185.125;    0.000
881.704; 3809.400;  152.125;    0.000
881.884; 3938.400;  188.125;    0.000
882.064; 4171.400;  155.125;    0.000
882.244; 4209.400;  182.125;    0.000
882.424; 4032.400;  154.125;    0.000
882.604; 3855.400;  175.125;    0.000
882.784; 3705.400;  137.125;    0.000
882.964; 3620.400;  135.125;    0.000
883.144; 3585.400;  142.125;    0.000
883.324; 3516.400;  192.125;    0.000
883.504; 3480.400;  193.125;    0.000
883.683; 3357.400;  208.125;    0.000
883.863; 3434.400;  127.125;    0.000
884.043; 3297.400;  140.125;    0.000
884.223; 3224.400;  167.125;    0.000
884.402; 3278.400;  156.125;    0.000
884.582; 3243.400;  185.125;    0.000
884.762; 3261.400;  187.125;    0.000
884.941; 3259.400;  201.125;    0.000
885.121; 3084.400;  157.125;    0.000
885.301; 3215.400;  173.125;    0.000
885.480; 3192.400;  158.125;    0.000
885.660; 3227.400;  153.125;    0.000
885.839; 3240.400;  144.125;    0.000
886.019; 3140.400;  184.125;    0.000
886.198; 3156.400;  132.125;    0.000
886.378; 3050.400;  124.125;    0.000
886.557; 3068.400;  146.125;    0.000
886.737; 3076.400;  157.125;    0.000
886.916; 3088.400;  203.125;    0.000
887.095; 3082.400;  151.125;    0.000
887.275; 3141.400;  143.125;    0.000
887.454; 3136.400;  140.125;    0.000
887.633; 3096.400;  196.125;    0.000
887.813; 3066.400;  161.125;    0.000
887.992; 3053.400;  183.125;    0.000
888.171; 3069.400;  153.125;    0.000
888.350; 3104.400;  185.125;    0.000
888.530; 3002.400;  163.125;    0.000
888.709; 2981.400;  174.125;    0.000
888.888; 3069.400;  179.125;    0.000
889.067; 3003.400;  178.125;    0.000
889.246; 3074.400;  184.125;    0.000
889.425; 3023.400;  169.125;    0.000
889.604; 3047.400;  210.125;    0.000
889.783; 2971.400;  183.125;    0.000
889.962; 2948.400;  116.125;    0.000
890.141; 2943.400;  179.125;    0.000
890.320; 2962.400;  182.125;    0.000
890.499; 3032.400;  188.125;    0.000
890.678; 2940.400;  167.125;    0.000
890.857; 3010.400;  141.125;    0.000
891.036; 2922.400;  179.125;    0.000
891.214; 2997.400;  156.125;    0.000
891.393; 2968.400;  209.125;    0.000
891.572; 3018.400;  181.125;    0.000
891.751; 2879.400;  172.125;    0.000
891.930; 2989.400;  169.125;    0.000
892.108; 2921.400;  131.125;    0.000
892.287; 2946.400;  162.125;    0.000
892.466; 2991.400;  178.125;    0.000
892.644; 2940.400;  161.125;    0.000
892.823; 2909.400;  180.125;    0.000
893.001; 2837.400;  179.125;    0.000
893.180; 2971.400;  152.125;    0.000
893.359; 2962.400;  184.125;    0.000
893.537; 2924.400;  178.125;    0.000
893.716; 2853.400;  169.125;    0.000
893.894; 2907.400;  159.125;    0.000
894.073; 2956.400;  179.125;    0.000
894.251; 2957.400;  167.125;    0.000
894.429; 2912.400;  142.125;    0.000
894.608; 2935.400;  166.125;    0.000
894.786; 2944.400;  153.125;    0.000
894.964; 2962.400;  181.125;    0.000
895.143; 2881.400;  161.125;    0.000
895.321; 2982.400;  198.125;    0.000
895.499; 2960.400;  184.125;    0.000
895.677; 2970.400;  178.125;    0.000
895.856; 3021.400;  226.125;    0.000
896.034; 2959.400;  180.125;    0.000
896.212; 3013.400;  200.125;    0.000
896.390; 2898.400;  161.125;    0.000
896.568; 2961.400;  204.125;    0.000
896.746; 2951.400;  136.125;    0.000
896.924; 3038.400;  171.125;    0.000
897.102; 2995.400;  203.125;    0.000
897.280; 2939.400;  142.125;    0.000
897.458; 2945.400;  159.125;    0.000
897.636; 2962.400;  163.125;    0.000
897.814; 3057.400;  137.125;    0.000
897.992; 2980.400;  199.125;    0.000
898.170; 3060.400;  176.125;    0.000
898.348; 3071.400;  195.125;    0.000
898.526; 2987.400;  199.125;    0.000
898.704; 3021.400;  260.125;    0.000
898.882; 3022.400;  185.125;    0.000
899.059; 3038.400;  169.125;    0.000
899.237; 3002.400;  197.125;    0.000
899.415; 3118.400;  207.125;    0.000
899.593; 3059.400;  169.125;    0.000
899.770; 3055.400;  182.125;    0.000
899.948; 3131.400;  198.125;    0.000
900.125; 3159.400;  200.125;    0.000
900.303; 3191.400;  165.125;    0.000
900.481; 3190.400;  182.125;    0.000
900.658; 3218.400;  206.125;    0.000
900.836; 3096.400;  188.125;    0.000
901.013; 3210.400;  169.125;    0.000
901.191; 3300.400;  172.125;    0.000
901.368; 3187.400;  170.125;    0.000
901.546; 3397.400;  234.125;    0.000
901.723; 3390.400;  173.125;    0.000
901.901; 3509.400;  190.125;    0.000
902.078; 3582.400;  145.125;    0.000
902.255; 3666.400;  204.125;    0.000
902.433; 3663.400;  198.125;    0.000
902.610; 3749.400;  190.125;    0.000
902.787; 3681.400;  204.125;    0.000
902.964; 3777.400;  208.125;    0.000
903.142; 3843.400;  187.125;    0.000
903.319; 4012.400;  216.125;    0.000
903.496; 3953.400;  186.125;    0.000
903.673; 4049.400;  201.125;    0.000
903.850; 4145.400;  195.125;    0.000
904.027; 4192.400;  211.125;    0.000
904.204; 4564.400;  197.125;    0.000
904.381; 5009.400;  198.125;    0.000
904.558; 5617.400;  188.125;    0.000
904.735; 6479.400;  207.125;    0.000
904.912; 6400.400;  217.125;    0.000
905.089; 6442.400;  188.125;    0.000
905.266; 5999.400;  160.125;    0.000
905.443; 5491.400;  221.125;    0.000
905.620; 5014.400;  163.125;    0.000
905.797; 4890.400;  186.125;    0.000
905.974; 4659.400;  205.125;    0.000
906.151; 4676.400;  159.125;    0.000
906.327; 4550.400;  206.125;    0.000
906.504; 4427.400;  201.125;    0.000
906.681; 4223.400;  202.125;    0.000
906.858; 4134.400;  188.125;    0.000
907.034; 4146.400;  207.125;    0.000
907.211; 3993.400;  182.125;    0.000
907.388; 3884.400;  184.125;    0.000
907.564; 3938.400;  148.125;    0.000
907.741; 3877.400;  181.125;    0.000
907.917; 3813.400;  191.125;    0.000
908.094; 3741.400;  210.125;    0.000
908.271; 3480.400;  171.125;    0.000
908.447; 3649.400;  241.125;    0.000
908.623; 3443.400;  188.125;    0.000
908.800; 3537.400;  205.125;    0.000
908.976; 3403.400;  210.125;    0.000
909.153; 3484.400;  193.125;    0.000
909.329; 3411.400;  206.125;    0.000
909.505; 3516.400;  181.125;    0.000
909.682; 3357.400;  192.125;    0.000
909.858; 3340.400;  134.125;    0.000
910.034; 3250.400;  214.125;    0.000
910.211; 3216.400;  182.125;    0.000
910.387; 3232.400;  194.125;    0.000
910.563; 3159.400;  199.125;    0.000
910.739; 3172.400;  188.125;    0.000
910.915; 3093.400;  192.125;    0.000
911.091; 3206.400;  198.125;    0.000
911.268; 3238.400;  178.125;    0.000
911.444; 3220.400;  201.125;    0.000
911.620; 3052.400;  181.125;    0.000
911.796; 3101.400;  185.125;    0.000
911.972; 3155.400;  176.125;    0.000
912.148; 3261.400;  196.125;    0.000
912.324; 3164.400;  192.125;    0.000
912.500; 3194.400;  204.125;    0.000
912.676; 3097.400;  164.125;    0.000
912.851; 3146.400;  193.125;    0.000
913.027; 3107.400;  175.125;    0.000
913.203; 3150.400;  193.125;    0.000
913.379; 3115.400;  213.125;    0.000
913.555; 3093.400;  211.125;    0.000
913.730; 3163.400;  194.125;    0.000
913.906; 3142.400;  153.125;    0.000
914.082; 3121.400;  212.125;    0.000
914.258; 3104.400;  194.125;    0.000
914.433; 3085.400;  191.125;    0.000
914.609; 3136.400;  208.125;    0.000
914.784; 3101.400;  176.125;    0.000
914.960; 3141.400;  227.125;    0.000
915.136; 3118.400;  152.125;    0.000
915.311; 3129.400;  171.125;    0.000
915.487; 3074.400;  173.125;    0.000
915.662; 3203.400;  189.125;    0.000
915.838; 3139.400;  179.125;    0.000
916.013; 3173.400;  191.125;    0.000
916.189; 3101.400;  207.125;    0.000
916.364; 3193.400;  194.125;    0.000
916.539; 3156.400;  174.125;    0.000
916.715; 3106.400;  207.125;    0.000
916.890; 2977.400;  193.125;    0.000
917.065; 3127.400;  199.125;    0.000
917.240; 3249.400;  214.125;    0.000
917.416; 3178.400;  194.125;    0.000
917.591; 3097.400;  213.125;    0.000
917.766; 3225.400;  194.125;    0.000
917.941; 3128.400;  201.125;    0.000
918.116; 3151.400;  198.125;    0.000
918.292; 3067.400;  176.125;    0.000
918.467; 3181.400;  190.125;    0.000
918.642; 3105.400;  200.125;    0.000
918.817; 3104.400;  186.125;    0.000
918.992; 3174.400;  174.125;    0.000
919.167; 3176.400;  197.125;    0.000
919.342; 3195.400;  188.125;    0.000
919.517; 3173.400;  179.125;    0.000
919.692; 3242.400;  182.125;    0.000
919.867; 3315.400;  216.125;    0.000
920.041; 3262.400;  208.125;    0.000
920.216; 3342.400;  223.125;    0.000
920.391; 3265.400;  203.125;    0.000
920.566; 3311.400;  202.125;    0.000
920.741; 3524.400;  197.125;    0.000
920.915; 3635.400;  223.125;    0.000
921.090; 3759.400;  183.125;    0.000
921.265; 4399.400;  169.125;    0.000
921.439; 4862.400;  212.125;    0.000
921.614; 4380.400;  190.125;    0.000
921.789; 4170.400;  177.125;    0.000
921.963; 3870.400;  233.125;    0.000
922.138; 3766.400;  156.125;    0.000
922.312; 3757.400;  193.125;    0.000
922.487; 3782.400;  208.125;    0.000
922.661; 3819.400;  212.125;    0.000
922.836; 4219.400;  210.125;    0.000
923.010; 4325.400;  183.125;    0.000
923.185; 3999.400;  228.125;    0.000
923.359; 3855.400;  227.125;    0.000
923.534; 3850.400;  189.125;    0.000
923.708; 4028.400;  210.125;    0.000
923.882; 4119.400;  217.125;    0.000
924.057; 3904.400;  195.125;    0.000
924.231; 3882.400;  201.125;    0.000
924.405; 3869.400;  188.125;    0.000
924.579; 3882.400;  188.125;    0.000
924.753; 3698.400;  174.125;    0.000
924.928; 3736.400;  179.125;    0.000
925.102; 3747.400;  186.125;    0.000
925.276; 3761.400;  201.125;    0.000
925.450; 3835.400;  211.125;    0.000
925.624; 3889.400;  238.125;    0.000
925.798; 4044.400;  191.125;    0.000
925.972; 4270.400;  192.125;    0.000
926.146; 4595.400;  198.125;    0.000
926.320; 4996.400;  151.125;    0.000
926.494; 5385.400;  202.125;    0.000
926.668; 5570.400;  197.125;    0.000
926.842; 5875.400;  177.125;    0.000
927.016; 5812.400;  202.125;    0.000
927.190; 5724.400;  207.125;    0.000
927.363; 5631.400;  180.125;    0.000
927.537; 5343.400;  212.125;    0.000
927.711; 5152.400;  148.125;    0.000
927.885; 4886.400;  196.125;    0.000
928.058; 4826.400;  173.125;    0.000
928.232; 4822.400;  219.125;    0.000
928.406; 4582.400;  141.125;    0.000
928.579; 4516.400;  157.125;    0.000
928.753; 4397.400;  205.125;    0.000
928.927; 4333.400;  196.125;    0.000
929.100; 4347.400;  237.125;    0.000
929.274; 4155.400;  166.125;    0.000
929.447; 4062.400;  150.125;    0.000
929.621; 4105.400;  188.125;    0.000
929.794; 3925.400;  169.125;    0.000
929.968; 3846.400;  194.125;    0.000
930.141; 3800.400;  226.125;    0.000
930.315; 3683.400;  196.125;    0.000
930.488; 3613.400;  233.125;    0.000
930.661; 3695.400;  188.125;    0.000
930.835; 3561.400;  170.125;    0.000
931.008; 3590.400;  176.125;    0.000
931.181; 3508.400;  175.125;    0.000
931.354; 3579.400;  212.125;    0.000
931.528; 3524.400;  177.125;    0.000
931.701; 3469.400;  218.125;    0.000
931.874; 3305.400;  175.125;    0.000
932.047; 3430.400;  157.125;    0.000
932.220; 3404.400;  187.125;    0.000
932.393; 3230.400;  166.125;    0.000
932.566; 3183.400;  168.125;    0.000
932.739; 3235.400;  203.125;    0.000
932.912; 3239.400;  202.125;    0.000
933.085; 3130.400;  209.125;    0.000
933.258; 3151.400;  196.125;    0.000
933.431; 3134.400;  207.125;    0.000
933.604; 3070.400;  201.125;    0.000
933.777; 3152.400;  202.125;    0.000
933.950; 3097.400;  184.125;    0.000
934.123; 3058.400;  167.125;    0.000
934.296; 3087.400;  209.125;    0.000
934.468; 2987.400;  216.125;    0.000
934.641; 3054.400;  156.125;    0.000
934.814; 3035.400;  215.125;    0.000
934.987; 2983.400;  201.125;    0.000
935.159; 3046.400;  176.125;    0.000
935.332; 3034.400;  203.125;    0.000
935.505; 2941.400;  163.125;    0.000
935.677; 2898.400;  169.125;    0.000
935.850; 3054.400;  178.125;    0.000
936.022; 2953.400;  187.125;    0.000
936.195; 2975.400;  207.125;    0.000
936.367; 3029.400;  191.125;    0.000
936.540; 3043.400;  214.125;    0.000
936.712; 2985.400;  202.125;    0.000
936.885; 3061.400;  195.125;    0.000
937.057; 2996.400;  173.125;    0.000
937.229; 3125.400;  179.125;    0.000
937.402; 3232.400;  174.125;    0.000
937.574; 3291.400;  140.125;    0.000
937.746; 3339.400;  153.125;    0.000
937.919; 3484.400;  196.125;    0.000
938.091; 3607.400;  173.125;    0.000
938.263; 3858.400;  206.125;    0.000
938.435; 4060.400;  213.125;    0.000
938.608; 4976.400;  204.125;    0.000
938.780; 5772.400;  199.125;    0.000
938.952; 5980.400;  190.125;    0.000
939.124; 6177.400;  182.125;    0.000
939.296; 6926.400;  188.125;    0.000
939.468; 7244.400;  119.125;    0.000
939.640; 6268.400;  171.125;    0.000
939.812; 5620.400;  222.125;    0.000
939.984; 5081.400;  172.125;    0.000
940.156; 4655.400;  171.125;    0.000
940.328; 4374.400;  215.125;    0.000
940.500; 4194.400;  179.125;    0.000
940.672; 4080.400;  178.125;    0.000
940.843; 3815.400;  193.125;    0.000
941.015; 3656.400;  207.125;    0.000
941.187; 3589.400;  179.125;    0.000
941.359; 3587.400;  191.125;    0.000
941.531; 3446.400;  160.125;    0.000
941.702; 3452.400;  208.125;    0.000
941.874; 3288.400;  143.125;    0.000
942.046; 3273.400;  189.125;    0.000
942.217; 3204.400;  167.125;    0.000
942.389; 3215.400;  199.125;    0.000
942.560; 3030.400;  179.125;    0.000
942.732; 2920.400;  209.125;    0.000
942.904; 2945.400;  180.125;    0.000
943.075; 2902.400;  197.125;    0.000
943.247; 2760.400;  207.125;    0.000
943.418; 2821.400;  183.125;    0.000
943.589; 2854.400;  176.125;    0.000
943.761; 2845.400;  165.125;    0.000
943.932; 2759.400;  170.125;    0.000
944.104; 2798.400;  147.125;    0.000
944.275; 2671.400;  149.125;    0.000
944.446; 2615.400;  191.125;    0.000
944.617; 2689.400;  128.125;    0.000
944.789; 2682.400;  166.125;    0.000
944.960; 2625.400;  195.125;    0.000
945.131; 2488.400;  164.125;    0.000
945.302; 2606.400;  229.125;    0.000
945.473; 2581.400;  153.125;    0.000
945.645; 2603.400;  166.125;    0.000
945.816; 2687.400;  187.125;    0.000
945.987; 2756.400;  193.125;    0.000
946.158; 2887.400;  166.125;    0.000
946.329; 2855.400;  196.125;    0.000
946.500; 2708.400;  152.125;    0.000
946.671; 2666.400;  161.125;    0.000
946.842; 2572.400;  176.125;    0.000
947.013; 2580.400;  188.125;    0.000
947.183; 2548.400;  213.125;    0.000
947.354; 2552.400;  163.125;    0.000
947.525; 2469.400;  204.125;    0.000
947.696; 2446.400;  159.125;    0.000
947.867; 2508.400;  197.125;    0.000
948.037; 2518.400;  174.125;    0.000
948.208; 2544.400;  163.125;    0.000
948.379; 2591.400;  189.125;    0.000
948.550; 2545.400;  173.125;    0.000
948.720; 2570.400;  186.125;    0.000
948.891; 2473.400;  166.125;    0.000
949.061; 2440.400;  197.125;    0.000
949.232; 2364.400;  168.125;    0.000
949.403; 2415.400;  188.125;    0.000
949.573; 2477.400;  164.125;    0.000
949.744; 2449.400;  194.125;    0.000
949.914; 2420.400;  154.125;    0.000
950.085; 2428.400;  197.125;    0.000
950.255; 2436.400;  187.125;    0.000
950.425; 2437.400;  193.125;    0.000
950.596; 2443.400;  182.125;    0.000
950.766; 2456.400;  202.125;    0.000
950.936; 2434.400;  230.125;    0.000
951.107; 2328.400;  133.125;    0.000
951.277; 2369.400;  234.125;    0.000
951.447; 2362.400;  200.125;    0.000
951.617; 2292.400;  212.125;    0.000
951.788; 2287.400;  176.125;    0.000
951.958; 2298.400;  218.125;    0.000
952.128; 2255.400;  198.125;    0.000
952.298; 2315.400;  185.125;    0.000
952.468; 2378.400;  231.125;    0.000
952.638; 2234.400;  213.125;    0.000
952.808; 2221.400;  218.125;    0.000
952.978; 2290.400;  252.125;    0.000
953.148; 2278.400;  200.125;    0.000
953.318; 2365.400;  243.125;    0.000
953.488; 2205.400;  140.125;    0.000
953.658; 2191.400;  208.125;    0.000
953.828; 2209.400;  179.125;    0.000
953.998; 2197.400;  211.125;    0.000
954.167; 2229.400;  197.125;    0.000
954.337; 2151.400;  217.125;    0.000
954.507; 2136.400;  219.125;    0.000
954.677; 2143.400;  201.125;    0.000
954.846; 2235.400;  241.125;    0.000
955.016; 2201.400;  222.125;    0.000
955.186; 2176.400;  200.125;    0.000
955.355; 2156.400;  247.125;    0.000
955.525; 2086.400;  212.125;    0.000
955.695; 2156.400;  200.125;    0.000
955.864; 2107.400;  196.125;    0.000
956.034; 2084.400;  195.125;    0.000
956.203; 2192.400;  243.125;    0.000
956.373; 2073.400;  197.125;    0.000
956.542; 2098.400;  237.125;    0.000
956.711; 2100.400;  249.125;    0.000
956.881; 2164.400;  235.125;    0.000
957.050; 2168.400;  259.125;    0.000
957.220; 2107.400;  234.125;    0.000
957.389; 2097.400;  250.125;    0.000
957.558; 1956.400;  214.125;    0.000
957.727; 2076.400;  225.125;    0.000
957.897; 1998.400;  211.125;    0.000
958.066; 1998.400;  200.125;    0.000
958.235; 2041.400;  202.125;    0.000
958.404; 2022.400;  242.125;    0.000
958.573; 2044.400;  222.125;    0.000
958.743; 1989.400;  191.125;    0.000
958.912; 1975.400;  183.125;    0.000
959.081; 1967.400;  212.125;    0.000
959.250; 1895.400;  192.125;    0.000
959.419; 2048.400;  238.125;    0.000
959.588; 2031.400;  205.125;    0.000
959.757; 1966.400;  213.125;    0.000
959.926; 2012.400;  217.125;    0.000
960.094; 1998.400;  215.125;    0.000
960.263; 1922.400;  220.125;    0.000
960.432; 1944.400;  164.125;    0.000
960.601; 1909.400;  228.125;    0.000
960.770; 1990.400;  176.125;    0.000
960.939; 1947.400;  201.125;    0.000
961.107; 1881.400;  183.125;    0.000
961.276; 1868.400;  199.125;    0.000
961.445; 1899.400;  205.125;    0.000
961.613; 1923.400;  183.125;    0.000
961.782; 1954.400;  216.125;    0.000
961.951; 1869.400;  169.125;    0.000
962.119; 1924.400;  211.125;    0.000
962.288; 1858.400;  204.125;    0.000
962.456; 1900.400;  187.125;    0.000
962.625; 1949.400;  223.125;    0.000
962.793; 1907.400;  200.125;    0.000
962.962; 1962.400;  185.125;    0.000
963.130; 1919.400;  195.125;    0.000
963.298; 1920.400;  187.125;    0.000
963.467; 1869.400;  247.125;    0.000
963.635; 1936.400;  165.125;    0.000
963.803; 1949.400;  192.125;    0.000
963.972; 1972.400;  191.125;    0.000
964.140; 1872.400;  163.125;    0.000
964.308; 1891.400;  161.125;    0.000
964.477; 1848.400;  182.125;    0.000
964.645; 1903.400;  195.125;    0.000
964.813; 1876.400;  165.125;    0.000
964.981; 1878.400;  193.125;    0.000
965.149; 1944.400;  174.125;    0.000
965.317; 1918.400;  194.125;    0.000
965.485; 1914.400;  209.125;    0.000
965.653; 1842.400;  210.125;    0.000
965.821; 1815.400;  194.125;    0.000
965.989; 1884.400;  182.125;    0.000
966.157; 1893.400;  180.125;    0.000
966.325; 1865.400;  198.125;    0.000
966.493; 1913.400;  182.125;    0.000
966.661; 1870.400;  200.125;    0.000
966.829; 1870.400;  190.125;    0.000
966.996; 1883.400;  221.125;    0.000
967.164; 1767.400;  176.125;    0.000
967.332; 1919.400;  228.125;    0.000
967.500; 1861.400;  177.125;    0.000
967.667; 1853.400;  202.125;    0.000
967.835; 1852.400;  220.125;    0.000
968.003; 1774.400;  183.125;    0.000
968.170; 1896.400;  163.125;    0.000
968.338; 1887.400;  162.125;    0.000
968.505; 1919.400;  198.125;    0.000
968.673; 1850.400;  213.125;    0.000
968.841; 1875.400;  131.125;    0.000
969.008; 1854.400;  225.125;    0.000
969.175; 1840.400;  202.125;    0.000
969.343; 1854.400;  222.125;    0.000
969.510; 1841.400;  230.125;    0.000
969.678; 1890.400;  161.125;    0.000
969.845; 1823.400;  208.125;    0.000
970.012; 1738.400;  186.125;    0.000
970.180; 1889.400;  226.125;    0.000
970.347; 1831.400;  222.125;    0.000
970.514; 1771.400;  206.125;    0.000
970.681; 1818.400;  173.125;    0.000
970.849; 1765.400;  190.125;    0.000
971.016; 1825.400;  220.125;    0.000
971.183; 1822.400;  202.125;    0.000
971.350; 1830.400;  196.125;    0.000
971.517; 1839.400;  218.125;    0.000
971.684; 1827.400;  228.125;    0.000
971.851; 1813.400;  235.125;    0.000
972.018; 1779.400;  200.125;    0.000
972.185; 1801.400;  183.125;    0.000
972.352; 1822.400;  216.125;    0.000
972.519; 1864.400;  227.125;    0.000
972.686; 1773.400;  209.125;    0.000
972.853; 1742.400;  157.125;    0.000
973.020; 1769.400;  179.125;    0.000
973.186; 1799.400;  173.125;    0.000
973.353; 1782.400;  189.125;    0.000
973.520; 1805.400;  228.125;    0.000
973.687; 1807.400;  190.125;    0.000
973.853; 1831.400;  197.125;    0.000
974.020; 1788.400;  208.125;    0.000
974.187; 1785.400;  158.125;    0.000
974.353; 1803.400;  201.125;    0.000
974.520; 1758.400;  158.125;    0.000
974.687; 1770.400;  192.125;    0.000
974.853; 1808.400;  177.125;    0.000
975.020; 1755.400;  212.125;    0.000
975.186; 1718.400;  200.125;    0.000
975.353; 1761.400;  208.125;    0.000
975.519; 1787.400;  169.125;    0.000
975.685; 1752.400;  176.125;    0.000
975.852; 1754.400;  201.125;    0.000
976.018; 1695.400;  209.125;    0.000
976.184; 1711.400;  197.125;    0.000
976.351; 1808.400;  196.125;    0.000
976.517; 1792.400;  243.125;    0.000
976.683; 1801.400;  210.125;    0.000
976.849; 1818.400;  226.125;    0.000
977.016; 1740.400;  218.125;    0.000
977.182; 1768.400;  213.125;    0.000
977.348; 1732.400;  205.125;    0.000
977.514; 1729.400;  210.125;    0.000
977.680; 1725.400;  226.125;    0.000
977.846; 1746.400;  206.125;    0.000
978.012; 1716.400;  222.125;    0.000
978.178; 1706.400;  216.125;    0.000
978.344; 1775.400;  172.125;    0.000
978.510; 1751.400;  210.125;    0.000
978.676; 1681.400;  184.125;    0.000
978.842; 1752.400;  190.125;    0.000
979.008; 1729.400;  203.125;    0.000
979.174; 1740.400;  211.125;    0.000
979.340; 1774.400;  190.125;    0.000
979.505; 1771.400;  235.125;    0.000
979.671; 1776.400;  182.125;    0.000
979.837; 1743.400;  235.125;    0.000
980.003; 1726.400;  183.125;    0.000
980.168; 1771.400;  220.125;    0.000
980.334; 1762.400;  161.125;    0.000
980.499; 1826.400;  212.125;    0.000
980.665; 1760.400;  219.125;    0.000
980.831; 1769.400;  201.125;    0.000
980.996; 1690.400;  189.125;    0.000
981.162; 1817.400;  222.125;    0.000
981.327; 1753.400;  173.125;    0.000
981.493; 1766.400;  197.125;    0.000
981.658; 1729.400;  178.125;    0.000
981.823; 1751.400;  196.125;    0.000
981.989; 1797.400;  248.125;    0.000
982.154; 1755.400;  222.125;    0.000
982.319; 1823.400;  226.125;    0.000
982.485; 1751.400;  188.125;    0.000
982.650; 1770.400;  203.125;    0.000
982.815; 1857.400;  237.125;    0.000
982.980; 1730.400;  210.125;    0.000
983.146; 1866.400;  202.125;    0.000
983.311; 1788.400;  195.125;    0.000
983.476; 1753.400;  207.125;    0.000
983.641; 1661.400;  198.125;    0.000
983.806; 1743.400;  136.125;    0.000
983.971; 1873.400;  248.125;    0.000
984.136; 1740.400;  213.125;    0.000
984.301; 1787.400;  181.125;    0.000
984.466; 1771.400;  210.125;    0.000
984.631; 1816.400;  219.125;    0.000
984.796; 1737.400;  207.125;    0.000
984.961; 1812.400;  214.125;    0.000
985.126; 1720.400;  218.125;    0.000
985.291; 1760.400;  214.125;    0.000
985.455; 1766.400;  187.125;    0.000
985.620; 1707.400;  191.125;    0.000
985.785; 1682.400;  190.125;    0.000
985.950; 1692.400;  184.125;    0.000
986.114; 1754.400;  242.125;    0.000
986.279; 1777.400;  251.125;    0.000
986.444; 1702.400;  177.125;    0.000
986.608; 1833.400;  216.125;    0.000
986.773; 1800.400;  211.125;    0.000
986.937; 1837.400;  244.125;    0.000
987.102; 1799.400;  187.125;    0.000
987.266; 1783.400;  178.125;    0.000
987.431; 1887.400;  205.125;    0.000
987.595; 1784.400;  221.125;    0.000
987.760; 1777.400;  205.125;    0.000
987.924; 1788.400;  195.125;    0.000
988.088; 1754.400;  184.125;    0.000
988.253; 1736.400;  188.125;    0.000
988.417; 1694.400;  196.125;    0.000
988.581; 1735.400;  218.125;    0.000
988.746; 1768.400;  203.125;    0.000
988.910; 1737.400;  195.125;    0.000
989.074; 1714.400;  187.125;    0.000
989.238; 1751.400;  243.125;    0.000
989.402; 1702.400;  242.125;    0.000
989.566; 1714.400;  205.125;    0.000
989.731; 1689.400;  195.125;    0.000
989.895; 1683.400;  211.125;    0.000
990.059; 1610.400;  175.125;    0.000
990.223; 1663.400;  176.125;    0.000
990.387; 1733.400;  234.125;    0.000
990.551; 1683.400;  231.125;    0.000
990.714; 1662.400;  209.125;    0.000
990.878; 1711.400;  187.125;    0.000
991.042; 1726.400;  183.125;    0.000
991.206; 1711.400;  216.125;    0.000
991.370; 1654.400;  257.125;    0.000
991.534; 1607.400;  188.125;    0.000
991.697; 1670.400;  203.125;    0.000
991.861; 1609.400;  219.125;    0.000
992.025; 1594.400;  221.125;    0.000
992.188; 1617.400;  188.125;    0.000
992.352; 1600.400;  205.125;    0.000
992.516; 1615.400;  189.125;    0.000
992.679; 1669.400;  207.125;    0.000
992.843; 1607.400;  210.125;    0.000
993.006; 1703.400;  191.125;    0.000
993.170; 1644.400;  228.125;    0.000
993.333; 1626.400;  142.125;    0.000
993.497; 1625.400;  175.125;    0.000
993.660; 1608.400;  220.125;    0.000
993.824; 1606.400;  193.125;    0.000
993.987; 1682.400;  219.125;    0.000
994.150; 1549.400;  166.125;    0.000
994.314; 1621.400;  207.125;    0.000
994.477; 1582.400;  227.125;    0.000
994.640; 1609.400;  210.125;    0.000
994.803; 1629.400;  219.125;    0.000
994.967; 1577.400;  192.125;    0.000
995.130; 1661.400;  197.125;    0.000
995.293; 1557.400;  189.125;    0.000
995.456; 1623.400;  180.125;    0.000
995.619; 1613.400;  239.125;    0.000
995.782; 1595.400;  209.125;    0.000
995.945; 1593.400;  216.125;    0.000
996.108; 1609.400;  198.125;    0.000
996.271; 1588.400;  205.125;    0.000
996.434; 1571.400;  205.125;    0.000
996.597; 1524.400;  208.125;    0.000
996.760; 1585.400;  205.125;    0.000
996.923; 1453.400;  174.125;    0.000
997.086; 1586.400;  198.125;    0.000
997.248; 1608.400;  214.125;    0.000
997.411; 1480.400;  237.125;    0.000
997.574; 1615.400;  182.125;    0.000
997.737; 1533.400;  188.125;    0.000
997.899; 1571.400;  216.125;    0.000
998.062; 1532.400;  210.125;    0.000
998.225; 1584.400;  202.125;    0.000
998.387; 1528.400;  202.125;    0.000
998.550; 1495.400;  193.125;    0.000
998.712; 1516.400;  225.125;    0.000
998.875; 1544.400;  228.125;    0.000
999.037; 1482.400;  186.125;    0.000
999.200; 1612.400;  212.125;    0.000
999.362; 1610.400;  234.125;    0.000
999.525; 1466.400;  170.125;    0.000
999.687; 1492.400;  191.125;    0.000
999.849; 1587.400;  218.125;    0.000
1000.012; 1522.400;  187.125;    0.000
1000.174; 1609.400;  216.125;    0.000
1000.336; 1521.400;  194.125;    0.000
1000.499; 1538.400;  209.125;    0.000
1000.661; 1602.400;  208.125;    0.000
1000.823; 1513.400;  197.125;    0.000
1000.985; 1545.400;  201.125;    0.000
1001.147; 1609.400;  234.125;    0.000
1001.309; 1573.400;  180.125;    0.000
1001.471; 1599.400;  223.125;    0.000
1001.633; 1555.400;  198.125;    0.000
1001.796; 1525.400;  200.125;    0.000
1001.958; 1671.400;  204.125;    0.000
1002.119; 1651.400;  193.125;    0.000
1002.281; 1628.400;  205.125;    0.000
1002.443; 1776.400;  236.125;    0.000
1002.605; 1721.400;  197.125;    0.000
1002.767; 1796.400;  223.125;    0.000
1002.929; 1878.400;  220.125;    0.000
1003.091; 1916.400;  214.125;    0.000
1003.252; 2016.400;  233.125;    0.000
1003.414; 2065.400;  230.125;    0.000
1003.576; 2120.400;  203.125;    0.000
1003.738; 2213.400;  201.125;    0.000
1003.899; 2238.400;  222.125;    0.000
1004.061; 2324.400;  208.125;    0.000
1004.222; 2351.400;  194.125;    0.000
1004.384; 2488.400;  205.125;    0.000
1004.546; 2455.400;  162.125;    0.000
1004.707; 2503.400;  232.125;    0.000
1004.869; 2568.400;  223.125;    0.000
1005.030; 2454.400;  204.125;    0.000
1005.191; 2438.400;  214.125;    0.000
1005.353; 2424.400;  226.125;    0.000
1005.514; 2340.400;  201.125;    0.000
1005.675; 2332.400;  205.125;    0.000
1005.837; 2217.400;  235.125;    0.000
1005.998; 2155.400;  210.125;    0.000
1006.159; 2130.400;  214.125;    0.000
1006.321; 2220.400;  236.125;    0.000
1006.482; 2254.400;  214.125;    0.000
1006.643; 2377.400;  213.125;    0.000
1006.804; 2312.400;  204.125;    0.000
1006.965; 2459.400;  212.125;    0.000
1007.126; 2468.400;  251.125;    0.000
1007.287; 2513.400;  238.125;    0.000
1007.448; 2399.400;  198.125;    0.000
1007.609; 2452.400;  241.125;    0.000
1007.770; 2294.400;  213.125;    0.000
1007.931; 2282.400;  225.125;    0.000
1008.092; 2379.400;  204.125;    0.000
1008.253; 2504.400;  220.125;    0.000
1008.414; 2440.400;  180.125;    0.000
1008.575; 2589.400;  224.125;    0.000
1008.736; 2497.400;  164.125;    0.000
1008.896; 2536.400;  247.125;    0.000
1009.057; 2530.400;  263.125;    0.000
1009.218; 2474.400;  233.125;    0.000
1009.379; 2549.400;  207.125;    0.000
1009.539; 2575.400;  221.125;    0.000
1009.700; 2546.400;  209.125;    0.000
1009.860; 2693.400;  217.125;    0.000
1010.021; 2613.400;  182.125;    0.000
1010.182; 2663.400;  233.125;    0.000
1010.342; 2712.400;  210.125;    0.000
1010.503; 2713.400;  232.125;    0.000
1010.663; 2925.400;  228.125;    0.000
1010.823; 2985.400;  212.125;    0.000
1010.984; 2984.400;  244.125;    0.000
1011.144; 3172.400;  200.125;    0.000
1011.305; 3271.400;  237.125;    0.000
1011.465; 3365.400;  225.125;    0.000
1011.625; 3511.400;  215.125;    0.000
1011.785; 3510.400;  235.125;    0.000
1011.946; 3406.400;  231.125;    0.000
1012.106; 3438.400;  206.125;    0.000
1012.266; 3397.400;  218.125;    0.000
1012.426; 3320.400;  249.125;    0.000
1012.586; 3311.400;  217.125;    0.000
1012.746; 3219.400;  231.125;    0.000
1012.906; 3177.400;  230.125;    0.000
1013.066; 3145.400;  260.125;    0.000
1013.226; 3236.400;  206.125;    0.000
1013.386; 3168.400;  220.125;    0.000
1013.546; 3066.400;  233.125;    0.000
1013.706; 3025.400;  194.125;    0.000
1013.866; 3105.400;  209.125;    0.000
1014.026; 3116.400;  204.125;    0.000
1014.186; 3038.400;  203.125;    0.000
1014.346; 3025.400;  244.125;    0.000
1014.505; 3073.400;  206.125;    0.000
1014.665; 3189.400;  210.125;    0.000
1014.825; 3066.400;  235.125;    0.000
1014.985; 3005.400;  227.125;    0.000
1015.144; 3107.400;  237.125;    0.000
1015.304; 3233.400;  196.125;    0.000
1015.464; 3127.400;  228.125;    0.000
1015.623; 3013.400;  235.125;    0.000
1015.783; 3315.400;  187.125;    0.000
1015.942; 3482.400;  184.125;    0.000
1016.102; 3405.400;  245.125;    0.000
1016.261; 3382.400;  203.125;    0.000
1016.420; 3601.400;  209.125;    0.000
1016.580; 3918.400;  235.125;    0.000
1016.739; 3847.400;  175.125;    0.000
1016.899; 3733.400;  220.125;    0.000
1017.058; 3807.400;  219.125;    0.000
1017.217; 3977.400;  238.125;    0.000
1017.376; 3821.400;  235.125;    0.000
1017.536; 3462.400;  195.125;    0.000
1017.695; 3403.400;  215.125;    0.000
1017.854; 3612.400;  231.125;    0.000
1018.013; 3477.400;  184.125;    0.000
1018.172; 3299.400;  179.125;    0.000
1018.331; 3327.400;  205.125;    0.000
1018.490; 3596.400;  203.125;    0.000
1018.649; 3782.400;  261.125;    0.000
1018.808; 3811.400;  253.125;    0.000
1018.967; 3746.400;  201.125;    0.000
1019.126; 3742.400;  216.125;    0.000
1019.285; 3778.400;  169.125;    0.000
1019.444; 3849.400;  226.125;    0.000
1019.603; 3608.400;  252.125;    0.000
1019.762; 3465.400;  206.125;    0.000
1019.921; 3619.400;  235.125;    0.000
1020.079; 3723.400;  192.125;    0.000
1020.238; 3845.400;  226.125;    0.000
1020.397; 3728.400;  231.125;    0.000
1020.555; 3461.400;  218.125;    0.000
1020.714; 3638.400;  235.125;    0.000
1020.873; 4004.400;  229.125;    0.000
1021.031; 3865.400;  234.125;    0.000
1021.190; 3682.400;  223.125;    0.000
1021.348; 3585.400;  186.125;    0.000
1021.507; 3887.400;  201.125;    0.000
1021.665; 4244.400;  222.125;    0.000
1021.824; 3859.400;  208.125;    0.000
1021.982; 3557.400;  209.125;    0.000
1022.141; 3697.400;  224.125;    0.000
1022.299; 4192.400;  214.125;    0.000
1022.457; 4442.400;  176.125;    0.000
1022.616; 3908.400;  211.125;    0.000
1022.774; 3513.400;  218.125;    0.000
1022.932; 3835.400;  205.125;    0.000
1023.090; 4338.400;  246.125;    0.000
1023.249; 4239.400;  249.125;    0.000
1023.407; 3958.400;  235.125;    0.000
1023.565; 3455.400;  202.125;    0.000
1023.723; 3792.400;  210.125;    0.000
1023.881; 4379.400;  206.125;    0.000
1024.039; 4254.400;  240.125;    0.000
1024.197; 3811.400;  275.125;    0.000
1024.355; 3664.400;  228.125;    0.000
1024.513; 3900.400;  234.125;    0.000
1024.671; 4324.400;  222.125;    0.000
1024.829; 4349.400;  241.125;    0.000
1024.987; 4014.400;  209.125;    0.000
1025.145; 3762.400;  227.125;    0.000
1025.302; 3818.400;  208.125;    0.000
1025.460; 4330.400;  210.125;    0.000
1025.618; 4361.400;  192.125;    0.000
1025.776; 4155.400;  220.125;    0.000
1025.933; 3767.400;  223.125;    0.000
1026.091; 3857.400;  189.125;    0.000
1026.249; 4293.400;  210.125;    0.000
1026.406; 4561.400;  231.125;    0.000
1026.564; 4238.400;  247.125;    0.000
1026.721; 4026.400;  213.125;    0.000
1026.879; 3865.400;  208.125;    0.000
1027.036; 4229.400;  222.125;    0.000
1027.194; 4515.400;  253.125;    0.000
1027.351; 4657.400;  239.125;    0.000
1027.509; 4145.400;  232.125;    0.000
1027.666; 3903.400;  251.125;    0.000
1027.823; 4211.400;  212.125;    0.000
1027.981; 4530.400;  260.125;    0.000
1028.138; 4683.400;  263.125;    0.000
1028.295; 4389.400;  251.125;    0.000
1028.452; 4050.400;  249.125;    0.000
1028.609; 4126.400;  259.125;    0.000
1028.767; 4563.400;  255.125;    0.000
1028.924; 4556.400;  201.125;    0.000
1029.081; 4679.400;  217.125;    0.000
1029.238; 4405.400;  230.125;    0.000
1029.395; 4241.400;  263.125;    0.000
1029.552; 4404.400;  207.125;    0.000
1029.709; 4794.400;  220.125;    0.000
1029.866; 4606.400;  214.125;    0.000
1030.023; 4599.400;  224.125;    0.000
1030.180; 4243.400;  209.125;    0.000
1030.337; 4296.400;  269.125;    0.000
1030.494; 4431.400;  207.125;    0.000
1030.650; 4653.400;  230.125;    0.000
1030.807; 5072.400;  217.125;    0.000
1030.964; 4568.400;  212.125;    0.000
1031.121; 4384.400;  220.125;    0.000
1031.277; 4206.400;  233.125;    0.000
1031.434; 4515.400;  266.125;    0.000
1031.591; 4912.400;  270.125;    0.000
1031.747; 4926.400;  229.125;    0.000
1031.904; 4876.400;  227.125;    0.000
1032.060; 4525.400;  210.125;    0.000
1032.217; 4414.400;  218.125;    0.000
1032.373; 4934.400;  190.125;    0.000
1032.530; 5001.400;  236.125;    0.000
1032.686; 5594.400;  199.125;    0.000
1032.843; 5449.400;  216.125;    0.000
1032.999; 5099.400;  204.125;    0.000
1033.155; 5275.400;  208.125;    0.000
1033.312; 5207.400;  231.125;    0.000
1033.468; 6207.400;  213.125;    0.000
1033.624; 6553.400;  235.125;    0.000
1033.780; 6926.400;  233.125;    0.000
1033.937; 6616.400;  201.125;    0.000
1034.093; 6198.400;  233.125;    0.000
1034.249; 6256.400;  214.125;    0.000
1034.405; 6315.400;  245.125;    0.000
1034.561; 6857.400;  228.125;    0.000
1034.717; 7254.400;  234.125;    0.000
1034.873; 7139.400;  248.125;    0.000
1035.029; 7084.400;  220.125;    0.000
1035.185; 6784.400;  294.125;    0.000
1035.341; 6427.400;  231.125;    0.000
1035.497; 7249.400;  254.125;    0.000
1035.653; 7292.400;  225.125;    0.000
1035.809; 8142.400;  243.125;    0.000
1035.964; 8968.400;  216.125;    0.000
1036.120; 8248.400;  199.125;    0.000
1036.276; 8207.400;  220.125;    0.000
1036.432; 7798.400;  210.125;    0.000
1036.587; 7205.400;  225.125;    0.000
1036.743; 7858.400;  245.125;    0.000
1036.899; 8660.400;  219.125;    0.000
1037.054; 8650.400;  157.125;    0.000
1037.210; 9869.400;  208.125;    0.000
1037.365; 9947.400;  230.125;    0.000
1037.521; 9079.400;  236.125;    0.000
1037.676; 9022.400;  193.125;    0.000
1037.832; 8459.400;  246.125;    0.000
1037.987; 8303.400;  231.125;    0.000
1038.143; 8554.400;  234.125;    0.000
1038.298; 9532.400;  219.125;    0.000
1038.453; 9761.400;  230.125;    0.000
1038.609;10746.400;  254.125;    0.000
1038.764;11008.400;  249.125;    0.000
1038.919;10081.400;  224.125;    0.000
1039.074; 9932.400;  209.125;    0.000
1039.229; 9129.400;  214.125;    0.000
1039.385; 8925.400;  268.125;    0.000
1039.540; 9408.400;  268.125;    0.000
1039.695;10081.400;  229.125;    0.000
1039.850;11138.400;  252.125;    0.000
1040.005;11705.400;  248.125;    0.000
1040.160;12157.400;  215.125;    0.000
1040.315;12090.400;  239.125;    0.000
1040.470;11687.400;  210.125;    0.000
1040.625;10815.400;  239.125;    0.000
1040.780;10559.400;  251.125;    0.000
1040.935;10505.400;  247.125;    0.000
1041.089;10999.400;  215.125;    0.000
1041.244;12280.400;  210.125;    0.000
1041.399;12800.400;  237.125;    0.000
1041.554;13904.400;  253.125;    0.000
1041.708;14935.400;  227.125;    0.000
1041.863;14654.400;  219.125;    0.000
1042.018;14256.400;  246.125;    0.000
1042.172;13644.400;  236.125;    0.000
1042.327;12988.400;  272.125;    0.000
1042.481;12998.400;  197.125;    0.000
1042.636;13441.400;  213.125;    0.000
1042.791;13860.400;  250.125;    0.000
1042.945;16228.400;  267.125;    0.000
1043.099;17796.400;  257.125;    0.000
1043.254;17415.400;  206.125;    0.000
1043.408;18201.400;  266.125;    0.000
1043.563;18740.400;  232.125;    0.000
1043.717;18344.400;  241.125;    0.000
1043.871;16862.400;  248.125;    0.000
1044.025;16618.400;  234.125;    0.000
1044.180;16305.400;  222.125;    0.000
1044.334;16414.400;  235.125;    0.000
1044.488;17244.400;  270.125;    0.000
1044.642;17607.400;  215.125;    0.000
1044.796;19557.400;  212.125;    0.000
1044.950;21879.400;  228.125;    0.000
1045.104;23571.400;  223.125;    0.000
1045.258;23774.400;  236.125;    0.000
1045.412;22916.400;  225.125;    0.000
1045.566;22831.400;  245.125;    0.000
1045.720;22338.400;  201.125;    0.000
1045.874;20406.400;  229.125;    0.000
1046.028;19425.400;  243.125;    0.000
1046.182;19384.400;  212.125;    0.000
1046.336;20006.400;  256.125;    0.000
1046.489;20241.400;  234.125;    0.000
1046.643;20759.400;  246.125;    0.000
1046.797;23381.400;  219.125;    0.000
1046.951;23620.400;  231.125;    0.000
1047.104;24199.400;  285.125;    0.000
1047.258;25819.400;  256.125;    0.000
1047.411;26814.400;  232.125;    0.000
1047.565;25989.400;  269.125;    0.000
1047.719;25228.400;  213.125;    0.000
1047.872;24526.400;  210.125;    0.000
1048.026;23798.400;  251.125;    0.000
1048.179;23883.400;  213.125;    0.000
1048.332;24079.400;  212.125;    0.000
1048.486;23412.400;  218.125;    0.000
1048.639;23607.400;  218.125;    0.000
1048.792;23147.400;  247.125;    0.000
1048.946;26440.400;  208.125;    0.000
1049.099;29160.400;  247.125;    0.000
1049.252;28834.400;  274.125;    0.000
1049.406;26534.400;  232.125;    0.000
1049.559;26486.400;  251.125;    0.000
1049.712;30504.400;  243.125;    0.000
1049.865;34028.398;  219.125;    0.000
1050.018;32151.400;  216.125;    0.000
1050.171;28435.400;  237.125;    0.000
1050.324;27869.400;  291.125;    0.000
1050.477;28684.400;  241.125;    0.000
1050.630;31446.400;  245.125;    0.000
1050.783;32958.398;  213.125;    0.000
1050.936;30234.400;  246.125;    0.000
1051.089;29255.400;  255.125;    0.000
1051.242;30564.400;  228.125;    0.000
1051.394;33435.398;  276.125;    0.000
1051.547;34711.398;  246.125;    0.000
1051.700;32909.398;  252.125;    0.000
1051.853;30994.400;  267.125;    0.000
1052.005;32224.400;  261.125;    0.000
1052.158;36928.398;  313.125;    0.000
1052.311;40176.398;  264.125;    0.000
1052.463;39047.398;  271.125;    0.000
1052.616;34593.398;  291.125;    0.000
1052.768;30602.400;  298.125;    0.000
1052.921;29714.400;  262.125;    0.000
1053.073;32162.400;  307.125;    0.000
1053.226;36494.398;  301.125;    0.000
1053.378;42741.398;  309.125;    0.000
1053.531;45527.398;  280.125;    0.000
1053.683;42737.398;  258.125;    0.000
1053.835;35875.398;  267.125;    0.000
1053.988;28029.400;  294.125;    0.000
1054.140; 4995.400;  292.125;    0.000
1054.292; 1274.400;  249.125;    0.000
1054.444; 1005.400;  288.125;    0.000
1054.596;  990.400;  275.125;    0.000
1054.749;  857.400;  284.125;    0.000
1054.901;  784.400;  291.125;    0.000
1055.053;  785.400;  274.125;    0.000
1055.205;  729.400;  313.125;    0.000
1055.357;  655.400;  309.125;    0.000
1055.509;  653.400;  283.125;    0.000
1055.661;  698.400;  341.125;    0.000
1055.813;  627.400;  288.125;    0.000
1055.965;  629.400;  300.125;    0.000
1056.116;  626.400;  296.125;    0.000
1056.268;  613.400;  319.125;    0.000
1056.420;  615.400;  298.125;    0.000

