
Integration time [ms]:   1.000
Averaging Nr. [scans]: 1
Smoothing Nr. [pixels]: 0
Data measured with spectrometer [name]: VIS
Wave   ;Sample   ;Dark     ;Reference
[nm]   ;[counts] ;[counts] ;[counts] 

450.961;  201.950;  200.375;    0.000
451.100;  225.950;  241.375;    0.000
451.239;  195.950;  201.375;    0.000
451.377;  256.950;  262.375;    0.000
451.516;  201.950;  229.375;    0.000
451.655;  238.950;  211.375;    0.000
451.794;  212.950;  225.375;    0.000
451.932;  247.950;  247.375;    0.000
452.071;  220.950;  260.375;    0.000
452.210;  204.950;  235.375;    0.000
452.348;  237.950;  276.375;    0.000
452.487;  226.950;  259.375;    0.000
452.626;  257.950;  254.375;    0.000
452.764;  222.950;  233.375;    0.000
452.903;  220.950;  202.375;    0.000
453.042;  270.950;  211.375;    0.000
453.180; 4175.950;  240.375;    0.000
453.319; 4066.950;  238.375;    0.000
453.458; 4145.950;  215.375;    0.000
453.596; 4140.950;  252.375;    0.000
453.735; 4245.950;  240.375;    0.000
453.873; 4183.950;  257.375;    0.000
454.012; 4245.950;  228.375;    0.000
454.150; 4266.950;  270.375;    0.000
454.289; 4414.950;  233.375;    0.000
454.427; 4418.950;  243.375;    0.000
454.566; 4495.950;  257.375;    0.000
454.704; 4390.950;  243.375;    0.000
454.843; 4551.950;  190.375;    0.000
454.981; 4601.950;  271.375;    0.000
455.120; 4521.950;  210.375;    0.000
455.258; 4631.950;  235.375;    0.000
455.397; 4609.950;  214.375;    0.000
455.535; 4701.950;  214.375;    0.000
455.674; 4758.950;  184.375;    0.000
455.812; 4924.950;  228.375;    0.000
455.951; 4817.950;  204.375;    0.000
456.089; 4840.950;  220.375;    0.000
456.227; 4890.950;  196.375;    0.000
456.366; 4941.950;  261.375;    0.000
456.504; 5076.950;  249.375;    0.000
456.642; 5016.950;  245.375;    0.000
456.781; 5180.950;  183.375;    0.000
456.919; 5113.950;  203.375;    0.000
457.057; 5134.950;  177.375;    0.000
457.196; 5248.950;  191.375;    0.000
457.334; 5446.950;  233.375;    0.000
457.472; 5432.950;  214.375;    0.000
457.610; 5622.950;  230.375;    0.000
457.749; 5587.950;  247.375;    0.000
457.887; 5650.950;  220.375;    0.000
458.025; 5565.950;  195.375;    0.000
458.163; 5724.950;  224.375;    0.000
458.301; 5727.950;  228.375;    0.000
458.440; 5815.950;  200.375;    0.000
458.578; 5951.950;  233.375;    0.000
458.716; 6170.950;  182.375;    0.000
458.854; 6186.950;  251.375;    0.000
458.992; 6135.950;  187.375;    0.000
459.130; 6165.950;  229.375;    0.000
459.269; 6345.950;  237.375;    0.000
459.407; 6267.950;  228.375;    0.000
459.545; 6439.950;  216.375;    0.000
459.683; 6409.950;  204.375;    0.000
459.821; 6502.950;  191.375;    0.000
459.959; 6682.950;  227.375;    0.000
460.097; 6621.950;  221.375;    0.000
460.235; 6783.950;  241.375;    0.000
460.373; 6684.950;  231.375;    0.000
460.511; 6781.950;  214.375;    0.000
460.649; 6817.950;  172.375;    0.000
460.787; 6974.950;  275.375;    0.000
460.925; 6841.950;  175.375;    0.000
461.063; 6964.950;  252.375;    0.000
461.201; 6908.950;  210.375;    0.000
461.339; 7082.950;  237.375;    0.000
461.477; 6957.950;  210.375;    0.000
461.615; 6988.950;  236.375;    0.000
461.753; 7290.950;  215.375;    0.000
461.891; 7226.950;  222.375;    0.000
462.029; 7355.950;  227.375;    0.000
462.166; 7412.950;  202.375;    0.000
462.304; 7688.950;  191.375;    0.000
462.442; 7575.950;  210.375;    0.000
462.580; 7829.950;  184.375;    0.000
462.718; 7715.950;  220.375;    0.000
462.856; 7746.950;  226.375;    0.000
462.993; 7706.950;  254.375;    0.000
463.131; 7559.950;  200.375;    0.000
463.269; 7490.950;  215.375;    0.000
463.407; 7329.950;  213.375;    0.000
463.545; 7323.950;  242.375;    0.000
463.682; 7529.950;  212.375;    0.000
463.820; 7833.950;  185.375;    0.000
463.958; 8103.950;  212.375;    0.000
464.095; 8122.950;  181.375;    0.000
464.233; 8285.950;  192.375;    0.000
464.371; 8224.950;  247.375;    0.000
464.509; 8130.950;  151.375;    0.000
464.646; 8007.950;  207.375;    0.000
464.784; 8171.950;  199.375;    0.000
464.921; 8020.950;  253.375;    0.000
465.059; 7940.950;  214.375;    0.000
465.197; 7673.950;  200.375;    0.000
465.334; 7565.950;  180.375;    0.000
465.472; 7675.950;  204.375;    0.000
465.609; 7486.950;  203.375;    0.000
465.747; 7280.950;  214.375;    0.000
465.885; 7406.950;  233.375;    0.000
466.022; 7372.950;  215.375;    0.000
466.160; 7359.950;  201.375;    0.000
466.297; 7415.950;  196.375;    0.000
466.435; 7388.950;  230.375;    0.000
466.572; 7395.950;  227.375;    0.000
466.710; 7304.950;  218.375;    0.000
466.847; 7375.950;  245.375;    0.000
466.985; 7227.950;  223.375;    0.000
467.122; 7264.950;  168.375;    0.000
467.260; 7219.950;  196.375;    0.000
467.397; 7208.950;  198.375;    0.000
467.534; 7255.950;  219.375;    0.000
467.672; 7213.950;  214.375;    0.000
467.809; 7096.950;  185.375;    0.000
467.947; 7225.950;  247.375;    0.000
468.084; 7132.950;  196.375;    0.000
468.221; 7393.950;  238.375;    0.000
468.359; 7118.950;  236.375;    0.000
468.496; 7292.950;  235.375;    0.000
468.633; 7264.950;  218.375;    0.000
468.771; 7270.950;  223.375;    0.000
468.908; 7282.950;  208.375;    0.000
469.045; 7301.950;  249.375;    0.000
469.183; 7484.950;  222.375;    0.000
469.320; 7390.950;  216.375;    0.000
469.457; 7335.950;  224.375;    0.000
469.594; 7519.950;  259.375;    0.000
469.732; 7492.950;  223.375;    0.000
469.869; 7632.950;  234.375;    0.000
470.006; 7747.950;  225.375;    0.000
470.143; 7727.950;  243.375;    0.000
470.280; 7767.950;  208.375;    0.000
470.417; 7840.950;  232.375;    0.000
470.555; 7860.950;  218.375;    0.000
470.692; 7789.950;  223.375;    0.000
470.829; 7771.950;  238.375;    0.000
470.966; 7605.950;  205.375;    0.000
471.103; 7802.950;  259.375;    0.000
471.240; 7698.950;  214.375;    0.000
471.377; 7724.950;  226.375;    0.000
471.514; 7763.950;  250.375;    0.000
471.651; 7726.950;  221.375;    0.000
471.789; 7547.950;  242.375;    0.000
471.926; 7713.950;  190.375;    0.000
472.063; 7626.950;  234.375;    0.000
472.200; 7401.950;  252.375;    0.000
472.337; 7635.950;  241.375;    0.000
472.474; 7593.950;  244.375;    0.000
472.611; 7552.950;  268.375;    0.000
472.748; 7529.950;  222.375;    0.000
472.884; 7440.950;  271.375;    0.000
473.021; 7463.950;  195.375;    0.000
473.158; 7500.950;  205.375;    0.000
473.295; 7424.950;  223.375;    0.000
473.432; 7420.950;  216.375;    0.000
473.569; 7388.950;  196.375;    0.000
473.706; 7313.950;  190.375;    0.000
473.843; 7532.950;  211.375;    0.000
473.980; 7374.950;  254.375;    0.000
474.117; 7364.950;  185.375;    0.000
474.253; 7454.950;  229.375;    0.000
474.390; 7478.950;  238.375;    0.000
474.527; 7298.950;  220.375;    0.000
474.664; 7491.950;  242.375;    0.000
474.801; 7568.950;  229.375;    0.000
474.937; 7477.950;  229.375;    0.000
475.074; 7519.950;  210.375;    0.000
475.211; 7657.950;  219.375;    0.000
475.348; 7489.950;  226.375;    0.000
475.484; 7604.950;  207.375;    0.000
475.621; 7474.950;  233.375;    0.000
475.758; 7561.950;  230.375;    0.000
475.894; 7714.950;  234.375;    0.000
476.031; 7672.950;  202.375;    0.000
476.168; 7570.950;  222.375;    0.000
476.304; 7547.950;  237.375;    0.000
476.441; 7696.950;  238.375;    0.000
476.578; 7795.950;  216.375;    0.000
476.714; 7626.950;  212.375;    0.000
476.851; 7767.950;  210.375;    0.000
476.987; 7793.950;  239.375;    0.000
477.124; 7854.950;  250.375;    0.000
477.261; 7825.950;  227.375;    0.000
477.397; 7759.950;  189.375;    0.000
477.534; 8061.950;  204.375;    0.000
477.670; 7810.950;  190.375;    0.000
477.807; 8005.950;  198.375;    0.000
477.943; 8096.950;  216.375;    0.000
478.080; 8067.950;  213.375;    0.000
478.216; 8158.950;  239.375;    0.000
478.353; 8219.950;  218.375;    0.000
478.489; 8292.950;  184.375;    0.000
478.626; 8296.950;  223.375;    0.000
478.762; 8243.950;  213.375;    0.000
478.898; 8317.950;  216.375;    0.000
479.035; 8473.950;  250.375;    0.000
479.171; 8328.950;  201.375;    0.000
479.308; 8282.950;  242.375;    0.000
479.444; 8491.950;  205.375;    0.000
479.580; 8306.950;  203.375;    0.000
479.717; 8470.950;  260.375;    0.000
479.853; 8488.950;  225.375;    0.000
479.989; 8441.950;  226.375;    0.000
480.126; 8507.950;  211.375;    0.000
480.262; 8549.950;  220.375;    0.000
480.398; 8525.950;  207.375;    0.000
480.535; 8488.950;  179.375;    0.000
480.671; 8612.950;  200.375;    0.000
480.807; 8453.950;  190.375;    0.000
480.943; 8670.950;  165.375;    0.000
481.080; 8370.950;  210.375;    0.000
481.216; 8464.950;  232.375;    0.000
481.352; 8404.950;  235.375;    0.000
481.488; 8420.950;  208.375;    0.000
481.624; 8373.950;  245.375;    0.000
481.760; 8347.950;  210.375;    0.000
481.897; 8606.950;  189.375;    0.000
482.033; 8346.950;  256.375;    0.000
482.169; 8348.950;  257.375;    0.000
482.305; 8464.950;  199.375;    0.000
482.441; 8297.950;  182.375;    0.000
482.577; 8365.950;  223.375;    0.000
482.713; 8507.950;  243.375;    0.000
482.849; 8452.950;  197.375;    0.000
482.985; 8328.950;  240.375;    0.000
483.121; 8370.950;  210.375;    0.000
483.258; 8270.950;  248.375;    0.000
483.394; 8287.950;  224.375;    0.000
483.530; 8420.950;  209.375;    0.000
483.665; 8402.950;  225.375;    0.000
483.801; 8251.950;  216.375;    0.000
483.937; 8329.950;  211.375;    0.000
484.073; 8389.950;  259.375;    0.000
484.209; 8454.950;  191.375;    0.000
484.345; 8317.950;  239.375;    0.000
484.481; 8621.950;  231.375;    0.000
484.617; 8362.950;  216.375;    0.000
484.753; 8576.950;  180.375;    0.000
484.889; 8557.950;  252.375;    0.000
485.025; 8452.950;  244.375;    0.000
485.161; 8416.950;  242.375;    0.000
485.296; 8545.950;  235.375;    0.000
485.432; 8628.950;  247.375;    0.000
485.568; 8494.950;  203.375;    0.000
485.704; 8636.950;  229.375;    0.000
485.840; 8490.950;  230.375;    0.000
485.975; 8690.950;  266.375;    0.000
486.111; 8454.950;  220.375;    0.000
486.247; 8621.950;  264.375;    0.000
486.383; 8620.950;  213.375;    0.000
486.518; 8597.950;  222.375;    0.000
486.654; 8619.950;  244.375;    0.000
486.790; 8531.950;  273.375;    0.000
486.926; 8398.950;  203.375;    0.000
487.061; 8596.950;  227.375;    0.000
487.197; 8502.950;  210.375;    0.000
487.333; 8655.950;  209.375;    0.000
487.468; 8419.950;  197.375;    0.000
487.604; 8463.950;  230.375;    0.000
487.740; 8662.950;  254.375;    0.000
487.875; 8531.950;  286.375;    0.000
488.011; 8473.950;  225.375;    0.000
488.146; 8471.950;  251.375;    0.000
488.282; 8479.950;  242.375;    0.000
488.417; 8535.950;  230.375;    0.000
488.553; 8721.950;  260.375;    0.000
488.688; 8642.950;  207.375;    0.000
488.824; 8473.950;  204.375;    0.000
488.960; 8615.950;  248.375;    0.000
489.095; 8573.950;  204.375;    0.000
489.230; 8724.950;  227.375;    0.000
489.366; 8681.950;  226.375;    0.000
489.501; 8656.950;  199.375;    0.000
489.637; 8585.950;  233.375;    0.000
489.772; 8664.950;  249.375;    0.000
489.908; 8788.950;  200.375;    0.000
490.043; 8708.950;  246.375;    0.000
490.178; 8722.950;  222.375;    0.000
490.314; 8694.950;  219.375;    0.000
490.449; 8644.950;  227.375;    0.000
490.585; 8714.950;  209.375;    0.000
490.720; 8626.950;  238.375;    0.000
490.855; 8779.950;  222.375;    0.000
490.991; 8717.950;  202.375;    0.000
491.126; 8782.950;  272.375;    0.000
491.261; 8691.950;  261.375;    0.000
491.396; 8641.950;  190.375;    0.000
491.532; 8641.950;  202.375;    0.000
491.667; 8698.950;  208.375;    0.000
491.802; 8525.950;  203.375;    0.000
491.937; 8949.950;  253.375;    0.000
492.073; 8628.950;  242.375;    0.000
492.208; 8722.950;  230.375;    0.000
492.343; 8741.950;  183.375;    0.000
492.478; 8798.950;  246.375;    0.000
492.613; 8854.950;  223.375;    0.000
492.749; 8798.950;  230.375;    0.000
492.884; 8875.950;  190.375;    0.000
493.019; 8662.950;  234.375;    0.000
493.154; 8717.950;  218.375;    0.000
493.289; 8761.950;  222.375;    0.000
493.424; 8835.950;  196.375;    0.000
493.559; 8739.950;  202.375;    0.000
493.694; 8755.950;  180.375;    0.000
493.829; 8772.950;  224.375;    0.000
493.964; 9024.950;  218.375;    0.000
494.099; 8879.950;  275.375;    0.000
494.234; 8759.950;  226.375;    0.000
494.369; 8675.950;  225.375;    0.000
494.504; 8696.950;  219.375;    0.000
494.639; 8870.950;  296.375;    0.000
494.774; 8851.950;  228.375;    0.000
494.909; 8711.950;  222.375;    0.000
495.044; 8789.950;  215.375;    0.000
495.179; 8676.950;  200.375;    0.000
495.314; 8707.950;  235.375;    0.000
495.449; 8825.950;  249.375;    0.000
495.584; 8779.950;  228.375;    0.000
495.719; 8832.950;  212.375;    0.000
495.854; 8866.950;  201.375;    0.000
495.988; 8915.950;  248.375;    0.000
496.123; 8776.950;  209.375;    0.000
496.258; 9017.950;  249.375;    0.000
496.393; 9034.950;  223.375;    0.000
496.528; 9021.950;  209.375;    0.000
496.663; 9117.950;  207.375;    0.000
496.797; 9004.950;  229.375;    0.000
496.932; 9124.950;  225.375;    0.000
497.067; 9355.950;  218.375;    0.000
497.202; 9404.950;  163.375;    0.000
497.336; 9412.950;  246.375;    0.000
497.471; 9460.950;  229.375;    0.000
497.606; 9634.950;  251.375;    0.000
497.740; 9779.950;  220.375;    0.000
497.875; 9992.950;  216.375;    0.000
498.010;10044.950;  226.375;    0.000
498.144;10208.950;  237.375;    0.000
498.279;10303.950;  196.375;    0.000
498.414;10555.950;  219.375;    0.000
498.548;10664.950;  205.375;    0.000
498.683;10800.950;  206.375;    0.000
498.817;10948.950;  225.375;    0.000
498.952;11047.950;  221.375;    0.000
499.087;11263.950;  220.375;    0.000
499.221;11624.950;  233.375;    0.000
499.356;11794.950;  230.375;    0.000
499.490;12098.950;  229.375;    0.000
499.625;12323.950;  231.375;    0.000
499.759;12645.950;  243.375;    0.000
499.894;13046.950;  241.375;    0.000
500.028;13293.950;  264.375;    0.000
500.162;13479.950;  287.375;    0.000
500.297;13767.950;  234.375;    0.000
500.431;13988.950;  230.375;    0.000
500.566;14041.950;  213.375;    0.000
500.700;13732.950;  243.375;    0.000
500.835;13591.950;  272.375;    0.000
500.969;13157.950;  188.375;    0.000
501.103;12944.950;  200.375;    0.000
501.238;12656.950;  257.375;    0.000
501.372;12284.950;  224.375;    0.000
501.506;11895.950;  225.375;    0.000
501.641;11716.950;  271.375;    0.000
501.775;11220.950;  199.375;    0.000
501.909;10904.950;  249.375;    0.000
502.043;10808.950;  211.375;    0.000
502.178;10523.950;  269.375;    0.000
502.312;10290.950;  198.375;    0.000
502.446;10214.950;  256.375;    0.000
502.580; 9992.950;  195.375;    0.000
502.715; 9912.950;  224.375;    0.000
502.849; 9815.950;  245.375;    0.000
502.983; 9745.950;  250.375;    0.000
503.117; 9713.950;  193.375;    0.000
503.251; 9334.950;  242.375;    0.000
503.385; 9494.950;  227.375;    0.000
503.520; 9253.950;  235.375;    0.000
503.654; 9104.950;  220.375;    0.000
503.788; 8996.950;  267.375;    0.000
503.922; 8967.950;  220.375;    0.000
504.056; 8915.950;  238.375;    0.000
504.190; 8860.950;  212.375;    0.000
504.324; 8910.950;  265.375;    0.000
504.458; 8800.950;  228.375;    0.000
504.592; 8591.950;  231.375;    0.000
504.726; 8427.950;  218.375;    0.000
504.860; 8380.950;  253.375;    0.000
504.994; 8235.950;  217.375;    0.000
505.128; 8116.950;  243.375;    0.000
505.262; 8165.950;  194.375;    0.000
505.396; 7957.950;  210.375;    0.000
505.530; 7896.950;  211.375;    0.000
505.664; 7781.950;  219.375;    0.000
505.798; 7722.950;  240.375;    0.000
505.932; 7682.950;  240.375;    0.000
506.066; 7542.950;  252.375;    0.000
506.199; 7498.950;  242.375;    0.000
506.333; 7560.950;  244.375;    0.000
506.467; 7463.950;  223.375;    0.000
506.601; 7469.950;  183.375;    0.000
506.735; 7469.950;  249.375;    0.000
506.869; 7349.950;  270.375;    0.000
507.002; 7236.950;  207.375;    0.000
507.136; 7295.950;  242.375;    0.000
507.270; 7286.950;  232.375;    0.000
507.404; 7200.950;  195.375;    0.000
507.537; 7000.950;  218.375;    0.000
507.671; 6962.950;  246.375;    0.000
507.805; 7011.950;  244.375;    0.000
507.939; 6939.950;  251.375;    0.000
508.072; 6924.950;  212.375;    0.000
508.206; 6898.950;  198.375;    0.000
508.340; 7017.950;  234.375;    0.000
508.473; 7011.950;  217.375;    0.000
508.607; 6955.950;  224.375;    0.000
508.740; 6916.950;  207.375;    0.000
508.874; 6869.950;  230.375;    0.000
509.008; 6912.950;  246.375;    0.000
509.141; 6959.950;  239.375;    0.000
509.275; 6877.950;  229.375;    0.000
509.408; 6862.950;  234.375;    0.000
509.542; 6756.950;  212.375;    0.000
509.675; 6754.950;  256.375;    0.000
509.809; 6681.950;  232.375;    0.000
509.942; 6678.950;  237.375;    0.000
510.076; 6625.950;  226.375;    0.000
510.209; 6620.950;  251.375;    0.000
510.343; 6711.950;  229.375;    0.000
510.476; 6700.950;  285.375;    0.000
510.610; 6463.950;  211.375;    0.000
510.743; 6580.950;  258.375;    0.000
510.877; 6508.950;  244.375;    0.000
511.010; 6461.950;  235.375;    0.000
511.143; 6466.950;  251.375;    0.000
511.277; 6525.950;  228.375;    0.000
511.410; 6468.950;  216.375;    0.000
511.543; 6530.950;  231.375;    0.000
511.677; 6494.950;  244.375;    0.000
511.810; 6373.950;  186.375;    0.000
511.943; 6584.950;  211.375;    0.000
512.077; 6516.950;  201.375;    0.000
512.210; 6463.950;  194.375;    0.000
512.343; 6461.950;  233.375;    0.000
512.476; 6448.950;  234.375;    0.000
512.610; 6468.950;  224.375;    0.000
512.743; 6516.950;  255.375;    0.000
512.876; 6453.950;  264.375;    0.000
513.009; 6456.950;  283.375;    0.000
513.142; 6402.950;  246.375;    0.000
513.276; 6454.950;  217.375;    0.000
513.409; 6454.950;  222.375;    0.000
513.542; 6436.950;  237.375;    0.000
513.675; 6324.950;  238.375;    0.000
513.808; 6487.950;  220.375;    0.000
513.941; 6453.950;  233.375;    0.000
514.074; 6453.950;  248.375;    0.000
514.207; 6582.950;  233.375;    0.000
514.340; 6506.950;  190.375;    0.000
514.474; 6435.950;  221.375;    0.000
514.607; 6456.950;  213.375;    0.000
514.740; 6586.950;  251.375;    0.000
514.873; 6689.950;  257.375;    0.000
515.006; 6713.950;  268.375;    0.000
515.139; 6649.950;  257.375;    0.000
515.272; 6686.950;  227.375;    0.000
515.404; 6639.950;  238.375;    0.000
515.537; 6724.950;  275.375;    0.000
515.670; 6822.950;  239.375;    0.000
515.803; 6726.950;  223.375;    0.000
515.936; 6791.950;  202.375;    0.000
516.069; 6909.950;  188.375;    0.000
516.202; 7088.950;  240.375;    0.000
516.335; 7241.950;  252.375;    0.000
516.468; 7609.950;  254.375;    0.000
516.600; 8981.950;  254.375;    0.000
516.733;11634.950;  255.375;    0.000
516.866;11606.950;  265.375;    0.000
516.999;10430.950;  251.375;    0.000
517.132;12754.950;  256.375;    0.000
517.264;17732.949;  202.375;    0.000
517.397;17401.949;  248.375;    0.000
517.530;13445.950;  221.375;    0.000
517.663;11199.950;  244.375;    0.000
517.795;10405.950;  245.375;    0.000
517.928; 9850.950;  236.375;    0.000
518.061;10036.950;  219.375;    0.000
518.193;12976.950;  251.375;    0.000
518.326;20473.949;  271.375;    0.000
518.459;22030.949;  207.375;    0.000
518.591;17087.949;  217.375;    0.000
518.724;12810.950;  200.375;    0.000
518.857;11148.950;  204.375;    0.000
518.989;10132.950;  242.375;    0.000
519.122; 9261.950;  254.375;    0.000
519.254; 8897.950;  239.375;    0.000
519.387; 8307.950;  235.375;    0.000
519.519; 8134.950;  227.375;    0.000
519.652; 7700.950;  178.375;    0.000
519.784; 7580.950;  226.375;    0.000
519.917; 7416.950;  256.375;    0.000
520.049; 7255.950;  234.375;    0.000
520.182; 7073.950;  258.375;    0.000
520.314; 7088.950;  298.375;    0.000
520.447; 6860.950;  204.375;    0.000
520.579; 6796.950;  235.375;    0.000
520.712; 6643.950;  208.375;    0.000
520.844; 6660.950;  272.375;    0.000
520.976; 6564.950;  234.375;    0.000
521.109; 6426.950;  235.375;    0.000
521.241; 6376.950;  250.375;    0.000
521.373; 6313.950;  233.375;    0.000
521.506; 6328.950;  231.375;    0.000
521.638; 6404.950;  258.375;    0.000
521.770; 6233.950;  226.375;    0.000
521.903; 6220.950;  258.375;    0.000
522.035; 6036.950;  263.375;    0.000
522.167; 6110.950;  214.375;    0.000
522.300; 5944.950;  212.375;    0.000
522.432; 6020.950;  220.375;    0.000
522.564; 5882.950;  228.375;    0.000
522.696; 5916.950;  272.375;    0.000
522.828; 5865.950;  222.375;    0.000
522.961; 5832.950;  205.375;    0.000
523.093; 5926.950;  253.375;    0.000
523.225; 5827.950;  239.375;    0.000
523.357; 5844.950;  263.375;    0.000
523.489; 5806.950;  264.375;    0.000
523.621; 5808.950;  259.375;    0.000
523.753; 5691.950;  233.375;    0.000
523.885; 5643.950;  232.375;    0.000
524.018; 5626.950;  214.375;    0.000
524.150; 5503.950;  235.375;    0.000
524.282; 5702.950;  242.375;    0.000
524.414; 5685.950;  261.375;    0.000
524.546; 5527.950;  233.375;    0.000
524.678; 5559.950;  242.375;    0.000
524.810; 5575.950;  216.375;    0.000
524.942; 5335.950;  220.375;    0.000
525.074; 5476.950;  249.375;    0.000
525.206; 5399.950;  227.375;    0.000
525.338; 5415.950;  250.375;    0.000
525.469; 5435.950;  231.375;    0.000
525.601; 5499.950;  245.375;    0.000
525.733; 5278.950;  187.375;    0.000
525.865; 5293.950;  280.375;    0.000
525.997; 5453.950;  216.375;    0.000
526.129; 5341.950;  228.375;    0.000
526.261; 5379.950;  187.375;    0.000
526.393; 5235.950;  228.375;    0.000
526.524; 5252.950;  201.375;    0.000
526.656; 5284.950;  199.375;    0.000
526.788; 5226.950;  233.375;    0.000
526.920; 5165.950;  256.375;    0.000
527.052; 5267.950;  219.375;    0.000
527.183; 5162.950;  227.375;    0.000
527.315; 5200.950;  266.375;    0.000
527.447; 5271.950;  239.375;    0.000
527.578; 5206.950;  213.375;    0.000
527.710; 5221.950;  216.375;    0.000
527.842; 5139.950;  240.375;    0.000
527.973; 5244.950;  286.375;    0.000
528.105; 5267.950;  222.375;    0.000
528.237; 5027.950;  223.375;    0.000
528.368; 5092.950;  211.375;    0.000
528.500; 5131.950;  215.375;    0.000
528.632; 5218.950;  216.375;    0.000
528.763; 5105.950;  234.375;    0.000
528.895; 5149.950;  196.375;    0.000
529.026; 5168.950;  202.375;    0.000
529.158; 5129.950;  226.375;    0.000
529.289; 5233.950;  229.375;    0.000
529.421; 5226.950;  264.375;    0.000
529.552; 5112.950;  265.375;    0.000
529.684; 5070.950;  260.375;    0.000
529.815; 5206.950;  284.375;    0.000
529.947; 5164.950;  237.375;    0.000
530.078; 5111.950;  223.375;    0.000
530.210; 5070.950;  223.375;    0.000
530.341; 5119.950;  209.375;    0.000
530.472; 5099.950;  203.375;    0.000
530.604; 5106.950;  223.375;    0.000
530.735; 5115.950;  218.375;    0.000
530.867; 5113.950;  222.375;    0.000
530.998; 5221.950;  239.375;    0.000
531.129; 5143.950;  250.375;    0.000
531.260; 5071.950;  224.375;    0.000
531.392; 5195.950;  216.375;    0.000
531.523; 5154.950;  234.375;    0.000
531.654; 5270.950;  256.375;    0.000
531.786; 5285.950;  226.375;    0.000
531.917; 5329.950;  239.375;    0.000
532.048; 5227.950;  205.375;    0.000
532.179; 5283.950;  244.375;    0.000
532.311; 5253.950;  235.375;    0.000
532.442; 5118.950;  258.375;    0.000
532.573; 5180.950;  220.375;    0.000
532.704; 5063.950;  213.375;    0.000
532.835; 5223.950;  249.375;    0.000
532.966; 5066.950;  226.375;    0.000
533.097; 5171.950;  246.375;    0.000
533.229; 5120.950;  237.375;    0.000
533.360; 5115.950;  225.375;    0.000
533.491; 5055.950;  241.375;    0.000
533.622; 5095.950;  242.375;    0.000
533.753; 5053.950;  264.375;    0.000
533.884; 5096.950;  245.375;    0.000
534.015; 5159.950;  269.375;    0.000
534.146; 5189.950;  267.375;    0.000
534.277; 5129.950;  282.375;    0.000
534.408; 5182.950;  229.375;    0.000
534.539; 5114.950;  269.375;    0.000
534.670; 5077.950;  231.375;    0.000
534.801; 4996.950;  260.375;    0.000
534.932; 5070.950;  232.375;    0.000
535.063; 4969.950;  227.375;    0.000
535.194; 5131.950;  281.375;    0.000
535.324; 4970.950;  206.375;    0.000
535.455; 5040.950;  257.375;    0.000
535.586; 5001.950;  275.375;    0.000
535.717; 4918.950;  206.375;    0.000
535.848; 5029.950;  271.375;    0.000
535.979; 5035.950;  250.375;    0.000
536.109; 4964.950;  253.375;    0.000
536.240; 5018.950;  234.375;    0.000
536.371; 4959.950;  230.375;    0.000
536.502; 4920.950;  270.375;    0.000
536.632; 4877.950;  228.375;    0.000
536.763; 4940.950;  249.375;    0.000
536.894; 4951.950;  262.375;    0.000
537.025; 4863.950;  258.375;    0.000
537.155; 4982.950;  278.375;    0.000
537.286; 4850.950;  209.375;    0.000
537.417; 4860.950;  255.375;    0.000
537.547; 4911.950;  208.375;    0.000
537.678; 4913.950;  224.375;    0.000
537.808; 4871.950;  224.375;    0.000
537.939; 4915.950;  257.375;    0.000
538.070; 4824.950;  240.375;    0.000
538.200; 4907.950;  259.375;    0.000
538.331; 4930.950;  235.375;    0.000
538.461; 4809.950;  251.375;    0.000
538.592; 4891.950;  245.375;    0.000
538.722; 4854.950;  239.375;    0.000
538.853; 4937.950;  216.375;    0.000
538.983; 4977.950;  226.375;    0.000
539.114; 4964.950;  240.375;    0.000
539.244; 4927.950;  237.375;    0.000
539.375; 4739.950;  198.375;    0.000
539.505; 4744.950;  263.375;    0.000
539.636; 4756.950;  226.375;    0.000
539.766; 4856.950;  229.375;    0.000
539.896; 4825.950;  219.375;    0.000
540.027; 4853.950;  246.375;    0.000
540.157; 4890.950;  218.375;    0.000
540.287; 4844.950;  216.375;    0.000
540.418; 4934.950;  267.375;    0.000
540.548; 4896.950;  260.375;    0.000
540.678; 4860.950;  242.375;    0.000
540.809; 4875.950;  260.375;    0.000
540.939; 4962.950;  257.375;    0.000
541.069; 5011.950;  226.375;    0.000
541.200; 4870.950;  227.375;    0.000
541.330; 4934.950;  218.375;    0.000
541.460; 4903.950;  223.375;    0.000
541.590; 4919.950;  237.375;    0.000
541.720; 4847.950;  222.375;    0.000
541.851; 4969.950;  250.375;    0.000
541.981; 4889.950;  222.375;    0.000
542.111; 5085.950;  212.375;    0.000
542.241; 5001.950;  205.375;    0.000
542.371; 4967.950;  202.375;    0.000
542.501; 5128.950;  218.375;    0.000
542.631; 5064.950;  222.375;    0.000
542.761; 5046.950;  249.375;    0.000
542.891; 5190.950;  173.375;    0.000
543.021; 5193.950;  218.375;    0.000
543.151; 5190.950;  222.375;    0.000
543.281; 5192.950;  188.375;    0.000
543.411; 5085.950;  239.375;    0.000
543.542; 5079.950;  215.375;    0.000
543.671; 5182.950;  250.375;    0.000
543.801; 5077.950;  212.375;    0.000
543.931; 5216.950;  233.375;    0.000
544.061; 5114.950;  194.375;    0.000
544.191; 4999.950;  218.375;    0.000
544.321; 5023.950;  220.375;    0.000
544.451; 5142.950;  183.375;    0.000
544.581; 5190.950;  221.375;    0.000
544.711; 5149.950;  224.375;    0.000
544.841; 5185.950;  214.375;    0.000
544.970; 5253.950;  227.375;    0.000
545.100; 5171.950;  186.375;    0.000
545.230; 5369.950;  205.375;    0.000
545.360; 5266.950;  211.375;    0.000
545.490; 5158.950;  202.375;    0.000
545.619; 5286.950;  182.375;    0.000
545.749; 5065.950;  174.375;    0.000
545.879; 5106.950;  169.375;    0.000
546.009; 5107.950;  182.375;    0.000
546.138; 5045.950;  200.375;    0.000
546.268; 4979.950;  204.375;    0.000
546.398; 4982.950;  200.375;    0.000
546.527; 5057.950;  179.375;    0.000
546.657; 5079.950;  162.375;    0.000
546.786; 5124.950;  179.375;    0.000
546.916; 5143.950;  221.375;    0.000
547.046; 5021.950;  179.375;    0.000
547.175; 5072.950;  168.375;    0.000
547.305; 5039.950;  200.375;    0.000
547.434; 4942.950;  166.375;    0.000
547.564; 4985.950;  177.375;    0.000
547.693; 5096.950;  152.375;    0.000
547.823; 5004.950;  171.375;    0.000
547.953; 5137.950;  195.375;    0.000
548.082; 5107.950;  214.375;    0.000
548.211; 5012.950;  177.375;    0.000
548.341; 4982.950;  189.375;    0.000
548.470; 4980.950;  194.375;    0.000
548.600; 5076.950;  172.375;    0.000
548.729; 4987.950;  158.375;    0.000
548.859; 4974.950;  193.375;    0.000
548.988; 5167.950;  131.375;    0.000
549.117; 5054.950;  204.375;    0.000
549.247; 5046.950;  191.375;    0.000
549.376; 5143.950;  202.375;    0.000
549.505; 5171.950;  187.375;    0.000
549.635; 5089.950;  198.375;    0.000
549.764; 5089.950;  155.375;    0.000
549.893; 5077.950;  176.375;    0.000
550.023; 5167.950;  202.375;    0.000
550.152; 5159.950;  168.375;    0.000
550.281; 5120.950;  180.375;    0.000
550.410; 5166.950;  180.375;    0.000
550.539; 5268.950;  181.375;    0.000
550.669; 5265.950;  168.375;    0.000
550.798; 5211.950;  223.375;    0.000
550.927; 5192.950;  179.375;    0.000
551.056; 5119.950;  159.375;    0.000
551.185; 5160.950;  199.375;    0.000
551.314; 5144.950;  185.375;    0.000
551.443; 5039.950;  172.375;    0.000
551.573; 5218.950;  158.375;    0.000
551.702; 5201.950;  210.375;    0.000
551.831; 5304.950;  238.375;    0.000
551.960; 5194.950;  191.375;    0.000
552.089; 5251.950;  195.375;    0.000
552.218; 5247.950;  196.375;    0.000
552.347; 5410.950;  194.375;    0.000
552.476; 5384.950;  192.375;    0.000
552.605; 5389.950;  172.375;    0.000
552.734; 5593.950;  214.375;    0.000
552.863; 5741.950;  177.375;    0.000
552.992; 5741.950;  190.375;    0.000
553.121; 5810.950;  185.375;    0.000
553.249; 5530.950;  175.375;    0.000
553.378; 5532.950;  192.375;    0.000
553.507; 5466.950;  193.375;    0.000
553.636; 5342.950;  182.375;    0.000
553.765; 5363.950;  187.375;    0.000
553.894; 5393.950;  214.375;    0.000
554.023; 5408.950;  217.375;    0.000
554.151; 5355.950;  223.375;    0.000
554.280; 5319.950;  170.375;    0.000
554.409; 5257.950;  172.375;    0.000
554.538; 5298.950;  182.375;    0.000
554.666; 5348.950;  195.375;    0.000
554.795; 5287.950;  176.375;    0.000
554.924; 5233.950;  164.375;    0.000
555.052; 5240.950;  171.375;    0.000
555.181; 5227.950;  208.375;    0.000
555.310; 5292.950;  214.375;    0.000
555.439; 5173.950;  193.375;    0.000
555.567; 5160.950;  189.375;    0.000
555.696; 5206.950;  196.375;    0.000
555.824; 5015.950;  183.375;    0.000
555.953; 5144.950;  234.375;    0.000
556.082; 5160.950;  183.375;    0.000
556.210; 5074.950;  199.375;    0.000
556.339; 5199.950;  201.375;    0.000
556.467; 5043.950;  208.375;    0.000
556.596; 4980.950;  194.375;    0.000
556.724; 5112.950;  170.375;    0.000
556.853; 5001.950;  166.375;    0.000
556.981; 5079.950;  185.375;    0.000
557.110; 4945.950;  213.375;    0.000
557.238; 5042.950;  188.375;    0.000
557.367; 4994.950;  176.375;    0.000
557.495; 5100.950;  180.375;    0.000
557.623; 4969.950;  193.375;    0.000
557.752; 4908.950;  207.375;    0.000
557.880; 4959.950;  189.375;    0.000
558.008; 4987.950;  169.375;    0.000
558.137; 5078.950;  203.375;    0.000
558.265; 4954.950;  167.375;    0.000
558.393; 4992.950;  204.375;    0.000
558.522; 5029.950;  203.375;    0.000
558.650; 5045.950;  215.375;    0.000
558.778; 5139.950;  190.375;    0.000
558.906; 5037.950;  186.375;    0.000
559.035; 5014.950;  193.375;    0.000
559.163; 4948.950;  198.375;    0.000
559.291; 4920.950;  222.375;    0.000
559.419; 5057.950;  192.375;    0.000
559.548; 4952.950;  186.375;    0.000
559.676; 5033.950;  199.375;    0.000
559.804; 4976.950;  186.375;    0.000
559.932; 5090.950;  202.375;    0.000
560.060; 5096.950;  183.375;    0.000
560.188; 5022.950;  212.375;    0.000
560.316; 5082.950;  192.375;    0.000
560.444; 5080.950;  180.375;    0.000
560.572; 5137.950;  206.375;    0.000
560.700; 5292.950;  184.375;    0.000
560.828; 5321.950;  177.375;    0.000
560.956; 5213.950;  221.375;    0.000
561.085; 5226.950;  227.375;    0.000
561.212; 5276.950;  208.375;    0.000
561.340; 5324.950;  189.375;    0.000
561.468; 5324.950;  189.375;    0.000
561.596; 5212.950;  183.375;    0.000
561.724; 5223.950;  188.375;    0.000
561.852; 5188.950;  183.375;    0.000
561.980; 5364.950;  209.375;    0.000
562.108; 5162.950;  165.375;    0.000
562.236; 5304.950;  188.375;    0.000
562.364; 5387.950;  177.375;    0.000
562.492; 5378.950;  192.375;    0.000
562.619; 5250.950;  187.375;    0.000
562.747; 5421.950;  217.375;    0.000
562.875; 5418.950;  221.375;    0.000
563.003; 5429.950;  199.375;    0.000
563.130; 5483.950;  191.375;    0.000
563.258; 5511.950;  186.375;    0.000
563.386; 5540.950;  191.375;    0.000
563.514; 5477.950;  217.375;    0.000
563.641; 5538.950;  220.375;    0.000
563.769; 5767.950;  186.375;    0.000
563.897; 5729.950;  158.375;    0.000
564.024; 5834.950;  192.375;    0.000
564.152; 5914.950;  217.375;    0.000
564.280; 5941.950;  203.375;    0.000
564.407; 5903.950;  190.375;    0.000
564.535; 5872.950;  188.375;    0.000
564.662; 6087.950;  199.375;    0.000
564.790; 5979.950;  227.375;    0.000
564.917; 6038.950;  160.375;    0.000
565.045; 5959.950;  222.375;    0.000
565.173; 6064.950;  169.375;    0.000
565.300; 6075.950;  208.375;    0.000
565.428; 6041.950;  174.375;    0.000
565.555; 6165.950;  201.375;    0.000
565.682; 6399.950;  180.375;    0.000
565.810; 6500.950;  165.375;    0.000
565.937; 6457.950;  167.375;    0.000
566.065; 6554.950;  190.375;    0.000
566.192; 6710.950;  169.375;    0.000
566.320; 6849.950;  167.375;    0.000
566.447; 6878.950;  151.375;    0.000
566.574; 7060.950;  176.375;    0.000
566.702; 7083.950;  198.375;    0.000
566.829; 7151.950;  209.375;    0.000
566.956; 7266.950;  186.375;    0.000
567.083; 7239.950;  188.375;    0.000
567.211; 7338.950;  159.375;    0.000
567.338; 7309.950;  204.375;    0.000
567.465; 7297.950;  141.375;    0.000
567.593; 7455.950;  168.375;    0.000
567.720; 7397.950;  177.375;    0.000
567.847; 7335.950;  160.375;    0.000
567.974; 7480.950;  139.375;    0.000
568.101; 7474.950;  153.375;    0.000
568.228; 7853.950;  173.375;    0.000
568.356; 8146.950;  149.375;    0.000
568.483; 7807.950;  185.375;    0.000
568.610; 7598.950;  170.375;    0.000
568.737; 8091.950;  223.375;    0.000
568.864; 8742.950;  167.375;    0.000
568.991; 8429.950;  177.375;    0.000
569.118; 7819.950;  169.375;    0.000
569.245; 7295.950;  128.375;    0.000
569.372; 6989.950;  160.375;    0.000
569.499; 6725.950;  156.375;    0.000
569.626; 6674.950;  191.375;    0.000
569.753; 6365.950;  163.375;    0.000
569.880; 6215.950;  167.375;    0.000
570.007; 6294.950;  143.375;    0.000
570.134; 6140.950;  191.375;    0.000
570.261; 6173.950;  164.375;    0.000
570.388; 6034.950;  162.375;    0.000
570.515; 5995.950;  220.375;    0.000
570.642; 6053.950;  184.375;    0.000
570.768; 6020.950;  174.375;    0.000
570.895; 5916.950;  177.375;    0.000
571.022; 5925.950;  152.375;    0.000
571.149; 5809.950;  183.375;    0.000
571.276; 5774.950;  153.375;    0.000
571.402; 5708.950;  190.375;    0.000
571.529; 5726.950;  187.375;    0.000
571.656; 5558.950;  167.375;    0.000
571.783; 5572.950;  186.375;    0.000
571.909; 5559.950;  183.375;    0.000
572.036; 5574.950;  162.375;    0.000
572.163; 5551.950;  196.375;    0.000
572.289; 5389.950;  180.375;    0.000
572.416; 5450.950;  190.375;    0.000
572.543; 5399.950;  174.375;    0.000
572.669; 5321.950;  186.375;    0.000
572.796; 5387.950;  205.375;    0.000
572.922; 5374.950;  185.375;    0.000
573.049; 5389.950;  178.375;    0.000
573.176; 5295.950;  196.375;    0.000
573.302; 5300.950;  202.375;    0.000
573.429; 5339.950;  189.375;    0.000
573.555; 5321.950;  145.375;    0.000
573.682; 5228.950;  228.375;    0.000
573.808; 5299.950;  197.375;    0.000
573.935; 5222.950;  216.375;    0.000
574.061; 5201.950;  173.375;    0.000
574.188; 5250.950;  151.375;    0.000
574.314; 5276.950;  181.375;    0.000
574.440; 5243.950;  167.375;    0.000
574.567; 5147.950;  185.375;    0.000
574.693; 5190.950;  173.375;    0.000
574.820; 5207.950;  164.375;    0.000
574.946; 5152.950;  199.375;    0.000
575.072; 5173.950;  162.375;    0.000
575.198; 5339.950;  225.375;    0.000
575.325; 5207.950;  171.375;    0.000
575.451; 5067.950;  183.375;    0.000
575.577; 5186.950;  190.375;    0.000
575.704; 5102.950;  210.375;    0.000
575.830; 5151.950;  185.375;    0.000
575.956; 5115.950;  168.375;    0.000
576.082; 5129.950;  158.375;    0.000
576.208; 5033.950;  158.375;    0.000
576.335; 5121.950;  196.375;    0.000
576.461; 5219.950;  187.375;    0.000
576.587; 5171.950;  157.375;    0.000
576.713; 5084.950;  156.375;    0.000
576.839; 5106.950;  196.375;    0.000
576.965; 5094.950;  187.375;    0.000
577.091; 5001.950;  204.375;    0.000
577.217; 5041.950;  207.375;    0.000
577.343; 5042.950;  175.375;    0.000
577.469; 5069.950;  197.375;    0.000
577.596; 5063.950;  182.375;    0.000
577.722; 4928.950;  159.375;    0.000
577.848; 5092.950;  162.375;    0.000
577.974; 4999.950;  180.375;    0.000
578.099; 5060.950;  161.375;    0.000
578.225; 5073.950;  180.375;    0.000
578.351; 5098.950;  190.375;    0.000
578.477; 4942.950;  212.375;    0.000
578.603; 5035.950;  179.375;    0.000
578.729; 5058.950;  195.375;    0.000
578.855; 5120.950;  153.375;    0.000
578.981; 5033.950;  162.375;    0.000
579.107; 5129.950;  149.375;    0.000
579.232; 5057.950;  164.375;    0.000
579.358; 5113.950;  162.375;    0.000
579.484; 5006.950;  181.375;    0.000
579.610; 5114.950;  190.375;    0.000
579.735; 5154.950;  191.375;    0.000
579.861; 5022.950;  189.375;    0.000
579.987; 5192.950;  202.375;    0.000
580.113; 5067.950;  197.375;    0.000
580.238; 5195.950;  228.375;    0.000
580.364; 5217.950;  212.375;    0.000
580.490; 5185.950;  225.375;    0.000
580.615; 5218.950;  218.375;    0.000
580.741; 5159.950;  167.375;    0.000
580.867; 5151.950;  215.375;    0.000
580.992; 5226.950;  191.375;    0.000
581.118; 5302.950;  171.375;    0.000
581.243; 5181.950;  204.375;    0.000
581.369; 5269.950;  186.375;    0.000
581.494; 5279.950;  184.375;    0.000
581.620; 5401.950;  212.375;    0.000
581.745; 5325.950;  192.375;    0.000
581.871; 5292.950;  195.375;    0.000
581.996; 5314.950;  160.375;    0.000
582.122; 5231.950;  217.375;    0.000
582.247; 5284.950;  213.375;    0.000
582.373; 5340.950;  187.375;    0.000
582.498; 5384.950;  208.375;    0.000
582.624; 5515.950;  189.375;    0.000
582.749; 5393.950;  185.375;    0.000
582.874; 5538.950;  195.375;    0.000
583.000; 5478.950;  208.375;    0.000
583.125; 5450.950;  147.375;    0.000
583.250; 5469.950;  201.375;    0.000
583.376; 5634.950;  191.375;    0.000
583.501; 5577.950;  206.375;    0.000
583.626; 5577.950;  167.375;    0.000
583.751; 5627.950;  180.375;    0.000
583.877; 5586.950;  185.375;    0.000
584.002; 5661.950;  186.375;    0.000
584.127; 5720.950;  176.375;    0.000
584.252; 5750.950;  214.375;    0.000
584.377; 5843.950;  225.375;    0.000
584.503; 5843.950;  195.375;    0.000
584.628; 5880.950;  206.375;    0.000
584.753; 5996.950;  181.375;    0.000
584.878; 5933.950;  136.375;    0.000
585.003; 6167.950;  215.375;    0.000
585.128; 6245.950;  206.375;    0.000
585.253; 6332.950;  200.375;    0.000
585.378; 6284.950;  169.375;    0.000
585.503; 6386.950;  191.375;    0.000
585.628; 6353.950;  182.375;    0.000
585.753; 6514.950;  164.375;    0.000
585.878; 6648.950;  123.375;    0.000
586.003; 6640.950;  187.375;    0.000
586.128; 6891.950;  198.375;    0.000
586.253; 6988.950;  172.375;    0.000
586.378; 7091.950;  191.375;    0.000
586.503; 7470.950;  190.375;    0.000
586.628; 7552.950;  178.375;    0.000
586.753; 7883.950;  184.375;    0.000
586.878; 7972.950;  169.375;    0.000
587.003; 8279.950;  186.375;    0.000
587.127; 8477.950;  170.375;    0.000
587.252; 8708.950;  170.375;    0.000
587.377; 9249.950;  181.375;    0.000
587.502; 9660.950;  209.375;    0.000
587.627;10233.950;  210.375;    0.000
587.751;10804.950;  212.375;    0.000
587.876;11530.950;  198.375;    0.000
588.001;12426.950;  161.375;    0.000
588.125;13772.950;  191.375;    0.000
588.250;15384.950;  132.375;    0.000
588.375;17626.949;  183.375;    0.000
588.499;20437.949;  176.375;    0.000
588.624;24633.949;  173.375;    0.000
588.749;31298.949;  204.375;    0.000
588.873;40930.949;  179.375;    0.000
588.998;49727.949;  182.375;    0.000
589.122;49560.949;  165.375;    0.000
589.247;42634.949;  185.375;    0.000
589.372;38487.949;  199.375;    0.000
589.496;41791.949;  182.375;    0.000
589.621;46105.949;  158.375;    0.000
589.745;41728.949;  213.375;    0.000
589.870;33393.949;  175.375;    0.000
589.994;26299.949;  194.375;    0.000
590.118;22033.949;  218.375;    0.000
590.243;19142.949;  170.375;    0.000
590.367;16862.949;  189.375;    0.000
590.492;15234.950;  196.375;    0.000
590.616;13981.950;  182.375;    0.000
590.740;12848.950;  210.375;    0.000
590.865;12007.950;  242.375;    0.000
590.989;11481.950;  191.375;    0.000
591.114;10795.950;  167.375;    0.000
591.238;10286.950;  194.375;    0.000
591.362; 9898.950;  236.375;    0.000
591.486; 9571.950;  194.375;    0.000
591.611; 9104.950;  154.375;    0.000
591.735; 9065.950;  186.375;    0.000
591.859; 8693.950;  148.375;    0.000
591.983; 8483.950;  211.375;    0.000
592.107; 8271.950;  204.375;    0.000
592.232; 8268.950;  194.375;    0.000
592.356; 8084.950;  238.375;    0.000
592.480; 7828.950;  179.375;    0.000
592.604; 7677.950;  192.375;    0.000
592.728; 7381.950;  201.375;    0.000
592.852; 7330.950;  158.375;    0.000
592.976; 7416.950;  152.375;    0.000
593.100; 7298.950;  194.375;    0.000
593.224; 7156.950;  235.375;    0.000
593.349; 7244.950;  233.375;    0.000
593.473; 6981.950;  194.375;    0.000
593.597; 6978.950;  215.375;    0.000
593.721; 6931.950;  212.375;    0.000
593.844; 6688.950;  220.375;    0.000
593.968; 6750.950;  221.375;    0.000
594.092; 6512.950;  150.375;    0.000
594.216; 6615.950;  212.375;    0.000
594.340; 6489.950;  209.375;    0.000
594.464; 6548.950;  207.375;    0.000
594.588; 6389.950;  195.375;    0.000
594.712; 6300.950;  176.375;    0.000
594.836; 6173.950;  219.375;    0.000
594.959; 6242.950;  215.375;    0.000
595.083; 6080.950;  200.375;    0.000
595.207; 6236.950;  206.375;    0.000
595.331; 5998.950;  207.375;    0.000
595.455; 5910.950;  206.375;    0.000
595.578; 5853.950;  204.375;    0.000
595.702; 5742.950;  225.375;    0.000
595.826; 5744.950;  186.375;    0.000
595.949; 5697.950;  196.375;    0.000
596.073; 5651.950;  188.375;    0.000
596.197; 5652.950;  217.375;    0.000
596.320; 5557.950;  225.375;    0.000
596.444; 5592.950;  220.375;    0.000
596.568; 5502.950;  155.375;    0.000
596.691; 5395.950;  195.375;    0.000
596.815; 5452.950;  163.375;    0.000
596.938; 5316.950;  181.375;    0.000
597.062; 5264.950;  201.375;    0.000
597.186; 5263.950;  200.375;    0.000
597.309; 5353.950;  214.375;    0.000
597.433; 5258.950;  176.375;    0.000
597.556; 5270.950;  193.375;    0.000
597.680; 5188.950;  241.375;    0.000
597.803; 5223.950;  185.375;    0.000
597.926; 5098.950;  200.375;    0.000
598.050; 5087.950;  193.375;    0.000
598.173; 5157.950;  219.375;    0.000
598.297; 4938.950;  223.375;    0.000
598.420; 5071.950;  187.375;    0.000
598.543; 5029.950;  205.375;    0.000
598.667; 5071.950;  177.375;    0.000
598.790; 5066.950;  208.375;    0.000
598.913; 4939.950;  170.375;    0.000
599.037; 5063.950;  212.375;    0.000
599.160; 4908.950;  165.375;    0.000
599.283; 4937.950;  211.375;    0.000
599.406; 4965.950;  207.375;    0.000
599.530; 4959.950;  182.375;    0.000
599.653; 4893.950;  215.375;    0.000
599.776; 4880.950;  167.375;    0.000
599.899; 4896.950;  190.375;    0.000
600.022; 4834.950;  182.375;    0.000
600.145; 4781.950;  180.375;    0.000
600.269; 4818.950;  208.375;    0.000
600.392; 4698.950;  214.375;    0.000
600.515; 4890.950;  196.375;    0.000
600.638; 4739.950;  204.375;    0.000
600.761; 4808.950;  209.375;    0.000
600.884; 4797.950;  207.375;    0.000
601.007; 4783.950;  234.375;    0.000
601.130; 4791.950;  183.375;    0.000
601.253; 4723.950;  211.375;    0.000
601.376; 4722.950;  199.375;    0.000
601.499; 4662.950;  190.375;    0.000
601.622; 4677.950;  210.375;    0.000
601.745; 4639.950;  180.375;    0.000
601.868; 4637.950;  204.375;    0.000
601.991; 4585.950;  188.375;    0.000
602.113; 4673.950;  210.375;    0.000
602.236; 4544.950;  194.375;    0.000
602.359; 4671.950;  213.375;    0.000
602.482; 4594.950;  169.375;    0.000
602.605; 4632.950;  189.375;    0.000
602.728; 4568.950;  236.375;    0.000
602.850; 4654.950;  230.375;    0.000
602.973; 4477.950;  187.375;    0.000
603.096; 4595.950;  201.375;    0.000
603.219; 4540.950;  209.375;    0.000
603.341; 4518.950;  209.375;    0.000
603.464; 4645.950;  194.375;    0.000
603.587; 4608.950;  166.375;    0.000
603.709; 4591.950;  175.375;    0.000
603.832; 4620.950;  239.375;    0.000
603.955; 4589.950;  205.375;    0.000
604.077; 4478.950;  196.375;    0.000
604.200; 4502.950;  188.375;    0.000
604.323; 4497.950;  224.375;    0.000
604.445; 4462.950;  182.375;    0.000
604.568; 4500.950;  199.375;    0.000
604.690; 4447.950;  175.375;    0.000
604.813; 4441.950;  211.375;    0.000
604.935; 4466.950;  171.375;    0.000
605.058; 4517.950;  196.375;    0.000
605.180; 4496.950;  194.375;    0.000
605.303; 4519.950;  198.375;    0.000
605.425; 4504.950;  212.375;    0.000
605.547; 4487.950;  238.375;    0.000
605.670; 4486.950;  207.375;    0.000
605.792; 4360.950;  204.375;    0.000
605.915; 4417.950;  198.375;    0.000
606.037; 4500.950;  215.375;    0.000
606.159; 4429.950;  170.375;    0.000
606.282; 4363.950;  194.375;    0.000
606.404; 4382.950;  207.375;    0.000
606.526; 4318.950;  208.375;    0.000
606.648; 4322.950;  174.375;    0.000
606.771; 4402.950;  170.375;    0.000
606.893; 4365.950;  182.375;    0.000
607.015; 4487.950;  180.375;    0.000
607.137; 4247.950;  187.375;    0.000
607.260; 4357.950;  202.375;    0.000
607.382; 4349.950;  226.375;    0.000
607.504; 4396.950;  208.375;    0.000
607.626; 4321.950;  229.375;    0.000
607.748; 4417.950;  170.375;    0.000
607.870; 4350.950;  208.375;    0.000
607.992; 4418.950;  184.375;    0.000
608.114; 4342.950;  213.375;    0.000
608.237; 4252.950;  237.375;    0.000
608.359; 4222.950;  176.375;    0.000
608.481; 4303.950;  173.375;    0.000
608.603; 4365.950;  189.375;    0.000
608.725; 4489.950;  185.375;    0.000
608.847; 4338.950;  239.375;    0.000
608.969; 4281.950;  237.375;    0.000
609.090; 4165.950;  189.375;    0.000
609.212; 4280.950;  147.375;    0.000
609.334; 4374.950;  177.375;    0.000
609.456; 4303.950;  196.375;    0.000
609.578; 4284.950;  199.375;    0.000
609.700; 4242.950;  167.375;    0.000
609.822; 4238.950;  140.375;    0.000
609.944; 4375.950;  225.375;    0.000
610.065; 4297.950;  183.375;    0.000
610.187; 4348.950;  170.375;    0.000
610.309; 4215.950;  210.375;    0.000
610.431; 4339.950;  185.375;    0.000
610.552; 4257.950;  197.375;    0.000
610.674; 4248.950;  188.375;    0.000
610.796; 4320.950;  162.375;    0.000
610.918; 4345.950;  200.375;    0.000
611.039; 4211.950;  209.375;    0.000
611.161; 4274.950;  201.375;    0.000
611.282; 4298.950;  197.375;    0.000
611.404; 4260.950;  220.375;    0.000
611.526; 4238.950;  159.375;    0.000
611.647; 4227.950;  205.375;    0.000
611.769; 4271.950;  161.375;    0.000
611.890; 4217.950;  173.375;    0.000
612.012; 4204.950;  225.375;    0.000
612.133; 4197.950;  188.375;    0.000
612.255; 4251.950;  217.375;    0.000
612.377; 4251.950;  219.375;    0.000
612.498; 4178.950;  177.375;    0.000
612.619; 4168.950;  211.375;    0.000
612.741; 4260.950;  185.375;    0.000
612.862; 4225.950;  191.375;    0.000
612.984; 4211.950;  190.375;    0.000
613.105; 4225.950;  211.375;    0.000
613.226; 4166.950;  174.375;    0.000
613.348; 4284.950;  235.375;    0.000
613.469; 4196.950;  230.375;    0.000
613.590; 4167.950;  208.375;    0.000
613.712; 4232.950;  244.375;    0.000
613.833; 4233.950;  202.375;    0.000
613.954; 4160.950;  228.375;    0.000
614.076; 4148.950;  220.375;    0.000
614.197; 4135.950;  191.375;    0.000
614.318; 4126.950;  201.375;    0.000
614.439; 4312.950;  212.375;    0.000
614.560; 4132.950;  219.375;    0.000
614.682; 4172.950;  189.375;    0.000
614.803; 4165.950;  188.375;    0.000
614.924; 4169.950;  225.375;    0.000
615.045; 4148.950;  227.375;    0.000
615.166; 4212.950;  200.375;    0.000
615.287; 4376.950;  195.375;    0.000
615.408; 4576.950;  199.375;    0.000
615.529; 4672.950;  227.375;    0.000
615.650; 4476.950;  176.375;    0.000
615.771; 4302.950;  211.375;    0.000
615.892; 4420.950;  212.375;    0.000
616.013; 4772.950;  172.375;    0.000
616.134; 5014.950;  220.375;    0.000
616.255; 4818.950;  251.375;    0.000
616.376; 4547.950;  186.375;    0.000
616.497; 4382.950;  201.375;    0.000
616.618; 4376.950;  149.375;    0.000
616.739; 4323.950;  213.375;    0.000
616.860; 4341.950;  224.375;    0.000
616.981; 4221.950;  224.375;    0.000
617.102; 4207.950;  217.375;    0.000
617.222; 4288.950;  237.375;    0.000
617.343; 4161.950;  205.375;    0.000
617.464; 4314.950;  229.375;    0.000
617.585; 4274.950;  227.375;    0.000
617.705; 4223.950;  191.375;    0.000
617.826; 4242.950;  237.375;    0.000
617.947; 4194.950;  223.375;    0.000
618.068; 4163.950;  189.375;    0.000
618.188; 4091.950;  194.375;    0.000
618.309; 4235.950;  206.375;    0.000
618.430; 4097.950;  229.375;    0.000
618.550; 4183.950;  250.375;    0.000
618.671; 4187.950;  201.375;    0.000
618.791; 4095.950;  226.375;    0.000
618.912; 4153.950;  246.375;    0.000
619.033; 4124.950;  243.375;    0.000
619.153; 4123.950;  208.375;    0.000
619.274; 4089.950;  223.375;    0.000
619.394; 4219.950;  226.375;    0.000
619.515; 4048.950;  188.375;    0.000
619.635; 4030.950;  216.375;    0.000
619.756; 4107.950;  229.375;    0.000
619.876; 4122.950;  216.375;    0.000
619.996; 4107.950;  244.375;    0.000
620.117; 4082.950;  225.375;    0.000
620.237; 4109.950;  207.375;    0.000
620.358; 4061.950;  239.375;    0.000
620.478; 4179.950;  237.375;    0.000
620.598; 4039.950;  237.375;    0.000
620.719; 3919.950;  223.375;    0.000
620.839; 4130.950;  254.375;    0.000
620.959; 4026.950;  244.375;    0.000
621.079; 4001.950;  193.375;    0.000
621.200; 4095.950;  233.375;    0.000
621.320; 4055.950;  270.375;    0.000
621.440; 4049.950;  206.375;    0.000
621.560; 3973.950;  241.375;    0.000
621.681; 4044.950;  231.375;    0.000
621.801; 4023.950;  235.375;    0.000
621.921; 4031.950;  240.375;    0.000
622.041; 4020.950;  244.375;    0.000
622.161; 3940.950;  225.375;    0.000
622.281; 3940.950;  222.375;    0.000
622.401; 4035.950;  238.375;    0.000
622.521; 3973.950;  233.375;    0.000
622.641; 4018.950;  241.375;    0.000
622.761; 4086.950;  233.375;    0.000
622.882; 3936.950;  230.375;    0.000
623.002; 3937.950;  206.375;    0.000
623.121; 4002.950;  217.375;    0.000
623.241; 3989.950;  263.375;    0.000
623.361; 4017.950;  245.375;    0.000
623.481; 3938.950;  194.375;    0.000
623.601; 4018.950;  228.375;    0.000
623.721; 3961.950;  219.375;    0.000
623.841; 3934.950;  234.375;    0.000
623.961; 3958.950;  235.375;    0.000
624.081; 3887.950;  166.375;    0.000
624.201; 3909.950;  229.375;    0.000
624.320; 3904.950;  224.375;    0.000
624.440; 3921.950;  200.375;    0.000
624.560; 3929.950;  220.375;    0.000
624.680; 3959.950;  214.375;    0.000
624.799; 3908.950;  179.375;    0.000
624.919; 3892.950;  199.375;    0.000
625.039; 3864.950;  211.375;    0.000
625.159; 3886.950;  213.375;    0.000
625.278; 3925.950;  178.375;    0.000
625.398; 3790.950;  206.375;    0.000
625.518; 3902.950;  182.375;    0.000
625.637; 3920.950;  206.375;    0.000
625.757; 3863.950;  197.375;    0.000
625.876; 3894.950;  204.375;    0.000
625.996; 3851.950;  222.375;    0.000
626.115; 3811.950;  222.375;    0.000
626.235; 3824.950;  222.375;    0.000
626.354; 3859.950;  211.375;    0.000
626.474; 3903.950;  217.375;    0.000
626.594; 3799.950;  190.375;    0.000
626.713; 3929.950;  200.375;    0.000
626.832; 3884.950;  234.375;    0.000
626.952; 3813.950;  214.375;    0.000
627.071; 3865.950;  243.375;    0.000
627.191; 3807.950;  192.375;    0.000
627.310; 3796.950;  211.375;    0.000
627.429; 3942.950;  218.375;    0.000
627.549; 3870.950;  214.375;    0.000
627.668; 3744.950;  208.375;    0.000
627.787; 3805.950;  199.375;    0.000
627.907; 3786.950;  208.375;    0.000
628.026; 3833.950;  216.375;    0.000
628.145; 3811.950;  170.375;    0.000
628.264; 3814.950;  217.375;    0.000
628.384; 3770.950;  190.375;    0.000
628.503; 3783.950;  203.375;    0.000
628.622; 3852.950;  197.375;    0.000
628.741; 3831.950;  186.375;    0.000
628.860; 3813.950;  191.375;    0.000
628.980; 3807.950;  196.375;    0.000
629.099; 3883.950;  190.375;    0.000
629.218; 3796.950;  165.375;    0.000
629.337; 3781.950;  190.375;    0.000
629.456; 3772.950;  222.375;    0.000
629.575; 3801.950;  197.375;    0.000
629.694; 3747.950;  210.375;    0.000
629.813; 3808.950;  187.375;    0.000
629.932; 3886.950;  224.375;    0.000
630.051; 3804.950;  216.375;    0.000
630.170; 3718.950;  203.375;    0.000
630.289; 3859.950;  178.375;    0.000
630.408; 3700.950;  192.375;    0.000
630.527; 3819.950;  223.375;    0.000
630.646; 3646.950;  177.375;    0.000
630.764; 3761.950;  224.375;    0.000
630.883; 3747.950;  220.375;    0.000
631.002; 3676.950;  187.375;    0.000
631.121; 3791.950;  208.375;    0.000
631.240; 3801.950;  217.375;    0.000
631.359; 3770.950;  241.375;    0.000
631.477; 3725.950;  189.375;    0.000
631.596; 3760.950;  244.375;    0.000
631.715; 3799.950;  241.375;    0.000
631.834; 3830.950;  219.375;    0.000
631.952; 3733.950;  231.375;    0.000
632.071; 3740.950;  197.375;    0.000
632.190; 3658.950;  193.375;    0.000
632.308; 3681.950;  185.375;    0.000
632.427; 3711.950;  188.375;    0.000
632.546; 3796.950;  208.375;    0.000
632.664; 3744.950;  191.375;    0.000
632.783; 3745.950;  201.375;    0.000
632.901; 3682.950;  239.375;    0.000
633.020; 3623.950;  197.375;    0.000
633.138; 3634.950;  189.375;    0.000
633.257; 3742.950;  210.375;    0.000
633.375; 3750.950;  213.375;    0.000
633.494; 3643.950;  206.375;    0.000
633.612; 3633.950;  231.375;    0.000
633.731; 3753.950;  213.375;    0.000
633.849; 3701.950;  244.375;    0.000
633.968; 3633.950;  251.375;    0.000
634.086; 3589.950;  224.375;    0.000
634.204; 3682.950;  212.375;    0.000
634.323; 3642.950;  213.375;    0.000
634.441; 3672.950;  219.375;    0.000
634.559; 3682.950;  198.375;    0.000
634.678; 3672.950;  201.375;    0.000
634.796; 3691.950;  179.375;    0.000
634.914; 3591.950;  255.375;    0.000
635.032; 3660.950;  264.375;    0.000
635.151; 3621.950;  228.375;    0.000
635.269; 3618.950;  223.375;    0.000
635.387; 3757.950;  228.375;    0.000
635.505; 3597.950;  214.375;    0.000
635.623; 3576.950;  279.375;    0.000
635.742; 3704.950;  237.375;    0.000
635.860; 3639.950;  244.375;    0.000
635.978; 3710.950;  213.375;    0.000
636.096; 3658.950;  230.375;    0.000
636.214; 3628.950;  252.375;    0.000
636.332; 3652.950;  221.375;    0.000
636.450; 3653.950;  227.375;    0.000
636.568; 3623.950;  193.375;    0.000
636.686; 3499.950;  208.375;    0.000
636.804; 3660.950;  213.375;    0.000
636.922; 3556.950;  199.375;    0.000
637.040; 3558.950;  202.375;    0.000
637.158; 3627.950;  239.375;    0.000
637.276; 3625.950;  225.375;    0.000
637.394; 3624.950;  217.375;    0.000
637.512; 3530.950;  192.375;    0.000
637.629; 3555.950;  216.375;    0.000
637.747; 3573.950;  198.375;    0.000
637.865; 3714.950;  265.375;    0.000
637.983; 3618.950;  245.375;    0.000
638.101; 3559.950;  199.375;    0.000
638.218; 3605.950;  197.375;    0.000
638.336; 3610.950;  212.375;    0.000
638.454; 3633.950;  227.375;    0.000
638.572; 3613.950;  215.375;    0.000
638.689; 3665.950;  214.375;    0.000
638.807; 3572.950;  233.375;    0.000
638.925; 3609.950;  217.375;    0.000
639.042; 3560.950;  180.375;    0.000
639.160; 3632.950;  220.375;    0.000
639.278; 3580.950;  180.375;    0.000
639.395; 3702.950;  243.375;    0.000
639.513; 3596.950;  207.375;    0.000
639.630; 3594.950;  183.375;    0.000
639.748; 3544.950;  231.375;    0.000
639.865; 3606.950;  215.375;    0.000
639.983; 3549.950;  182.375;    0.000
640.100; 3542.950;  190.375;    0.000
640.218; 3589.950;  224.375;    0.000
640.335; 3518.950;  214.375;    0.000
640.453; 3631.950;  212.375;    0.000
640.570; 3618.950;  224.375;    0.000
640.688; 3585.950;  220.375;    0.000
640.805; 3632.950;  189.375;    0.000
640.922; 3635.950;  256.375;    0.000
641.040; 3621.950;  209.375;    0.000
641.157; 3567.950;  195.375;    0.000
641.274; 3516.950;  195.375;    0.000
641.391; 3642.950;  231.375;    0.000
641.509; 3547.950;  207.375;    0.000
641.626; 3654.950;  227.375;    0.000
641.743; 3547.950;  188.375;    0.000
641.860; 3598.950;  208.375;    0.000
641.978; 3593.950;  222.375;    0.000
642.095; 3607.950;  194.375;    0.000
642.212; 3517.950;  202.375;    0.000
642.329; 3581.950;  241.375;    0.000
642.446; 3625.950;  261.375;    0.000
642.563; 3612.950;  236.375;    0.000
642.681; 3573.950;  228.375;    0.000
642.798; 3616.950;  242.375;    0.000
642.915; 3624.950;  197.375;    0.000
643.032; 3686.950;  239.375;    0.000
643.149; 3612.950;  241.375;    0.000
643.266; 3632.950;  199.375;    0.000
643.383; 3640.950;  200.375;    0.000
643.500; 3578.950;  221.375;    0.000
643.617; 3659.950;  196.375;    0.000
643.734; 3604.950;  207.375;    0.000
643.850; 3624.950;  222.375;    0.000
643.967; 3648.950;  235.375;    0.000
644.084; 3703.950;  233.375;    0.000
644.201; 3657.950;  229.375;    0.000
644.318; 3514.950;  210.375;    0.000
644.435; 3562.950;  234.375;    0.000
644.552; 3648.950;  220.375;    0.000
644.668; 3667.950;  231.375;    0.000
644.785; 3572.950;  231.375;    0.000
644.902; 3691.950;  238.375;    0.000
645.019; 3609.950;  226.375;    0.000
645.135; 3770.950;  179.375;    0.000
645.252; 3683.950;  224.375;    0.000
645.369; 3714.950;  206.375;    0.000
645.485; 3631.950;  200.375;    0.000
645.602; 3740.950;  210.375;    0.000
645.719; 3699.950;  206.375;    0.000
645.835; 3811.950;  247.375;    0.000
645.952; 3721.950;  222.375;    0.000
646.068; 3721.950;  205.375;    0.000
646.185; 3792.950;  230.375;    0.000
646.302; 3899.950;  254.375;    0.000
646.418; 3741.950;  230.375;    0.000
646.535; 3844.950;  214.375;    0.000
646.651; 3792.950;  179.375;    0.000
646.768; 3826.950;  190.375;    0.000
646.884; 3817.950;  208.375;    0.000
647.000; 3758.950;  262.375;    0.000
647.117; 3858.950;  212.375;    0.000
647.233; 3802.950;  228.375;    0.000
647.350; 3889.950;  208.375;    0.000
647.466; 3864.950;  211.375;    0.000
647.582; 3853.950;  196.375;    0.000
647.699; 3937.950;  217.375;    0.000
647.815; 3883.950;  203.375;    0.000
647.931; 3980.950;  201.375;    0.000
648.047; 3934.950;  182.375;    0.000
648.164; 3936.950;  219.375;    0.000
648.280; 3910.950;  213.375;    0.000
648.396; 3879.950;  202.375;    0.000
648.512; 3946.950;  233.375;    0.000
648.629; 3889.950;  206.375;    0.000
648.745; 3976.950;  188.375;    0.000
648.861; 3913.950;  209.375;    0.000
648.977; 4111.950;  218.375;    0.000
649.093; 3987.950;  225.375;    0.000
649.209; 4052.950;  240.375;    0.000
649.325; 4000.950;  253.375;    0.000
649.441; 3986.950;  263.375;    0.000
649.557; 4113.950;  256.375;    0.000
649.673; 4063.950;  211.375;    0.000
649.789; 4064.950;  237.375;    0.000
649.905; 4024.950;  183.375;    0.000
650.021; 4097.950;  238.375;    0.000
650.137; 4152.950;  241.375;    0.000
650.253; 4075.950;  228.375;    0.000
650.369; 4124.950;  221.375;    0.000
650.485; 4114.950;  240.375;    0.000
650.601; 4076.950;  254.375;    0.000
650.717; 4152.950;  201.375;    0.000
650.833; 4173.950;  257.375;    0.000
650.948; 4270.950;  213.375;    0.000
651.064; 4185.950;  223.375;    0.000
651.180; 4148.950;  230.375;    0.000
651.296; 4232.950;  235.375;    0.000
651.411; 4192.950;  221.375;    0.000
651.527; 4309.950;  233.375;    0.000
651.643; 4248.950;  236.375;    0.000
651.759; 4374.950;  268.375;    0.000
651.874; 4424.950;  214.375;    0.000
651.990; 4462.950;  251.375;    0.000
652.105; 4386.950;  217.375;    0.000
652.221; 4524.950;  243.375;    0.000
652.337; 4521.950;  231.375;    0.000
652.452; 4514.950;  238.375;    0.000
652.568; 4581.950;  188.375;    0.000
652.683; 4471.950;  197.375;    0.000
652.799; 4616.950;  194.375;    0.000
652.914; 4598.950;  222.375;    0.000
653.030; 4665.950;  200.375;    0.000
653.145; 4740.950;  235.375;    0.000
653.261; 4743.950;  261.375;    0.000
653.376; 4840.950;  228.375;    0.000
653.492; 4853.950;  222.375;    0.000
653.607; 4922.950;  227.375;    0.000
653.722; 5058.950;  250.375;    0.000
653.838; 5121.950;  255.375;    0.000
653.953; 5058.950;  235.375;    0.000
654.068; 5254.950;  266.375;    0.000
654.184; 5275.950;  210.375;    0.000
654.299; 5337.950;  240.375;    0.000
654.414; 5418.950;  222.375;    0.000
654.530; 5457.950;  222.375;    0.000
654.645; 5623.950;  256.375;    0.000
654.760; 5779.950;  244.375;    0.000
654.875; 5844.950;  229.375;    0.000
654.990; 6111.950;  226.375;    0.000
655.106; 6182.950;  254.375;    0.000
655.221; 6257.950;  251.375;    0.000
655.336; 6349.950;  245.375;    0.000
655.451; 6544.950;  199.375;    0.000
655.566; 6585.950;  228.375;    0.000
655.681; 6955.950;  208.375;    0.000
655.796; 7094.950;  218.375;    0.000
655.911; 7358.950;  233.375;    0.000
656.026; 7590.950;  232.375;    0.000
656.141; 7862.950;  223.375;    0.000
656.256; 8117.950;  247.375;    0.000
656.371; 8119.950;  220.375;    0.000
656.486; 8215.950;  225.375;    0.000
656.601; 8043.950;  257.375;    0.000
656.716; 7821.950;  248.375;    0.000
656.831; 7628.950;  262.375;    0.000
656.946; 7575.950;  249.375;    0.000
657.060; 7469.950;  245.375;    0.000
657.175; 7193.950;  245.375;    0.000
657.290; 7174.950;  219.375;    0.000
657.405; 7122.950;  286.375;    0.000
657.520; 6839.950;  259.375;    0.000
657.634; 6766.950;  239.375;    0.000
657.749; 6682.950;  227.375;    0.000
657.864; 6461.950;  210.375;    0.000
657.979; 6305.950;  236.375;    0.000
658.093; 6223.950;  210.375;    0.000
658.208; 6005.950;  248.375;    0.000
658.323; 5853.950;  216.375;    0.000
658.437; 5816.950;  248.375;    0.000
658.552; 5906.950;  249.375;    0.000
658.666; 5723.950;  256.375;    0.000
658.781; 5692.950;  247.375;    0.000
658.895; 5542.950;  209.375;    0.000
659.010; 5390.950;  219.375;    0.000
659.125; 5449.950;  215.375;    0.000
659.239; 5381.950;  205.375;    0.000
659.353; 5288.950;  246.375;    0.000
659.468; 5211.950;  245.375;    0.000
659.582; 5171.950;  244.375;    0.000
659.697; 5166.950;  242.375;    0.000
659.811; 5170.950;  239.375;    0.000
659.926; 5016.950;  226.375;    0.000
660.040; 4889.950;  255.375;    0.000
660.154; 4903.950;  225.375;    0.000
660.269; 4811.950;  200.375;    0.000
660.383; 4761.950;  192.375;    0.000
660.497; 4772.950;  218.375;    0.000
660.612; 4678.950;  236.375;    0.000
660.726; 4875.950;  263.375;    0.000
660.840; 4659.950;  205.375;    0.000
660.954; 4580.950;  219.375;    0.000
661.068; 4576.950;  240.375;    0.000
661.183; 4465.950;  221.375;    0.000
661.297; 4463.950;  194.375;    0.000
661.411; 4427.950;  253.375;    0.000
661.525; 4398.950;  246.375;    0.000
661.639; 4374.950;  217.375;    0.000
661.753; 4212.950;  241.375;    0.000
661.867; 4317.950;  276.375;    0.000
661.981; 4209.950;  203.375;    0.000
662.095; 4273.950;  224.375;    0.000
662.209; 4097.950;  217.375;    0.000
662.323; 4094.950;  251.375;    0.000
662.437; 3988.950;  243.375;    0.000
662.551; 4172.950;  244.375;    0.000
662.665; 4054.950;  247.375;    0.000
662.779; 4036.950;  251.375;    0.000
662.893; 4107.950;  254.375;    0.000
663.007; 3952.950;  222.375;    0.000
663.121; 3946.950;  253.375;    0.000
663.235; 3853.950;  270.375;    0.000
663.349; 3792.950;  242.375;    0.000
663.462; 3889.950;  230.375;    0.000
663.576; 3724.950;  230.375;    0.000
663.690; 3829.950;  249.375;    0.000
663.804; 3816.950;  200.375;    0.000
663.917; 3736.950;  204.375;    0.000
664.031; 3620.950;  206.375;    0.000
664.145; 3682.950;  202.375;    0.000
664.258; 3624.950;  221.375;    0.000
664.372; 3616.950;  215.375;    0.000
664.486; 3544.950;  179.375;    0.000
664.599; 3558.950;  208.375;    0.000
664.713; 3659.950;  268.375;    0.000
664.827; 3588.950;  225.375;    0.000
664.940; 3590.950;  222.375;    0.000
665.054; 3566.950;  208.375;    0.000
665.167; 3595.950;  253.375;    0.000
665.281; 3487.950;  237.375;    0.000
665.394; 3476.950;  227.375;    0.000
665.508; 3325.950;  192.375;    0.000
665.621; 3405.950;  175.375;    0.000
665.735; 3469.950;  249.375;    0.000
665.848; 3495.950;  197.375;    0.000
665.961; 3380.950;  206.375;    0.000
666.075; 3458.950;  245.375;    0.000
666.188; 3418.950;  230.375;    0.000
666.301; 3290.950;  219.375;    0.000
666.415; 3279.950;  231.375;    0.000
666.528; 3394.950;  258.375;    0.000
666.641; 3345.950;  243.375;    0.000
666.755; 3387.950;  208.375;    0.000
666.868; 3327.950;  228.375;    0.000
666.981; 3357.950;  244.375;    0.000
667.094; 3353.950;  244.375;    0.000
667.207; 3248.950;  226.375;    0.000
667.321; 3203.950;  175.375;    0.000
667.434; 3183.950;  211.375;    0.000
667.547; 3282.950;  249.375;    0.000
667.660; 3188.950;  225.375;    0.000
667.773; 3190.950;  242.375;    0.000
667.886; 3249.950;  246.375;    0.000
667.999; 3225.950;  244.375;    0.000
668.112; 3237.950;  227.375;    0.000
668.225; 3146.950;  231.375;    0.000
668.338; 3165.950;  256.375;    0.000
668.451; 3186.950;  216.375;    0.000
668.564; 3084.950;  261.375;    0.000
668.677; 3114.950;  230.375;    0.000
668.790; 3065.950;  192.375;    0.000
668.903; 3038.950;  243.375;    0.000
669.016; 3063.950;  201.375;    0.000
669.129; 3012.950;  249.375;    0.000
669.242; 3063.950;  190.375;    0.000
669.354; 2962.950;  219.375;    0.000
669.467; 2983.950;  242.375;    0.000
669.580; 3041.950;  237.375;    0.000
669.693; 3000.950;  243.375;    0.000
669.806; 3049.950;  234.375;    0.000
669.918; 3017.950;  206.375;    0.000
670.031; 3025.950;  258.375;    0.000
670.144; 2976.950;  231.375;    0.000
670.256; 2978.950;  244.375;    0.000
670.369; 3028.950;  262.375;    0.000
670.482; 2970.950;  264.375;    0.000
670.594; 2972.950;  256.375;    0.000
670.707; 3004.950;  224.375;    0.000
670.820; 2951.950;  261.375;    0.000
670.932; 3008.950;  226.375;    0.000
671.045; 2949.950;  243.375;    0.000
671.157; 3008.950;  235.375;    0.000
671.270; 2988.950;  217.375;    0.000
671.382; 2929.950;  267.375;    0.000
671.495; 2938.950;  258.375;    0.000
671.607; 2962.950;  236.375;    0.000
671.720; 2926.950;  200.375;    0.000
671.832; 2862.950;  219.375;    0.000
671.944; 2928.950;  234.375;    0.000
672.057; 2841.950;  226.375;    0.000
672.169; 2905.950;  225.375;    0.000
672.281; 2929.950;  253.375;    0.000
672.394; 2887.950;  238.375;    0.000
672.506; 2878.950;  244.375;    0.000
672.618; 2886.950;  272.375;    0.000
672.731; 2912.950;  247.375;    0.000
672.843; 2898.950;  261.375;    0.000
672.955; 2945.950;  262.375;    0.000
673.067; 2857.950;  253.375;    0.000
673.180; 2863.950;  239.375;    0.000
673.292; 2898.950;  240.375;    0.000
673.404; 2823.950;  243.375;    0.000
673.516; 2734.950;  258.375;    0.000
673.628; 2868.950;  263.375;    0.000
673.740; 2819.950;  250.375;    0.000
673.852; 2815.950;  285.375;    0.000
673.964; 2809.950;  264.375;    0.000
674.076; 2749.950;  260.375;    0.000
674.188; 2776.950;  226.375;    0.000
674.300; 2735.950;  272.375;    0.000
674.412; 2781.950;  259.375;    0.000
674.524; 2788.950;  283.375;    0.000
674.636; 2808.950;  259.375;    0.000
674.748; 2694.950;  238.375;    0.000
674.860; 2821.950;  277.375;    0.000
674.972; 2760.950;  272.375;    0.000
675.084; 2676.950;  244.375;    0.000
675.196; 2796.950;  272.375;    0.000
675.307; 2739.950;  244.375;    0.000
675.419; 2644.950;  219.375;    0.000
675.531; 2798.950;  275.375;    0.000
675.643; 2786.950;  215.375;    0.000
675.755; 2704.950;  243.375;    0.000
675.866; 2725.950;  223.375;    0.000
675.978; 2694.950;  216.375;    0.000
676.090; 2717.950;  242.375;    0.000
676.201; 2707.950;  276.375;    0.000
676.313; 2682.950;  226.375;    0.000
676.425; 2638.950;  234.375;    0.000
676.536; 2689.950;  231.375;    0.000
676.648; 2728.950;  254.375;    0.000
676.759; 2649.950;  273.375;    0.000
676.871; 2639.950;  250.375;    0.000
676.983; 2735.950;  256.375;    0.000
677.094; 2684.950;  210.375;    0.000
677.206; 2708.950;  248.375;    0.000
677.317; 2654.950;  263.375;    0.000
677.429; 2679.950;  238.375;    0.000
677.540; 2657.950;  247.375;    0.000
677.651; 2542.950;  224.375;    0.000
677.763; 2576.950;  217.375;    0.000
677.874; 2595.950;  234.375;    0.000
677.986; 2565.950;  238.375;    0.000
678.097; 2598.950;  226.375;    0.000
678.208; 2603.950;  253.375;    0.000
678.320; 2584.950;  217.375;    0.000
678.431; 2559.950;  238.375;    0.000
678.542; 2614.950;  236.375;    0.000
678.653; 2573.950;  218.375;    0.000
678.765; 2543.950;  275.375;    0.000
678.876; 2576.950;  213.375;    0.000
678.987; 2549.950;  182.375;    0.000
679.098; 2553.950;  221.375;    0.000
679.209; 2548.950;  238.375;    0.000
679.320; 2541.950;  212.375;    0.000
679.432; 2548.950;  231.375;    0.000
679.543; 2546.950;  198.375;    0.000
679.654; 2516.950;  191.375;    0.000
679.765; 2622.950;  214.375;    0.000
679.876; 2580.950;  221.375;    0.000
679.987; 2498.950;  162.375;    0.000
680.098; 2555.950;  230.375;    0.000
680.209; 2500.950;  206.375;    0.000
680.320; 2513.950;  196.375;    0.000
680.431; 2560.950;  191.375;    0.000
680.542; 2561.950;  214.375;    0.000
680.653; 2555.950;  238.375;    0.000
680.763; 2462.950;  182.375;    0.000
680.874; 2538.950;  213.375;    0.000
680.985; 2446.950;  224.375;    0.000
681.096; 2510.950;  222.375;    0.000
681.207; 2491.950;  220.375;    0.000
681.318; 2513.950;  216.375;    0.000
681.428; 2483.950;  229.375;    0.000
681.539; 2485.950;  183.375;    0.000
681.650; 2495.950;  202.375;    0.000
681.760; 2459.950;  223.375;    0.000
681.871; 2498.950;  211.375;    0.000
681.982; 2465.950;  189.375;    0.000
682.093; 2494.950;  222.375;    0.000
682.203; 2497.950;  220.375;    0.000
682.314; 2453.950;  214.375;    0.000
682.424; 2445.950;  208.375;    0.000
682.535; 2458.950;  213.375;    0.000
682.646; 2491.950;  302.375;    0.000
682.756; 2504.950;  255.375;    0.000
682.867; 2504.950;  244.375;    0.000
682.977; 2426.950;  221.375;    0.000
683.088; 2509.950;  259.375;    0.000
683.198; 2453.950;  212.375;    0.000
683.308; 2500.950;  202.375;    0.000
683.419; 2482.950;  255.375;    0.000
683.529; 2503.950;  217.375;    0.000
683.640; 2518.950;  240.375;    0.000
683.750; 2360.950;  181.375;    0.000
683.860; 2450.950;  246.375;    0.000
683.971; 2469.950;  254.375;    0.000
684.081; 2365.950;  235.375;    0.000
684.191; 2479.950;  251.375;    0.000
684.301; 2468.950;  233.375;    0.000
684.412; 2545.950;  202.375;    0.000
684.522; 2450.950;  232.375;    0.000
684.632; 2452.950;  202.375;    0.000
684.742; 2399.950;  254.375;    0.000
684.852; 2344.950;  219.375;    0.000
684.963; 2412.950;  256.375;    0.000
685.073; 2409.950;  253.375;    0.000
685.183; 2450.950;  254.375;    0.000
685.293; 2437.950;  232.375;    0.000
685.403; 2458.950;  242.375;    0.000
685.513; 2494.950;  261.375;    0.000
685.623; 2438.950;  245.375;    0.000
685.733; 2433.950;  254.375;    0.000
685.843; 2424.950;  249.375;    0.000
685.953; 2453.950;  252.375;    0.000
686.063; 2497.950;  227.375;    0.000
686.173; 2437.950;  223.375;    0.000
686.283; 2350.950;  234.375;    0.000
686.393; 2464.950;  239.375;    0.000
686.503; 2386.950;  231.375;    0.000
686.612; 2486.950;  232.375;    0.000
686.722; 2454.950;  258.375;    0.000
686.832; 2439.950;  256.375;    0.000
686.942; 2442.950;  230.375;    0.000
687.052; 2423.950;  274.375;    0.000
687.161; 2417.950;  269.375;    0.000
687.271; 2413.950;  218.375;    0.000
687.381; 2355.950;  235.375;    0.000
687.491; 2401.950;  262.375;    0.000
687.600; 2349.950;  256.375;    0.000
687.710; 2406.950;  225.375;    0.000
687.820; 2352.950;  230.375;    0.000
687.929; 2319.950;  226.375;    0.000
688.039; 2360.950;  228.375;    0.000
688.148; 2392.950;  249.375;    0.000
688.258; 2377.950;  237.375;    0.000
688.367; 2324.950;  260.375;    0.000
688.477; 2307.950;  200.375;    0.000
688.586; 2382.950;  223.375;    0.000
688.696; 2444.950;  223.375;    0.000
688.805; 2350.950;  257.375;    0.000
688.915; 2416.950;  185.375;    0.000
689.024; 2399.950;  227.375;    0.000
689.134; 2317.950;  224.375;    0.000
689.243; 2386.950;  206.375;    0.000
689.352; 2447.950;  275.375;    0.000
689.462; 2434.950;  233.375;    0.000
689.571; 2357.950;  244.375;    0.000
689.680; 2324.950;  261.375;    0.000
689.790; 2331.950;  192.375;    0.000
689.899; 2371.950;  214.375;    0.000
690.008; 2315.950;  255.375;    0.000
690.117; 2402.950;  219.375;    0.000
690.227; 2326.950;  241.375;    0.000
690.336; 2365.950;  231.375;    0.000
690.445; 2257.950;  212.375;    0.000
690.554; 2371.950;  234.375;    0.000
690.663; 2309.950;  210.375;    0.000
690.772; 2383.950;  221.375;    0.000
690.881; 2344.950;  244.375;    0.000
690.990; 2308.950;  247.375;    0.000
691.099; 2311.950;  222.375;    0.000
691.209; 2294.950;  240.375;    0.000
691.318; 2297.950;  223.375;    0.000
691.427; 2324.950;  217.375;    0.000
691.536; 2304.950;  216.375;    0.000
691.644; 2373.950;  194.375;    0.000
691.753; 2303.950;  221.375;    0.000
691.862; 2328.950;  224.375;    0.000
691.971; 2308.950;  191.375;    0.000
692.080; 2364.950;  247.375;    0.000
692.189; 2306.950;  208.375;    0.000
692.298; 2361.950;  203.375;    0.000
692.406; 2332.950;  239.375;    0.000
692.515; 2378.950;  250.375;    0.000
692.624; 2334.950;  226.375;    0.000
692.733; 2317.950;  229.375;    0.000
692.842; 2328.950;  254.375;    0.000
692.950; 2306.950;  242.375;    0.000
693.059; 2263.950;  204.375;    0.000
693.168; 2365.950;  252.375;    0.000
693.276; 2360.950;  195.375;    0.000
693.385; 2290.950;  228.375;    0.000
693.494; 2331.950;  282.375;    0.000
693.602; 2301.950;  221.375;    0.000
693.711; 2310.950;  225.375;    0.000
693.819; 2316.950;  234.375;    0.000
693.928; 2241.950;  229.375;    0.000
694.036; 2359.950;  192.375;    0.000
694.145; 2268.950;  233.375;    0.000
694.253; 2287.950;  277.375;    0.000
694.362; 2334.950;  188.375;    0.000
694.470; 2292.950;  263.375;    0.000
694.579; 2209.950;  253.375;    0.000
694.687; 2350.950;  281.375;    0.000
694.795; 2323.950;  233.375;    0.000
694.904; 2235.950;  223.375;    0.000
695.012; 2360.950;  296.375;    0.000
695.120; 2310.950;  227.375;    0.000
695.229; 2341.950;  269.375;    0.000
695.337; 2311.950;  229.375;    0.000
695.445; 2249.950;  244.375;    0.000
695.553; 2302.950;  259.375;    0.000
695.662; 2241.950;  208.375;    0.000
695.770; 2306.950;  241.375;    0.000
695.878; 2269.950;  239.375;    0.000
695.986; 2282.950;  247.375;    0.000
696.094; 2279.950;  224.375;    0.000
696.202; 2304.950;  205.375;    0.000
696.310; 2307.950;  217.375;    0.000
696.419; 2246.950;  228.375;    0.000
696.527; 2299.950;  246.375;    0.000
696.635; 2313.950;  245.375;    0.000
696.743; 2314.950;  233.375;    0.000
696.851; 2283.950;  251.375;    0.000
696.959; 2249.950;  257.375;    0.000
697.067; 2299.950;  260.375;    0.000
697.174; 2316.950;  223.375;    0.000
697.282; 2317.950;  239.375;    0.000
697.390; 2289.950;  264.375;    0.000
697.498; 2194.950;  227.375;    0.000
697.606; 2229.950;  243.375;    0.000
697.714; 2252.950;  256.375;    0.000
697.822; 2316.950;  278.375;    0.000
697.929; 2316.950;  227.375;    0.000
698.037; 2221.950;  232.375;    0.000
698.145; 2252.950;  256.375;    0.000
698.253; 2248.950;  245.375;    0.000
698.360; 2272.950;  282.375;    0.000
698.468; 2346.950;  244.375;    0.000
698.576; 2250.950;  279.375;    0.000
698.683; 2362.950;  259.375;    0.000
698.791; 2238.950;  265.375;    0.000
698.899; 2232.950;  250.375;    0.000
699.006; 2329.950;  245.375;    0.000
699.114; 2243.950;  280.375;    0.000
699.221; 2283.950;  240.375;    0.000
699.329; 2303.950;  293.375;    0.000
699.436; 2234.950;  216.375;    0.000
699.544; 2224.950;  269.375;    0.000
699.651; 2367.950;  219.375;    0.000
699.759; 2281.950;  245.375;    0.000
699.866; 2289.950;  261.375;    0.000
699.974; 2235.950;  245.375;    0.000
700.081; 2158.950;  257.375;    0.000
700.188; 2257.950;  268.375;    0.000
700.296; 2226.950;  225.375;    0.000
700.403; 2226.950;  257.375;    0.000
700.510; 2223.950;  267.375;    0.000
700.618; 2227.950;  299.375;    0.000
700.725; 2154.950;  223.375;    0.000
700.832; 2193.950;  233.375;    0.000
700.940; 2273.950;  255.375;    0.000
701.047; 2189.950;  244.375;    0.000
701.154; 2247.950;  248.375;    0.000
701.261; 2197.950;  264.375;    0.000
701.368; 2268.950;  299.375;    0.000
701.475; 2290.950;  264.375;    0.000
701.582; 2260.950;  275.375;    0.000
701.690; 2173.950;  261.375;    0.000
701.797; 2226.950;  273.375;    0.000
701.904; 2280.950;  320.375;    0.000
702.011; 2287.950;  299.375;    0.000
702.118; 2272.950;  292.375;    0.000
702.225; 2294.950;  317.375;    0.000
702.332; 2295.950;  307.375;    0.000
702.439; 2308.950;  313.375;    0.000
702.546; 2283.950;  312.375;    0.000
702.652; 2278.950;  297.375;    0.000
702.759; 2319.950;  345.375;    0.000
702.866; 2237.950;  330.375;    0.000
702.973; 2350.950;  303.375;    0.000
703.080; 2211.950;  303.375;    0.000
703.187; 2309.950;  327.375;    0.000
703.294; 2249.950;  325.375;    0.000
703.400; 2060.950;  302.375;    0.000
703.507;  545.950;  344.375;    0.000
703.614;  307.950;  294.375;    0.000
703.720;  342.950;  322.375;    0.000
703.827;  302.950;  329.375;    0.000
703.934;  306.950;  318.375;    0.000
704.040;  286.950;  299.375;    0.000
704.147;  299.950;  352.375;    0.000
704.254;  335.950;  350.375;    0.000
704.360;  305.950;  347.375;    0.000
704.467;  357.950;  336.375;    0.000
704.573;  309.950;  344.375;    0.000
704.680;  335.950;  365.375;    0.000
704.786;  323.950;  332.375;    0.000
704.893;  306.950;  304.375;    0.000
704.999;  310.950;  299.375;    0.000
705.106;  324.950;  365.375;    0.000

