0 482.0
1 476.0
2 511.0
3 516.0
4 462.0
5 489.0
6 484.0
7 503.0
8 452.0
9 471.0
10 524.0
11 494.0
12 457.0
13 480.0
14 445.0
15 482.0
16 481.0
17 502.0
18 476.0
19 514.0
20 507.0
21 490.0
22 491.0
23 502.0
24 493.0
25 489.0
26 461.0
27 461.0
28 459.0
29 498.0
30 446.0
31 528.0
32 436.0
33 457.0
34 445.0
35 463.0
36 456.0
37 468.0
38 450.0
39 492.0
40 489.0
41 472.0
42 418.0
43 437.0
44 454.0
45 470.0
46 460.0
47 445.0
48 488.0
49 471.0
50 437.0
51 428.0
52 472.0
53 472.0
54 413.0
55 452.0
56 426.0
57 464.0
58 402.0
59 458.0
60 454.0
61 471.0
62 466.0
63 461.0
64 449.0
65 451.0
66 493.0
67 467.0
68 478.0
69 460.0
70 465.0
71 472.0
72 431.0
73 523.0
74 472.0
75 490.0
76 430.0
77 463.0
78 473.0
79 470.0
80 465.0
81 507.0
82 449.0
83 462.0
84 487.0
85 480.0
86 485.0
87 438.0
88 407.0
89 445.0
90 450.0
91 474.0
92 465.0
93 465.0
94 444.0
95 445.0
96 459.0
97 458.0
98 422.0
99 444.0
100 484.0
101 467.0
102 457.0
103 449.0
104 416.0
105 472.0
106 451.0
107 466.0
108 444.0
109 438.0
110 460.0
111 471.0
112 431.0
113 482.0
114 459.0
115 508.0
116 417.0
117 447.0
118 453.0
119 417.0
120 492.0
121 476.0
122 441.0
123 494.0
124 414.0
125 470.0
126 488.0
127 442.0
128 461.0
129 477.0
130 471.0
131 482.0
132 441.0
133 436.0
134 490.0
135 441.0
136 507.0
137 476.0
138 468.0
139 475.0
140 482.0
141 463.0
142 452.0
143 458.0
144 483.0
145 485.0
146 473.0
147 488.0
148 493.0
149 491.0
150 448.0
151 490.0
152 506.0
153 476.0
154 455.0
155 464.0
156 499.0
157 499.0
158 488.0
159 493.0
160 478.0
161 491.0
162 461.0
163 460.0
164 492.0
165 439.0
166 443.0
167 454.0
168 452.0
169 488.0
170 475.0
171 497.0
172 431.0
173 472.0
174 458.0
175 451.0
176 490.0
177 453.0
178 468.0
179 459.0
180 439.0
181 517.0
182 506.0
183 456.0
184 459.0
185 469.0
186 480.0
187 445.0
188 452.0
189 493.0
190 488.0
191 504.0
192 462.0
193 486.0
194 472.0
195 428.0
196 492.0
197 503.0
198 477.0
199 468.0
200 468.0
201 446.0
202 445.0
203 438.0
204 458.0
205 416.0
206 457.0
207 460.0
208 451.0
209 485.0
210 470.0
211 482.0
212 422.0
213 475.0
214 500.0
215 425.0
216 419.0
217 473.0
218 429.0
219 432.0
220 474.0
221 439.0
222 432.0
223 464.0
224 442.0
225 441.0
226 467.0
227 478.0
228 468.0
229 453.0
230 476.0
231 443.0
232 445.0
233 482.0
234 460.0
235 478.0
236 473.0
237 440.0
238 463.0
239 442.0
240 443.0
241 464.0
242 460.0
243 461.0
244 443.0
245 461.0
246 470.0
247 530.0
248 436.0
249 451.0
250 494.0
251 501.0
252 441.0
253 448.0
254 471.0
255 497.0
256 476.0
257 476.0
258 476.0
259 431.0
260 474.0
261 492.0
262 468.0
263 500.0
264 485.0
265 461.0
266 444.0
267 486.0
268 472.0
269 502.0
270 490.0
271 462.0
272 467.0
273 506.0
274 481.0
275 477.0
276 461.0
277 499.0
278 455.0
279 432.0
280 426.0
281 452.0
282 477.0
283 463.0
284 456.0
285 477.0
286 470.0
287 494.0
288 483.0
289 452.0
290 422.0
291 445.0
292 439.0
293 501.0
294 466.0
295 403.0
296 484.0
297 433.0
298 476.0
299 477.0
300 509.0
301 482.0
302 454.0
303 472.0
304 462.0
305 454.0
306 479.0
307 491.0
308 494.0
309 473.0
310 477.0
311 461.0
312 443.0
313 489.0
314 468.0
315 472.0
316 468.0
317 491.0
318 490.0
319 488.0
320 456.0
321 482.0
322 487.0
323 457.0
324 464.0
325 470.0
326 459.0
327 455.0
328 496.0
329 498.0
330 451.0
331 445.0
332 441.0
333 460.0
334 425.0
335 463.0
336 486.0
337 484.0
338 442.0
339 480.0
340 489.0
341 515.0
342 484.0
343 435.0
344 496.0
345 450.0
346 489.0
347 486.0
348 429.0
349 456.0
350 473.0
351 470.0
352 471.0
353 498.0
354 464.0
355 480.0
356 471.0
357 425.0
358 493.0
359 522.0
360 510.0
361 457.0
362 486.0
363 450.0
364 515.0
365 493.0
366 428.0
367 489.0
368 501.0
369 517.0
370 496.0
371 474.0
372 496.0
373 456.0
374 432.0
375 508.0
376 469.0
377 488.0
378 458.0
379 526.0
380 486.0
381 506.0
382 464.0
383 475.0
384 467.0
385 475.0
386 425.0
387 488.0
388 453.0
389 453.0
390 491.0
391 502.0
392 474.0
393 524.0
394 442.0
395 479.0
396 449.0
397 487.0
398 482.0
399 455.0
400 473.0
401 444.0
402 453.0
403 471.0
404 505.0
405 470.0
406 478.0
407 468.0
408 453.0
409 500.0
410 481.0
411 487.0
412 484.0
413 488.0
414 440.0
415 460.0
416 483.0
417 454.0
418 474.0
419 482.0
420 446.0
421 497.0
422 457.0
423 489.0
424 481.0
425 465.0
426 490.0
427 468.0
428 430.0
429 474.0
430 440.0
431 513.0
432 490.0
433 461.0
434 491.0
435 490.0
436 484.0
437 523.0
438 464.0
439 509.0
440 525.0
441 502.0
442 491.0
443 480.0
444 464.0
445 468.0
446 459.0
447 471.0
448 460.0
449 450.0
450 468.0
451 503.0
452 463.0
453 512.0
454 471.0
455 518.0
456 497.0
457 535.0
458 446.0
459 495.0
460 465.0
461 490.0
462 437.0
463 477.0
464 489.0
465 462.0
466 465.0
467 488.0
468 460.0
469 484.0
470 503.0
471 514.0
472 484.0
473 464.0
474 486.0
475 495.0
476 515.0
477 474.0
478 466.0
479 471.0
480 499.0
481 501.0
482 485.0
483 479.0
484 493.0
485 471.0
486 500.0
487 512.0
488 523.0
489 494.0
490 489.0
491 498.0
492 496.0
493 469.0
494 471.0
495 544.0
496 507.0
497 464.0
498 496.0
499 483.0
500 418.0
501 499.0
502 458.0
503 500.0
504 469.0
505 471.0
506 507.0
507 481.0
508 528.0
509 458.0
510 479.0
511 501.0
512 470.0
513 486.0
514 449.0
515 483.0
516 450.0
517 447.0
518 525.0
519 444.0
520 479.0
521 523.0
522 453.0
523 504.0
524 482.0
525 457.0
526 469.0
527 502.0
528 480.0
529 507.0
530 472.0
531 482.0
532 509.0
533 490.0
534 499.0
535 526.0
536 471.0
537 434.0
538 443.0
539 493.0
540 509.0
541 537.0
542 523.0
543 489.0
544 486.0
545 528.0
546 458.0
547 463.0
548 478.0
549 503.0
550 458.0
551 485.0
552 469.0
553 489.0
554 505.0
555 469.0
556 454.0
557 484.0
558 470.0
559 478.0
560 526.0
561 493.0
562 440.0
563 493.0
564 517.0
565 463.0
566 480.0
567 484.0
568 464.0
569 486.0
570 473.0
571 450.0
572 446.0
573 476.0
574 465.0
575 468.0
576 455.0
577 463.0
578 476.0
579 418.0
580 476.0
581 475.0
582 513.0
583 488.0
584 481.0
585 444.0
586 455.0
587 460.0
588 450.0
589 474.0
590 468.0
591 441.0
592 514.0
593 497.0
594 467.0
595 482.0
596 476.0
597 505.0
598 468.0
599 493.0
600 467.0
601 486.0
602 516.0
603 488.0
604 496.0
605 495.0
606 473.0
607 470.0
608 524.0
609 474.0
610 509.0
611 470.0
612 499.0
613 512.0
614 499.0
615 486.0
616 497.0
617 543.0
618 470.0
619 505.0
620 485.0
621 470.0
622 461.0
623 477.0
624 526.0
625 480.0
626 469.0
627 536.0
628 454.0
629 477.0
630 504.0
631 516.0
632 488.0
633 465.0
634 494.0
635 482.0
636 494.0
637 514.0
638 454.0
639 499.0
640 467.0
641 523.0
642 457.0
643 523.0
644 459.0
645 467.0
646 511.0
647 514.0
648 463.0
649 509.0
650 481.0
651 467.0
652 475.0
653 441.0
654 482.0
655 494.0
656 513.0
657 485.0
658 480.0
659 491.0
660 451.0
661 486.0
662 470.0
663 498.0
664 505.0
665 495.0
666 455.0
667 501.0
668 479.0
669 466.0
670 455.0
671 461.0
672 504.0
673 471.0
674 441.0
675 471.0
676 438.0
677 482.0
678 455.0
679 448.0
680 497.0
681 445.0
682 453.0
683 473.0
684 450.0
685 474.0
686 432.0
687 502.0
688 438.0
689 483.0
690 459.0
691 462.0
692 473.0
693 461.0
694 469.0
695 471.0
696 451.0
697 488.0
698 462.0
699 468.0
700 447.0
701 473.0
702 452.0
703 433.0
704 450.0
705 419.0
706 428.0
707 480.0
708 422.0
709 459.0
710 419.0
711 388.0
712 418.0
713 447.0
714 461.0
715 453.0
716 388.0
717 445.0
718 405.0
719 398.0
720 430.0
721 424.0
722 432.0
723 472.0
724 427.0
725 453.0
726 416.0
727 416.0
728 418.0
729 425.0
730 414.0
731 424.0
732 440.0
733 437.0
734 394.0
735 455.0
736 382.0
737 440.0
738 404.0
739 399.0
740 387.0
741 469.0
742 456.0
743 438.0
744 473.0
745 437.0
746 416.0
747 422.0
748 411.0
749 436.0
750 388.0
751 418.0
752 425.0
753 437.0
754 474.0
755 432.0
756 465.0
757 420.0
758 400.0
759 425.0
760 392.0
761 454.0
762 428.0
763 414.0
764 400.0
765 398.0
766 427.0
767 422.0
768 445.0
769 436.0
770 409.0
771 395.0
772 421.0
773 446.0
774 430.0
775 418.0
776 439.0
777 418.0
778 443.0
779 437.0
780 423.0
781 411.0
782 427.0
783 437.0
784 482.0
785 441.0
786 445.0
787 429.0
788 402.0
789 429.0
790 432.0
791 420.0
792 408.0
793 445.0
794 438.0
795 408.0
796 438.0
797 408.0
798 410.0
799 399.0
800 450.0
801 429.0
802 442.0
803 431.0
804 401.0
805 461.0
806 446.0
807 461.0
808 399.0
809 420.0
810 432.0
811 439.0
812 382.0
813 437.0
814 446.0
815 434.0
816 417.0
817 475.0
818 408.0
819 405.0
820 409.0
821 434.0
822 429.0
823 428.0
824 458.0
825 458.0
826 431.0
827 428.0
828 426.0
829 415.0
830 421.0
831 409.0
832 394.0
833 443.0
834 457.0
835 454.0
836 418.0
837 455.0
838 431.0
839 434.0
840 429.0
841 415.0
842 425.0
843 413.0
844 431.0
845 434.0
846 415.0
847 440.0
848 456.0
849 437.0
850 447.0
851 415.0
852 442.0
853 452.0
854 414.0
855 465.0
856 415.0
857 431.0
858 426.0
859 405.0
860 414.0
861 423.0
862 445.0
863 435.0
864 404.0
865 427.0
866 387.0
867 388.0
868 405.0
869 428.0
870 421.0
871 425.0
872 432.0
873 424.0
874 436.0
875 420.0
876 414.0
877 432.0
878 400.0
879 410.0
880 420.0
881 421.0
882 394.0
883 370.0
884 431.0
885 426.0
886 404.0
887 421.0
888 395.0
889 399.0
890 373.0
891 424.0
892 430.0
893 415.0
894 395.0
895 414.0
896 402.0
897 407.0
898 437.0
899 419.0
900 439.0
901 419.0
902 419.0
903 422.0
904 387.0
905 429.0
906 413.0
907 435.0
908 417.0
909 405.0
910 414.0
911 408.0
912 439.0
913 400.0
914 402.0
915 397.0
916 416.0
917 415.0
918 438.0
919 423.0
920 412.0
921 446.0
922 419.0
923 461.0
924 427.0
925 434.0
926 447.0
927 397.0
928 416.0
929 403.0
930 419.0
931 391.0
932 430.0
933 430.0
934 453.0
935 449.0
936 425.0
937 421.0
938 411.0
939 442.0
940 408.0
941 396.0
942 456.0
943 435.0
944 427.0
945 402.0
946 414.0
947 426.0
948 453.0
949 453.0
950 409.0
951 463.0
952 429.0
953 424.0
954 450.0
955 438.0
956 457.0
957 444.0
958 420.0
959 435.0
960 437.0
961 412.0
962 430.0
963 440.0
964 377.0
965 440.0
966 416.0
967 413.0
968 454.0
969 442.0
970 440.0
971 448.0
972 424.0
973 473.0
974 423.0
975 446.0
976 446.0
977 404.0
978 442.0
979 401.0
980 461.0
981 449.0
982 398.0
983 455.0
984 418.0
985 438.0
986 434.0
987 437.0
988 427.0
989 423.0
990 465.0
991 433.0
992 430.0
993 485.0
994 425.0
995 442.0
996 452.0
997 437.0
998 368.0
999 476.0
1000 451.0
1001 436.0
1002 430.0
1003 416.0
1004 460.0
1005 461.0
1006 408.0
1007 415.0
1008 426.0
1009 432.0
1010 470.0
1011 450.0
1012 375.0
1013 433.0
1014 438.0
1015 427.0
1016 423.0
1017 439.0
1018 454.0
1019 443.0
1020 389.0
1021 459.0
1022 425.0
1023 419.0
1024 409.0
1025 420.0
1026 419.0
1027 428.0
1028 415.0
1029 448.0
1030 408.0
1031 439.0
1032 414.0
1033 471.0
1034 460.0
1035 436.0
1036 427.0
1037 419.0
1038 413.0
1039 438.0
1040 446.0
1041 411.0
1042 441.0
1043 402.0
1044 397.0
1045 457.0
1046 425.0
1047 454.0
1048 427.0
1049 478.0
1050 396.0
1051 472.0
1052 415.0
1053 427.0
1054 433.0
1055 452.0
1056 416.0
1057 445.0
1058 423.0
1059 464.0
1060 450.0
1061 422.0
1062 478.0
1063 421.0
1064 456.0
1065 467.0
1066 417.0
1067 423.0
1068 376.0
1069 464.0
1070 441.0
1071 440.0
1072 421.0
1073 420.0
1074 422.0
1075 460.0
1076 430.0
1077 444.0
1078 412.0
1079 451.0
1080 472.0
1081 427.0
1082 456.0
1083 442.0
1084 465.0
1085 448.0
1086 441.0
1087 450.0
1088 455.0
1089 464.0
1090 448.0
1091 434.0
1092 453.0
1093 463.0
1094 474.0
1095 466.0
1096 421.0
1097 430.0
1098 429.0
1099 461.0
1100 439.0
1101 438.0
1102 431.0
1103 464.0
1104 448.0
1105 437.0
1106 445.0
1107 419.0
1108 436.0
1109 452.0
1110 476.0
1111 462.0
1112 445.0
1113 430.0
1114 446.0
1115 456.0
1116 407.0
1117 464.0
1118 469.0
1119 451.0
1120 412.0
1121 439.0
1122 458.0
1123 424.0
1124 453.0
1125 440.0
1126 469.0
1127 449.0
1128 462.0
1129 420.0
1130 430.0
1131 438.0
1132 436.0
1133 429.0
1134 426.0
1135 453.0
1136 459.0
1137 426.0
1138 414.0
1139 441.0
1140 442.0
1141 447.0
1142 455.0
1143 421.0
1144 442.0
1145 447.0
1146 477.0
1147 449.0
1148 418.0
1149 463.0
1150 465.0
1151 462.0
1152 468.0
1153 463.0
1154 459.0
1155 420.0
1156 443.0
1157 450.0
1158 457.0
1159 467.0
1160 460.0
1161 461.0
1162 423.0
1163 450.0
1164 465.0
1165 476.0
1166 442.0
1167 423.0
1168 415.0
1169 428.0
1170 426.0
1171 429.0
1172 435.0
1173 431.0
1174 416.0
1175 449.0
1176 442.0
1177 431.0
1178 483.0
1179 438.0
1180 422.0
1181 443.0
1182 425.0
1183 459.0
1184 455.0
1185 433.0
1186 431.0
1187 448.0
1188 395.0
1189 417.0
1190 424.0
1191 429.0
1192 430.0
1193 429.0
1194 420.0
1195 454.0
1196 438.0
1197 461.0
1198 438.0
1199 424.0
1200 425.0
1201 459.0
1202 450.0
1203 403.0
1204 404.0
1205 454.0
1206 451.0
1207 447.0
1208 435.0
1209 392.0
1210 433.0
1211 485.0
1212 439.0
1213 393.0
1214 424.0
1215 518.0
1216 450.0
1217 435.0
1218 424.0
1219 430.0
1220 479.0
1221 421.0
1222 451.0
1223 414.0
1224 433.0
1225 421.0
1226 432.0
1227 435.0
1228 407.0
1229 460.0
1230 426.0
1231 428.0
1232 465.0
1233 425.0
1234 436.0
1235 451.0
1236 430.0
1237 470.0
1238 460.0
1239 444.0
1240 417.0
1241 435.0
1242 431.0
1243 450.0
1244 462.0
1245 414.0
1246 439.0
1247 461.0
1248 433.0
1249 437.0
1250 421.0
1251 423.0
1252 418.0
1253 452.0
1254 474.0
1255 476.0
1256 451.0
1257 453.0
1258 456.0
1259 437.0
1260 436.0
1261 429.0
1262 448.0
1263 428.0
1264 456.0
1265 428.0
1266 446.0
1267 470.0
1268 446.0
1269 420.0
1270 408.0
1271 441.0
1272 447.0
1273 453.0
1274 436.0
1275 506.0
1276 446.0
1277 477.0
1278 432.0
1279 448.0
1280 411.0
1281 441.0
1282 450.0
1283 430.0
1284 490.0
1285 451.0
1286 466.0
1287 423.0
1288 453.0
1289 457.0
1290 465.0
1291 469.0
1292 477.0
1293 484.0
1294 428.0
1295 442.0
1296 462.0
1297 442.0
1298 456.0
1299 454.0
1300 461.0
1301 501.0
1302 445.0
1303 462.0
1304 457.0
1305 502.0
1306 452.0
1307 474.0
1308 439.0
1309 490.0
1310 445.0
1311 452.0
1312 461.0
1313 451.0
1314 479.0
1315 458.0
1316 470.0
1317 452.0
1318 473.0
1319 469.0
1320 465.0
1321 487.0
1322 492.0
1323 466.0
1324 448.0
1325 476.0
1326 475.0
1327 424.0
1328 485.0
1329 468.0
1330 474.0
1331 465.0
1332 436.0
1333 456.0
1334 452.0
1335 413.0
1336 468.0
1337 436.0
1338 426.0
1339 456.0
1340 460.0
1341 444.0
1342 442.0
1343 465.0
1344 446.0
1345 500.0
1346 448.0
1347 423.0
1348 458.0
1349 467.0
1350 458.0
1351 440.0
1352 449.0
1353 439.0
1354 487.0
1355 477.0
1356 446.0
1357 454.0
1358 451.0
1359 439.0
1360 492.0
1361 435.0
1362 399.0
1363 441.0
1364 465.0
1365 454.0
1366 437.0
1367 433.0
1368 446.0
1369 426.0
1370 477.0
1371 464.0
1372 454.0
1373 457.0
1374 453.0
1375 442.0
1376 456.0
1377 487.0
1378 482.0
1379 470.0
1380 453.0
1381 430.0
1382 481.0
1383 459.0
1384 475.0
1385 446.0
1386 477.0
1387 406.0
1388 447.0
1389 467.0
1390 451.0
1391 468.0
1392 467.0
1393 485.0
1394 439.0
1395 479.0
1396 446.0
1397 467.0
1398 458.0
1399 489.0
1400 419.0
1401 437.0
1402 445.0
1403 467.0
1404 444.0
1405 465.0
1406 454.0
1407 408.0
1408 445.0
1409 442.0
1410 494.0
1411 417.0
1412 450.0
1413 464.0
1414 443.0
1415 481.0
1416 464.0
1417 479.0
1418 484.0
1419 483.0
1420 450.0
1421 424.0
1422 455.0
1423 460.0
1424 499.0
1425 455.0
1426 458.0
1427 467.0
1428 454.0
1429 467.0
1430 455.0
1431 463.0
1432 421.0
1433 455.0
1434 479.0
1435 441.0
1436 485.0
1437 488.0
1438 427.0
1439 455.0
1440 442.0
1441 488.0
1442 474.0
1443 475.0
1444 491.0
1445 449.0
1446 476.0
1447 467.0
1448 481.0
1449 491.0
1450 462.0
1451 462.0
1452 471.0
1453 442.0
1454 481.0
1455 475.0
1456 479.0
1457 459.0
1458 453.0
1459 460.0
1460 425.0
1461 493.0
1462 429.0
1463 440.0
1464 438.0
1465 430.0
1466 432.0
1467 440.0
1468 428.0
1469 455.0
1470 483.0
1471 452.0
1472 442.0
1473 460.0
1474 479.0
1475 427.0
1476 460.0
1477 479.0
1478 486.0
1479 449.0
1480 517.0
1481 472.0
1482 481.0
1483 463.0
1484 454.0
1485 466.0
1486 496.0
1487 464.0
1488 467.0
1489 453.0
1490 445.0
1491 440.0
1492 456.0
1493 463.0
1494 458.0
1495 448.0
1496 464.0
1497 446.0
1498 471.0
1499 467.0
1500 498.0
1501 506.0
1502 433.0
1503 453.0
1504 455.0
1505 445.0
1506 497.0
1507 464.0
1508 472.0
1509 445.0
1510 450.0
1511 450.0
1512 454.0
1513 436.0
1514 454.0
1515 441.0
1516 477.0
1517 435.0
1518 468.0
1519 479.0
1520 484.0
1521 448.0
1522 447.0
1523 430.0
1524 441.0
1525 448.0
1526 478.0
1527 439.0
1528 487.0
1529 484.0
1530 454.0
1531 439.0
1532 461.0
1533 433.0
1534 416.0
1535 441.0
1536 471.0
1537 468.0
1538 458.0
1539 442.0
1540 454.0
1541 457.0
1542 492.0
1543 475.0
1544 439.0
1545 437.0
1546 494.0
1547 452.0
1548 475.0
1549 489.0
1550 456.0
1551 429.0
1552 490.0
1553 463.0
1554 442.0
1555 448.0
1556 472.0
1557 487.0
1558 429.0
1559 459.0
1560 468.0
1561 458.0
1562 481.0
1563 460.0
1564 485.0
1565 486.0
1566 509.0
1567 466.0
1568 454.0
1569 472.0
1570 477.0
1571 484.0
1572 499.0
1573 497.0
1574 460.0
1575 436.0
1576 452.0
1577 441.0
1578 460.0
1579 482.0
1580 466.0
1581 444.0
1582 444.0
1583 428.0
1584 513.0
1585 499.0
1586 456.0
1587 492.0
1588 446.0
1589 452.0
1590 415.0
1591 454.0
1592 468.0
1593 477.0
1594 440.0
1595 475.0
1596 471.0
1597 488.0
1598 446.0
1599 470.0
1600 447.0
1601 465.0
1602 484.0
1603 463.0
1604 465.0
1605 473.0
1606 506.0
1607 452.0
1608 495.0
1609 494.0
1610 474.0
1611 511.0
1612 472.0
1613 491.0
1614 491.0
1615 481.0
1616 529.0
1617 520.0
1618 485.0
1619 507.0
1620 454.0
1621 470.0
1622 452.0
1623 492.0
1624 433.0
1625 479.0
1626 475.0
1627 478.0
1628 498.0
1629 454.0
1630 505.0
1631 463.0
1632 449.0
1633 463.0
1634 469.0
1635 482.0
1636 467.0
1637 510.0
1638 485.0
1639 472.0
1640 459.0
1641 501.0
1642 461.0
1643 492.0
1644 480.0
1645 521.0
1646 492.0
1647 480.0
1648 464.0
1649 456.0
1650 474.0
1651 482.0
1652 460.0
1653 474.0
1654 432.0
1655 477.0
1656 461.0
1657 456.0
1658 463.0
1659 492.0
1660 476.0
1661 480.0
1662 430.0
1663 479.0
1664 494.0
1665 468.0
1666 494.0
1667 499.0
1668 503.0
1669 515.0
1670 482.0
1671 527.0
1672 445.0
1673 429.0
1674 451.0
1675 507.0
1676 477.0
1677 462.0
1678 436.0
1679 463.0
1680 497.0
1681 450.0
1682 499.0
1683 480.0
1684 461.0
1685 484.0
1686 469.0
1687 413.0
1688 426.0
1689 506.0
1690 468.0
1691 426.0
1692 454.0
1693 471.0
1694 501.0
1695 464.0
1696 519.0
1697 477.0
1698 471.0
1699 470.0
1700 504.0
1701 469.0
1702 480.0
1703 441.0
1704 443.0
1705 482.0
1706 468.0
1707 468.0
1708 426.0
1709 503.0
1710 477.0
1711 468.0
1712 466.0
1713 455.0
1714 503.0
1715 456.0
1716 492.0
1717 465.0
1718 463.0
1719 451.0
1720 464.0
1721 494.0
1722 486.0
1723 481.0
1724 469.0
1725 454.0
1726 445.0
1727 485.0
1728 462.0
1729 492.0
1730 507.0
1731 452.0
1732 494.0
1733 457.0
1734 498.0
1735 445.0
1736 492.0
1737 481.0
1738 488.0
1739 489.0
1740 496.0
1741 504.0
1742 466.0
1743 446.0
1744 506.0
1745 446.0
1746 444.0
1747 507.0
1748 503.0
1749 479.0
1750 499.0
1751 482.0
1752 505.0
1753 465.0
1754 525.0
1755 485.0
1756 513.0
1757 492.0
1758 482.0
1759 488.0
1760 506.0
1761 502.0
1762 486.0
1763 467.0
1764 468.0
1765 481.0
1766 481.0
1767 527.0
1768 465.0
1769 482.0
1770 466.0
1771 496.0
1772 503.0
1773 498.0
1774 513.0
1775 461.0
1776 544.0
1777 479.0
1778 531.0
1779 502.0
1780 476.0
1781 486.0
1782 493.0
1783 487.0
1784 525.0
1785 462.0
1786 505.0
1787 480.0
1788 501.0
1789 496.0
1790 467.0
1791 484.0
1792 502.0
1793 482.0
1794 502.0
1795 503.0
1796 482.0
1797 481.0
1798 469.0
1799 489.0
1800 493.0
1801 489.0
1802 460.0
1803 482.0
1804 488.0
1805 500.0
1806 444.0
1807 452.0
1808 437.0
1809 478.0
1810 472.0
1811 478.0
1812 416.0
1813 474.0
1814 449.0
1815 494.0
1816 477.0
1817 494.0
1818 455.0
1819 476.0
1820 477.0
1821 452.0
1822 495.0
1823 451.0
1824 506.0
1825 452.0
1826 490.0
1827 459.0
1828 485.0
1829 451.0
1830 406.0
1831 445.0
1832 487.0
1833 480.0
1834 453.0
1835 469.0
1836 464.0
1837 469.0
1838 460.0
1839 444.0
1840 530.0
1841 482.0
1842 488.0
1843 452.0
1844 460.0
1845 473.0
1846 457.0
1847 480.0
1848 450.0
1849 502.0
1850 442.0
1851 494.0
1852 494.0
1853 471.0
1854 479.0
1855 509.0
1856 455.0
1857 465.0
1858 483.0
1859 495.0
1860 466.0
1861 479.0
1862 464.0
1863 485.0
1864 475.0
1865 489.0
1866 497.0
1867 502.0
1868 506.0
1869 507.0
1870 496.0
1871 464.0
1872 485.0
1873 511.0
1874 471.0
1875 502.0
1876 510.0
1877 512.0
1878 495.0
1879 477.0
1880 461.0
1881 487.0
1882 492.0
1883 475.0
1884 504.0
1885 480.0
1886 447.0
1887 474.0
1888 487.0
1889 490.0
1890 496.0
1891 481.0
1892 493.0
1893 453.0
1894 461.0
1895 484.0
1896 464.0
1897 476.0
1898 478.0
1899 488.0
1900 430.0
1901 508.0
1902 474.0
1903 503.0
1904 514.0
1905 465.0
1906 452.0
1907 503.0
1908 471.0
1909 505.0
1910 456.0
1911 446.0
1912 473.0
1913 473.0
1914 480.0
1915 490.0
1916 451.0
1917 470.0
1918 482.0
1919 454.0
1920 445.0
1921 479.0
1922 457.0
1923 485.0
1924 493.0
1925 470.0
1926 521.0
1927 476.0
1928 460.0
1929 506.0
1930 469.0
1931 430.0
1932 480.0
1933 494.0
1934 463.0
1935 442.0
1936 517.0
1937 468.0
1938 485.0
1939 509.0
1940 471.0
1941 470.0
1942 520.0
1943 466.0
1944 476.0
1945 495.0
1946 509.0
1947 468.0
1948 507.0
1949 502.0
1950 541.0
1951 500.0
1952 478.0
1953 537.0
1954 473.0
1955 512.0
1956 462.0
1957 537.0
1958 488.0
1959 476.0
1960 492.0
1961 503.0
1962 508.0
1963 508.0
1964 478.0
1965 482.0
1966 449.0
1967 488.0
1968 480.0
1969 463.0
1970 499.0
1971 480.0
1972 510.0
1973 488.0
1974 455.0
1975 499.0
1976 474.0
1977 489.0
1978 508.0
1979 507.0
1980 503.0
1981 465.0
1982 482.0
1983 496.0
1984 479.0
1985 475.0
1986 526.0
1987 557.0
1988 502.0
1989 505.0
1990 513.0
1991 473.0
1992 484.0
1993 547.0
1994 494.0
1995 484.0
1996 492.0
1997 502.0
1998 461.0
1999 485.0
2000 516.0
2001 518.0
2002 461.0
2003 498.0
2004 510.0
2005 512.0
2006 513.0
2007 486.0
2008 521.0
2009 497.0
2010 514.0
2011 516.0
2012 511.0
2013 508.0
2014 522.0
2015 485.0
2016 544.0
2017 535.0
2018 596.0
2019 535.0
2020 570.0
2021 550.0
2022 593.0
2023 572.0
2024 603.0
2025 585.0
2026 571.0
2027 582.0
2028 608.0
2029 567.0
2030 590.0
2031 587.0
2032 619.0
2033 566.0
2034 565.0
2035 601.0
2036 573.0
2037 533.0
2038 607.0
2039 610.0
2040 594.0
2041 604.0
2042 578.0
2043 597.0
2044 573.0
2045 585.0
2046 570.0
2047 595.0
