0 558.0
1 507.0
2 487.0
3 494.0
4 473.0
5 507.0
6 485.0
7 517.0
8 447.0
9 526.0
10 505.0
11 496.0
12 460.0
13 491.0
14 485.0
15 454.0
16 530.0
17 526.0
18 489.0
19 474.0
20 491.0
21 491.0
22 483.0
23 452.0
24 499.0
25 495.0
26 481.0
27 503.0
28 492.0
29 527.0
30 503.0
31 540.0
32 487.0
33 440.0
34 477.0
35 477.0
36 462.0
37 513.0
38 446.0
39 492.0
40 444.0
41 531.0
42 498.0
43 469.0
44 482.0
45 500.0
46 467.0
47 499.0
48 474.0
49 459.0
50 472.0
51 457.0
52 467.0
53 471.0
54 447.0
55 460.0
56 450.0
57 465.0
58 481.0
59 479.0
60 480.0
61 457.0
62 438.0
63 454.0
64 409.0
65 486.0
66 414.0
67 441.0
68 433.0
69 454.0
70 417.0
71 439.0
72 436.0
73 448.0
74 431.0
75 448.0
76 433.0
77 432.0
78 434.0
79 449.0
80 458.0
81 414.0
82 442.0
83 467.0
84 446.0
85 425.0
86 451.0
87 483.0
88 447.0
89 435.0
90 444.0
91 427.0
92 451.0
93 461.0
94 437.0
95 454.0
96 463.0
97 395.0
98 418.0
99 460.0
100 449.0
101 419.0
102 485.0
103 451.0
104 468.0
105 466.0
106 455.0
107 488.0
108 431.0
109 426.0
110 421.0
111 455.0
112 408.0
113 431.0
114 399.0
115 462.0
116 429.0
117 418.0
118 449.0
119 429.0
120 463.0
121 472.0
122 465.0
123 438.0
124 426.0
125 473.0
126 428.0
127 472.0
128 411.0
129 467.0
130 482.0
131 438.0
132 486.0
133 447.0
134 441.0
135 409.0
136 447.0
137 437.0
138 461.0
139 466.0
140 412.0
141 435.0
142 462.0
143 446.0
144 435.0
145 474.0
146 457.0
147 511.0
148 437.0
149 445.0
150 477.0
151 448.0
152 489.0
153 466.0
154 446.0
155 470.0
156 424.0
157 480.0
158 447.0
159 443.0
160 439.0
161 438.0
162 486.0
163 481.0
164 443.0
165 473.0
166 435.0
167 467.0
168 460.0
169 459.0
170 500.0
171 455.0
172 473.0
173 438.0
174 415.0
175 468.0
176 453.0
177 460.0
178 497.0
179 445.0
180 434.0
181 440.0
182 460.0
183 466.0
184 450.0
185 465.0
186 430.0
187 460.0
188 437.0
189 439.0
190 446.0
191 427.0
192 452.0
193 480.0
194 421.0
195 441.0
196 399.0
197 422.0
198 408.0
199 440.0
200 466.0
201 443.0
202 465.0
203 446.0
204 462.0
205 451.0
206 445.0
207 430.0
208 447.0
209 409.0
210 479.0
211 406.0
212 457.0
213 477.0
214 452.0
215 453.0
216 445.0
217 434.0
218 404.0
219 440.0
220 438.0
221 476.0
222 403.0
223 496.0
224 414.0
225 427.0
226 430.0
227 433.0
228 460.0
229 431.0
230 455.0
231 519.0
232 430.0
233 458.0
234 443.0
235 449.0
236 457.0
237 431.0
238 431.0
239 441.0
240 438.0
241 470.0
242 431.0
243 427.0
244 448.0
245 497.0
246 457.0
247 463.0
248 449.0
249 484.0
250 424.0
251 442.0
252 441.0
253 424.0
254 430.0
255 446.0
256 427.0
257 460.0
258 432.0
259 443.0
260 425.0
261 451.0
262 462.0
263 478.0
264 473.0
265 474.0
266 441.0
267 437.0
268 481.0
269 456.0
270 423.0
271 422.0
272 440.0
273 448.0
274 442.0
275 447.0
276 407.0
277 460.0
278 472.0
279 465.0
280 401.0
281 419.0
282 446.0
283 460.0
284 406.0
285 436.0
286 441.0
287 423.0
288 408.0
289 439.0
290 424.0
291 470.0
292 441.0
293 436.0
294 467.0
295 440.0
296 455.0
297 408.0
298 432.0
299 433.0
300 436.0
301 457.0
302 454.0
303 460.0
304 456.0
305 446.0
306 438.0
307 465.0
308 454.0
309 478.0
310 455.0
311 413.0
312 460.0
313 465.0
314 377.0
315 451.0
316 438.0
317 454.0
318 440.0
319 420.0
320 443.0
321 493.0
322 435.0
323 450.0
324 412.0
325 451.0
326 466.0
327 447.0
328 449.0
329 490.0
330 411.0
331 439.0
332 441.0
333 452.0
334 461.0
335 461.0
336 483.0
337 480.0
338 452.0
339 492.0
340 464.0
341 477.0
342 482.0
343 462.0
344 428.0
345 450.0
346 450.0
347 443.0
348 451.0
349 444.0
350 461.0
351 483.0
352 443.0
353 453.0
354 456.0
355 496.0
356 473.0
357 467.0
358 480.0
359 454.0
360 438.0
361 440.0
362 471.0
363 458.0
364 437.0
365 449.0
366 426.0
367 451.0
368 463.0
369 448.0
370 442.0
371 425.0
372 425.0
373 427.0
374 396.0
375 443.0
376 492.0
377 448.0
378 447.0
379 436.0
380 415.0
381 432.0
382 446.0
383 455.0
384 450.0
385 463.0
386 450.0
387 473.0
388 447.0
389 425.0
390 465.0
391 481.0
392 490.0
393 445.0
394 466.0
395 438.0
396 418.0
397 425.0
398 456.0
399 435.0
400 467.0
401 463.0
402 480.0
403 452.0
404 497.0
405 431.0
406 413.0
407 458.0
408 466.0
409 456.0
410 419.0
411 484.0
412 491.0
413 445.0
414 464.0
415 451.0
416 412.0
417 435.0
418 484.0
419 456.0
420 453.0
421 474.0
422 441.0
423 464.0
424 456.0
425 472.0
426 469.0
427 408.0
428 422.0
429 508.0
430 438.0
431 422.0
432 458.0
433 473.0
434 464.0
435 453.0
436 455.0
437 435.0
438 462.0
439 460.0
440 464.0
441 447.0
442 441.0
443 485.0
444 474.0
445 494.0
446 461.0
447 474.0
448 458.0
449 447.0
450 437.0
451 446.0
452 437.0
453 503.0
454 445.0
455 440.0
456 441.0
457 480.0
458 489.0
459 468.0
460 496.0
461 480.0
462 448.0
463 426.0
464 486.0
465 474.0
466 442.0
467 468.0
468 435.0
469 443.0
470 463.0
471 437.0
472 456.0
473 475.0
474 437.0
475 485.0
476 476.0
477 506.0
478 457.0
479 462.0
480 466.0
481 450.0
482 487.0
483 482.0
484 463.0
485 453.0
486 477.0
487 445.0
488 455.0
489 429.0
490 470.0
491 454.0
492 444.0
493 445.0
494 496.0
495 443.0
496 503.0
497 438.0
498 460.0
499 484.0
500 431.0
501 429.0
502 463.0
503 436.0
504 454.0
505 471.0
506 470.0
507 477.0
508 460.0
509 477.0
510 449.0
511 499.0
512 412.0
513 450.0
514 454.0
515 468.0
516 481.0
517 428.0
518 421.0
519 429.0
520 424.0
521 452.0
522 450.0
523 426.0
524 412.0
525 452.0
526 428.0
527 427.0
528 405.0
529 408.0
530 468.0
531 404.0
532 459.0
533 448.0
534 458.0
535 484.0
536 434.0
537 499.0
538 432.0
539 461.0
540 426.0
541 435.0
542 447.0
543 478.0
544 428.0
545 449.0
546 419.0
547 461.0
548 465.0
549 456.0
550 506.0
551 411.0
552 436.0
553 442.0
554 464.0
555 427.0
556 445.0
557 484.0
558 453.0
559 450.0
560 511.0
561 456.0
562 426.0
563 488.0
564 461.0
565 459.0
566 436.0
567 489.0
568 446.0
569 474.0
570 411.0
571 476.0
572 432.0
573 465.0
574 419.0
575 463.0
576 460.0
577 460.0
578 460.0
579 391.0
580 429.0
581 460.0
582 436.0
583 454.0
584 467.0
585 476.0
586 438.0
587 446.0
588 447.0
589 423.0
590 434.0
591 449.0
592 461.0
593 501.0
594 449.0
595 461.0
596 452.0
597 468.0
598 466.0
599 484.0
600 460.0
601 460.0
602 434.0
603 483.0
604 460.0
605 472.0
606 420.0
607 451.0
608 507.0
609 430.0
610 468.0
611 454.0
612 459.0
613 469.0
614 453.0
615 476.0
616 475.0
617 515.0
618 482.0
619 462.0
620 468.0
621 487.0
622 435.0
623 461.0
624 529.0
625 504.0
626 479.0
627 449.0
628 488.0
629 472.0
630 424.0
631 477.0
632 468.0
633 486.0
634 462.0
635 486.0
636 456.0
637 484.0
638 505.0
639 465.0
640 465.0
641 506.0
642 468.0
643 470.0
644 486.0
645 462.0
646 473.0
647 472.0
648 485.0
649 463.0
650 495.0
651 516.0
652 522.0
653 466.0
654 483.0
655 453.0
656 504.0
657 473.0
658 477.0
659 485.0
660 496.0
661 506.0
662 482.0
663 468.0
664 474.0
665 484.0
666 459.0
667 481.0
668 420.0
669 449.0
670 476.0
671 485.0
672 476.0
673 466.0
674 490.0
675 474.0
676 464.0
677 432.0
678 469.0
679 453.0
680 467.0
681 466.0
682 458.0
683 420.0
684 448.0
685 459.0
686 463.0
687 465.0
688 444.0
689 464.0
690 475.0
691 449.0
692 474.0
693 490.0
694 462.0
695 465.0
696 488.0
697 461.0
698 489.0
699 449.0
700 448.0
701 482.0
702 472.0
703 472.0
704 480.0
705 484.0
706 481.0
707 478.0
708 496.0
709 454.0
710 508.0
711 464.0
712 453.0
713 486.0
714 465.0
715 482.0
716 488.0
717 480.0
718 445.0
719 468.0
720 487.0
721 506.0
722 486.0
723 460.0
724 514.0
725 463.0
726 489.0
727 503.0
728 470.0
729 481.0
730 471.0
731 496.0
732 461.0
733 467.0
734 456.0
735 481.0
736 438.0
737 488.0
738 453.0
739 522.0
740 460.0
741 479.0
742 452.0
743 480.0
744 481.0
745 464.0
746 483.0
747 466.0
748 482.0
749 490.0
750 402.0
751 471.0
752 499.0
753 501.0
754 447.0
755 475.0
756 439.0
757 471.0
758 478.0
759 443.0
760 459.0
761 463.0
762 479.0
763 505.0
764 481.0
765 467.0
766 497.0
767 471.0
768 492.0
769 504.0
770 473.0
771 478.0
772 499.0
773 486.0
774 510.0
775 448.0
776 491.0
777 447.0
778 465.0
779 487.0
780 470.0
781 499.0
782 471.0
783 478.0
784 455.0
785 501.0
786 481.0
787 487.0
788 463.0
789 485.0
790 472.0
791 426.0
792 453.0
793 521.0
794 516.0
795 476.0
796 471.0
797 484.0
798 482.0
799 490.0
800 530.0
801 435.0
802 458.0
803 473.0
804 467.0
805 443.0
806 471.0
807 469.0
808 476.0
809 431.0
810 433.0
811 491.0
812 468.0
813 470.0
814 471.0
815 482.0
816 445.0
817 470.0
818 469.0
819 471.0
820 461.0
821 474.0
822 417.0
823 438.0
824 495.0
825 480.0
826 463.0
827 438.0
828 465.0
829 469.0
830 468.0
831 471.0
832 519.0
833 484.0
834 504.0
835 484.0
836 463.0
837 453.0
838 464.0
839 506.0
840 464.0
841 473.0
842 472.0
843 460.0
844 469.0
845 448.0
846 486.0
847 474.0
848 506.0
849 482.0
850 458.0
851 493.0
852 433.0
853 465.0
854 449.0
855 443.0
856 480.0
857 452.0
858 492.0
859 494.0
860 503.0
861 458.0
862 450.0
863 470.0
864 441.0
865 431.0
866 463.0
867 467.0
868 477.0
869 452.0
870 465.0
871 523.0
872 439.0
873 472.0
874 432.0
875 452.0
876 479.0
877 433.0
878 458.0
879 442.0
880 500.0
881 489.0
882 428.0
883 493.0
884 467.0
885 442.0
886 444.0
887 454.0
888 454.0
889 517.0
890 453.0
891 468.0
892 445.0
893 425.0
894 464.0
895 450.0
896 424.0
897 480.0
898 496.0
899 482.0
900 473.0
901 486.0
902 490.0
903 472.0
904 481.0
905 490.0
906 489.0
907 485.0
908 470.0
909 466.0
910 427.0
911 458.0
912 476.0
913 465.0
914 487.0
915 491.0
916 507.0
917 468.0
918 474.0
919 491.0
920 477.0
921 473.0
922 466.0
923 461.0
924 503.0
925 470.0
926 492.0
927 483.0
928 450.0
929 491.0
930 491.0
931 452.0
932 449.0
933 503.0
934 425.0
935 457.0
936 442.0
937 480.0
938 457.0
939 472.0
940 446.0
941 455.0
942 462.0
943 492.0
944 474.0
945 503.0
946 461.0
947 455.0
948 454.0
949 443.0
950 451.0
951 492.0
952 439.0
953 473.0
954 445.0
955 499.0
956 446.0
957 491.0
958 482.0
959 470.0
960 479.0
961 485.0
962 489.0
963 473.0
964 473.0
965 489.0
966 458.0
967 482.0
968 478.0
969 478.0
970 442.0
971 461.0
972 435.0
973 489.0
974 503.0
975 485.0
976 482.0
977 447.0
978 452.0
979 481.0
980 482.0
981 487.0
982 467.0
983 508.0
984 480.0
985 501.0
986 483.0
987 483.0
988 504.0
989 520.0
990 484.0
991 495.0
992 511.0
993 492.0
994 498.0
995 512.0
996 497.0
997 497.0
998 532.0
999 503.0
1000 474.0
1001 472.0
1002 510.0
1003 504.0
1004 437.0
1005 465.0
1006 484.0
1007 493.0
1008 492.0
1009 448.0
1010 478.0
1011 488.0
1012 492.0
1013 504.0
1014 488.0
1015 483.0
1016 514.0
1017 500.0
1018 486.0
1019 500.0
1020 483.0
1021 457.0
1022 484.0
1023 491.0
1024 478.0
1025 473.0
1026 490.0
1027 484.0
1028 443.0
1029 487.0
1030 458.0
1031 499.0
1032 500.0
1033 487.0
1034 459.0
1035 513.0
1036 483.0
1037 516.0
1038 445.0
1039 467.0
1040 482.0
1041 437.0
1042 472.0
1043 496.0
1044 495.0
1045 471.0
1046 532.0
1047 506.0
1048 506.0
1049 513.0
1050 493.0
1051 510.0
1052 477.0
1053 499.0
1054 488.0
1055 474.0
1056 539.0
1057 494.0
1058 495.0
1059 520.0
1060 491.0
1061 503.0
1062 501.0
1063 527.0
1064 476.0
1065 469.0
1066 501.0
1067 532.0
1068 523.0
1069 494.0
1070 454.0
1071 538.0
1072 520.0
1073 511.0
1074 519.0
1075 517.0
1076 501.0
1077 472.0
1078 495.0
1079 529.0
1080 498.0
1081 488.0
1082 518.0
1083 535.0
1084 502.0
1085 495.0
1086 528.0
1087 483.0
1088 521.0
1089 555.0
1090 493.0
1091 548.0
1092 521.0
1093 518.0
1094 477.0
1095 510.0
1096 530.0
1097 530.0
1098 505.0
1099 528.0
1100 525.0
1101 503.0
1102 501.0
1103 512.0
1104 552.0
1105 566.0
1106 489.0
1107 502.0
1108 524.0
1109 510.0
1110 505.0
1111 520.0
1112 509.0
1113 502.0
1114 505.0
1115 488.0
1116 502.0
1117 544.0
1118 527.0
1119 560.0
1120 508.0
1121 509.0
1122 520.0
1123 525.0
1124 506.0
1125 502.0
1126 500.0
1127 488.0
1128 530.0
1129 521.0
1130 521.0
1131 512.0
1132 516.0
1133 523.0
1134 480.0
1135 528.0
1136 530.0
1137 546.0
1138 507.0
1139 522.0
1140 524.0
1141 505.0
1142 527.0
1143 541.0
1144 511.0
1145 502.0
1146 496.0
1147 497.0
1148 498.0
1149 517.0
1150 535.0
1151 498.0
1152 518.0
1153 513.0
1154 490.0
1155 485.0
1156 519.0
1157 531.0
1158 530.0
1159 485.0
1160 500.0
1161 491.0
1162 521.0
1163 505.0
1164 494.0
1165 526.0
1166 493.0
1167 510.0
1168 506.0
1169 509.0
1170 519.0
1171 490.0
1172 489.0
1173 507.0
1174 544.0
1175 493.0
1176 511.0
1177 492.0
1178 493.0
1179 502.0
1180 504.0
1181 477.0
1182 516.0
1183 510.0
1184 515.0
1185 482.0
1186 474.0
1187 528.0
1188 479.0
1189 511.0
1190 495.0
1191 531.0
1192 514.0
1193 531.0
1194 495.0
1195 503.0
1196 525.0
1197 511.0
1198 523.0
1199 507.0
1200 503.0
1201 466.0
1202 531.0
1203 579.0
1204 537.0
1205 493.0
1206 493.0
1207 521.0
1208 519.0
1209 476.0
1210 514.0
1211 510.0
1212 488.0
1213 515.0
1214 514.0
1215 507.0
1216 535.0
1217 510.0
1218 501.0
1219 555.0
1220 511.0
1221 513.0
1222 551.0
1223 558.0
1224 567.0
1225 499.0
1226 520.0
1227 517.0
1228 521.0
1229 555.0
1230 509.0
1231 502.0
1232 544.0
1233 498.0
1234 515.0
1235 542.0
1236 515.0
1237 556.0
1238 535.0
1239 515.0
1240 509.0
1241 519.0
1242 534.0
1243 519.0
1244 483.0
1245 510.0
1246 505.0
1247 551.0
1248 501.0
1249 501.0
1250 509.0
1251 548.0
1252 523.0
1253 540.0
1254 556.0
1255 536.0
1256 522.0
1257 513.0
1258 534.0
1259 496.0
1260 530.0
1261 543.0
1262 534.0
1263 503.0
1264 506.0
1265 509.0
1266 527.0
1267 507.0
1268 477.0
1269 515.0
1270 548.0
1271 523.0
1272 501.0
1273 498.0
1274 509.0
1275 466.0
1276 479.0
1277 520.0
1278 505.0
1279 518.0
1280 477.0
1281 497.0
1282 504.0
1283 522.0
1284 521.0
1285 502.0
1286 498.0
1287 492.0
1288 507.0
1289 526.0
1290 511.0
1291 515.0
1292 512.0
1293 473.0
1294 533.0
1295 505.0
1296 525.0
1297 532.0
1298 474.0
1299 486.0
1300 544.0
1301 490.0
1302 502.0
1303 535.0
1304 505.0
1305 532.0
1306 527.0
1307 557.0
1308 503.0
1309 542.0
1310 526.0
1311 535.0
1312 492.0
1313 515.0
1314 553.0
1315 517.0
1316 501.0
1317 530.0
1318 531.0
1319 526.0
1320 532.0
1321 540.0
1322 523.0
1323 475.0
1324 507.0
1325 492.0
1326 516.0
1327 513.0
1328 527.0
1329 475.0
1330 532.0
1331 506.0
1332 488.0
1333 527.0
1334 517.0
1335 518.0
1336 493.0
1337 490.0
1338 493.0
1339 480.0
1340 501.0
1341 512.0
1342 477.0
1343 492.0
1344 510.0
1345 516.0
1346 500.0
1347 492.0
1348 500.0
1349 549.0
1350 520.0
1351 484.0
1352 522.0
1353 514.0
1354 488.0
1355 520.0
1356 516.0
1357 525.0
1358 525.0
1359 488.0
1360 520.0
1361 498.0
1362 524.0
1363 530.0
1364 482.0
1365 514.0
1366 501.0
1367 470.0
1368 499.0
1369 517.0
1370 523.0
1371 522.0
1372 527.0
1373 519.0
1374 496.0
1375 497.0
1376 503.0
1377 497.0
1378 501.0
1379 518.0
1380 490.0
1381 507.0
1382 498.0
1383 540.0
1384 503.0
1385 545.0
1386 511.0
1387 501.0
1388 504.0
1389 527.0
1390 478.0
1391 495.0
1392 546.0
1393 534.0
1394 521.0
1395 539.0
1396 553.0
1397 553.0
1398 551.0
1399 526.0
1400 539.0
1401 534.0
1402 548.0
1403 549.0
1404 531.0
1405 553.0
1406 531.0
1407 536.0
1408 480.0
1409 549.0
1410 542.0
1411 535.0
1412 496.0
1413 500.0
1414 554.0
1415 551.0
1416 521.0
1417 534.0
1418 556.0
1419 559.0
1420 499.0
1421 512.0
1422 501.0
1423 534.0
1424 573.0
1425 557.0
1426 534.0
1427 558.0
1428 573.0
1429 568.0
1430 574.0
1431 497.0
1432 521.0
1433 544.0
1434 530.0
1435 537.0
1436 550.0
1437 520.0
1438 530.0
1439 527.0
1440 532.0
1441 541.0
1442 502.0
1443 547.0
1444 557.0
1445 514.0
1446 510.0
1447 523.0
1448 539.0
1449 484.0
1450 523.0
1451 517.0
1452 479.0
1453 527.0
1454 562.0
1455 521.0
1456 540.0
1457 535.0
1458 497.0
1459 529.0
1460 488.0
1461 502.0
1462 503.0
1463 528.0
1464 530.0
1465 520.0
1466 559.0
1467 519.0
1468 498.0
1469 517.0
1470 498.0
1471 521.0
1472 523.0
1473 565.0
1474 540.0
1475 507.0
1476 520.0
1477 557.0
1478 520.0
1479 538.0
1480 519.0
1481 530.0
1482 536.0
1483 520.0
1484 457.0
1485 543.0
1486 511.0
1487 480.0
1488 556.0
1489 562.0
1490 521.0
1491 525.0
1492 534.0
1493 532.0
1494 501.0
1495 548.0
1496 522.0
1497 519.0
1498 514.0
1499 510.0
1500 544.0
1501 541.0
1502 501.0
1503 513.0
1504 505.0
1505 516.0
1506 480.0
1507 532.0
1508 488.0
1509 510.0
1510 552.0
1511 526.0
1512 534.0
1513 526.0
1514 507.0
1515 534.0
1516 499.0
1517 501.0
1518 513.0
1519 517.0
1520 561.0
1521 523.0
1522 520.0
1523 536.0
1524 512.0
1525 486.0
1526 507.0
1527 498.0
1528 498.0
1529 530.0
1530 491.0
1531 549.0
1532 523.0
1533 525.0
1534 527.0
1535 561.0
1536 518.0
1537 499.0
1538 546.0
1539 537.0
1540 540.0
1541 513.0
1542 531.0
1543 533.0
1544 522.0
1545 530.0
1546 516.0
1547 513.0
1548 516.0
1549 533.0
1550 507.0
1551 522.0
1552 534.0
1553 580.0
1554 514.0
1555 545.0
1556 517.0
1557 537.0
1558 516.0
1559 507.0
1560 528.0
1561 544.0
1562 532.0
1563 520.0
1564 549.0
1565 590.0
1566 564.0
1567 522.0
1568 482.0
1569 532.0
1570 569.0
1571 546.0
1572 541.0
1573 537.0
1574 560.0
1575 556.0
1576 567.0
1577 536.0
1578 506.0
1579 588.0
1580 538.0
1581 513.0
1582 546.0
1583 495.0
1584 556.0
1585 519.0
1586 518.0
1587 561.0
1588 495.0
1589 536.0
1590 535.0
1591 551.0
1592 548.0
1593 535.0
1594 526.0
1595 503.0
1596 557.0
1597 522.0
1598 541.0
1599 511.0
1600 541.0
1601 552.0
1602 501.0
1603 544.0
1604 545.0
1605 510.0
1606 550.0
1607 518.0
1608 570.0
1609 510.0
1610 531.0
1611 585.0
1612 553.0
1613 547.0
1614 543.0
1615 527.0
1616 530.0
1617 536.0
1618 561.0
1619 543.0
1620 541.0
1621 541.0
1622 548.0
1623 522.0
1624 505.0
1625 586.0
1626 506.0
1627 508.0
1628 521.0
1629 580.0
1630 571.0
1631 507.0
1632 546.0
1633 520.0
1634 556.0
1635 495.0
1636 469.0
1637 509.0
1638 526.0
1639 540.0
1640 525.0
1641 510.0
1642 474.0
1643 515.0
1644 520.0
1645 528.0
1646 523.0
1647 505.0
1648 523.0
1649 526.0
1650 516.0
1651 545.0
1652 524.0
1653 537.0
1654 481.0
1655 532.0
1656 492.0
1657 510.0
1658 510.0
1659 550.0
1660 534.0
1661 518.0
1662 507.0
1663 531.0
1664 513.0
1665 521.0
1666 537.0
1667 529.0
1668 539.0
1669 514.0
1670 516.0
1671 554.0
1672 490.0
1673 509.0
1674 513.0
1675 538.0
1676 523.0
1677 531.0
1678 546.0
1679 516.0
1680 541.0
1681 501.0
1682 523.0
1683 547.0
1684 522.0
1685 506.0
1686 564.0
1687 517.0
1688 541.0
1689 563.0
1690 525.0
1691 548.0
1692 562.0
1693 534.0
1694 543.0
1695 506.0
1696 528.0
1697 519.0
1698 525.0
1699 541.0
1700 503.0
1701 544.0
1702 557.0
1703 552.0
1704 552.0
1705 505.0
1706 528.0
1707 514.0
1708 548.0
1709 528.0
1710 516.0
1711 508.0
1712 579.0
1713 526.0
1714 514.0
1715 540.0
1716 552.0
1717 547.0
1718 545.0
1719 523.0
1720 532.0
1721 514.0
1722 511.0
1723 510.0
1724 543.0
1725 512.0
1726 515.0
1727 539.0
1728 563.0
1729 533.0
1730 538.0
1731 535.0
1732 537.0
1733 535.0
1734 576.0
1735 565.0
1736 529.0
1737 500.0
1738 577.0
1739 550.0
1740 566.0
1741 564.0
1742 540.0
1743 540.0
1744 559.0
1745 549.0
1746 570.0
1747 580.0
1748 554.0
1749 543.0
1750 528.0
1751 541.0
1752 542.0
1753 547.0
1754 579.0
1755 586.0
1756 516.0
1757 503.0
1758 537.0
1759 567.0
1760 535.0
1761 540.0
1762 569.0
1763 562.0
1764 561.0
1765 517.0
1766 560.0
1767 582.0
1768 585.0
1769 552.0
1770 580.0
1771 498.0
1772 575.0
1773 496.0
1774 530.0
1775 544.0
1776 573.0
1777 579.0
1778 552.0
1779 523.0
1780 532.0
1781 548.0
1782 527.0
1783 538.0
1784 529.0
1785 542.0
1786 514.0
1787 531.0
1788 541.0
1789 532.0
1790 559.0
1791 567.0
1792 565.0
1793 536.0
1794 576.0
1795 535.0
1796 491.0
1797 536.0
1798 550.0
1799 554.0
1800 507.0
1801 589.0
1802 500.0
1803 555.0
1804 547.0
1805 533.0
1806 514.0
1807 562.0
1808 523.0
1809 541.0
1810 520.0
1811 541.0
1812 547.0
1813 529.0
1814 534.0
1815 544.0
1816 512.0
1817 549.0
1818 516.0
1819 547.0
1820 554.0
1821 522.0
1822 532.0
1823 492.0
1824 521.0
1825 555.0
1826 561.0
1827 542.0
1828 542.0
1829 482.0
1830 577.0
1831 560.0
1832 581.0
1833 581.0
1834 509.0
1835 542.0
1836 524.0
1837 548.0
1838 526.0
1839 528.0
1840 531.0
1841 544.0
1842 552.0
1843 541.0
1844 544.0
1845 549.0
1846 560.0
1847 548.0
1848 542.0
1849 528.0
1850 574.0
1851 524.0
1852 524.0
1853 533.0
1854 544.0
1855 507.0
1856 554.0
1857 576.0
1858 506.0
1859 502.0
1860 587.0
1861 531.0
1862 520.0
1863 521.0
1864 567.0
1865 557.0
1866 543.0
1867 518.0
1868 530.0
1869 595.0
1870 556.0
1871 511.0
1872 545.0
1873 557.0
1874 511.0
1875 508.0
1876 515.0
1877 568.0
1878 536.0
1879 559.0
1880 550.0
1881 527.0
1882 516.0
1883 546.0
1884 537.0
1885 557.0
1886 555.0
1887 574.0
1888 565.0
1889 490.0
1890 544.0
1891 543.0
1892 529.0
1893 534.0
1894 521.0
1895 530.0
1896 551.0
1897 566.0
1898 505.0
1899 512.0
1900 499.0
1901 559.0
1902 521.0
1903 512.0
1904 536.0
1905 503.0
1906 537.0
1907 518.0
1908 570.0
1909 556.0
1910 547.0
1911 566.0
1912 549.0
1913 577.0
1914 524.0
1915 545.0
1916 553.0
1917 548.0
1918 526.0
1919 516.0
1920 536.0
1921 540.0
1922 542.0
1923 577.0
1924 566.0
1925 552.0
1926 580.0
1927 529.0
1928 538.0
1929 553.0
1930 530.0
1931 558.0
1932 586.0
1933 591.0
1934 514.0
1935 557.0
1936 577.0
1937 543.0
1938 539.0
1939 583.0
1940 540.0
1941 566.0
1942 555.0
1943 557.0
1944 569.0
1945 554.0
1946 561.0
1947 545.0
1948 558.0
1949 500.0
1950 569.0
1951 530.0
1952 552.0
1953 535.0
1954 608.0
1955 546.0
1956 527.0
1957 560.0
1958 545.0
1959 546.0
1960 593.0
1961 569.0
1962 564.0
1963 554.0
1964 555.0
1965 558.0
1966 556.0
1967 530.0
1968 551.0
1969 563.0
1970 567.0
1971 562.0
1972 559.0
1973 543.0
1974 567.0
1975 513.0
1976 569.0
1977 549.0
1978 547.0
1979 519.0
1980 548.0
1981 554.0
1982 570.0
1983 567.0
1984 553.0
1985 560.0
1986 581.0
1987 589.0
1988 561.0
1989 550.0
1990 538.0
1991 580.0
1992 562.0
1993 542.0
1994 563.0
1995 563.0
1996 566.0
1997 553.0
1998 545.0
1999 557.0
2000 561.0
2001 577.0
2002 578.0
2003 550.0
2004 574.0
2005 600.0
2006 564.0
2007 541.0
2008 581.0
2009 583.0
2010 578.0
2011 548.0
2012 584.0
2013 574.0
2014 599.0
2015 555.0
2016 572.0
2017 570.0
2018 595.0
2019 609.0
2020 605.0
2021 600.0
2022 599.0
2023 615.0
2024 632.0
2025 608.0
2026 564.0
2027 621.0
2028 633.0
2029 576.0
2030 594.0
2031 580.0
2032 608.0
2033 622.0
2034 604.0
2035 583.0
2036 600.0
2037 572.0
2038 625.0
2039 578.0
2040 607.0
2041 646.0
2042 628.0
2043 616.0
2044 609.0
2045 581.0
2046 595.0
2047 596.0
