0 536.0
1 523.0
2 501.0
3 467.0
4 489.0
5 492.0
6 457.0
7 494.0
8 463.0
9 534.0
10 512.0
11 488.0
12 487.0
13 479.0
14 489.0
15 502.0
16 508.0
17 511.0
18 453.0
19 500.0
20 481.0
21 470.0
22 473.0
23 478.0
24 468.0
25 472.0
26 473.0
27 486.0
28 445.0
29 516.0
30 464.0
31 480.0
32 485.0
33 468.0
34 478.0
35 448.0
36 482.0
37 482.0
38 432.0
39 477.0
40 452.0
41 503.0
42 481.0
43 452.0
44 454.0
45 472.0
46 453.0
47 474.0
48 444.0
49 437.0
50 462.0
51 478.0
52 441.0
53 478.0
54 418.0
55 471.0
56 421.0
57 498.0
58 437.0
59 459.0
60 491.0
61 472.0
62 437.0
63 436.0
64 403.0
65 487.0
66 430.0
67 478.0
68 414.0
69 455.0
70 435.0
71 439.0
72 459.0
73 453.0
74 427.0
75 419.0
76 391.0
77 437.0
78 440.0
79 439.0
80 461.0
81 405.0
82 454.0
83 430.0
84 405.0
85 416.0
86 456.0
87 473.0
88 433.0
89 418.0
90 426.0
91 446.0
92 414.0
93 438.0
94 439.0
95 413.0
96 451.0
97 447.0
98 409.0
99 449.0
100 432.0
101 423.0
102 447.0
103 442.0
104 446.0
105 456.0
106 419.0
107 437.0
108 437.0
109 443.0
110 422.0
111 449.0
112 460.0
113 448.0
114 375.0
115 455.0
116 418.0
117 416.0
118 466.0
119 423.0
120 419.0
121 477.0
122 440.0
123 413.0
124 445.0
125 449.0
126 406.0
127 456.0
128 438.0
129 452.0
130 430.0
131 411.0
132 456.0
133 507.0
134 428.0
135 425.0
136 409.0
137 444.0
138 437.0
139 428.0
140 426.0
141 450.0
142 420.0
143 396.0
144 428.0
145 425.0
146 411.0
147 462.0
148 440.0
149 442.0
150 448.0
151 453.0
152 457.0
153 406.0
154 447.0
155 454.0
156 416.0
157 454.0
158 433.0
159 443.0
160 471.0
161 478.0
162 397.0
163 432.0
164 399.0
165 445.0
166 449.0
167 446.0
168 424.0
169 425.0
170 482.0
171 450.0
172 437.0
173 410.0
174 400.0
175 453.0
176 457.0
177 480.0
178 465.0
179 446.0
180 444.0
181 416.0
182 398.0
183 440.0
184 445.0
185 440.0
186 438.0
187 467.0
188 426.0
189 462.0
190 438.0
191 443.0
192 431.0
193 441.0
194 411.0
195 443.0
196 401.0
197 443.0
198 396.0
199 423.0
200 431.0
201 452.0
202 443.0
203 450.0
204 423.0
205 435.0
206 402.0
207 421.0
208 445.0
209 401.0
210 437.0
211 379.0
212 442.0
213 454.0
214 410.0
215 404.0
216 459.0
217 415.0
218 411.0
219 455.0
220 432.0
221 453.0
222 407.0
223 455.0
224 431.0
225 462.0
226 392.0
227 407.0
228 443.0
229 433.0
230 453.0
231 468.0
232 451.0
233 417.0
234 412.0
235 440.0
236 394.0
237 425.0
238 422.0
239 406.0
240 428.0
241 443.0
242 448.0
243 449.0
244 447.0
245 432.0
246 437.0
247 446.0
248 408.0
249 435.0
250 430.0
251 454.0
252 429.0
253 388.0
254 441.0
255 419.0
256 423.0
257 424.0
258 440.0
259 442.0
260 401.0
261 411.0
262 418.0
263 470.0
264 449.0
265 470.0
266 431.0
267 399.0
268 407.0
269 466.0
270 415.0
271 453.0
272 431.0
273 437.0
274 457.0
275 465.0
276 444.0
277 473.0
278 456.0
279 466.0
280 408.0
281 434.0
282 442.0
283 468.0
284 407.0
285 452.0
286 417.0
287 435.0
288 442.0
289 429.0
290 462.0
291 430.0
292 411.0
293 429.0
294 458.0
295 397.0
296 439.0
297 445.0
298 434.0
299 395.0
300 438.0
301 449.0
302 426.0
303 437.0
304 439.0
305 459.0
306 422.0
307 441.0
308 414.0
309 435.0
310 429.0
311 443.0
312 458.0
313 423.0
314 429.0
315 456.0
316 423.0
317 473.0
318 401.0
319 440.0
320 448.0
321 459.0
322 396.0
323 460.0
324 402.0
325 444.0
326 457.0
327 442.0
328 456.0
329 477.0
330 446.0
331 394.0
332 459.0
333 450.0
334 410.0
335 449.0
336 449.0
337 433.0
338 447.0
339 415.0
340 446.0
341 436.0
342 466.0
343 429.0
344 419.0
345 459.0
346 438.0
347 459.0
348 454.0
349 455.0
350 447.0
351 479.0
352 483.0
353 445.0
354 453.0
355 431.0
356 439.0
357 437.0
358 492.0
359 456.0
360 453.0
361 465.0
362 440.0
363 412.0
364 442.0
365 448.0
366 444.0
367 446.0
368 468.0
369 451.0
370 438.0
371 466.0
372 435.0
373 438.0
374 419.0
375 473.0
376 461.0
377 435.0
378 441.0
379 431.0
380 428.0
381 468.0
382 399.0
383 402.0
384 423.0
385 474.0
386 428.0
387 395.0
388 451.0
389 435.0
390 439.0
391 448.0
392 427.0
393 437.0
394 471.0
395 467.0
396 422.0
397 417.0
398 456.0
399 447.0
400 471.0
401 477.0
402 452.0
403 414.0
404 431.0
405 437.0
406 428.0
407 442.0
408 449.0
409 415.0
410 414.0
411 456.0
412 427.0
413 472.0
414 435.0
415 477.0
416 416.0
417 463.0
418 456.0
419 425.0
420 440.0
421 490.0
422 409.0
423 454.0
424 472.0
425 438.0
426 465.0
427 450.0
428 445.0
429 490.0
430 427.0
431 432.0
432 435.0
433 458.0
434 455.0
435 457.0
436 468.0
437 453.0
438 443.0
439 471.0
440 446.0
441 478.0
442 464.0
443 485.0
444 467.0
445 453.0
446 425.0
447 484.0
448 444.0
449 509.0
450 440.0
451 472.0
452 462.0
453 454.0
454 466.0
455 434.0
456 432.0
457 469.0
458 457.0
459 473.0
460 489.0
461 472.0
462 476.0
463 446.0
464 500.0
465 460.0
466 426.0
467 494.0
468 479.0
469 452.0
470 450.0
471 467.0
472 455.0
473 503.0
474 452.0
475 489.0
476 469.0
477 475.0
478 461.0
479 424.0
480 456.0
481 442.0
482 467.0
483 454.0
484 454.0
485 460.0
486 435.0
487 467.0
488 479.0
489 457.0
490 476.0
491 449.0
492 455.0
493 419.0
494 440.0
495 414.0
496 492.0
497 421.0
498 445.0
499 472.0
500 399.0
501 426.0
502 440.0
503 448.0
504 412.0
505 421.0
506 447.0
507 492.0
508 462.0
509 470.0
510 496.0
511 469.0
512 444.0
513 461.0
514 425.0
515 452.0
516 446.0
517 414.0
518 448.0
519 442.0
520 420.0
521 447.0
522 425.0
523 428.0
524 407.0
525 456.0
526 405.0
527 422.0
528 420.0
529 395.0
530 460.0
531 442.0
532 459.0
533 428.0
534 441.0
535 410.0
536 395.0
537 471.0
538 440.0
539 408.0
540 439.0
541 439.0
542 441.0
543 480.0
544 436.0
545 427.0
546 439.0
547 462.0
548 490.0
549 446.0
550 503.0
551 457.0
552 441.0
553 469.0
554 459.0
555 451.0
556 428.0
557 466.0
558 432.0
559 409.0
560 493.0
561 472.0
562 463.0
563 428.0
564 430.0
565 432.0
566 416.0
567 453.0
568 432.0
569 445.0
570 418.0
571 438.0
572 458.0
573 460.0
574 416.0
575 521.0
576 425.0
577 449.0
578 450.0
579 422.0
580 448.0
581 450.0
582 424.0
583 423.0
584 421.0
585 518.0
586 429.0
587 456.0
588 439.0
589 448.0
590 447.0
591 454.0
592 476.0
593 437.0
594 452.0
595 445.0
596 425.0
597 468.0
598 442.0
599 470.0
600 452.0
601 464.0
602 426.0
603 471.0
604 477.0
605 468.0
606 428.0
607 457.0
608 449.0
609 450.0
610 466.0
611 458.0
612 464.0
613 466.0
614 423.0
615 485.0
616 477.0
617 502.0
618 447.0
619 447.0
620 448.0
621 472.0
622 455.0
623 493.0
624 507.0
625 480.0
626 454.0
627 433.0
628 448.0
629 443.0
630 470.0
631 449.0
632 472.0
633 440.0
634 449.0
635 451.0
636 458.0
637 478.0
638 480.0
639 454.0
640 441.0
641 469.0
642 441.0
643 468.0
644 507.0
645 470.0
646 440.0
647 472.0
648 436.0
649 441.0
650 483.0
651 502.0
652 496.0
653 482.0
654 448.0
655 473.0
656 495.0
657 468.0
658 445.0
659 444.0
660 460.0
661 479.0
662 436.0
663 478.0
664 488.0
665 462.0
666 465.0
667 496.0
668 439.0
669 464.0
670 473.0
671 470.0
672 468.0
673 449.0
674 470.0
675 462.0
676 449.0
677 434.0
678 454.0
679 459.0
680 447.0
681 456.0
682 459.0
683 425.0
684 443.0
685 449.0
686 460.0
687 445.0
688 472.0
689 419.0
690 454.0
691 458.0
692 450.0
693 450.0
694 463.0
695 467.0
696 451.0
697 497.0
698 467.0
699 435.0
700 411.0
701 489.0
702 490.0
703 489.0
704 447.0
705 449.0
706 448.0
707 481.0
708 470.0
709 449.0
710 470.0
711 480.0
712 436.0
713 441.0
714 470.0
715 435.0
716 458.0
717 454.0
718 434.0
719 453.0
720 431.0
721 471.0
722 477.0
723 477.0
724 486.0
725 489.0
726 477.0
727 448.0
728 458.0
729 433.0
730 428.0
731 438.0
732 464.0
733 449.0
734 426.0
735 460.0
736 453.0
737 472.0
738 476.0
739 503.0
740 450.0
741 464.0
742 454.0
743 482.0
744 435.0
745 477.0
746 438.0
747 467.0
748 451.0
749 441.0
750 448.0
751 459.0
752 467.0
753 471.0
754 442.0
755 474.0
756 459.0
757 479.0
758 443.0
759 457.0
760 471.0
761 473.0
762 485.0
763 491.0
764 442.0
765 435.0
766 464.0
767 488.0
768 471.0
769 507.0
770 505.0
771 504.0
772 504.0
773 479.0
774 505.0
775 420.0
776 478.0
777 498.0
778 479.0
779 470.0
780 494.0
781 469.0
782 447.0
783 477.0
784 459.0
785 503.0
786 444.0
787 481.0
788 484.0
789 461.0
790 463.0
791 460.0
792 446.0
793 496.0
794 504.0
795 497.0
796 486.0
797 523.0
798 534.0
799 464.0
800 492.0
801 447.0
802 419.0
803 445.0
804 518.0
805 444.0
806 481.0
807 451.0
808 422.0
809 453.0
810 444.0
811 490.0
812 453.0
813 451.0
814 432.0
815 464.0
816 455.0
817 476.0
818 493.0
819 460.0
820 448.0
821 485.0
822 460.0
823 458.0
824 472.0
825 462.0
826 466.0
827 500.0
828 483.0
829 454.0
830 453.0
831 451.0
832 484.0
833 527.0
834 471.0
835 492.0
836 437.0
837 454.0
838 479.0
839 479.0
840 470.0
841 444.0
842 455.0
843 463.0
844 459.0
845 461.0
846 470.0
847 465.0
848 515.0
849 483.0
850 446.0
851 471.0
852 438.0
853 471.0
854 465.0
855 481.0
856 495.0
857 423.0
858 461.0
859 442.0
860 492.0
861 469.0
862 479.0
863 492.0
864 415.0
865 438.0
866 452.0
867 441.0
868 430.0
869 421.0
870 453.0
871 510.0
872 480.0
873 447.0
874 430.0
875 446.0
876 453.0
877 432.0
878 447.0
879 457.0
880 491.0
881 486.0
882 432.0
883 443.0
884 450.0
885 435.0
886 461.0
887 446.0
888 467.0
889 513.0
890 467.0
891 426.0
892 483.0
893 431.0
894 458.0
895 457.0
896 423.0
897 477.0
898 457.0
899 453.0
900 434.0
901 483.0
902 492.0
903 470.0
904 486.0
905 475.0
906 495.0
907 464.0
908 453.0
909 475.0
910 463.0
911 435.0
912 470.0
913 462.0
914 473.0
915 491.0
916 463.0
917 473.0
918 455.0
919 468.0
920 507.0
921 449.0
922 504.0
923 477.0
924 470.0
925 487.0
926 494.0
927 460.0
928 450.0
929 493.0
930 457.0
931 455.0
932 492.0
933 481.0
934 494.0
935 458.0
936 457.0
937 486.0
938 470.0
939 447.0
940 467.0
941 472.0
942 441.0
943 485.0
944 471.0
945 513.0
946 468.0
947 448.0
948 432.0
949 441.0
950 438.0
951 460.0
952 454.0
953 450.0
954 446.0
955 511.0
956 438.0
957 461.0
958 423.0
959 491.0
960 467.0
961 481.0
962 486.0
963 465.0
964 477.0
965 497.0
966 464.0
967 483.0
968 478.0
969 484.0
970 526.0
971 486.0
972 481.0
973 443.0
974 488.0
975 475.0
976 501.0
977 478.0
978 439.0
979 496.0
980 483.0
981 502.0
982 457.0
983 481.0
984 458.0
985 501.0
986 495.0
987 456.0
988 506.0
989 481.0
990 476.0
991 487.0
992 526.0
993 479.0
994 490.0
995 510.0
996 501.0
997 513.0
998 485.0
999 477.0
1000 459.0
1001 502.0
1002 466.0
1003 530.0
1004 458.0
1005 453.0
1006 491.0
1007 455.0
1008 517.0
1009 469.0
1010 484.0
1011 445.0
1012 499.0
1013 486.0
1014 480.0
1015 460.0
1016 454.0
1017 451.0
1018 445.0
1019 484.0
1020 464.0
1021 455.0
1022 493.0
1023 480.0
1024 488.0
1025 478.0
1026 455.0
1027 476.0
1028 490.0
1029 510.0
1030 467.0
1031 485.0
1032 500.0
1033 491.0
1034 497.0
1035 489.0
1036 490.0
1037 508.0
1038 435.0
1039 472.0
1040 498.0
1041 481.0
1042 500.0
1043 489.0
1044 474.0
1045 483.0
1046 488.0
1047 480.0
1048 460.0
1049 491.0
1050 491.0
1051 470.0
1052 516.0
1053 508.0
1054 505.0
1055 483.0
1056 547.0
1057 522.0
1058 482.0
1059 510.0
1060 473.0
1061 497.0
1062 525.0
1063 525.0
1064 467.0
1065 480.0
1066 496.0
1067 540.0
1068 490.0
1069 525.0
1070 468.0
1071 524.0
1072 484.0
1073 497.0
1074 504.0
1075 516.0
1076 496.0
1077 520.0
1078 484.0
1079 524.0
1080 518.0
1081 486.0
1082 492.0
1083 492.0
1084 528.0
1085 483.0
1086 501.0
1087 482.0
1088 478.0
1089 544.0
1090 525.0
1091 538.0
1092 491.0
1093 505.0
1094 482.0
1095 526.0
1096 487.0
1097 523.0
1098 542.0
1099 503.0
1100 535.0
1101 511.0
1102 501.0
1103 505.0
1104 559.0
1105 521.0
1106 525.0
1107 520.0
1108 518.0
1109 505.0
1110 546.0
1111 506.0
1112 536.0
1113 499.0
1114 528.0
1115 515.0
1116 523.0
1117 502.0
1118 509.0
1119 530.0
1120 511.0
1121 539.0
1122 491.0
1123 518.0
1124 517.0
1125 537.0
1126 463.0
1127 499.0
1128 511.0
1129 508.0
1130 524.0
1131 523.0
1132 513.0
1133 475.0
1134 494.0
1135 482.0
1136 545.0
1137 488.0
1138 483.0
1139 481.0
1140 537.0
1141 502.0
1142 526.0
1143 521.0
1144 514.0
1145 530.0
1146 497.0
1147 517.0
1148 502.0
1149 525.0
1150 497.0
1151 500.0
1152 536.0
1153 499.0
1154 506.0
1155 520.0
1156 558.0
1157 536.0
1158 513.0
1159 517.0
1160 494.0
1161 495.0
1162 486.0
1163 510.0
1164 500.0
1165 543.0
1166 507.0
1167 487.0
1168 475.0
1169 488.0
1170 491.0
1171 555.0
1172 487.0
1173 473.0
1174 522.0
1175 521.0
1176 497.0
1177 511.0
1178 482.0
1179 473.0
1180 494.0
1181 476.0
1182 489.0
1183 517.0
1184 508.0
1185 483.0
1186 492.0
1187 510.0
1188 502.0
1189 492.0
1190 507.0
1191 492.0
1192 479.0
1193 543.0
1194 496.0
1195 501.0
1196 522.0
1197 501.0
1198 491.0
1199 506.0
1200 544.0
1201 511.0
1202 482.0
1203 521.0
1204 491.0
1205 496.0
1206 559.0
1207 525.0
1208 514.0
1209 521.0
1210 510.0
1211 519.0
1212 526.0
1213 557.0
1214 476.0
1215 499.0
1216 495.0
1217 521.0
1218 514.0
1219 514.0
1220 481.0
1221 515.0
1222 534.0
1223 487.0
1224 527.0
1225 490.0
1226 523.0
1227 513.0
1228 509.0
1229 545.0
1230 517.0
1231 505.0
1232 556.0
1233 518.0
1234 508.0
1235 528.0
1236 512.0
1237 566.0
1238 517.0
1239 530.0
1240 546.0
1241 506.0
1242 523.0
1243 498.0
1244 515.0
1245 489.0
1246 535.0
1247 523.0
1248 495.0
1249 481.0
1250 548.0
1251 537.0
1252 499.0
1253 495.0
1254 518.0
1255 528.0
1256 498.0
1257 511.0
1258 505.0
1259 505.0
1260 546.0
1261 501.0
1262 579.0
1263 516.0
1264 518.0
1265 523.0
1266 530.0
1267 525.0
1268 458.0
1269 519.0
1270 489.0
1271 521.0
1272 496.0
1273 513.0
1274 521.0
1275 508.0
1276 460.0
1277 520.0
1278 534.0
1279 514.0
1280 478.0
1281 536.0
1282 506.0
1283 535.0
1284 533.0
1285 497.0
1286 492.0
1287 567.0
1288 549.0
1289 500.0
1290 526.0
1291 510.0
1292 531.0
1293 516.0
1294 512.0
1295 503.0
1296 547.0
1297 491.0
1298 498.0
1299 530.0
1300 553.0
1301 477.0
1302 477.0
1303 537.0
1304 495.0
1305 522.0
1306 546.0
1307 524.0
1308 520.0
1309 525.0
1310 503.0
1311 531.0
1312 510.0
1313 512.0
1314 564.0
1315 505.0
1316 521.0
1317 527.0
1318 520.0
1319 500.0
1320 522.0
1321 502.0
1322 497.0
1323 484.0
1324 492.0
1325 491.0
1326 489.0
1327 488.0
1328 508.0
1329 516.0
1330 537.0
1331 504.0
1332 500.0
1333 524.0
1334 508.0
1335 516.0
1336 492.0
1337 484.0
1338 482.0
1339 500.0
1340 490.0
1341 486.0
1342 474.0
1343 489.0
1344 518.0
1345 509.0
1346 525.0
1347 477.0
1348 526.0
1349 535.0
1350 536.0
1351 466.0
1352 514.0
1353 479.0
1354 491.0
1355 474.0
1356 483.0
1357 495.0
1358 503.0
1359 499.0
1360 525.0
1361 503.0
1362 453.0
1363 467.0
1364 501.0
1365 508.0
1366 491.0
1367 472.0
1368 503.0
1369 496.0
1370 492.0
1371 525.0
1372 530.0
1373 527.0
1374 470.0
1375 504.0
1376 542.0
1377 491.0
1378 519.0
1379 527.0
1380 502.0
1381 495.0
1382 529.0
1383 515.0
1384 501.0
1385 505.0
1386 505.0
1387 482.0
1388 519.0
1389 498.0
1390 516.0
1391 500.0
1392 539.0
1393 533.0
1394 537.0
1395 548.0
1396 548.0
1397 569.0
1398 550.0
1399 526.0
1400 528.0
1401 494.0
1402 554.0
1403 575.0
1404 537.0
1405 562.0
1406 561.0
1407 555.0
1408 469.0
1409 544.0
1410 549.0
1411 540.0
1412 513.0
1413 516.0
1414 562.0
1415 538.0
1416 534.0
1417 540.0
1418 534.0
1419 515.0
1420 537.0
1421 485.0
1422 526.0
1423 551.0
1424 547.0
1425 556.0
1426 568.0
1427 547.0
1428 541.0
1429 549.0
1430 548.0
1431 498.0
1432 501.0
1433 546.0
1434 490.0
1435 514.0
1436 533.0
1437 552.0
1438 549.0
1439 529.0
1440 523.0
1441 542.0
1442 522.0
1443 540.0
1444 534.0
1445 521.0
1446 461.0
1447 505.0
1448 528.0
1449 523.0
1450 530.0
1451 514.0
1452 504.0
1453 500.0
1454 567.0
1455 505.0
1456 519.0
1457 520.0
1458 508.0
1459 489.0
1460 484.0
1461 467.0
1462 492.0
1463 536.0
1464 508.0
1465 528.0
1466 507.0
1467 524.0
1468 514.0
1469 548.0
1470 546.0
1471 533.0
1472 504.0
1473 497.0
1474 500.0
1475 501.0
1476 526.0
1477 530.0
1478 504.0
1479 528.0
1480 506.0
1481 485.0
1482 527.0
1483 540.0
1484 470.0
1485 487.0
1486 492.0
1487 483.0
1488 520.0
1489 563.0
1490 517.0
1491 540.0
1492 517.0
1493 504.0
1494 531.0
1495 508.0
1496 478.0
1497 482.0
1498 488.0
1499 481.0
1500 510.0
1501 529.0
1502 511.0
1503 530.0
1504 508.0
1505 525.0
1506 512.0
1507 531.0
1508 507.0
1509 530.0
1510 532.0
1511 484.0
1512 541.0
1513 539.0
1514 497.0
1515 494.0
1516 548.0
1517 514.0
1518 521.0
1519 542.0
1520 515.0
1521 516.0
1522 523.0
1523 550.0
1524 489.0
1525 499.0
1526 514.0
1527 501.0
1528 505.0
1529 508.0
1530 497.0
1531 501.0
1532 512.0
1533 532.0
1534 508.0
1535 548.0
1536 486.0
1537 524.0
1538 528.0
1539 520.0
1540 560.0
1541 541.0
1542 526.0
1543 542.0
1544 538.0
1545 514.0
1546 506.0
1547 491.0
1548 467.0
1549 523.0
1550 509.0
1551 501.0
1552 551.0
1553 515.0
1554 523.0
1555 554.0
1556 534.0
1557 531.0
1558 493.0
1559 495.0
1560 555.0
1561 541.0
1562 515.0
1563 530.0
1564 505.0
1565 549.0
1566 524.0
1567 535.0
1568 563.0
1569 542.0
1570 530.0
1571 522.0
1572 497.0
1573 529.0
1574 535.0
1575 541.0
1576 529.0
1577 578.0
1578 526.0
1579 535.0
1580 520.0
1581 554.0
1582 575.0
1583 483.0
1584 551.0
1585 506.0
1586 515.0
1587 529.0
1588 541.0
1589 525.0
1590 525.0
1591 521.0
1592 514.0
1593 502.0
1594 524.0
1595 512.0
1596 562.0
1597 523.0
1598 499.0
1599 510.0
1600 568.0
1601 537.0
1602 497.0
1603 523.0
1604 535.0
1605 460.0
1606 530.0
1607 522.0
1608 523.0
1609 517.0
1610 536.0
1611 509.0
1612 527.0
1613 511.0
1614 508.0
1615 504.0
1616 490.0
1617 517.0
1618 523.0
1619 508.0
1620 524.0
1621 555.0
1622 544.0
1623 545.0
1624 548.0
1625 540.0
1626 509.0
1627 510.0
1628 502.0
1629 546.0
1630 528.0
1631 504.0
1632 513.0
1633 489.0
1634 497.0
1635 460.0
1636 482.0
1637 500.0
1638 510.0
1639 518.0
1640 476.0
1641 497.0
1642 466.0
1643 471.0
1644 503.0
1645 502.0
1646 496.0
1647 487.0
1648 519.0
1649 545.0
1650 509.0
1651 516.0
1652 505.0
1653 533.0
1654 520.0
1655 514.0
1656 474.0
1657 518.0
1658 476.0
1659 506.0
1660 489.0
1661 499.0
1662 491.0
1663 488.0
1664 471.0
1665 496.0
1666 457.0
1667 495.0
1668 540.0
1669 495.0
1670 494.0
1671 542.0
1672 517.0
1673 516.0
1674 519.0
1675 543.0
1676 535.0
1677 488.0
1678 524.0
1679 489.0
1680 533.0
1681 499.0
1682 520.0
1683 564.0
1684 526.0
1685 486.0
1686 507.0
1687 504.0
1688 530.0
1689 523.0
1690 507.0
1691 501.0
1692 558.0
1693 541.0
1694 537.0
1695 521.0
1696 530.0
1697 513.0
1698 552.0
1699 520.0
1700 536.0
1701 525.0
1702 574.0
1703 524.0
1704 538.0
1705 490.0
1706 482.0
1707 505.0
1708 552.0
1709 533.0
1710 539.0
1711 519.0
1712 544.0
1713 500.0
1714 454.0
1715 517.0
1716 539.0
1717 544.0
1718 564.0
1719 499.0
1720 482.0
1721 529.0
1722 570.0
1723 534.0
1724 557.0
1725 527.0
1726 544.0
1727 567.0
1728 561.0
1729 504.0
1730 537.0
1731 536.0
1732 529.0
1733 516.0
1734 574.0
1735 544.0
1736 522.0
1737 574.0
1738 524.0
1739 517.0
1740 550.0
1741 543.0
1742 529.0
1743 522.0
1744 534.0
1745 535.0
1746 539.0
1747 558.0
1748 561.0
1749 569.0
1750 549.0
1751 575.0
1752 549.0
1753 558.0
1754 578.0
1755 550.0
1756 533.0
1757 522.0
1758 541.0
1759 571.0
1760 519.0
1761 548.0
1762 555.0
1763 544.0
1764 579.0
1765 535.0
1766 526.0
1767 561.0
1768 590.0
1769 559.0
1770 597.0
1771 521.0
1772 560.0
1773 533.0
1774 571.0
1775 532.0
1776 554.0
1777 568.0
1778 532.0
1779 519.0
1780 552.0
1781 561.0
1782 562.0
1783 550.0
1784 547.0
1785 540.0
1786 472.0
1787 547.0
1788 537.0
1789 505.0
1790 546.0
1791 550.0
1792 519.0
1793 548.0
1794 560.0
1795 543.0
1796 545.0
1797 539.0
1798 560.0
1799 544.0
1800 531.0
1801 526.0
1802 511.0
1803 558.0
1804 558.0
1805 541.0
1806 521.0
1807 549.0
1808 513.0
1809 539.0
1810 494.0
1811 514.0
1812 538.0
1813 536.0
1814 529.0
1815 553.0
1816 473.0
1817 575.0
1818 534.0
1819 544.0
1820 536.0
1821 542.0
1822 519.0
1823 473.0
1824 556.0
1825 542.0
1826 523.0
1827 569.0
1828 540.0
1829 500.0
1830 555.0
1831 557.0
1832 564.0
1833 548.0
1834 534.0
1835 537.0
1836 488.0
1837 516.0
1838 518.0
1839 557.0
1840 540.0
1841 534.0
1842 540.0
1843 535.0
1844 528.0
1845 574.0
1846 549.0
1847 566.0
1848 533.0
1849 566.0
1850 565.0
1851 524.0
1852 549.0
1853 542.0
1854 559.0
1855 480.0
1856 512.0
1857 530.0
1858 527.0
1859 481.0
1860 552.0
1861 538.0
1862 519.0
1863 555.0
1864 550.0
1865 536.0
1866 521.0
1867 517.0
1868 501.0
1869 573.0
1870 556.0
1871 524.0
1872 552.0
1873 558.0
1874 516.0
1875 532.0
1876 516.0
1877 514.0
1878 565.0
1879 550.0
1880 532.0
1881 550.0
1882 533.0
1883 554.0
1884 521.0
1885 588.0
1886 555.0
1887 552.0
1888 553.0
1889 520.0
1890 522.0
1891 539.0
1892 558.0
1893 526.0
1894 486.0
1895 529.0
1896 579.0
1897 507.0
1898 529.0
1899 497.0
1900 542.0
1901 549.0
1902 521.0
1903 516.0
1904 560.0
1905 505.0
1906 496.0
1907 518.0
1908 546.0
1909 550.0
1910 534.0
1911 544.0
1912 537.0
1913 553.0
1914 505.0
1915 547.0
1916 550.0
1917 532.0
1918 522.0
1919 554.0
1920 539.0
1921 497.0
1922 538.0
1923 551.0
1924 563.0
1925 517.0
1926 558.0
1927 523.0
1928 551.0
1929 561.0
1930 528.0
1931 557.0
1932 587.0
1933 565.0
1934 496.0
1935 532.0
1936 574.0
1937 573.0
1938 560.0
1939 578.0
1940 562.0
1941 555.0
1942 540.0
1943 552.0
1944 551.0
1945 551.0
1946 549.0
1947 576.0
1948 550.0
1949 539.0
1950 553.0
1951 540.0
1952 564.0
1953 537.0
1954 549.0
1955 538.0
1956 554.0
1957 564.0
1958 524.0
1959 534.0
1960 551.0
1961 535.0
1962 580.0
1963 560.0
1964 553.0
1965 537.0
1966 531.0
1967 544.0
1968 554.0
1969 556.0
1970 578.0
1971 565.0
1972 546.0
1973 537.0
1974 552.0
1975 551.0
1976 534.0
1977 533.0
1978 576.0
1979 506.0
1980 537.0
1981 539.0
1982 540.0
1983 584.0
1984 581.0
1985 540.0
1986 549.0
1987 574.0
1988 560.0
1989 574.0
1990 536.0
1991 540.0
1992 537.0
1993 556.0
1994 545.0
1995 532.0
1996 542.0
1997 518.0
1998 548.0
1999 534.0
2000 584.0
2001 555.0
2002 579.0
2003 548.0
2004 553.0
2005 578.0
2006 553.0
2007 563.0
2008 598.0
2009 556.0
2010 571.0
2011 548.0
2012 553.0
2013 555.0
2014 556.0
2015 559.0
2016 570.0
2017 570.0
2018 605.0
2019 596.0
2020 607.0
2021 563.0
2022 593.0
2023 588.0
2024 622.0
2025 591.0
2026 597.0
2027 622.0
2028 606.0
2029 609.0
2030 623.0
2031 618.0
2032 615.0
2033 617.0
2034 582.0
2035 615.0
2036 599.0
2037 561.0
2038 622.0
2039 585.0
2040 605.0
2041 609.0
2042 618.0
2043 613.0
2044 630.0
2045 560.0
2046 626.0
2047 573.0
