0 375.0
1 429.0
2 411.0
3 463.0
4 412.0
5 425.0
6 422.0
7 429.0
8 419.0
9 398.0
10 426.0
11 399.0
12 424.0
13 435.0
14 397.0
15 389.0
16 463.0
17 408.0
18 395.0
19 422.0
20 422.0
21 425.0
22 406.0
23 429.0
24 397.0
25 415.0
26 382.0
27 457.0
28 422.0
29 418.0
30 409.0
31 435.0
32 384.0
33 399.0
34 393.0
35 394.0
36 405.0
37 434.0
38 431.0
39 402.0
40 413.0
41 414.0
42 373.0
43 441.0
44 471.0
45 432.0
46 379.0
47 410.0
48 432.0
49 447.0
50 414.0
51 415.0
52 411.0
53 418.0
54 421.0
55 417.0
56 385.0
57 461.0
58 389.0
59 420.0
60 418.0
61 392.0
62 392.0
63 382.0
64 416.0
65 423.0
66 434.0
67 406.0
68 441.0
69 394.0
70 375.0
71 407.0
72 439.0
73 400.0
74 399.0
75 431.0
76 381.0
77 429.0
78 420.0
79 427.0
80 403.0
81 438.0
82 384.0
83 406.0
84 407.0
85 383.0
86 371.0
87 420.0
88 347.0
89 437.0
90 401.0
91 423.0
92 410.0
93 401.0
94 410.0
95 396.0
96 387.0
97 435.0
98 398.0
99 433.0
100 376.0
101 409.0
102 397.0
103 437.0
104 384.0
105 386.0
106 414.0
107 372.0
108 394.0
109 416.0
110 439.0
111 377.0
112 406.0
113 399.0
114 384.0
115 411.0
116 382.0
117 445.0
118 409.0
119 394.0
120 409.0
121 385.0
122 380.0
123 408.0
124 391.0
125 414.0
126 398.0
127 428.0
128 380.0
129 419.0
130 399.0
131 417.0
132 396.0
133 412.0
134 413.0
135 407.0
136 414.0
137 418.0
138 434.0
139 402.0
140 401.0
141 407.0
142 411.0
143 407.0
144 393.0
145 450.0
146 421.0
147 405.0
148 409.0
149 412.0
150 445.0
151 366.0
152 388.0
153 390.0
154 424.0
155 408.0
156 411.0
157 376.0
158 405.0
159 416.0
160 414.0
161 471.0
162 432.0
163 406.0
164 398.0
165 401.0
166 409.0
167 378.0
168 393.0
169 399.0
170 408.0
171 418.0
172 427.0
173 444.0
174 391.0
175 400.0
176 417.0
177 439.0
178 414.0
179 387.0
180 430.0
181 376.0
182 409.0
183 409.0
184 415.0
185 423.0
186 390.0
187 410.0
188 404.0
189 435.0
190 423.0
191 421.0
192 405.0
193 424.0
194 435.0
195 431.0
196 402.0
197 416.0
198 446.0
199 395.0
200 393.0
201 393.0
202 398.0
203 413.0
204 441.0
205 428.0
206 440.0
207 397.0
208 420.0
209 426.0
210 408.0
211 422.0
212 374.0
213 418.0
214 421.0
215 376.0
216 453.0
217 405.0
218 369.0
219 404.0
220 410.0
221 410.0
222 438.0
223 456.0
224 390.0
225 407.0
226 431.0
227 433.0
228 414.0
229 427.0
230 395.0
231 421.0
232 386.0
233 429.0
234 423.0
235 429.0
236 376.0
237 417.0
238 372.0
239 367.0
240 398.0
241 414.0
242 376.0
243 404.0
244 405.0
245 401.0
246 443.0
247 442.0
248 408.0
249 360.0
250 374.0
251 403.0
252 381.0
253 428.0
254 430.0
255 409.0
256 397.0
257 412.0
258 374.0
259 385.0
260 402.0
261 404.0
262 384.0
263 421.0
264 400.0
265 413.0
266 380.0
267 402.0
268 424.0
269 412.0
270 390.0
271 416.0
272 367.0
273 396.0
274 374.0
275 433.0
276 402.0
277 435.0
278 426.0
279 441.0
280 392.0
281 395.0
282 389.0
283 433.0
284 430.0
285 420.0
286 447.0
287 402.0
288 418.0
289 401.0
290 398.0
291 367.0
292 403.0
293 411.0
294 392.0
295 357.0
296 409.0
297 397.0
298 429.0
299 358.0
300 392.0
301 420.0
302 380.0
303 362.0
304 411.0
305 366.0
306 386.0
307 394.0
308 385.0
309 383.0
310 377.0
311 405.0
312 415.0
313 378.0
314 393.0
315 406.0
316 388.0
317 405.0
318 401.0
319 398.0
320 379.0
321 372.0
322 406.0
323 366.0
324 345.0
325 377.0
326 404.0
327 393.0
328 407.0
329 402.0
330 364.0
331 370.0
332 388.0
333 371.0
334 411.0
335 396.0
336 379.0
337 378.0
338 357.0
339 355.0
340 352.0
341 385.0
342 413.0
343 398.0
344 391.0
345 394.0
346 394.0
347 380.0
348 381.0
349 431.0
350 385.0
351 405.0
352 394.0
353 370.0
354 397.0
355 376.0
356 346.0
357 367.0
358 375.0
359 398.0
360 410.0
361 387.0
362 405.0
363 423.0
364 401.0
365 381.0
366 393.0
367 440.0
368 427.0
369 416.0
370 396.0
371 390.0
372 382.0
373 379.0
374 378.0
375 376.0
376 379.0
377 369.0
378 359.0
379 373.0
380 364.0
381 371.0
382 370.0
383 379.0
384 408.0
385 398.0
386 377.0
387 371.0
388 397.0
389 374.0
390 389.0
391 370.0
392 391.0
393 354.0
394 385.0
395 400.0
396 371.0
397 385.0
398 363.0
399 352.0
400 396.0
401 385.0
402 390.0
403 403.0
404 380.0
405 388.0
406 400.0
407 419.0
408 377.0
409 420.0
410 416.0
411 388.0
412 373.0
413 400.0
414 402.0
415 376.0
416 372.0
417 396.0
418 406.0
419 371.0
420 384.0
421 420.0
422 342.0
423 397.0
424 401.0
425 392.0
426 370.0
427 425.0
428 384.0
429 412.0
430 366.0
431 391.0
432 380.0
433 446.0
434 382.0
435 399.0
436 377.0
437 394.0
438 367.0
439 381.0
440 365.0
441 396.0
442 375.0
443 425.0
444 382.0
445 406.0
446 426.0
447 405.0
448 388.0
449 411.0
450 443.0
451 401.0
452 364.0
453 416.0
454 419.0
455 419.0
456 402.0
457 432.0
458 396.0
459 415.0
460 411.0
461 415.0
462 380.0
463 428.0
464 401.0
465 407.0
466 381.0
467 374.0
468 408.0
469 400.0
470 405.0
471 382.0
472 425.0
473 390.0
474 440.0
475 404.0
476 377.0
477 392.0
478 397.0
479 436.0
480 384.0
481 394.0
482 388.0
483 416.0
484 384.0
485 416.0
486 397.0
487 360.0
488 382.0
489 396.0
490 400.0
491 346.0
492 388.0
493 413.0
494 386.0
495 368.0
496 381.0
497 406.0
498 364.0
499 371.0
500 366.0
501 394.0
502 387.0
503 360.0
504 347.0
505 383.0
506 413.0
507 355.0
508 354.0
509 387.0
510 401.0
511 354.0
512 363.0
513 443.0
514 391.0
515 406.0
516 391.0
517 351.0
518 383.0
519 391.0
520 367.0
521 429.0
522 431.0
523 425.0
524 367.0
525 389.0
526 414.0
527 419.0
528 382.0
529 391.0
530 406.0
531 397.0
532 385.0
533 395.0
534 411.0
535 405.0
536 394.0
537 374.0
538 367.0
539 395.0
540 386.0
541 427.0
542 403.0
543 409.0
544 371.0
545 429.0
546 377.0
547 409.0
548 400.0
549 367.0
550 404.0
551 426.0
552 406.0
553 400.0
554 425.0
555 394.0
556 381.0
557 403.0
558 386.0
559 378.0
560 405.0
561 398.0
562 375.0
563 367.0
564 391.0
565 352.0
566 399.0
567 337.0
568 371.0
569 337.0
570 354.0
571 365.0
572 378.0
573 405.0
574 390.0
575 375.0
576 368.0
577 355.0
578 382.0
579 393.0
580 391.0
581 368.0
582 357.0
583 415.0
584 386.0
585 393.0
586 378.0
587 348.0
588 367.0
589 369.0
590 380.0
591 401.0
592 404.0
593 361.0
594 368.0
595 372.0
596 360.0
597 386.0
598 378.0
599 402.0
600 382.0
601 418.0
602 391.0
603 417.0
604 391.0
605 407.0
606 357.0
607 391.0
608 394.0
609 437.0
610 425.0
611 424.0
612 375.0
613 433.0
614 394.0
615 406.0
616 394.0
617 379.0
618 414.0
619 421.0
620 417.0
621 381.0
622 379.0
623 363.0
624 414.0
625 416.0
626 386.0
627 423.0
628 387.0
629 415.0
630 430.0
631 419.0
632 397.0
633 409.0
634 405.0
635 399.0
636 373.0
637 430.0
638 404.0
639 446.0
640 375.0
641 392.0
642 373.0
643 416.0
644 425.0
645 405.0
646 408.0
647 400.0
648 450.0
649 410.0
650 404.0
651 430.0
652 418.0
653 411.0
654 389.0
655 388.0
656 441.0
657 413.0
658 423.0
659 404.0
660 428.0
661 424.0
662 390.0
663 407.0
664 400.0
665 396.0
666 426.0
667 395.0
668 443.0
669 398.0
670 408.0
671 441.0
672 363.0
673 427.0
674 407.0
675 408.0
676 440.0
677 377.0
678 381.0
679 399.0
680 400.0
681 386.0
682 438.0
683 412.0
684 397.0
685 392.0
686 387.0
687 409.0
688 418.0
689 440.0
690 388.0
691 419.0
692 432.0
693 397.0
694 394.0
695 416.0
696 449.0
697 440.0
698 400.0
699 417.0
700 418.0
701 392.0
702 358.0
703 356.0
704 390.0
705 383.0
706 392.0
707 409.0
708 384.0
709 439.0
710 413.0
711 400.0
712 374.0
713 430.0
714 407.0
715 394.0
716 342.0
717 355.0
718 387.0
719 401.0
720 423.0
721 427.0
722 429.0
723 379.0
724 420.0
725 409.0
726 357.0
727 386.0
728 379.0
729 388.0
730 388.0
731 376.0
732 395.0
733 407.0
734 410.0
735 428.0
736 376.0
737 427.0
738 387.0
739 379.0
740 410.0
741 412.0
742 451.0
743 435.0
744 407.0
745 415.0
746 368.0
747 403.0
748 437.0
749 369.0
750 385.0
751 410.0
752 433.0
753 400.0
754 464.0
755 416.0
756 409.0
757 392.0
758 388.0
759 366.0
760 408.0
761 420.0
762 402.0
763 408.0
764 443.0
765 446.0
766 388.0
767 427.0
768 404.0
769 383.0
770 429.0
771 422.0
772 405.0
773 384.0
774 407.0
775 382.0
776 433.0
777 450.0
778 442.0
779 371.0
780 387.0
781 412.0
782 403.0
783 423.0
784 407.0
785 395.0
786 416.0
787 407.0
788 419.0
789 403.0
790 429.0
791 432.0
792 425.0
793 393.0
794 417.0
795 426.0
796 442.0
797 412.0
798 398.0
799 426.0
800 387.0
801 421.0
802 378.0
803 437.0
804 415.0
805 399.0
806 364.0
807 431.0
808 384.0
809 399.0
810 419.0
811 416.0
812 429.0
813 396.0
814 425.0
815 403.0
816 410.0
817 416.0
818 384.0
819 354.0
820 383.0
821 403.0
822 356.0
823 380.0
824 387.0
825 429.0
826 385.0
827 430.0
828 386.0
829 415.0
830 412.0
831 384.0
832 387.0
833 387.0
834 413.0
835 424.0
836 374.0
837 413.0
838 401.0
839 374.0
840 396.0
841 367.0
842 408.0
843 400.0
844 421.0
845 400.0
846 395.0
847 382.0
848 422.0
849 386.0
850 372.0
851 401.0
852 393.0
853 421.0
854 403.0
855 420.0
856 398.0
857 376.0
858 398.0
859 387.0
860 378.0
861 359.0
862 406.0
863 413.0
864 397.0
865 375.0
866 413.0
867 399.0
868 424.0
869 400.0
870 413.0
871 402.0
872 421.0
873 392.0
874 376.0
875 394.0
876 397.0
877 402.0
878 412.0
879 352.0
880 397.0
881 386.0
882 421.0
883 390.0
884 390.0
885 404.0
886 413.0
887 414.0
888 391.0
889 377.0
890 412.0
891 394.0
892 385.0
893 329.0
894 406.0
895 398.0
896 397.0
897 416.0
898 406.0
899 405.0
900 409.0
901 406.0
902 384.0
903 417.0
904 354.0
905 440.0
906 379.0
907 414.0
908 384.0
909 431.0
910 368.0
911 391.0
912 397.0
913 390.0
914 399.0
915 426.0
916 383.0
917 404.0
918 415.0
919 413.0
920 367.0
921 403.0
922 402.0
923 379.0
924 378.0
925 419.0
926 403.0
927 415.0
928 373.0
929 407.0
930 423.0
931 363.0
932 381.0
933 408.0
934 405.0
935 421.0
936 399.0
937 420.0
938 370.0
939 404.0
940 406.0
941 397.0
942 380.0
943 391.0
944 416.0
945 411.0
946 402.0
947 402.0
948 419.0
949 454.0
950 429.0
951 387.0
952 411.0
953 429.0
954 369.0
955 404.0
956 393.0
957 435.0
958 404.0
959 406.0
960 416.0
961 404.0
962 385.0
963 408.0
964 415.0
965 418.0
966 402.0
967 388.0
968 450.0
969 461.0
970 407.0
971 415.0
972 428.0
973 423.0
974 414.0
975 423.0
976 389.0
977 416.0
978 439.0
979 409.0
980 411.0
981 396.0
982 416.0
983 403.0
984 412.0
985 407.0
986 408.0
987 412.0
988 425.0
989 376.0
990 411.0
991 448.0
992 400.0
993 454.0
994 394.0
995 423.0
996 394.0
997 416.0
998 425.0
999 413.0
1000 443.0
1001 427.0
1002 404.0
1003 416.0
1004 386.0
1005 475.0
1006 387.0
1007 412.0
1008 424.0
1009 415.0
1010 441.0
1011 419.0
1012 436.0
1013 402.0
1014 431.0
1015 422.0
1016 409.0
1017 452.0
1018 415.0
1019 441.0
1020 433.0
1021 424.0
1022 412.0
1023 381.0
1024 394.0
1025 424.0
1026 438.0
1027 448.0
1028 444.0
1029 437.0
1030 388.0
1031 375.0
1032 406.0
1033 464.0
1034 432.0
1035 432.0
1036 419.0
1037 417.0
1038 428.0
1039 404.0
1040 466.0
1041 439.0
1042 434.0
1043 408.0
1044 438.0
1045 407.0
1046 393.0
1047 455.0
1048 400.0
1049 417.0
1050 399.0
1051 380.0
1052 379.0
1053 428.0
1054 420.0
1055 431.0
1056 396.0
1057 429.0
1058 380.0
1059 426.0
1060 391.0
1061 416.0
1062 416.0
1063 396.0
1064 393.0
1065 429.0
1066 430.0
1067 426.0
1068 386.0
1069 422.0
1070 376.0
1071 379.0
1072 419.0
1073 439.0
1074 393.0
1075 464.0
1076 435.0
1077 431.0
1078 435.0
1079 446.0
1080 444.0
1081 445.0
1082 413.0
1083 439.0
1084 441.0
1085 444.0
1086 438.0
1087 438.0
1088 429.0
1089 436.0
1090 428.0
1091 431.0
1092 453.0
1093 426.0
1094 418.0
1095 404.0
1096 413.0
1097 432.0
1098 411.0
1099 449.0
1100 400.0
1101 430.0
1102 400.0
1103 425.0
1104 444.0
1105 476.0
1106 439.0
1107 418.0
1108 434.0
1109 408.0
1110 422.0
1111 425.0
1112 441.0
1113 421.0
1114 418.0
1115 389.0
1116 422.0
1117 426.0
1118 432.0
1119 397.0
1120 444.0
1121 459.0
1122 391.0
1123 406.0
1124 386.0
1125 430.0
1126 453.0
1127 443.0
1128 449.0
1129 473.0
1130 457.0
1131 428.0
1132 427.0
1133 432.0
1134 390.0
1135 376.0
1136 416.0
1137 427.0
1138 456.0
1139 403.0
1140 418.0
1141 412.0
1142 445.0
1143 424.0
1144 433.0
1145 433.0
1146 398.0
1147 446.0
1148 420.0
1149 390.0
1150 400.0
1151 399.0
1152 413.0
1153 414.0
1154 437.0
1155 426.0
1156 405.0
1157 404.0
1158 383.0
1159 394.0
1160 439.0
1161 400.0
1162 418.0
1163 475.0
1164 457.0
1165 449.0
1166 426.0
1167 419.0
1168 485.0
1169 444.0
1170 414.0
1171 443.0
1172 409.0
1173 424.0
1174 364.0
1175 409.0
1176 417.0
1177 404.0
1178 404.0
1179 426.0
1180 394.0
1181 452.0
1182 396.0
1183 444.0
1184 383.0
1185 407.0
1186 458.0
1187 360.0
1188 402.0
1189 457.0
1190 423.0
1191 425.0
1192 414.0
1193 401.0
1194 418.0
1195 389.0
1196 412.0
1197 411.0
1198 454.0
1199 435.0
1200 414.0
1201 408.0
1202 425.0
1203 415.0
1204 373.0
1205 417.0
1206 404.0
1207 408.0
1208 389.0
1209 400.0
1210 430.0
1211 392.0
1212 448.0
1213 424.0
1214 448.0
1215 457.0
1216 336.0
1217 424.0
1218 414.0
1219 398.0
1220 420.0
1221 388.0
1222 426.0
1223 433.0
1224 437.0
1225 418.0
1226 450.0
1227 411.0
1228 452.0
1229 434.0
1230 399.0
1231 435.0
1232 445.0
1233 458.0
1234 419.0
1235 405.0
1236 427.0
1237 450.0
1238 423.0
1239 391.0
1240 408.0
1241 409.0
1242 383.0
1243 449.0
1244 427.0
1245 438.0
1246 446.0
1247 419.0
1248 448.0
1249 441.0
1250 433.0
1251 435.0
1252 419.0
1253 428.0
1254 424.0
1255 414.0
1256 475.0
1257 463.0
1258 390.0
1259 402.0
1260 457.0
1261 455.0
1262 421.0
1263 445.0
1264 459.0
1265 402.0
1266 453.0
1267 434.0
1268 436.0
1269 407.0
1270 441.0
1271 428.0
1272 461.0
1273 468.0
1274 413.0
1275 442.0
1276 436.0
1277 450.0
1278 460.0
1279 440.0
1280 427.0
1281 426.0
1282 449.0
1283 410.0
1284 460.0
1285 455.0
1286 459.0
1287 440.0
1288 439.0
1289 446.0
1290 433.0
1291 409.0
1292 460.0
1293 451.0
1294 457.0
1295 430.0
1296 498.0
1297 400.0
1298 471.0
1299 444.0
1300 421.0
1301 439.0
1302 462.0
1303 441.0
1304 482.0
1305 446.0
1306 437.0
1307 457.0
1308 426.0
1309 463.0
1310 467.0
1311 446.0
1312 450.0
1313 509.0
1314 457.0
1315 429.0
1316 451.0
1317 437.0
1318 470.0
1319 450.0
1320 482.0
1321 445.0
1322 450.0
1323 423.0
1324 425.0
1325 443.0
1326 458.0
1327 435.0
1328 431.0
1329 428.0
1330 439.0
1331 429.0
1332 421.0
1333 455.0
1334 454.0
1335 441.0
1336 448.0
1337 460.0
1338 413.0
1339 427.0
1340 456.0
1341 466.0
1342 440.0
1343 448.0
1344 439.0
1345 426.0
1346 435.0
1347 506.0
1348 438.0
1349 405.0
1350 455.0
1351 445.0
1352 447.0
1353 425.0
1354 430.0
1355 459.0
1356 376.0
1357 407.0
1358 412.0
1359 409.0
1360 431.0
1361 440.0
1362 419.0
1363 452.0
1364 456.0
1365 431.0
1366 378.0
1367 441.0
1368 440.0
1369 402.0
1370 407.0
1371 425.0
1372 446.0
1373 412.0
1374 413.0
1375 393.0
1376 408.0
1377 439.0
1378 462.0
1379 422.0
1380 440.0
1381 438.0
1382 411.0
1383 451.0
1384 441.0
1385 428.0
1386 487.0
1387 467.0
1388 393.0
1389 434.0
1390 392.0
1391 427.0
1392 429.0
1393 438.0
1394 467.0
1395 428.0
1396 467.0
1397 428.0
1398 423.0
1399 437.0
1400 444.0
1401 437.0
1402 464.0
1403 451.0
1404 430.0
1405 456.0
1406 464.0
1407 440.0
1408 423.0
1409 481.0
1410 474.0
1411 454.0
1412 448.0
1413 449.0
1414 444.0
1415 457.0
1416 467.0
1417 498.0
1418 442.0
1419 432.0
1420 440.0
1421 457.0
1422 479.0
1423 485.0
1424 466.0
1425 456.0
1426 476.0
1427 495.0
1428 476.0
1429 493.0
1430 416.0
1431 438.0
1432 425.0
1433 454.0
1434 470.0
1435 476.0
1436 445.0
1437 462.0
1438 465.0
1439 453.0
1440 444.0
1441 448.0
1442 441.0
1443 448.0
1444 460.0
1445 434.0
1446 500.0
1447 428.0
1448 470.0
1449 454.0
1450 427.0
1451 430.0
1452 400.0
1453 437.0
1454 463.0
1455 453.0
1456 463.0
1457 446.0
1458 476.0
1459 447.0
1460 462.0
1461 423.0
1462 441.0
1463 426.0
1464 443.0
1465 495.0
1466 423.0
1467 416.0
1468 427.0
1469 435.0
1470 427.0
1471 461.0
1472 452.0
1473 427.0
1474 453.0
1475 425.0
1476 446.0
1477 450.0
1478 401.0
1479 438.0
1480 454.0
1481 415.0
1482 415.0
1483 432.0
1484 441.0
1485 411.0
1486 443.0
1487 429.0
1488 450.0
1489 456.0
1490 411.0
1491 423.0
1492 440.0
1493 445.0
1494 416.0
1495 463.0
1496 431.0
1497 414.0
1498 434.0
1499 424.0
1500 447.0
1501 471.0
1502 483.0
1503 385.0
1504 426.0
1505 429.0
1506 465.0
1507 471.0
1508 468.0
1509 451.0
1510 486.0
1511 440.0
1512 401.0
1513 434.0
1514 447.0
1515 481.0
1516 468.0
1517 408.0
1518 409.0
1519 433.0
1520 434.0
1521 472.0
1522 434.0
1523 410.0
1524 432.0
1525 437.0
1526 422.0
1527 445.0
1528 447.0
1529 390.0
1530 418.0
1531 441.0
1532 450.0
1533 431.0
1534 449.0
1535 427.0
1536 432.0
1537 447.0
1538 481.0
1539 424.0
1540 483.0
1541 454.0
1542 469.0
1543 458.0
1544 432.0
1545 447.0
1546 463.0
1547 484.0
1548 463.0
1549 426.0
1550 425.0
1551 443.0
1552 480.0
1553 469.0
1554 475.0
1555 470.0
1556 431.0
1557 450.0
1558 456.0
1559 489.0
1560 421.0
1561 451.0
1562 431.0
1563 484.0
1564 446.0
1565 430.0
1566 489.0
1567 445.0
1568 474.0
1569 423.0
1570 411.0
1571 454.0
1572 486.0
1573 471.0
1574 445.0
1575 467.0
1576 471.0
1577 449.0
1578 481.0
1579 506.0
1580 469.0
1581 441.0
1582 432.0
1583 460.0
1584 449.0
1585 474.0
1586 462.0
1587 446.0
1588 490.0
1589 448.0
1590 471.0
1591 445.0
1592 457.0
1593 439.0
1594 470.0
1595 451.0
1596 452.0
1597 454.0
1598 471.0
1599 471.0
1600 481.0
1601 470.0
1602 447.0
1603 463.0
1604 469.0
1605 506.0
1606 491.0
1607 489.0
1608 469.0
1609 484.0
1610 503.0
1611 473.0
1612 478.0
1613 468.0
1614 478.0
1615 447.0
1616 476.0
1617 465.0
1618 480.0
1619 475.0
1620 455.0
1621 476.0
1622 464.0
1623 450.0
1624 463.0
1625 489.0
1626 484.0
1627 482.0
1628 479.0
1629 447.0
1630 492.0
1631 484.0
1632 457.0
1633 479.0
1634 481.0
1635 448.0
1636 480.0
1637 470.0
1638 471.0
1639 468.0
1640 460.0
1641 492.0
1642 433.0
1643 459.0
1644 508.0
1645 486.0
1646 456.0
1647 418.0
1648 505.0
1649 478.0
1650 453.0
1651 472.0
1652 485.0
1653 448.0
1654 469.0
1655 460.0
1656 466.0
1657 450.0
1658 472.0
1659 428.0
1660 468.0
1661 471.0
1662 461.0
1663 476.0
1664 454.0
1665 448.0
1666 459.0
1667 476.0
1668 476.0
1669 445.0
1670 456.0
1671 485.0
1672 452.0
1673 458.0
1674 472.0
1675 478.0
1676 474.0
1677 418.0
1678 489.0
1679 480.0
1680 491.0
1681 469.0
1682 477.0
1683 456.0
1684 470.0
1685 479.0
1686 434.0
1687 478.0
1688 492.0
1689 505.0
1690 495.0
1691 449.0
1692 463.0
1693 470.0
1694 466.0
1695 453.0
1696 462.0
1697 465.0
1698 487.0
1699 441.0
1700 452.0
1701 497.0
1702 462.0
1703 447.0
1704 458.0
1705 468.0
1706 480.0
1707 453.0
1708 473.0
1709 491.0
1710 484.0
1711 440.0
1712 486.0
1713 478.0
1714 457.0
1715 478.0
1716 424.0
1717 469.0
1718 475.0
1719 416.0
1720 457.0
1721 448.0
1722 482.0
1723 457.0
1724 484.0
1725 480.0
1726 452.0
1727 489.0
1728 488.0
1729 472.0
1730 494.0
1731 480.0
1732 482.0
1733 450.0
1734 446.0
1735 493.0
1736 482.0
1737 467.0
1738 477.0
1739 467.0
1740 494.0
1741 463.0
1742 479.0
1743 472.0
1744 477.0
1745 443.0
1746 467.0
1747 501.0
1748 494.0
1749 470.0
1750 459.0
1751 507.0
1752 508.0
1753 503.0
1754 485.0
1755 443.0
1756 469.0
1757 488.0
1758 479.0
1759 486.0
1760 475.0
1761 446.0
1762 486.0
1763 501.0
1764 487.0
1765 517.0
1766 489.0
1767 491.0
1768 484.0
1769 519.0
1770 450.0
1771 522.0
1772 501.0
1773 498.0
1774 513.0
1775 491.0
1776 489.0
1777 472.0
1778 477.0
1779 486.0
1780 475.0
1781 480.0
1782 452.0
1783 490.0
1784 467.0
1785 489.0
1786 522.0
1787 456.0
1788 451.0
1789 491.0
1790 478.0
1791 477.0
1792 450.0
1793 473.0
1794 485.0
1795 471.0
1796 508.0
1797 477.0
1798 468.0
1799 474.0
1800 441.0
1801 476.0
1802 464.0
1803 446.0
1804 465.0
1805 490.0
1806 496.0
1807 446.0
1808 419.0
1809 464.0
1810 465.0
1811 486.0
1812 453.0
1813 469.0
1814 446.0
1815 452.0
1816 467.0
1817 454.0
1818 474.0
1819 451.0
1820 468.0
1821 465.0
1822 487.0
1823 459.0
1824 461.0
1825 452.0
1826 466.0
1827 477.0
1828 477.0
1829 484.0
1830 494.0
1831 459.0
1832 460.0
1833 462.0
1834 438.0
1835 439.0
1836 431.0
1837 478.0
1838 465.0
1839 447.0
1840 489.0
1841 507.0
1842 465.0
1843 452.0
1844 435.0
1845 448.0
1846 459.0
1847 496.0
1848 458.0
1849 483.0
1850 474.0
1851 457.0
1852 476.0
1853 417.0
1854 475.0
1855 491.0
1856 486.0
1857 496.0
1858 466.0
1859 475.0
1860 497.0
1861 483.0
1862 472.0
1863 453.0
1864 485.0
1865 458.0
1866 483.0
1867 486.0
1868 500.0
1869 528.0
1870 485.0
1871 467.0
1872 493.0
1873 448.0
1874 476.0
1875 472.0
1876 449.0
1877 476.0
1878 428.0
1879 480.0
1880 506.0
1881 450.0
1882 470.0
1883 490.0
1884 492.0
1885 487.0
1886 481.0
1887 441.0
1888 425.0
1889 472.0
1890 485.0
1891 492.0
1892 480.0
1893 444.0
1894 498.0
1895 494.0
1896 484.0
1897 454.0
1898 442.0
1899 443.0
1900 447.0
1901 450.0
1902 437.0
1903 461.0
1904 437.0
1905 455.0
1906 513.0
1907 478.0
1908 460.0
1909 486.0
1910 469.0
1911 486.0
1912 495.0
1913 482.0
1914 459.0
1915 478.0
1916 481.0
1917 485.0
1918 427.0
1919 495.0
1920 447.0
1921 492.0
1922 474.0
1923 475.0
1924 453.0
1925 441.0
1926 492.0
1927 469.0
1928 487.0
1929 488.0
1930 480.0
1931 464.0
1932 476.0
1933 489.0
1934 498.0
1935 488.0
1936 490.0
1937 474.0
1938 484.0
1939 473.0
1940 486.0
1941 501.0
1942 481.0
1943 476.0
1944 490.0
1945 483.0
1946 474.0
1947 480.0
1948 500.0
1949 475.0
1950 481.0
1951 467.0
1952 494.0
1953 512.0
1954 479.0
1955 498.0
1956 485.0
1957 491.0
1958 488.0
1959 475.0
1960 487.0
1961 532.0
1962 491.0
1963 494.0
1964 495.0
1965 509.0
1966 516.0
1967 437.0
1968 525.0
1969 509.0
1970 512.0
1971 510.0
1972 478.0
1973 468.0
1974 486.0
1975 530.0
1976 471.0
1977 519.0
1978 494.0
1979 487.0
1980 489.0
1981 513.0
1982 479.0
1983 499.0
1984 535.0
1985 514.0
1986 472.0
1987 505.0
1988 517.0
1989 509.0
1990 531.0
1991 514.0
1992 490.0
1993 544.0
1994 520.0
1995 495.0
1996 519.0
1997 495.0
1998 552.0
1999 482.0
2000 511.0
2001 487.0
2002 481.0
2003 516.0
2004 491.0
2005 529.0
2006 517.0
2007 562.0
2008 520.0
2009 529.0
2010 516.0
2011 518.0
2012 505.0
2013 476.0
2014 476.0
2015 468.0
2016 497.0
2017 522.0
2018 500.0
2019 508.0
2020 524.0
2021 486.0
2022 531.0
2023 520.0
2024 492.0
2025 532.0
2026 535.0
2027 499.0
2028 546.0
2029 530.0
2030 518.0
2031 527.0
2032 509.0
2033 529.0
2034 503.0
2035 519.0
2036 517.0
2037 502.0
2038 558.0
2039 537.0
2040 559.0
2041 530.0
2042 561.0
2043 513.0
2044 536.0
2045 515.0
2046 537.0
2047 524.0
