353.690286 15.0
353.75397707650484 -16.399999999999977
353.8176601337047 2.6000000000000227
353.88133516962756 -22.600000000000023
353.9450021823014 6.600000000000023
354.0086611697542 -1.1999999999999886
354.0723121300139 -0.6000000000000227
354.13595506110875 10.600000000000023
354.19958996106635 -5.0
354.26321682791496 -7.7999999999999545
354.3268356596825 -1.8000000000000114
354.3904464543969 -24.19999999999999
354.4540492100862 16.80000000000001
354.51764392477844 -11.399999999999977
354.5812305965015 0.8000000000000114
354.6448092232835 26.399999999999977
354.70837980315224 41.39999999999998
354.77194233413593 21.600000000000023
354.8354968142624 34.0
354.8990432415597 44.799999999999955
354.96258161405575 63.799999999999955
355.02611192977866 51.0
355.0896341867563 72.39999999999998
355.15314838301674 88.39999999999998
355.216654516588 66.0
355.28015258549794 41.60000000000002
355.34364258777464 76.60000000000002
355.40712452144606 77.0
355.4705983845402 45.200000000000045
355.53406417508506 108.79999999999995
355.5975218911086 55.39999999999998
355.66097153063885 66.0
355.72441309170375 38.0
355.78784657233126 47.200000000000045
355.8512719705495 108.20000000000005
355.9146892843863 74.79999999999995
355.9780985118698 105.79999999999995
356.0414996510279 85.20000000000005
356.10489269988864 92.0
356.16827765648 70.0
356.2316545188298 44.39999999999998
356.29502328496625 49.0
356.3583839529173 70.20000000000005
356.42173652071085 51.39999999999998
356.48508098637495 96.79999999999995
356.54841734793763 75.79999999999995
356.61174560342675 57.0
356.6750657508704 65.20000000000005
356.73837778829653 109.0
356.80168171373316 112.60000000000002
356.86497752520825 69.60000000000002
356.92826522074984 81.39999999999998
356.99154479838586 95.20000000000005
357.05481625614425 76.79999999999995
357.1180795920531 98.39999999999998
357.1813348041404 81.39999999999998
357.2445818904341 92.20000000000005
357.3078208489622 108.39999999999998
357.37105167775263 102.60000000000002
357.4342743748335 93.0
357.49748893823266 78.39999999999998
357.56069536597823 56.200000000000045
357.62389365609806 76.79999999999995
357.6870838066203 78.60000000000002
357.7502658155728 105.39999999999998
357.8134396809836 93.0
357.87660540088075 62.60000000000002
357.9397629732921 89.20000000000005
358.0029123962458 98.79999999999995
358.0660536677697 84.39999999999998
358.1291867858919 76.0
358.1923117486403 88.39999999999998
358.2554285540429 128.0
358.3185372001277 99.60000000000002
358.3816376849228 107.79999999999995
358.444730006456 90.79999999999995
358.5078141627554 87.79999999999995
358.57089015184897 90.20000000000005
358.6339579717647 117.79999999999995
358.69701762053063 96.0
358.7600690961746 103.60000000000002
358.82311239672475 100.80000000000001
358.886147520209 96.79999999999995
358.94917446465536 97.60000000000002
359.0121932280918 63.39999999999998
359.07520380854635 84.60000000000002
359.1382062040469 128.0
359.2012004126216 119.0
359.2641864322983 63.60000000000002
359.327164261105 131.0
359.39013389706975 105.79999999999995
359.4530953382205 85.0
359.5160485825853 94.0
359.57899362819205 112.79999999999995
359.6419304730687 126.0
359.7048591152434 89.60000000000002
359.76777955274406 95.39999999999998
359.83069178359864 100.79999999999995
359.89359580583516 109.0
359.9564916174816 98.0
360.019379216566 108.60000000000002
360.0822586011163 105.79999999999995
360.1451297691604 115.0
360.2079927187265 120.20000000000005
360.2708474478423 139.20000000000005
360.3336939545361 101.60000000000002
360.3965322368357 143.39999999999998
360.45936229276913 129.0
360.52218412036433 107.20000000000005
360.5849977176494 92.79999999999995
360.6478030826523 116.20000000000005
360.7106002134009 129.0
360.7733891079233 146.39999999999998
360.8361697642475 116.20000000000005
360.8989421804014 107.0
360.9617063544131 138.20000000000005
361.0244622843105 80.60000000000002
361.08720996812167 106.79999999999995
361.1499494038745 128.60000000000002
361.212680589597 138.0
361.27540352331727 111.0
361.3381182030631 113.0
361.40082462686274 122.20000000000005
361.46352279274396 100.79999999999995
361.5262126987348 89.39999999999998
361.5888943428633 121.20000000000005
361.6515677231574 122.60000000000002
361.7142328376451 142.20000000000005
361.77688968435444 93.60000000000002
361.83953826131335 111.0
361.9021785665498 132.79999999999995
361.9648105980919 148.20000000000005
362.02743435396746 88.39999999999998
362.09004983220456 95.79999999999995
362.1526570308312 108.39999999999998
362.21525594787545 135.60000000000002
362.2778465813651 106.79999999999995
362.3404289293283 155.79999999999995
362.403002989793 90.0
362.4655687607871 131.39999999999998
362.52812624033874 89.20000000000005
362.5906754264758 115.39999999999998
362.6532163172263 147.0
362.71574891061823 56.0
362.7782732046796 76.20000000000005
362.8407891974383 131.79999999999995
362.9032968869224 125.20000000000005
362.96579627116 140.20000000000005
363.0282873481789 87.79999999999995
363.0907701160072 141.60000000000002
363.1532445726728 142.39999999999998
363.2157107162038 85.20000000000005
363.27816854462804 116.60000000000002
363.34061805597366 102.60000000000002
363.4030592482685 116.60000000000002
363.4654921195407 125.79999999999995
363.52791666781826 140.60000000000002
363.5903328911289 132.79999999999995
363.65274078750093 97.39999999999998
363.7151403549622 149.39999999999998
363.7775315915407 134.79999999999995
363.83991449526445 143.39999999999998
363.9022890641614 143.39999999999998
363.96465529625954 111.39999999999998
364.0270131895869 82.0
364.08936274217143 91.60000000000002
364.15170395204115 110.39999999999998
364.21403681722404 104.79999999999995
364.27636133574805 131.60000000000002
364.3386775056412 120.79999999999995
364.4009853249314 135.60000000000002
364.46328479164686 128.39999999999998
364.52557590381537 134.20000000000005
364.587858659465 136.60000000000002
364.6501330566236 110.20000000000005
364.71239909331933 121.0
364.77465676758015 115.39999999999998
364.83690607743404 102.79999999999995
364.89914702090886 130.79999999999995
364.96137959603277 130.60000000000002
365.0236038008337 102.39999999999998
365.08581963333967 119.60000000000002
365.14802709157857 123.20000000000005
365.21022617357846 120.0
365.27241687736733 121.20000000000005
365.3345992009732 152.60000000000002
365.39677314242397 112.60000000000002
365.4589386997477 157.0
365.5210958709723 153.79999999999995
365.58324465412585 115.20000000000005
365.6453850472363 155.60000000000002
365.7075170483316 113.60000000000002
365.76964065543984 143.60000000000002
365.831755866589 135.60000000000002
365.89386267980694 168.20000000000005
365.9559610931217 122.60000000000002
366.0180511045614 84.60000000000002
366.08013271215384 106.79999999999995
366.1422059139271 129.20000000000005
366.20427070790913 141.39999999999998
366.266327092128 156.20000000000005
366.3283750646117 130.0
366.3904146233881 147.20000000000005
366.45244576648525 110.79999999999995
366.51446849193115 133.0
366.5764827977538 143.60000000000002
366.6384886819812 128.0
366.70048614264124 128.20000000000005
366.76247517776204 131.39999999999998
366.82445578537147 137.39999999999998
366.8864279634977 148.39999999999998
366.94839171016844 108.60000000000002
367.01034702341195 145.0
367.07229390125605 156.20000000000005
367.1342323417288 177.20000000000005
367.1961623428582 154.39999999999998
367.2580839026722 152.60000000000002
367.3199970191988 160.60000000000002
367.3819016904659 111.39999999999998
367.44379791450166 129.0
367.505685689334 165.39999999999998
367.5675650129908 146.39999999999998
367.62943588350026 146.60000000000002
367.6912982988902 157.20000000000005
367.7531522571887 146.20000000000005
367.8149977564237 126.20000000000005
367.8768347946231 126.20000000000005
367.93866336981506 112.39999999999998
368.0004834800275 100.0
368.06229512328844 116.39999999999998
368.12409829762584 121.0
368.18589300106765 187.0
368.2476792316419 127.39999999999998
368.30945698737656 138.0
368.3712262662996 119.20000000000005
368.43298706643907 121.39999999999998
368.4947393858229 122.60000000000002
368.55648322247913 138.20000000000005
368.61821857443573 184.79999999999995
368.6799454397207 163.0
368.74166381636195 105.39999999999998
368.8033737023876 118.39999999999998
368.86507509582555 142.0
368.9267679947038 115.39999999999998
368.98845239705037 160.79999999999995
369.05012830089316 180.20000000000005
369.11179570426026 121.0
369.1734546051797 122.39999999999998
369.2351050016793 137.79999999999995
369.29674689178717 161.79999999999995
369.3583802735313 146.20000000000005
369.4200051449396 140.60000000000002
369.4816215040401 191.79999999999995
369.54322934886085 132.60000000000002
369.60482867742974 155.0
369.6664194877748 136.60000000000002
369.7280017779241 133.39999999999998
369.78957554590545 172.0
369.851140789747 115.39999999999998
369.91269750747665 134.60000000000002
369.9742456971224 183.0
370.0357853567123 150.0
370.0973164842743 119.60000000000002
370.1588390778364 198.0
370.22035313542654 151.0
370.28185865507277 145.60000000000002
370.343355634803 163.60000000000002
370.4048440726453 165.79999999999995
370.4663239666276 153.20000000000005
370.52779531477796 141.20000000000005
370.5892581151243 156.0
370.65071236569463 139.60000000000002
370.712158064517 198.60000000000002
370.77359520961926 144.0
370.83502379902956 140.79999999999995
370.89644383077575 136.79999999999995
370.95785530288595 129.20000000000005
371.01925821338796 173.60000000000002
371.08065256031 170.0
371.14203834167984 131.39999999999998
371.2034155555257 152.0
371.2647841998753 180.39999999999998
371.32614427275684 159.0
371.3874957721983 173.0
371.44883869622754 144.20000000000005
371.5101730428726 171.39999999999998
371.57149881016153 160.20000000000005
371.63281599612225 140.39999999999998
371.6941245987828 168.0
371.7554246161712 115.60000000000002
371.81671604631526 154.0
371.8779988872431 129.20000000000005
371.9392731369828 183.39999999999998
372.0005387935622 154.0
372.06179585500934 165.0
372.12304431935223 181.20000000000005
372.1842841846188 169.20000000000005
372.24551544883707 164.20000000000005
372.30673811003504 154.39999999999998
372.3679521662407 152.0
372.429157615482 183.60000000000002
372.490354455787 150.60000000000002
372.5515426851836 170.0
372.6127223016999 130.0
372.67389330336374 176.79999999999995
372.73505568820326 176.20000000000005
372.79620945424637 185.79999999999995
372.8573545995211 148.39999999999998
372.9184911220554 159.60000000000002
372.97961901987725 214.20000000000005
373.04073829101463 173.39999999999998
373.10184893349555 153.39999999999998
373.1629509453481 181.60000000000002
373.2240443246001 187.20000000000005
373.2851290692796 146.20000000000005
373.3462051774146 173.20000000000005
373.40727264703315 172.60000000000002
373.46833147616314 154.20000000000005
373.52938166283263 120.0
373.59042320506956 167.60000000000002
373.6514561009019 221.60000000000002
373.7124803483577 190.79999999999995
373.77349594546496 184.20000000000005
373.8345028902516 167.79999999999995
373.8955011807456 169.20000000000005
373.9564908149751 190.0
374.0174717909679 185.39999999999998
374.07844410675204 168.20000000000005
374.13940776035554 179.39999999999998
374.20036274980646 166.79999999999995
374.2613090731327 158.60000000000002
374.32224672836224 173.20000000000005
374.3831757135231 175.79999999999995
374.4440960266432 163.79999999999995
374.5050076657506 186.60000000000002
374.5659106288734 147.0
374.6268049140393 181.20000000000005
374.6876905192766 208.79999999999995
374.7485674426131 171.39999999999998
374.80943568207675 194.39999999999998
374.87029523569566 182.39999999999998
374.93114610149786 187.39999999999998
374.9919882775111 179.0
375.0528217617637 217.20000000000005
375.11364655228334 196.20000000000005
375.17446264709827 204.60000000000002
375.2352700442363 189.60000000000002
375.29606874172543 192.60000000000002
375.35685873759377 156.0
375.41764002986923 174.60000000000002
375.4784126165797 185.39999999999998
375.5391764957534 194.60000000000002
375.5999316654181 197.60000000000002
375.66067812360194 206.60000000000002
375.72141586833277 178.60000000000002
375.7821448976387 217.60000000000002
375.84286520954765 187.79999999999995
375.9035768020877 206.79999999999995
375.9642796732867 221.0
376.0249738211727 191.79999999999995
376.0856592437737 207.60000000000002
376.1463359391177 182.0
376.2070039052327 204.39999999999998
376.2676631401466 204.39999999999998
376.3283136418875 205.79999999999995
376.3889554084834 199.20000000000005
376.4495884379621 244.39999999999998
376.5102127283518 202.79999999999995
376.57082827768045 176.79999999999995
376.63143508397593 189.60000000000002
376.6920331452663 215.39999999999998
376.7526224595796 209.39999999999998
376.8132030249437 208.79999999999995
376.87377483938667 179.79999999999995
376.93433790093644 204.60000000000002
376.9948922076211 213.20000000000005
377.05543775746855 202.0
377.1159745485068 226.0
377.17650257876386 204.79999999999995
377.23702184626774 214.20000000000005
377.2975323490464 235.39999999999998
377.35803408512777 185.20000000000005
377.4185270525399 199.60000000000002
377.47901124931076 186.20000000000005
377.5394866734684 256.6
377.59995332304067 238.79999999999995
377.6604111960557 216.20000000000005
377.72086029054145 145.60000000000002
377.7813006045259 246.39999999999998
377.84173213603697 199.0
377.9021548831027 193.60000000000002
377.96256884375106 230.79999999999995
378.0229740160101 202.60000000000002
378.0833703979078 242.60000000000002
378.14375798747204 216.0
378.2041367827309 216.39999999999998
378.2645067817124 226.39999999999998
378.3248679824445 206.79999999999995
378.3852203829551 233.39999999999998
378.4455639812723 223.39999999999998
378.50589877542404 215.20000000000005
378.5662247634383 195.39999999999998
378.62654194334317 237.79999999999995
378.68685031316636 227.20000000000005
378.7471498709363 241.79999999999995
378.80744061468056 230.0
378.8677225424274 242.20000000000005
378.92799565220463 208.0
378.9882599420404 187.60000000000002
379.04851540996253 242.20000000000005
379.1087620539992 255.20000000000005
379.16899987217823 210.0
379.2292288625277 194.39999999999998
379.2894490230756 238.39999999999998
379.3496603518498 258.79999999999995
379.40986284687847 203.39999999999998
379.47005650618945 218.0
379.53024132781087 225.39999999999998
379.59041730977054 249.79999999999995
379.65058445009663 208.39999999999998
379.710742746817 244.20000000000005
379.7708921979597 260.20000000000005
379.83103280155274 229.60000000000002
379.89116455562396 249.60000000000002
379.95128745820153 263.20000000000005
380.0114015073134 246.79999999999995
380.0715067009875 255.60000000000002
380.13160303725186 268.20000000000005
380.19169051413445 243.79999999999995
380.2517691296632 272.6
380.31183888186627 234.0
380.37189976877147 258.79999999999995
380.43195178840693 263.20000000000005
380.4919949388005 280.4
380.55202921798025 271.79999999999995
380.6120546239742 256.4
380.6720711548102 269.20000000000005
380.73207880851646 270.6
380.7920775831208 259.6
380.85206747665126 284.6
380.91204848713573 263.20000000000005
380.97202061260236 275.20000000000005
381.0319838510791 255.20000000000005
381.09193820059386 298.0
381.1518836591747 280.0
381.2118202248496 280.20000000000005
381.2717478956465 280.20000000000005
381.33166666959346 262.0
381.3915765447184 302.79999999999995
381.4514775190494 271.4
381.5113695906143 259.0
381.5712527574412 283.79999999999995
381.6311270175581 282.20000000000005
381.6909923689929 293.4
381.7508488097737 287.0
381.8106963379284 274.0
381.87053495148507 289.4
381.9303646484716 321.6
381.99018542691607 296.4
382.04999728484637 320.4
382.1098002202906 298.0
382.1695942312767 324.20000000000005
382.22937931583266 285.4
382.2891554719864 291.20000000000005
382.34892269776594 281.4
382.40868099119945 317.20000000000005
382.4684303503147 281.6
382.5281707731397 301.4
382.5879022577025 302.6
382.6476248020311 345.20000000000005
382.7073384041535 344.6
382.7670430620976 338.4
382.8267387738915 337.4
382.88642553756307 357.79999999999995
382.94610335114044 350.4
383.00577221265144 399.20000000000005
383.06543212012417 413.6
383.1250830715866 469.79999999999995
383.1847250650667 552.0
383.24435809859244 553.0
383.3039821701919 561.2
383.36359727789295 534.2
383.4232034197236 639.2
383.4828005937119 725.8
383.54238879788585 783.4000000000001
383.6019680302733 688.0
383.6615382889024 607.2
383.7210995718011 503.0
383.78065187699735 493.20000000000005
383.84019520251917 546.8
383.89972954639444 561.8
383.9592549066513 586.8
384.0187712813177 729.5999999999999
384.07827866842155 851.8
384.1377770659909 915.8
384.1972664720538 788.4000000000001
384.2567468846381 530.8
384.3162183017719 491.79999999999995
384.37568072148315 443.4
384.4351341417999 434.6
384.49457856075 388.0
384.55401397636155 324.20000000000005
384.6134403866625 311.79999999999995
384.67285778968085 374.20000000000005
384.7322661834446 361.4
384.79166556598165 353.0
384.8510559353202 350.79999999999995
384.91043728948796 349.20000000000005
384.96980962651315 376.20000000000005
385.0291729444236 351.20000000000005
385.0885272412474 346.79999999999995
385.14787251501247 340.79999999999995
385.2072087637469 290.4
385.2665359854785 323.6
385.32585417823555 354.0
385.3851633400457 328.4
385.4444634689372 317.0
385.5037545629379 306.79999999999995
385.5630366200758 347.79999999999995
385.622309638379 344.4
385.6815736158753 283.4
385.7408285505929 337.0
385.8000744405597 311.79999999999995
385.85931128380355 299.6
385.91853907835264 317.6
385.97775782223476 346.6
386.03696751347815 335.6
386.0961681501106 306.0
386.1553597301603 328.6
386.2145422516549 338.20000000000005
386.27371571262273 314.4
386.3328801110916 311.20000000000005
386.39203544508945 346.79999999999995
386.4511817126445 343.79999999999995
386.5103189117845 291.6
386.5694470405376 289.6
386.62856609693176 311.6
386.68767607899485 326.4
386.74677698475494 288.20000000000005
386.80586881224013 304.79999999999995
386.86495155947824 319.79999999999995
386.92402522449726 242.20000000000005
386.98308980532533 300.6
387.04214529999035 340.0
387.10119170652024 321.0
387.16022902294304 335.4
387.2192572472868 304.20000000000005
387.2782763775795 284.79999999999995
387.33728641184905 325.6
387.3962873481235 324.0
387.45527918443076 299.20000000000005
387.5142619187989 310.6
387.5732355492559 274.79999999999995
387.6322000738298 335.79999999999995
387.69115549054845 296.6
387.75010179743987 298.6
387.8090389925322 325.20000000000005
387.8679670738532 305.6
387.9268860394311 307.0
387.9857958872937 271.20000000000005
388.0446966154691 351.4
388.1035882219852 299.20000000000005
388.16247070487003 304.20000000000005
388.2213440621516 290.0
388.2802082918579 300.6
388.3390633920169 310.6
388.39790936065657 280.4
388.45674619580495 328.79999999999995
388.5155738954899 311.79999999999995
388.57439245773963 313.4
388.63320188058196 288.6
388.69200216204496 251.39999999999998
388.7507933001565 300.79999999999995
388.8095752929447 262.20000000000005
388.8683481384375 305.6
388.92711183466287 293.4
388.9858663796488 297.20000000000005
389.0446117714233 250.20000000000005
389.10334800801445 318.6
389.16207508745003 239.79999999999995
389.22079300775823 285.6
389.2795017669669 304.0
389.33820136310413 267.4
389.39689179419776 321.0
389.45557305827595 314.6
389.51424515336663 310.6
389.5729080774977 291.0
389.63156182869733 285.6
389.69020640499326 315.6
389.7488418044138 298.6
389.8074680249866 298.0
389.86608506473993 284.6
389.9246929217016 293.0
389.9832915938997 279.20000000000005
390.0418810793621 255.39999999999998
390.10046137611687 264.0
390.15903248219206 260.20000000000005
390.21759439561555 289.4
390.2761471144154 279.0
390.33469063661954 267.4
390.39322496025596 259.20000000000005
390.45175008335275 255.79999999999995
390.51026600393783 295.4
390.56877272003914 299.4
390.6272702296847 265.6
390.68575853090255 318.20000000000005
390.74423762172063 260.20000000000005
390.80270750016695 292.4
390.8611681642695 290.0
390.91961961205624 282.20000000000005
390.97806184155513 300.20000000000005
391.03649485079427 258.79999999999995
391.0949186378016 310.4
391.153333200605 310.6
391.2117385372327 248.0
391.27013464571235 281.6
391.3285215240723 280.4
391.3868991703403 274.6
391.4452675825444 276.20000000000005
391.5036267587125 256.4
391.5619766968728 289.4
391.62031739505323 289.6
391.67864885128165 280.6
391.7369710635861 316.4
391.7952840299946 293.20000000000005
391.8535877485352 291.79999999999995
391.91188221723576 319.4
391.9701674341243 303.6
392.02844339722884 288.79999999999995
392.08671010457743 266.4
392.14496755419793 295.79999999999995
392.2032157441184 284.0
392.2614546723668 313.79999999999995
392.31968433697125 299.6
392.3779047359595 305.79999999999995
392.4361158673597 292.79999999999995
392.49431772919985 287.6
392.55251031950786 285.6
392.61069363631174 319.0
392.6688676776395 287.4
392.7270324415191 278.6
392.7851879259786 298.0
392.84333412904596 271.6
392.90147104874904 290.20000000000005
392.95959868311604 326.20000000000005
393.0177170301748 312.6
393.0758260879533 289.20000000000005
393.1339258544797 317.20000000000005
393.1920163277818 306.20000000000005
393.2500975058876 296.79999999999995
393.3081693868253 326.6
393.36623196862257 298.20000000000005
393.42428524930773 305.79999999999995
393.48232922690846 345.6
393.54036389945304 288.6
393.59838926496917 309.0
393.65640532148507 323.79999999999995
393.7144120670286 320.6
393.77240949962777 353.20000000000005
393.83039761731067 314.6
393.8883764181051 325.0
393.94634590003926 339.79999999999995
394.00430606114094 285.79999999999995
394.0622568994383 293.0
394.12019841295927 304.6
394.17813059973173 308.79999999999995
394.2360534577838 307.0
394.2939669851434 310.20000000000005
394.3518711798386 266.6
394.4097660398973 298.6
394.46765156334754 298.4
394.5255277482173 342.79999999999995
394.58339459253455 305.4
394.64125209432734 268.79999999999995
394.6991002516235 312.20000000000005
394.75693906245124 316.6
394.81476852483837 329.20000000000005
394.872588636813 299.20000000000005
394.930399396403 309.0
394.9882008016365 300.79999999999995
395.0459928505413 296.6
395.1037755411456 328.0
395.16154887147724 304.0
395.2193128395643 333.79999999999995
395.2770674434347 322.79999999999995
395.33481268111643 331.20000000000005
395.3925485506375 287.20000000000005
395.450275050026 333.79999999999995
395.50799217730975 321.6
395.56569993051687 314.0
395.6233983076752 357.0
395.68108730681286 335.6
395.73876692595786 329.0
395.796437163138 294.6
395.8540980163815 316.0
395.9117494837162 341.20000000000005
395.9693915631702 311.79999999999995
396.02702425277135 328.4
396.0846475505477 303.20000000000005
396.1422614545273 332.20000000000005
396.19986596273804 282.0
396.25746107320793 313.20000000000005
396.31504678396504 311.4
396.37262309303736 340.6
396.4301899984527 301.6
396.4877474982393 309.20000000000005
396.5452955904249 338.79999999999995
396.60283427303773 343.6
396.66036354410556 347.0
396.71788340165654 356.20000000000005
396.77539384371846 346.0
396.83289486831967 324.4
396.89038647348775 355.20000000000005
396.94786865725104 339.6
397.00534141763717 319.4
397.0628047526744 329.20000000000005
397.1202586603907 357.20000000000005
397.17770313881397 363.4
397.2351381859722 346.79999999999995
397.2925637998934 352.4
397.3499799786055 331.6
397.40738672013674 343.20000000000005
397.4647840225148 327.20000000000005
397.5221718837678 380.4
397.5795503019237 350.0
397.6369192750105 358.6
397.69427880105627 342.79999999999995
397.75162887808887 331.79999999999995
397.80896950413637 331.4
397.8663006772267 350.0
397.9236223953879 344.6
397.98093465664795 369.4
398.03823745903486 374.4
398.0955308005765 311.79999999999995
398.15281467930106 335.4
398.2100890932364 329.20000000000005
398.2673540404104 307.4
398.32460951885133 349.6
398.3818555265869 353.6
398.4390920616453 355.6
398.4963191220544 360.79999999999995
398.55353670584225 335.6
398.6107448110368 379.0
398.6679434356661 385.6
398.725132577758 389.6
398.78231223534067 382.79999999999995
398.839482406442 344.4
398.89664308908993 363.79999999999995
398.95379428131264 399.6
399.01093598113783 321.0
399.0680681865938 369.20000000000005
399.1251908957083 376.4
399.18230410650943 377.20000000000005
399.2394078170251 372.79999999999995
399.2965020252834 378.4
399.35358672931227 375.6
399.41066192713976 366.0
399.46772761679375 354.4
399.52478379630224 412.0
399.5818304636933 363.4
399.63886761699484 414.0
399.6958952542349 406.6
399.75291337344146 447.20000000000005
399.80992197264254 430.4
399.86692104986605 423.79999999999995
399.92391060314 450.79999999999995
399.98089063049247 437.6
400.0378611299513 461.4
400.09482209954456 458.4
400.1517735373003 405.4
400.2087154412464 455.6
400.2656478094109 464.20000000000005
400.32257063982183 408.20000000000005
400.37948393050704 401.20000000000005
400.4363876794947 413.79999999999995
400.4932818848126 405.20000000000005
400.55016654448895 411.20000000000005
400.60704165655153 430.0
400.6639072190285 457.20000000000005
400.7207632299477 371.20000000000005
400.77760968733725 374.79999999999995
400.834446589225 406.20000000000005
400.8912739336391 374.0
400.94809171860743 386.20000000000005
401.0048999421581 411.79999999999995
401.06169860231887 384.79999999999995
401.1184876971179 379.20000000000005
401.1752672245832 388.0
401.2320371827427 356.4
401.28879756962436 402.0
401.3455483832562 404.4
401.40228962166617 356.20000000000005
401.45902128288236 367.0
401.5157433649327 378.6
401.5724558658451 389.20000000000005
401.62915878364765 368.4
401.6858521163684 385.6
401.74253586203514 366.6
401.79921001867604 393.6
401.855874584319 409.0
401.912529556992 384.0
401.96917493472307 387.6
402.0258107155402 394.0
402.0824368974714 391.79999999999995
402.13905347854455 415.20000000000005
402.1956604567878 419.0
402.252257830229 398.0
402.30884559689616 402.0
402.3654237548173 390.20000000000005
402.42199230202044 353.0
402.4785512365335 372.0
402.5351005563846 420.79999999999995
402.5916402596015 427.20000000000005
402.6481703442124 403.4
402.70469080824523 350.20000000000005
402.7612016497279 397.79999999999995
402.8177028666885 381.0
402.87419445715494 404.6
402.9306764191553 365.4
402.9871487507175 387.0
403.04361144986956 365.6
403.10006451463937 380.20000000000005
403.1565079430551 413.79999999999995
403.2129417331446 424.4
403.26936588293586 367.4
403.32578039045694 400.20000000000005
403.38218525373577 384.79999999999995
403.43858047080045 409.79999999999995
403.4949660396788 383.4
403.55134195839895 392.0
403.60770822498876 406.0
403.66406483747636 387.0
403.72041179388964 397.20000000000005
403.77674909225664 426.6
403.8330767306052 403.0
403.8893947069637 397.0
403.9457030193596 389.79999999999995
404.00200166582135 394.20000000000005
404.05829064437654 434.79999999999995
404.11456995305355 444.4
404.1708395898801 412.0
404.2270995528842 361.6
404.28334984009393 385.4
404.3395904495373 407.6
404.39582137924225 393.20000000000005
404.4520426272367 391.6
404.50825419154876 415.6
404.56445607020635 392.0
404.6206482612375 419.6
404.6768307626701 434.79999999999995
404.73300357253225 417.6
404.7891666888519 418.4
404.845320109657 419.79999999999995
404.9014638329756 421.6
404.9575978568356 418.0
405.0137221792652 377.79999999999995
405.06983679829216 445.20000000000005
405.1259417119445 377.79999999999995
405.1820369182503 394.0
405.2381224152375 448.4
405.2941982009341 435.0
405.3502642733681 461.0
405.40632063056745 420.20000000000005
405.46236727056015 410.0
405.51840419137426 411.79999999999995
405.57443139103765 405.6
405.63044886757837 426.4
405.68645661902445 421.79999999999995
405.7424546434038 407.6
405.7984429387445 448.79999999999995
405.8544215030744 396.0
405.9103903344216 454.79999999999995
405.9663494308141 405.6
406.0222987902798 387.20000000000005
406.0782384108468 458.6
406.13416829054296 446.0
406.1900884273964 416.0
406.245998819435 425.6
406.3018994646868 437.6
406.3577903611798 441.79999999999995
406.41367150694197 422.20000000000005
406.46954290000133 429.20000000000005
406.52540453838577 440.79999999999995
406.5812564201234 437.4
406.63709854324213 436.20000000000005
406.69293090576997 439.0
406.7487535057349 455.6
406.804566341165 457.0
406.8603694100881 434.0
406.9161627105323 468.0
406.9719462405256 439.20000000000005
407.0277199980959 466.4
407.0834839812713 451.79999999999995
407.1392381880796 463.6
407.194982616549 427.6
407.2507172647074 454.0
407.30644213058275 470.6
407.3621572122031 484.0
407.4178625075965 468.4
407.47355801479074 500.6
407.529243731814 470.79999999999995
407.5849196566942 471.0
407.6405857874593 493.79999999999995
407.69624212213733 506.4
407.75188865875623 497.79999999999995
407.807525395344 492.0
407.8631523299287 505.0
407.9187694605383 481.79999999999995
407.97437678520066 517.0
408.029974301944 497.6
408.08556200879605 463.4
408.141139903785 486.79999999999995
408.19670798493877 479.79999999999995
408.2522662502853 499.20000000000005
408.3078146978526 502.6
408.36335332566875 483.6
408.4188821317616 493.20000000000005
408.47440111415926 506.6
408.5299102708896 505.4
408.5854095999808 490.0
408.6408990994606 458.0
408.69637876735715 467.6
408.75184860169844 496.79999999999995
408.8073086005124 452.20000000000005
408.862758761827 499.20000000000005
408.9181990836703 490.4
408.9736295640702 477.6
409.0290502010548 455.0
409.08446099265205 476.6
409.13986193688993 475.20000000000005
409.19525303179637 473.79999999999995
409.2506342753995 474.20000000000005
409.30600566572707 459.6
409.3613672008073 515.8
409.41671887866806 423.0
409.4720606973375 502.20000000000005
409.52739265484337 474.6
409.5827147492138 487.4
409.6380269784768 468.0
409.6933293406602 475.20000000000005
409.7486218337922 457.79999999999995
409.80390445590064 425.20000000000005
409.85917720501357 471.79999999999995
409.91444007915896 451.4
409.9696930763648 470.79999999999995
410.02493619465906 499.79999999999995
410.0801694320698 471.6
410.13539278662495 459.20000000000005
410.1906062563525 497.0
410.24580983928047 489.4
410.30100353343676 443.79999999999995
410.35618733684953 433.6
410.4113612475466 484.4
410.466525263556 470.0
410.52167938290575 486.0
410.5768236036239 476.4
410.63195792373836 508.79999999999995
410.68708234127706 469.4
410.7421968542681 472.0
410.7973014607394 480.79999999999995
410.85239615871893 436.20000000000005
410.9074809462349 457.4
410.96255582131494 467.20000000000005
411.0176207819873 448.79999999999995
411.07267582627986 472.6
411.1277209522207 505.6
411.1827561578377 493.20000000000005
411.23778144115886 485.6
411.29279680021233 427.0
411.34780223302585 451.20000000000005
411.4027977376276 446.79999999999995
411.4577833120455 535.0
411.51275895430757 474.20000000000005
411.56772466244166 483.79999999999995
411.62268043447597 472.20000000000005
411.6776262684383 467.79999999999995
411.7325621623568 473.6
411.7874881142594 463.6
411.842404122174 491.6
411.8973101841287 526.6
411.95220629815145 503.20000000000005
412.00709246227024 487.6
412.0619686745131 473.6
412.1168349329079 495.4
412.17169123548274 486.4
412.2265375802656 485.4
412.28137396528444 485.20000000000005
412.3362003885672 489.6
412.391016848142 510.79999999999995
412.4458233420367 492.6
412.5006198682794 495.0
412.5554064248979 439.6
412.61018300992043 510.4
412.66494962137483 435.20000000000005
412.71970625728915 485.4
412.7744529156913 484.6
412.8291895946093 437.6
412.8839162920712 486.0
412.938633006105 476.20000000000005
412.9933397347386 519.4
413.04803647600005 468.6
413.10272322791724 468.20000000000005
413.1573999885183 495.20000000000005
413.21206675583113 468.79999999999995
413.26672352788376 472.6
413.32137030270417 472.20000000000005
413.3760070783203 442.4
413.4306338527602 437.0
413.48525062405184 451.0
413.53985739022323 512.8
413.5944541493023 446.20000000000005
413.6490408993171 451.4
413.70361763829555 489.79999999999995
413.75818436426573 497.6
413.8127410752556 480.20000000000005
413.86728776929306 458.20000000000005
413.9218244444061 441.4
413.9763510986229 498.6
414.0308677299713 465.20000000000005
414.0853743364793 445.4
414.13987091617497 491.20000000000005
414.1943574670861 469.0
414.24883398724097 500.6
414.30330047466725 458.4
414.3577569273932 446.6
414.41220334344666 463.0
414.4666397208557 477.20000000000005
414.52106605764817 511.4
414.57548235185226 511.6
414.62988860149574 458.4
414.6842848046068 485.6
414.73867095921327 492.4
414.79304706334324 530.8
414.8474131150247 477.20000000000005
414.9017691122856 490.20000000000005
414.9561150531539 498.6
415.0104509356576 466.4
415.0647767578248 488.4
415.1190925176834 501.79999999999995
415.1733982132613 452.4
415.22769384258663 475.79999999999995
415.2819794036873 456.0
415.3362548945914 464.20000000000005
415.39052031332676 498.20000000000005
415.44477565792147 464.4
415.49902092640355 489.6
415.5532561168009 468.0
415.6074812271416 488.0
415.66169625545353 450.0
415.71590119976474 472.0
415.77009605810326 508.6
415.824280828497 484.79999999999995
415.878455508974 484.20000000000005
415.9326200975623 471.6
415.98677459228975 463.20000000000005
416.04091899118436 475.6
416.0950532922742 479.4
416.1491774935873 449.4
416.2032915931515 511.20000000000005
416.2573955889949 503.79999999999995
416.3114894791455 479.6
416.36557326163114 486.4
416.41964693448 517.0
416.47371049571996 514.6
416.527763943379 477.79999999999995
416.5818072754852 498.0
416.6358404900664 454.79999999999995
416.68986358515076 490.20000000000005
416.74387655876615 467.0
416.79787940894056 485.6
416.85187213370205 501.20000000000005
416.9058547310786 516.4000000000001
416.95982719909813 494.20000000000005
417.01378953578865 492.79999999999995
417.06774173917825 500.6
417.12168380729474 467.79999999999995
417.1756157381663 491.6
417.22953752982073 473.4
417.28344918028614 454.6
417.3373506875905 461.0
417.3912420497618 476.79999999999995
417.44512326482806 489.20000000000005
417.49899433081714 470.20000000000005
417.5528552457572 506.4
417.60670600767605 474.0
417.66054661460186 460.20000000000005
417.7143770645625 466.20000000000005
417.76819735558604 480.20000000000005
417.82200748570034 474.6
417.87580745293354 470.4000000000001
417.9295972553135 442.20000000000005
417.9833768908684 455.20000000000005
418.0371463576259 473.4
418.09090565361436 485.4
418.14465477686144 463.4
418.19839372539536 486.0
418.252122497244 504.6
418.3058410904354 472.79999999999995
418.35954950299754 465.6
418.41324773295844 555.5999999999999
418.466935778346 513.6
418.5206136371882 502.20000000000005
418.5742813075132 487.4
418.62793878734885 488.20000000000005
418.6815860747231 494.4000000000001
418.73522316766406 482.0
418.7888500641996 474.79999999999995
418.8424667623578 514.4
418.8960732601666 476.20000000000005
418.94966955565405 467.0
419.003255646848 489.20000000000005
419.0568315317767 500.20000000000005
419.1103972084678 502.79999999999995
419.1639526749496 477.79999999999995
419.2174979292499 480.20000000000005
419.27103296939663 510.0
419.32455779341797 495.0
419.3780723993419 474.6
419.4315767851963 488.79999999999995
419.4850709490091 501.4000000000001
419.5385548888085 495.20000000000005
419.5920286026223 505.0
419.64549208847853 479.6
419.6989453444053 524.6
419.75238836843045 507.0
419.80582115858203 480.20000000000005
419.8592437128881 491.4
419.9126560293765 456.6
419.9660581060753 480.6
420.01944994101245 465.6
420.07283153221607 467.0
420.1262028777139 454.6
420.1795639755342 447.6
420.23291482370485 458.79999999999995
420.2862554202537 451.4
420.339585763209 485.0
420.39290585059854 482.0
420.44621568045034 430.4
420.4995152507925 453.20000000000005
420.5528045596529 473.20000000000005
420.60608360505955 448.79999999999995
420.6593523850404 443.6
420.71261089762356 455.79999999999995
420.7658591408369 479.0
420.8190971127085 447.79999999999995
420.8723248112662 452.6
420.9255422345382 451.6
420.9787493805523 460.6
421.0319462473367 496.4
421.0851328329191 455.20000000000005
421.1383091353278 494.4
421.19147515259044 436.20000000000005
421.24463088273546 444.4
421.29777632379034 458.0
421.3509114737835 455.20000000000005
421.40403633074266 505.0
421.4571508926959 442.0
421.5102551576712 479.4
421.56334912369664 474.0
421.61643278880007 461.79999999999995
421.66950615100956 465.4
421.722569208353 435.6
421.77562195885855 462.4
421.82866440055403 450.79999999999995
421.8816965314675 449.4
421.934718349627 493.4
421.98772985306044 465.0
422.04073103979584 462.0
422.09372190786115 488.6
422.14670245528447 451.6
422.19967268009367 453.4
422.2526325803168 468.4
422.3055821539818 456.20000000000005
422.3585213991167 447.79999999999995
422.4114503137494 473.20000000000005
422.4643688959081 441.6
422.5172771436206 456.20000000000005
422.57017505491496 425.0
422.6230626278191 451.20000000000005
422.6759398603611 412.20000000000005
422.7288067505689 433.79999999999995
422.7816632964705 435.79999999999995
422.8345094960939 450.0
422.8873453474671 426.79999999999995
422.94017084861804 426.20000000000005
422.99298599757475 458.20000000000005
423.04579079236515 453.4
423.09858523101735 453.79999999999995
423.1513693115592 477.0
423.2041430320188 470.6
423.25690639042415 448.79999999999995
423.3096593848031 421.4
423.3624020131837 433.4
423.41513427359405 446.20000000000005
423.467856164062 422.20000000000005
423.5205676826157 456.79999999999995
423.57326882728296 477.6
423.62595959609183 465.4
423.6786399870703 458.4
423.7313099982464 482.6
423.78396962764805 431.20000000000005
423.8366188733033 407.6
423.8892577332401 444.0
423.9418862054864 465.79999999999995
423.9945042880703 422.20000000000005
424.04711197901975 492.6
424.09970927636266 478.79999999999995
424.1522961781272 427.4
424.2048726823411 431.79999999999995
424.2574387870325 461.20000000000005
424.3099944902294 468.0
424.36253978995984 441.20000000000005
424.41507468425164 429.4
424.4675991711329 471.6
424.5201132486316 419.20000000000005
424.5726169147758 436.20000000000005
424.6251101675932 456.0
424.6775930051122 453.0
424.73006542536046 448.6
424.78252742636613 442.4
424.83497900615714 392.79999999999995
424.88742016276154 481.0
424.93985089420727 453.4
424.99227119852236 436.79999999999995
425.0446810737347 438.6
425.0970805178724 459.4
425.1494695289634 436.20000000000005
425.20184810503565 438.6
425.2542162441172 440.20000000000005
425.306573944236 429.6
425.35892120342004 438.4
425.4112580196973 441.20000000000005
425.4635843910958 429.4
425.5159003156436 407.0
425.5682057913685 446.6
425.6205008162986 437.20000000000005
425.67278538846193 455.6
425.72505950588646 464.0
425.77732316660007 451.6
425.82957636863085 425.0
425.8818191100068 456.4
425.93405138875585 415.6
425.98627320290603 438.6
426.0384845504853 430.79999999999995
426.0906854295217 371.0
426.14287583804315 400.4
426.1950557740777 431.6
426.2472252356532 424.4
426.2993842207979 419.79999999999995
426.35153272753956 449.20000000000005
426.4036707539063 442.4
426.455798297926 450.20000000000005
426.5079153576267 446.20000000000005
426.56002193103643 428.20000000000005
426.6121180161831 446.20000000000005
426.6642036110948 409.79999999999995
426.7162787137994 432.6
426.768343322325 409.0
426.82039743469943 423.0
426.87244104895086 433.79999999999995
426.9244741631072 427.20000000000005
426.9764967751965 437.79999999999995
427.0285088832467 422.79999999999995
427.08051048528563 441.20000000000005
427.1325015793416 462.4
427.1844821634422 421.20000000000005
427.23645223561584 389.4
427.2884117938903 439.0
427.3403608362936 402.0
427.3922993608536 411.4
427.4442273655985 434.6
427.4961448485561 376.0
427.5480518077546 370.79999999999995
427.5999482412218 424.4
427.6518341469858 442.20000000000005
427.70370952307445 425.79999999999995
427.755574367516 430.0
427.80742867833806 418.79999999999995
427.859272453569 385.20000000000005
427.9111056912365 407.6
427.96292838936887 393.20000000000005
428.0147405459938 446.0
428.06654215913943 439.79999999999995
428.11833322683367 444.79999999999995
428.1701137471046 451.4
428.2218837179802 400.4
428.2736431374883 423.0
428.3253920036571 402.0
428.37713031451455 417.4
428.4288580680885 422.20000000000005
428.48057526240706 412.4
428.53228189549816 381.6
428.5839779653899 407.20000000000005
428.6356634701101 401.20000000000005
428.68733840768687 385.79999999999995
428.73900277614814 416.20000000000005
428.79065657352197 395.79999999999995
428.84229979783623 441.4
428.893932447119 423.6
428.9455545193983 425.0
428.99716601270205 378.6
429.0487669250582 432.0
429.10035725449484 369.6
429.15193699903983 418.0
429.20350615672135 409.0
429.2550647255672 396.79999999999995
429.3066127036055 413.4
429.3581500888642 462.20000000000005
429.4096768793712 431.79999999999995
429.4611930731546 436.20000000000005
429.5126986682424 385.79999999999995
429.56419366266255 421.20000000000005
429.615678054443 407.20000000000005
429.66715184161177 398.20000000000005
429.71861502219684 445.4
429.77006759422613 381.20000000000005
429.82150955572786 392.6
429.8729409047298 384.20000000000005
429.92436163926 371.0
429.9757717573464 371.20000000000005
430.02717125701713 389.79999999999995
430.07856013630004 386.0
430.1299383932232 381.20000000000005
430.1813060258145 374.4
430.2326630321021 397.0
430.2840094101138 392.20000000000005
430.3353451578777 379.79999999999995
430.38667027342177 393.6
430.43798475477394 395.0
430.4892885999624 399.6
430.5405818070148 399.0
430.5918643739595 378.0
430.6431362988242 416.79999999999995
430.69439757963704 397.4
430.7456482144259 404.20000000000005
430.7968882012189 412.0
430.8481175380439 429.0
430.89933622292904 406.0
430.95054425390214 384.79999999999995
431.00174162899134 380.79999999999995
431.05292834622446 407.4
431.1041044036297 411.0
431.1552697992348 435.6
431.20642453106797 411.79999999999995
431.2575685971571 398.79999999999995
431.3087019955302 393.79999999999995
431.3598247242153 413.4
431.41093678124025 371.79999999999995
431.4620381646332 422.6
431.513128872422 364.6
431.56420890263473 385.20000000000005
431.6152782532994 399.79999999999995
431.6663369224439 407.4
431.7173849080963 393.0
431.7684222082845 397.6
431.81944882103664 421.20000000000005
431.87046474438057 368.6
431.9214699763444 392.79999999999995
431.97246451495596 413.6
432.02344835824334 401.79999999999995
432.0744215042345 397.20000000000005
432.1253839509575 416.6
432.1763356964402 393.79999999999995
432.2272767387107 428.20000000000005
432.27820707579696 392.4
432.32912670572694 406.4
432.38003562652864 410.20000000000005
432.4309338362301 380.6
432.48182133285917 366.0
432.53269811444403 403.0
432.5835641790125 371.20000000000005
432.63441952459266 427.20000000000005
432.6852641492125 401.0
432.7360980509 428.0
432.78692122768314 398.0
432.8377336775899 397.4
432.88853539864823 387.79999999999995
432.9393263888862 397.4
432.99010664633175 425.6
433.04087616901285 392.0
433.09163495495756 393.20000000000005
433.14238300219387 380.0
433.19312030874966 408.0
433.24384687265297 389.79999999999995
433.29456269193184 400.4
433.3452677646142 405.4
433.39596208872814 393.4
433.44664566230153 369.4
433.4973184833624 402.0
433.54798054993864 390.20000000000005
433.5986318600585 406.0
433.6492724117496 360.4
433.6999022030404 347.0
433.7505212319584 431.20000000000005
433.801129496532 372.0
433.8517269947888 380.4
433.90231372475716 379.6
433.95288968446476 402.79999999999995
434.00345487193994 389.0
434.05400928521027 382.6
434.10455292230404 422.6
434.15508578124906 394.6
434.2056078600735 405.4
434.2561191568052 360.79999999999995
434.30661966947224 366.4
434.3571093961025 408.6
434.4075883347241 396.0
434.45805648336494 367.4
434.508513840053 382.0
434.5589604028164 375.79999999999995
434.609396169683 415.79999999999995
434.6598211386808 404.4
434.7102353078378 406.6
434.760638675182 362.4
434.81103123874146 414.0
434.861412996544 397.6
434.91178394661773 385.6
434.9621440869907 401.0
435.0124934156907 394.79999999999995
435.0628319307459 395.6
435.1131596301842 399.4
435.16347651203364 373.0
435.2137825743221 407.79999999999995
435.26407781507777 422.79999999999995
435.31436223232845 416.79999999999995
435.3646358241022 433.0
435.414898588427 408.6
435.4651505233308 405.6
435.5153916268417 442.4
435.5656218969876 403.79999999999995
435.6158413317965 414.20000000000005
435.6660499292964 419.0
435.71624768751525 418.79999999999995
435.7664346044811 435.20000000000005
435.816610678222 362.79999999999995
435.8667759067658 367.4
435.91693028814046 387.6
435.96707382037414 403.4
436.01720650149474 358.0
436.06732832953014 421.79999999999995
436.1174393025086 395.20000000000005
436.1675394184578 381.6
436.217628675406 398.4
436.267707071381 387.79999999999995
436.31777460441083 401.4
436.3678312725235 365.4
436.41787707374704 372.20000000000005
436.46791200610943 392.4
436.5179360676386 371.79999999999995
436.5679492563625 402.79999999999995
436.6179515703093 407.4
436.6679430075068 382.4
436.717923565983 368.6
436.76789324376614 407.79999999999995
436.8178520388838 367.79999999999995
436.8677999493644 405.0
436.91773697323555 333.4
436.9676631085255 369.4
437.0175783532621 364.4
437.0674827054734 389.0
437.1173761631874 403.79999999999995
437.1672587244321 337.79999999999995
437.21713038723533 381.79999999999995
437.2669911496253 379.20000000000005
437.3168410096298 391.79999999999995
437.366679965277 399.4
437.41650801459474 398.20000000000005
437.4663251556112 355.0
437.5161313863541 372.4
437.5659267048516 393.0
437.6157111091317 386.0
437.66548459722236 391.4
437.7152471671515 377.4
437.76499881694724 343.79999999999995
437.81473954463746 376.20000000000005
437.8644693482502 377.20000000000005
437.91418822581346 368.6
437.96389617535516 368.0
438.01359319490336 373.6
438.06327928248595 362.0
438.1129544361311 365.4
438.1626186538666 400.4
438.21227193372056 390.0
438.26191427372095 372.6
438.3115456718957 379.6
438.3611661262729 351.4
438.41077563488045 392.0
438.46037419574634 373.6
438.5099618068986 378.20000000000005
438.5595384663653 410.0
438.6091041721743 390.20000000000005
438.65865892235354 363.6
438.70820271493113 375.0
438.75773554793506 357.79999999999995
438.8072574193933 342.0
438.8567683273337 371.4
438.9062682697845 356.4
438.95575724477357 355.4
439.00523525032884 366.4
439.05470228447825 366.6
439.10415834525 384.0
439.153603430672 365.4
439.20303753877215 393.0
439.2524606675784 392.0
439.30187281511894 361.20000000000005
439.3512739794216 369.20000000000005
439.4006641585145 370.4
439.45004335042546 355.4
439.4994115531826 372.6
439.5487687648138 367.20000000000005
439.5981149833472 347.6
439.6474502068107 381.20000000000005
439.6967744332322 362.6
439.7460876606398 383.0
439.79538988706156 357.79999999999995
439.84468111052524 382.79999999999995
439.89396132905915 402.0
439.94323054069093 379.20000000000005
439.99248874344886 363.0
440.04173593536063 399.4
440.09097211445453 384.20000000000005
440.14019727875836 370.20000000000005
440.18941142630024 370.6
440.23861455510803 381.0
440.28780666320984 356.0
440.3369877486335 383.6
440.3861578094072 368.20000000000005
440.4353168435587 358.6
440.48446484911625 377.20000000000005
440.5336018241076 352.6
440.5827277665609 338.6
440.631842674504 384.0
440.680946545965 363.0
440.7300393789719 382.6
440.7791211715527 380.6
440.82819192173514 350.20000000000005
440.87725162754754 361.4
440.9263002870177 379.0
440.97533789817373 395.0
441.02436445904345 375.79999999999995
441.073379967655 413.79999999999995
441.1223844220363 374.6
441.1713778202154 399.0
441.2203601602202 364.4
441.26933144007876 378.4
441.31829165781903 370.79999999999995
441.367240811469 391.0
441.4161788990567 357.4
441.46510591861 384.4
441.51402186815704 395.0
441.56292674572575 372.79999999999995
441.6118205493441 402.79999999999995
441.6607032770401 413.20000000000005
441.70957492684175 376.4
441.758435496777 375.6
441.8072849848739 400.0
441.8561233891603 402.6
441.90495070766434 371.6
441.953766938414 383.6
442.00257207943713 399.6
442.05136612876186 384.79999999999995
442.10014908441616 460.0
442.14892094442797 413.6
442.1976817068253 409.6
442.2464313696361 385.6
442.29516993088845 400.20000000000005
442.3438973886103 412.20000000000005
442.3926137408296 424.6
442.4413189855743 429.79999999999995
442.4900131208725 415.0
442.5386961447521 411.6
442.58736805524126 417.20000000000005
442.6360288503677 408.6
442.6846785281596 392.4
442.73331708664494 405.4
442.7819445238516 405.20000000000005
442.83056083780764 360.79999999999995
442.87916602654116 427.20000000000005
442.9277600880798 388.20000000000005
442.97634302045196 389.6
443.02491482168534 365.6
443.0734754898082 408.20000000000005
443.1220250228482 387.20000000000005
443.17056341883364 342.0
443.2190906757922 348.79999999999995
443.26760679175214 422.0
443.31611176474127 402.79999999999995
443.36460559278777 394.20000000000005
443.41308827391936 381.79999999999995
443.4615598061643 378.20000000000005
443.5100201875504 389.20000000000005
443.5584694161057 392.0
443.60690748985826 359.0
443.65533440683595 346.20000000000005
443.7037501650668 384.0
443.75215476257887 396.79999999999995
443.8005481974 390.6
443.8489304675583 377.4
443.8973015710818 427.6
443.9456615059983 405.4
443.994010270336 444.20000000000005
444.04234786212277 429.6
444.09067427938663 411.20000000000005
444.1389895201555 400.0
444.18729358245747 394.0
444.2355864643205 396.79999999999995
444.2838681637725 360.6
444.33213867884166 446.4
444.38039800755575 428.0
444.42864614794286 410.6
444.47688309803095 381.4
444.52510885584803 455.0
444.5733234194221 462.6
444.6215267867811 432.20000000000005
444.66971895595304 408.79999999999995
444.71789992496593 431.0
444.76606969184775 431.20000000000005
444.81422825462647 395.4
444.8623756113301 403.20000000000005
444.91051175998666 432.20000000000005
444.95863669862405 447.20000000000005
445.0067504252703 418.4
445.05485293795346 425.6
445.10294423470145 404.79999999999995
445.1510243135423 435.79999999999995
445.1990931725039 437.79999999999995
445.2471508096144 452.4
445.29519722290166 427.20000000000005
445.34323241039374 415.4
445.3912563701185 431.20000000000005
445.4392691001041 411.20000000000005
445.48727059837853 441.6
445.5352608629696 451.0
445.5832398919054 412.20000000000005
445.63120768321403 464.0
445.6791642349233 428.79999999999995
445.72710954506124 373.79999999999995
445.77504361165586 413.6
445.82296643273526 397.4
445.8708780063272 479.4
445.91877833045993 437.79999999999995
445.9666674031612 461.4
446.0145452224592 424.6
446.0624117863817 414.0
446.1102670929569 450.20000000000005
446.15811114021267 451.6
446.2059439261771 409.79999999999995
446.253765448878 451.0
446.3015757063436 436.0
446.3493746966016 437.4
446.39716241768025 441.6
446.4449388676074 450.79999999999995
446.49270404441114 463.20000000000005
446.54045794611926 418.20000000000005
446.58820057075997 438.6
446.63593191636113 440.20000000000005
446.68365198095074 469.20000000000005
446.7313607625569 442.20000000000005
446.77905825920743 439.6
446.8267444689305 411.20000000000005
446.87441938975394 434.6
446.92208301970584 442.4
446.96973535681406 477.4
447.01737639910675 478.0
447.06500614461186 453.20000000000005
447.11262459135725 460.20000000000005
447.1602317373711 450.4
447.2078275806813 473.4
447.2554121193158 447.0
447.3029853513026 484.79999999999995
447.35054727466974 480.79999999999995
447.3980978874452 486.4
447.445637187657 472.6
447.49316517333307 476.4
447.5406818425014 499.0
447.58818719319 489.79999999999995
447.63568122342684 497.4
447.6831639312399 501.4
447.73063531465726 493.79999999999995
447.77809537170674 505.6
447.82554410041655 544.5999999999999
447.8729814988145 510.0
447.9204075649286 490.79999999999995
447.9678222967869 536.8
448.0152256924174 525.8
448.062617749848 526.5999999999999
448.1099984671067 554.0
448.1573678422217 543.2
448.2047258732207 550.0
448.2520725581318 568.2
448.299407894983 570.0
448.3467318818023 588.8
448.3940445166177 601.0
448.44134579745713 599.4000000000001
448.48863572234865 618.2
448.53591428932015 616.4000000000001
448.58318149639973 618.2
448.63043734161533 643.5999999999999
448.6776818229949 636.2
448.7249149385665 614.8
448.77213668635795 608.8
448.8193470643976 607.8
448.866546070713 612.8
448.9137337033325 565.8
448.96090996028386 557.2
449.0080748395953 555.0
449.0552283392944 497.79999999999995
449.1023704574096 532.5999999999999
449.1495011919686 509.5999999999999
449.19662054099956 522.2
449.2437285025303 535.4000000000001
449.290825074589 477.4
449.3379102552035 469.20000000000005
449.38498404240187 474.79999999999995
449.432046434212 480.79999999999995
449.479097428662 464.5999999999999
449.52613702377977 463.79999999999995
449.5731652175933 471.0
449.6201820081307 454.0
449.66718739341985 464.6
449.7141813714888 443.79999999999995
449.7611639403654 458.6
449.8081350980778 448.0
449.85509484265395 458.0
449.9020431721217 423.6
449.9489800845093 427.0
449.9959055778445 463.4
450.0428196501554 443.79999999999995
450.08972229947 403.6
450.1366135238162 400.20000000000005
450.18349332122216 426.6
450.23036168971566 424.79999999999995
450.2772186273248 465.6
450.3240641320775 454.6
450.37089820200197 434.20000000000005
450.41772083512586 420.6
450.4645320294774 419.4
450.5113317830846 436.20000000000005
450.5581200939752 387.4
450.6048969601774 447.4
450.6516623797192 425.79999999999995
450.6984163506285 413.6
450.74515887093327 395.20000000000005
450.7918899386616 377.4
450.83860955184133 426.20000000000005
450.8853177085006 403.0
450.93201440666735 403.4
450.97869964436956 457.79999999999995
451.02537341963523 377.0
451.07203573049225 392.20000000000005
451.11868657496876 386.20000000000005
451.1653259510927 402.0
451.21195385689197 389.6
451.25857029039474 411.6
451.3051752496288 389.79999999999995
451.35176873262225 403.6
451.39835073740306 377.4
451.44492126199924 368.6
451.4914803044387 379.6
451.5380278627496 397.6
451.58456393495965 382.0
451.63108851909703 392.4
451.67760161318984 410.79999999999995
451.7241032152657 398.6
451.770593323353 389.4
451.8170719354795 367.20000000000005
451.86353904967336 395.4
451.90999466396227 423.79999999999995
451.95643877637457 398.0
452.0028713849379 400.0
452.0492924876806 394.0
452.0957020826304 375.6
452.14210016781544 377.20000000000005
452.18848674126355 392.6
452.2348618010029 412.20000000000005
452.28122534506133 382.20000000000005
452.327577371467 366.20000000000005
452.3739178782476 394.4
452.4202468634315 371.4
452.46656432504636 374.79999999999995
452.51287026112044 359.20000000000005
452.55916466968154 393.4
452.6054475487577 391.4
452.6517188963769 389.6
452.69797871056716 351.6
452.74422698935643 393.0
452.7904637307728 367.79999999999995
452.8366889328441 376.0
452.8829025935984 376.4
452.9291047110637 346.79999999999995
452.975295283268 388.79999999999995
453.0214743082392 377.4
453.0676417840054 371.4
453.1137977085946 384.0
453.1599420800346 410.79999999999995
453.2060748963536 423.79999999999995
453.25219615557955 357.0
453.2983058557403 365.0
453.344403994864 427.6
453.3904905709786 363.79999999999995
453.43656558211205 360.79999999999995
453.48262902629233 438.6
453.52868090154743 365.20000000000005
453.57472120590535 388.79999999999995
453.6207499373942 351.0
453.6667670940417 354.4
453.7127726738761 376.20000000000005
453.7587666749252 394.0
453.8047490952172 364.6
453.8507199327799 374.4
453.89667918564135 377.79999999999995
453.9426268518295 415.79999999999995
453.98856292937245 366.79999999999995
454.0344874162981 374.6
454.0804003106344 393.79999999999995
454.1263016104095 380.79999999999995
454.1721913136512 375.0
454.2180694183876 382.0
454.2639359226467 371.79999999999995
454.30979082445634 371.0
454.35563412184473 401.0
454.4014658128397 362.4
454.44728589546935 364.6
454.4930943677615 363.4
454.5388912277443 351.0
454.5846764734457 414.79999999999995
454.6304501028936 382.0
454.6762121141162 380.0
454.7219625051412 377.0
454.7677012739968 353.79999999999995
454.8134284187109 353.0
454.8591439373116 387.79999999999995
454.90484782782676 340.6
454.95054008828447 392.4
454.9962207167125 364.0
455.04188971113916 364.79999999999995
455.0875470695922 373.20000000000005
455.13319279009977 358.4
455.17882687068965 347.20000000000005
455.2244493093901 376.6
455.2700601042289 364.20000000000005
455.31565925323406 336.0
455.3612467544337 365.4
455.4068226058556 336.20000000000005
455.45238680552796 348.4
455.4979393514787 357.20000000000005
455.5434802417357 362.6
455.58900947432716 373.4
455.63452704728087 371.0
455.6800329586249 337.0
455.72552720638726 367.0
455.7710097885959 359.4
455.8164807032788 379.0
455.861939948464 380.4
455.9073875221794 351.6
455.9528234224531 354.20000000000005
455.99824764731306 361.79999999999995
456.0436601947872 352.6
456.0890610629036 352.4
456.13445024969013 371.20000000000005
456.1798277531749 393.20000000000005
456.22519357138583 330.20000000000005
456.27054770235094 364.20000000000005
456.3158901440982 353.6
456.3612208946557 348.0
456.40653995205116 328.79999999999995
456.4518473143129 394.79999999999995
456.49714297946866 358.6
456.5424269455466 374.0
456.58769921057456 358.20000000000005
456.6329597725806 357.0
456.6782086295928 349.6
456.7234457796389 340.0
456.7686712207472 378.0
456.81388495094546 366.0
456.85908696826175 373.4
456.90427727072404 318.20000000000005
456.9494558563604 394.79999999999995
456.99462272319863 380.20000000000005
457.03977786926697 388.20000000000005
457.0849212925932 357.79999999999995
457.1300529912054 346.6
457.17517296313156 388.20000000000005
457.2202812063996 384.20000000000005
457.2653777190376 360.20000000000005
457.31046249907354 367.20000000000005
457.35553554453537 396.20000000000005
457.40059685345096 390.6
457.44564642384864 390.79999999999995
457.490684253756 353.0
457.5357103412014 370.79999999999995
457.5807246842125 405.4
457.6257272808175 373.6
457.6707181290443 366.4
457.71569722692095 387.0
457.7606645724753 349.4
457.80562016373557 395.20000000000005
457.8505639987295 387.79999999999995
457.89549607548526 354.20000000000005
457.9404163920307 391.20000000000005
457.98532494639403 350.0
458.030221736603 362.0
458.0751067606857 373.79999999999995
458.11998001667007 398.79999999999995
458.1648415025842 369.20000000000005
458.20969121645595 370.79999999999995
458.2545291563135 388.4
458.2993553201846 424.6
458.3441697060974 370.0
458.38897231207983 383.6
458.4337631361599 375.20000000000005
458.4785421763656 387.6
458.52330943072485 382.6
458.56806489726574 406.20000000000005
458.61280857401624 369.79999999999995
458.6575404590043 386.79999999999995
458.7022605502579 389.20000000000005
458.7469688458051 387.79999999999995
458.7916653436738 396.0
458.83635004189205 374.4
458.88102293848783 374.79999999999995
458.9256840314891 354.79999999999995
458.97033331892385 379.79999999999995
459.0149707988201 406.6
459.0595964692058 419.0
459.10421032810905 383.6
459.1488123735577 389.20000000000005
459.1934026035798 397.0
459.23798101620326 382.0
459.2825476094563 385.4
459.32710238136656 362.0
459.37164532996235 370.4
459.4161764532715 398.20000000000005
459.460695749322 408.4
459.5052032161418 381.79999999999995
459.54969885175905 400.6
459.5941826542016 402.20000000000005
459.6386546214975 372.20000000000005
459.6831147516747 390.6
459.7275630427612 415.6
459.77199949278497 397.20000000000005
459.81642409977405 427.6
459.8608368617564 452.20000000000005
459.9052377767601 382.0
459.9496268428129 409.79999999999995
459.9940040579431 413.0
460.03836942017836 427.4
460.0827229275469 457.79999999999995
460.1270645780766 424.20000000000005
460.1713943697956 445.20000000000005
460.21571230073175 390.79999999999995
460.2600183689131 382.20000000000005
460.30431257236756 411.0
460.3485949091232 392.4
460.3928653772079 402.0
460.43712397464986 412.0
460.48137069947677 437.79999999999995
460.52560554971694 430.0
460.56982852339814 408.6
460.6140396185485 461.6
460.65823883319575 452.79999999999995
460.70242616536825 407.4
460.7466016130936 421.0
460.7907651744001 438.20000000000005
460.8349168473157 394.6
460.8790566298683 437.20000000000005
460.9231845200858 453.4
460.9673005159964 452.4
461.0114046156279 389.4
461.05549681700836 444.0
461.09957711816577 481.20000000000005
461.1436455171282 439.4
461.1877020119236 387.79999999999995
461.2317466005798 433.20000000000005
461.27577928112504 423.4
461.3198000515871 447.20000000000005
461.3638089099941 406.6
461.4078058543739 436.20000000000005
461.45179088275466 439.4
461.49576399316425 456.79999999999995
461.5397251836307 426.6
461.583674452182 403.0
461.62761179684605 466.0
461.6715372156509 426.79999999999995
461.71545070662467 409.79999999999995
461.7593522677952 464.6
461.80324189719045 450.0
461.84711959283845 417.79999999999995
461.8909853527673 461.20000000000005
461.9348391750048 450.20000000000005
461.97868105757914 410.6
462.02251099851816 469.0
462.06632899584986 441.6
462.11013504760234 442.0
462.1539291518035 426.6
462.19771130648127 443.20000000000005
462.2414815096637 426.4
462.28523975937884 431.79999999999995
462.3289860536546 417.4
462.37272039051896 463.6
462.416442768 432.6
462.46015318412566 436.6
462.5038516369239 457.6
462.5475381244227 421.6
462.5912126446501 441.20000000000005
462.63487519563415 459.0
462.67852577540265 420.79999999999995
462.72216438198376 469.4
462.7657910134053 453.5999999999999
462.80940566769544 465.20000000000005
462.8530083428821 451.79999999999995
462.89659903699317 459.4
462.9401777480569 421.6
462.98374447410094 466.20000000000005
463.0272992131536 433.4000000000001
463.0708419632425 469.79999999999995
463.11437272239607 463.5999999999999
463.1578914886419 453.6
463.2013982600083 469.5999999999999
463.244893034523 472.0
463.2883758102142 501.79999999999995
463.33184658510964 485.5999999999999
463.3753053572376 440.0
463.4187521246258 474.79999999999995
463.4621868853025 475.5999999999999
463.50560963729544 490.20000000000005
463.54902037863275 503.79999999999995
463.5924191073423 481.79999999999995
463.63580582145227 526.0
463.67918051899045 473.0
463.72254319798503 463.4000000000001
463.7658938564637 488.79999999999995
463.8092324924549 0.0
463.8525591039861 43.799999999999955
463.89587368908565 26.399999999999977
463.9391762457815 8.799999999999955
463.9824667721015 6.399999999999977
464.02574526607367 -5.0
464.06901172572606 5.399999999999977
464.1122661490866 -23.399999999999977
464.1555085341834 1.0
464.19873887904436 -10.0
464.24195718169744 24.600000000000023
464.28516344017066 7.600000000000023
464.328357652492 3.2000000000000455
464.3715398166895 21.799999999999955
464.4147099307911 -11.600000000000023
464.4578679928248 41.0
