236.5448614 23.80000000000001
236.61379369538386 2.0
236.6827202262736 12.199999999999989
236.75164099032636 -6.600000000000023
236.82055598519943 23.600000000000023
236.8894652085501 -10.0
236.9583686580355 17.0
237.0272663313129 -7.600000000000023
237.09615822603945 3.3999999999999773
237.16504433987242 27.399999999999977
237.23392467046907 -17.0
237.30279921548663 15.0
237.37166797258226 -5.800000000000011
237.44053093941324 -7.399999999999977
237.50938811363673 21.80000000000001
237.57823949291 17.600000000000023
237.64708507489027 37.60000000000002
237.7159248572348 83.19999999999999
237.78475883760078 76.39999999999998
237.85358701364538 67.19999999999999
237.9224093830259 39.80000000000001
237.99122594339957 63.19999999999999
238.06003669242352 67.60000000000002
238.1288416277551 72.39999999999998
238.19764074705142 61.39999999999998
238.26643404796982 56.0
238.33522152816744 83.60000000000002
238.40400318530152 30.19999999999999
238.47277901702924 48.39999999999998
238.54154902100794 58.39999999999998
238.61031319489476 49.0
238.67907153634695 32.39999999999998
238.74782404302175 68.60000000000002
238.81657071257632 60.80000000000001
238.88531154266792 78.39999999999998
238.95404653095383 83.19999999999999
239.0227756750912 54.80000000000001
239.09149897273727 44.60000000000002
239.16021642154928 47.39999999999998
239.22892801918448 59.80000000000001
239.2976337633 74.39999999999998
239.3663336515532 82.39999999999998
239.43502768160116 89.39999999999998
239.50371585110122 48.0
239.57239815771055 23.19999999999999
239.64107459908638 60.19999999999999
239.70974517288596 97.0
239.77840987676646 59.19999999999999
239.84706870838514 72.80000000000001
239.91572166539925 28.399999999999977
239.98436874546596 40.0
240.05300994624255 45.19999999999999
240.12164526538618 65.19999999999999
240.1902747005541 52.80000000000001
240.2588982494036 53.80000000000001
240.32751590959182 36.19999999999999
240.396127678776 74.0
240.4647335546134 22.19999999999999
240.5333335347612 56.80000000000001
240.6019276168766 54.19999999999999
240.67051579861695 61.80000000000001
240.73909807763934 89.80000000000001
240.8076744516011 84.60000000000002
240.87624491815936 82.19999999999999
240.9448094749714 40.0
241.0133681196944 78.0
241.08192084998566 43.19999999999999
241.15046766350235 64.39999999999998
241.2190085579017 46.60000000000002
241.28754353084096 93.19999999999999
241.3560725799773 74.19999999999999
241.42459570296793 88.60000000000002
241.49311289747018 21.19999999999999
241.56162416114125 90.0
241.6301294916383 81.19999999999999
241.69862888661856 53.60000000000002
241.76712234373932 81.0
241.83560986065774 57.39999999999998
241.904091435031 38.80000000000001
241.97256706451648 47.19999999999999
242.0410367467713 73.0
242.1095004794527 63.80000000000001
242.17795826021788 74.0
242.24641008672413 65.0
242.31485595662858 58.39999999999998
242.38329586758854 89.60000000000002
242.4517298172612 66.19999999999999
242.5201578033038 85.80000000000001
242.58857982337355 98.60000000000002
242.65699587512765 54.80000000000001
242.7254059562233 61.0
242.79381006431785 63.19999999999999
242.86220819706844 59.39999999999998
242.93060035213227 62.39999999999998
242.99898652716664 58.39999999999998
243.06736671982873 75.80000000000001
243.1357409277757 57.80000000000001
243.20410914866488 43.19999999999999
243.2724713801535 39.0
243.34082761989868 62.19999999999999
243.4091778655577 86.80000000000001
243.4775221147878 51.39999999999998
243.54586036524617 64.0
243.6141926145901 13.0
243.68251886047673 68.39999999999998
243.75083910056335 94.0
243.81915333250717 68.60000000000002
243.88746155396538 76.39999999999998
243.9557637625952 69.60000000000002
244.02405995605395 35.39999999999998
244.09235013199873 33.80000000000001
244.16063428808684 85.0
244.22891242197548 77.19999999999999
244.2971845313219 52.19999999999999
244.36545061378328 55.0
244.43371066701684 77.39999999999998
244.50196468867986 50.80000000000001
244.57021267642955 20.0
244.6384546279231 24.19999999999999
244.70669054081776 57.60000000000002
244.77492041277077 56.0
244.8431442414393 83.19999999999999
244.9113620244806 43.60000000000002
244.97957375955193 68.0
245.04777944431046 56.19999999999999
245.11597907641348 57.80000000000001
245.18417265351817 60.19999999999999
245.25236017328172 23.600000000000023
245.32054163336142 57.19999999999999
245.38871703141444 45.60000000000002
245.4568863650981 50.0
245.5250496320695 56.39999999999998
245.59320682998595 71.39999999999998
245.6613579565046 67.39999999999998
245.72950300928275 65.80000000000001
245.79764198597758 57.60000000000002
245.86577488424635 49.19999999999999
245.93390170174624 59.0
246.00202243613452 44.19999999999999
246.07013708506838 77.39999999999998
246.13824564620506 84.39999999999998
246.20634811720177 45.60000000000002
246.27444449571576 48.0
246.34253477940422 54.60000000000002
246.4106189659244 69.19999999999999
246.47869705293348 64.79999999999995
246.5467690380888 37.39999999999998
246.61483491904744 83.39999999999998
246.68289469346672 63.80000000000001
246.75094835900381 70.19999999999999
246.818995913316 13.399999999999977
246.88703735406045 97.80000000000001
246.9550726788944 70.39999999999998
247.02310188547506 80.39999999999998
247.09112497145972 27.399999999999977
247.15914193450556 45.0
247.2271527722698 50.19999999999999
247.29515748240965 73.80000000000001
247.36315606258233 54.19999999999999
247.43114851044513 67.60000000000002
247.49913482365523 41.0
247.56711499986983 6.600000000000023
247.63508903674622 47.39999999999998
247.70305693194155 42.19999999999999
247.77101868311308 44.60000000000002
247.83897428791803 80.60000000000002
247.90692374401365 54.0
247.97486704905717 90.0
248.04280420070572 70.0
248.11073519661664 63.80000000000001
248.17866003444706 55.39999999999998
248.24657871185428 59.60000000000002
248.3144912264955 52.39999999999998
248.38239757602793 20.80000000000001
248.4502977581088 75.39999999999998
248.51819177039533 43.80000000000001
248.58607961054477 54.39999999999998
248.6539612762143 57.0
248.72183676506117 47.80000000000001
248.78970607474264 72.80000000000001
248.85756920291587 26.399999999999977
248.9254261472381 96.19999999999999
248.9932769053666 59.60000000000002
249.06112147495855 57.19999999999999
249.12895985367118 60.19999999999999
249.19679203916172 64.80000000000001
249.26461802908742 47.19999999999999
249.33243782110546 64.0
249.40025141287308 67.0
249.46805880204747 56.60000000000002
249.53585998628594 36.60000000000002
249.60365496324565 33.39999999999998
249.67144373058383 49.0
249.73922628595776 40.39999999999998
249.80700262702456 28.19999999999999
249.87477275144153 31.399999999999977
249.9425366568659 44.19999999999999
250.01029434095486 55.0
250.07804580136568 26.80000000000001
250.1457910357555 68.80000000000001
250.2135300417816 54.0
250.2812628171012 53.60000000000002
250.34898935937156 30.19999999999999
250.41670966624983 47.60000000000002
250.48442373539328 37.60000000000002
250.55213156445913 39.60000000000002
250.61983315110461 33.60000000000002
250.6875284929869 41.60000000000002
250.7552175877633 45.19999999999999
250.822900433091 72.60000000000002
250.8905770266272 41.0
250.95824736602913 31.0
251.02591144895405 58.19999999999999
251.09356927305913 26.0
251.16122083600166 18.80000000000001
251.2288661354388 56.19999999999999
251.29650516902785 16.399999999999977
251.36413793442594 54.0
251.43176442929038 83.0
251.49938465127832 49.60000000000002
251.56699859804704 52.19999999999999
251.63460626725376 16.600000000000023
251.70220765655563 6.199999999999989
251.76980276361002 12.800000000000011
251.837391586074 44.19999999999999
251.9049741216049 14.800000000000011
251.9725503678599 24.80000000000001
252.04012032249622 39.80000000000001
252.1076839831711 42.39999999999998
252.17524134754177 28.0
252.24279241326548 42.39999999999998
252.31033717799934 33.39999999999998
252.37787563940068 44.60000000000002
252.44540779512673 12.199999999999989
252.51293364283467 15.600000000000023
252.58045318018173 26.600000000000023
252.64796640482515 45.39999999999998
252.71547331442213 39.60000000000002
252.78297390662988 68.0
252.8504681791057 42.80000000000001
252.91795612950676 42.0
252.9854377554903 27.19999999999999
253.0529130547135 56.19999999999999
253.12038202483367 24.399999999999977
253.18784466350795 17.80000000000001
253.2553009683936 43.39999999999998
253.32275093714787 1.1999999999999886
253.39019456742795 20.600000000000023
253.45763185689106 23.600000000000023
253.52506280319446 48.0
253.59248740399534 67.19999999999999
253.65990565695088 35.19999999999999
253.72731755971841 57.0
253.79472310995513 29.80000000000001
253.86212230531822 21.399999999999977
253.92951514346493 28.19999999999999
253.99690162205243 44.19999999999999
254.064281738738 10.800000000000011
254.1316554911789 44.39999999999998
254.1990228770323 21.600000000000023
254.2663838939554 30.600000000000023
254.33373853960552 29.0
254.40108681163977 35.60000000000002
254.46842870771545 20.399999999999977
254.53576422548971 -3.3999999999999773
254.6030933626199 35.60000000000002
254.67041611676316 35.80000000000001
254.7377324855767 45.60000000000002
254.80504246671774 34.0
254.8723460578436 49.60000000000002
254.9396432566114 21.80000000000001
255.0069340606784 23.19999999999999
255.07421846770183 46.60000000000002
255.14149647533893 31.19999999999999
255.20876808124692 51.39999999999998
255.27603328308294 14.600000000000023
255.3432920785043 5.0
255.41054446516827 11.600000000000023
255.47779044073198 2.3999999999999773
255.54503000285268 -6.199999999999989
255.6122631491876 42.60000000000002
255.67948987739393 25.399999999999977
255.746710185129 49.80000000000001
255.81392407004992 19.0
255.88113152981398 8.0
255.94833256207838 20.600000000000023
256.0155271645003 -5.199999999999989
256.0827153347371 32.39999999999998
256.14989707044583 -5.800000000000011
256.21707236928387 29.399999999999977
256.28424122890834 18.80000000000001
256.35140364697645 19.80000000000001
256.4185596211455 23.0
256.4857091490727 20.80000000000001
256.5528522284153 51.39999999999998
256.61998885683045 56.60000000000002
256.68711903197544 23.399999999999977
256.75424275150743 31.19999999999999
256.8213600130837 15.800000000000011
256.8884708143615 53.39999999999998
256.95557515299794 35.80000000000001
257.0226730266503 48.39999999999998
257.0897644329758 9.0
257.15684936963174 47.39999999999998
257.22392783427523 28.80000000000001
257.2909998245636 69.19999999999999
257.358065338154 15.0
257.4251243727037 34.80000000000001
257.4921769258699 27.399999999999977
257.55922299530977 50.80000000000001
257.62626257868067 18.0
257.6932956736397 6.600000000000023
257.7603222778442 23.600000000000023
257.82734238895125 24.80000000000001
257.8943560046182 14.399999999999977
257.96136312250206 6.800000000000011
258.0283637402604 29.600000000000023
258.09535785555016 27.600000000000023
258.1623454660287 7.800000000000011
258.22932656935325 54.19999999999999
258.29630116318094 39.60000000000002
258.36326924516914 71.19999999999999
258.43023081297486 24.600000000000023
258.49718586425547 65.0
258.56413439666824 59.60000000000002
258.6310764078703 52.80000000000001
258.6980118955189 7.199999999999989
258.7649408572712 44.60000000000002
258.8318632907845 41.60000000000002
258.89877919371605 38.39999999999998
258.96568856372306 47.80000000000001
259.0325913984627 52.19999999999999
259.09948769559225 60.39999999999998
259.1663774527689 76.80000000000001
259.2332606676499 -6.800000000000011
259.3001373378924 57.19999999999999
259.3670074611538 41.0
259.4338710350911 33.19999999999999
259.5007280573617 86.39999999999998
259.5675785256227 79.60000000000002
259.6344224375313 57.80000000000001
259.7012597907449 65.0
259.7680905829207 45.19999999999999
259.8349148117158 54.60000000000002
259.9017324747874 31.19999999999999
259.96854356979287 58.19999999999999
260.0353480943894 25.600000000000023
260.10214604623417 64.19999999999999
260.16893742298436 67.80000000000001
260.2357222222973 24.19999999999999
260.30250044183015 42.80000000000001
260.36927207924015 34.39999999999998
260.4360371321845 55.60000000000002
260.5027955983204 72.19999999999999
260.5695474753052 50.80000000000001
260.6362927607961 102.19999999999999
260.70303145245015 89.80000000000001
260.76976354792475 79.19999999999999
260.83648904487706 83.39999999999998
260.90320794096436 62.39999999999998
260.96992023384377 38.39999999999998
261.0366259211726 71.39999999999998
261.103325000608 59.80000000000001
261.17001746980725 34.19999999999999
261.2367033264276 44.0
261.30338256812615 78.0
261.3700551925603 41.0
261.4367211973872 21.80000000000001
261.503380580264 35.39999999999998
261.570033338848 83.0
261.6366794707964 66.39999999999998
261.70331897376656 86.19999999999999
261.76995184541545 68.60000000000002
261.83657808340047 66.60000000000002
261.90319768537876 91.0
261.9698106490076 95.80000000000001
262.03641697194416 52.39999999999998
262.1030166518458 115.0
262.1696096863696 73.19999999999999
262.2361960731728 93.60000000000002
262.30277580991265 105.19999999999999
262.3693488942464 95.0
262.4359153238313 98.80000000000001
262.5024750963245 84.39999999999998
262.5690282093832 75.80000000000001
262.6355746606647 69.80000000000001
262.7021144478262 69.80000000000001
262.76864756852495 101.39999999999998
262.8351740204181 98.0
262.901693801163 77.39999999999998
262.9682069084167 87.0
263.0347133398365 127.19999999999999
263.10121309307976 81.0
263.16770616580357 121.19999999999999
263.23419255566506 93.60000000000002
263.3006722603217 71.39999999999998
263.3671452774305 93.19999999999999
263.4336116046489 104.0
263.5000712396338 102.19999999999999
263.5665241800428 109.19999999999999
263.6329704235328 82.60000000000002
263.6994099677612 106.0
263.7658428103852 107.39999999999998
263.832268949062 84.19999999999999
263.8986883814489 94.80000000000001
263.96510110520296 106.0
264.0315071179816 82.39999999999998
264.09790641744195 87.0
264.1642990012412 121.80000000000001
264.2306848670366 99.20000000000005
264.2970640124854 97.39999999999998
264.36343643524475 118.80000000000001
264.42980213297204 110.0
264.4961611033243 85.60000000000002
264.56251334395887 96.39999999999998
264.6288588525329 93.0
264.6951976267037 126.39999999999998
264.7615296641285 94.80000000000001
264.8278549624644 86.39999999999998
264.89417351936874 120.80000000000001
264.9604853324987 102.0
265.0267903995115 86.39999999999998
265.09308871806445 154.60000000000002
265.1593802858146 112.60000000000002
265.22566510041935 97.39999999999998
265.2919431595358 108.39999999999998
265.3582144608212 132.0
265.42447900193287 99.39999999999998
265.4907367805279 101.80000000000001
265.5569877942636 101.79999999999995
265.6232320407971 138.60000000000002
265.6894695177858 120.39999999999998
265.7557002228868 137.60000000000002
265.8219241537573 95.79999999999995
265.8881413080546 97.60000000000002
265.9543516834359 119.0
266.0205552775584 107.60000000000002
266.0867520880794 117.0
266.152942112656 122.39999999999998
266.2191253489454 117.60000000000002
266.285301794605 138.2
266.351471447292 99.19999999999999
266.41763430466347 126.39999999999998
266.4837903643768 110.39999999999998
266.54993962408906 133.79999999999995
266.6160820814576 113.39999999999998
266.6822177341396 109.79999999999995
266.74834657979227 129.0
266.8144686160729 135.79999999999995
266.88058384063856 126.39999999999998
266.94669225114666 96.20000000000005
267.0127938452543 103.39999999999998
267.0788886206188 133.60000000000002
267.14497657489727 98.20000000000005
267.211057705747 95.0
267.27713201082526 118.39999999999998
267.34319948778915 132.79999999999995
267.409260134296 99.79999999999995
267.475313948003 120.60000000000002
267.5413609265674 118.60000000000002
267.6074010676464 123.39999999999998
267.6734343688972 108.79999999999995
267.73946082797704 136.0
267.80548044254317 101.20000000000005
267.8714932102527 153.20000000000005
267.9374991287631 127.39999999999998
268.00349819573137 130.2
268.06949040881483 151.0
268.1354757656707 125.39999999999998
268.2014542639562 119.60000000000002
268.2674259013285 132.39999999999998
268.33339067544483 133.79999999999995
268.39934858396254 109.60000000000002
268.4652996245388 140.0
268.5312437948307 119.20000000000005
268.5971810924955 108.79999999999995
268.6631115151906 140.79999999999995
268.7290350605731 157.20000000000005
268.79495172630027 140.20000000000005
268.8608615100293 81.60000000000002
268.92676440941733 130.20000000000005
268.99266042212173 152.20000000000005
269.0585495457996 150.39999999999998
269.1244317781083 117.39999999999998
269.190307116705 119.39999999999998
269.2561755592469 131.39999999999998
269.3220371033912 114.39999999999998
269.38789174679516 144.2
269.453739487116 166.60000000000002
269.5195803220109 126.20000000000005
269.5854142491372 104.80000000000001
269.651241266152 188.60000000000002
269.71706137071266 140.60000000000002
269.7828745604763 133.20000000000005
269.8486808331001 131.60000000000002
269.91448018624146 148.0
269.9802726175574 171.0
270.04605812470527 145.60000000000002
270.1118367053422 160.0
270.17760835712556 150.79999999999995
270.2433730777125 153.79999999999995
270.30913086476016 158.39999999999998
270.37488171592594 143.79999999999995
270.4406256288669 147.2
270.50636260124037 155.60000000000002
270.57209263070354 129.60000000000002
270.6378157149136 102.39999999999998
270.70353185152777 158.20000000000005
270.76924103820335 146.2
270.83494327259757 136.39999999999998
270.9006385523675 121.60000000000002
270.9663268751705 161.0
271.0320082386638 127.39999999999998
271.09768264050456 89.20000000000005
271.16335007835005 118.80000000000001
271.22901054985743 129.20000000000005
271.2946640526841 127.0
271.360310584487 176.20000000000005
271.4259501429236 106.60000000000002
271.491582725651 151.60000000000002
271.5572083303265 141.60000000000002
271.6228269546073 119.39999999999998
271.68843859615055 106.20000000000005
271.7540432526136 94.79999999999995
271.81964092165344 126.60000000000002
271.8852316009276 130.60000000000002
271.95081528809317 128.39999999999998
272.0163919808073 104.60000000000002
272.0819616767274 182.39999999999998
272.14752437351046 123.0
272.2130800688139 112.60000000000002
272.27862876029485 126.39999999999998
272.3441704456106 114.19999999999999
272.40970512241825 144.0
272.4752327883751 112.20000000000005
272.54075344113835 131.60000000000002
272.6062670783653 121.79999999999995
272.67177369771315 147.39999999999998
272.737273296839 157.79999999999995
272.80276587340023 127.0
272.868251425054 146.60000000000002
272.93372994945753 110.60000000000002
272.9992014442681 139.0
273.0646659071428 107.60000000000002
273.13012333573903 134.2
273.1955737277139 121.20000000000005
273.2610170807247 130.8
273.32645339242856 128.0
273.3918826604828 146.0
273.45730488254446 134.0
273.52272005627106 119.39999999999998
273.58812817931965 101.0
273.6535292493475 129.60000000000002
273.7189232640118 147.20000000000005
273.7843102209697 125.20000000000005
273.84969011787865 133.39999999999998
273.9150629523956 119.80000000000001
273.98042872217803 137.79999999999995
274.045787424883 142.60000000000002
274.11113905816774 155.60000000000002
274.1764836196895 140.60000000000002
274.24182110710564 143.60000000000002
274.3071515180731 140.79999999999995
274.3724748502493 168.39999999999998
274.4377911012915 157.60000000000002
274.5031002688568 189.39999999999998
274.5684023506025 146.79999999999995
274.63369734418586 170.2
274.698985247264 147.20000000000005
274.7642660574941 195.39999999999998
274.8295397725336 146.0
274.8948063900396 169.20000000000005
274.9600659076693 159.39999999999998
275.02531832307983 124.60000000000002
275.0905636339287 140.79999999999995
275.15580183787284 195.79999999999995
275.2210329325697 146.20000000000005
275.2862569156764 152.60000000000002
275.35147378485016 129.0
275.41668353774816 146.60000000000002
275.4818861720277 146.0
275.54708168534603 173.0
275.61227007536024 200.39999999999998
275.6774513397277 140.20000000000005
275.7426254761056 130.0
275.8077924821511 167.79999999999995
275.87295235552153 176.0
275.93810509387396 189.79999999999995
276.0032506948657 175.60000000000002
276.06838915615407 191.0
276.13352047539615 175.79999999999995
276.1986446502492 149.0
276.2637616783705 188.60000000000002
276.3288715574172 176.79999999999995
276.39397428504657 222.0
276.4590698589158 176.20000000000005
276.5241582766822 194.79999999999995
276.5892395360029 186.79999999999995
276.65431363453513 198.79999999999995
276.7193805699361 213.79999999999995
276.7844403398632 189.60000000000002
276.84949294197344 186.39999999999998
276.9145383739242 205.39999999999998
276.97957663337263 191.20000000000005
277.0446077179759 269.4
277.10963162539133 247.0
277.1746483532761 307.0
277.23965789928747 301.79999999999995
277.30466026108263 400.20000000000005
277.36965543631885 437.4
277.43464342265327 399.79999999999995
277.4996242177432 493.0
277.5645978192457 569.2
277.62956422481824 746.5999999999999
277.69452343211793 713.5999999999999
277.759475438802 541.0
277.8244202425276 551.4
277.889357840952 552.4
277.9542882317325 553.2
278.0192114125263 558.8
278.0841273809906 460.20000000000005
278.1490361347826 499.4
278.21393767155945 533.6
278.2788319889785 570.4
278.34371908469694 622.4000000000001
278.4085989563721 674.0
278.473471601661 781.8
278.53833701822094 898.4000000000001
278.6031952037092 1140.6
278.66804615578303 1729.1999999999998
278.7328898720995 2613.2
278.797726350316 2751.2
278.86255558808966 2297.6
278.92737758307777 2188.4
278.9921923329374 2469.8
279.056999835326 3143.6
279.1218000879006 4262.2
279.18659308831855 5048.2
279.25137883423696 5063.6
279.31615732331323 4152.4
279.3809285532044 3805.3999999999996
279.4456925215679 4188.6
279.51044922606064 3905.8
279.5751986643401 3113.0
279.63994083406357 2630.0
279.704675732888 2544.6
279.76940335847075 2919.0
279.83412370846906 3888.8
279.8988367805402 4832.2
279.9635425723412 4492.8
280.0282410815296 3183.0
280.0929323057624 2213.4
280.1576162426968 1637.6
280.2222928899901 1355.8
280.2869622452996 1154.8
280.3516243062824 1004.0
280.4162790705958 840.5999999999999
280.48092653589697 794.8
280.5455666998431 705.8
280.6101995600916 694.4000000000001
280.67482511429944 626.8
280.73944336012397 560.2
280.80405429522244 554.4
280.86865791725205 547.4
280.93325422387005 510.6
280.9978432127336 489.20000000000005
281.0624248815 457.4
281.1269992278264 429.6
281.1915662493701 388.0
281.2561259437883 400.79999999999995
281.32067830873814 375.20000000000005
281.3852233418769 353.0
281.44976104086186 384.20000000000005
281.51429140335017 343.6
281.57881442699914 334.4
281.6433301094659 320.0
281.70783844840776 308.20000000000005
281.77233944148185 341.20000000000005
281.83683308634545 332.4
281.9013193806558 318.79999999999995
281.9657983220701 305.79999999999995
282.03026990824554 314.6
282.0947341368394 235.20000000000005
282.1591910055089 264.4
282.2236405119113 305.20000000000005
282.28808265370367 292.6
282.35251742854336 264.0
282.41694483408753 268.4
282.48136486799353 243.20000000000005
282.54577752791846 254.60000000000002
282.6101828115196 276.4
282.6745807164542 218.20000000000005
282.7389712403794 227.20000000000005
282.8033543809525 251.79999999999995
282.86773013583064 259.79999999999995
282.9320985026711 267.6
282.99645947913115 212.60000000000002
283.0608130628679 216.20000000000005
283.12515925153866 224.20000000000005
283.18949804280066 251.20000000000005
283.25382943431106 242.0
283.31815342372715 228.20000000000005
283.38247000870615 261.79999999999995
283.44677918690525 271.0
283.5110809559817 246.79999999999995
283.57537531359264 248.20000000000005
283.63966225739546 247.79999999999995
283.70394178504716 274.6
283.7682138942052 257.20000000000005
283.8324785825267 202.79999999999995
283.8967358476688 227.79999999999995
283.9609856872888 257.4
284.02522809904406 262.0
284.08946308059154 245.0
284.15369062958865 268.6
284.2179107436926 284.6
284.28212342056054 336.79999999999995
284.34632865784977 318.4
284.4105264532174 330.0
284.4747168043208 331.20000000000005
284.53889970881704 393.0
284.6030751643635 471.0
284.6672431686173 605.8
284.73140371923574 1050.8
284.7955568138759 1578.6
284.8597024501952 1624.6
284.9238406258508 1009.4000000000001
284.98797133849985 670.8
285.05209458579964 545.2
285.1162103654073 464.20000000000005
285.1803186749802 402.6
285.2444195121755 364.6
285.3085128746503 334.79999999999995
285.3725987600621 307.0
285.4366771660679 258.79999999999995
285.5007480903249 269.6
285.5648115304905 288.4
285.62886748422187 265.4
285.69291594917615 265.79999999999995
285.75695692301065 288.6
285.82099040338255 247.39999999999998
285.8850163879491 256.0
285.9490348743675 212.60000000000002
286.01304586029494 233.0
286.07704934338875 227.79999999999995
286.141045321306 274.20000000000005
286.20503379170407 258.4
286.26901475224014 233.60000000000002
286.3329882005714 208.60000000000002
286.3969541343551 288.6
286.4609125512484 232.60000000000002
286.52486344890866 230.39999999999998
286.588806824993 223.39999999999998
286.65274267715864 229.79999999999995
286.7166710030628 184.60000000000002
286.7805918003628 218.0
286.84450506671584 229.39999999999998
286.908410799779 217.60000000000002
286.97230899720967 233.39999999999998
287.03619965666496 243.0
287.10008277580215 232.60000000000002
287.1639583522785 202.20000000000005
287.2278263837512 230.79999999999995
287.2916868678775 204.20000000000005
287.3555398023145 221.20000000000005
287.4193851847196 208.79999999999995
287.48322301274993 242.60000000000002
287.54705328406277 205.20000000000005
287.61087599631526 239.79999999999995
287.6746911471646 243.0
287.7384987342682 224.39999999999998
287.802298755283 211.39999999999998
287.86609120786653 226.20000000000005
287.9298760896758 259.0
287.99365339836817 217.20000000000005
288.0574231316008 210.39999999999998
288.12118528703087 229.0
288.1849398623157 195.0
288.24868685511245 199.60000000000002
288.3124262630783 231.0
288.3761580838706 202.20000000000005
288.4398823151465 220.0
288.50359895456324 217.79999999999995
288.56730799977805 194.39999999999998
288.63100944844814 200.60000000000002
288.6947032982306 230.79999999999995
288.7583895467829 220.20000000000005
288.8220681917622 212.79999999999995
288.8857392308256 213.20000000000005
288.9494026616305 205.20000000000005
289.0130584818339 208.60000000000002
289.07670668909327 209.20000000000005
289.14034728106566 223.60000000000002
289.20398025540834 227.60000000000002
289.26760560977857 236.39999999999998
289.3312233418335 229.39999999999998
289.39483344923036 197.39999999999998
289.45843592962655 215.39999999999998
289.52203078067913 230.79999999999995
289.5856180000453 198.20000000000005
289.6491975853824 221.60000000000002
289.71276953434756 190.39999999999998
289.77633384459807 204.79999999999995
289.8398905137911 206.79999999999995
289.90343953958387 216.79999999999995
289.9669809196337 227.79999999999995
290.03051465159774 240.60000000000002
290.09404073313317 231.79999999999995
290.15755916189727 222.60000000000002
290.22106993554723 240.20000000000005
290.2845730517404 208.79999999999995
290.34806850813385 211.39999999999998
290.41155630238484 192.60000000000002
290.47503643215066 253.20000000000005
290.5385088950885 228.0
290.60197368885554 203.0
290.66543081110905 232.39999999999998
290.72888025950624 229.79999999999995
290.7923220317044 252.60000000000002
290.8557561253606 289.0
290.91918253813213 239.79999999999995
290.98260126767633 254.79999999999995
291.0460123116503 351.4
291.10941566771135 310.79999999999995
291.1728113335166 281.4
291.2361993067234 256.4
291.2995795849888 290.4
291.36295216597017 231.79999999999995
291.4263170473247 248.60000000000002
291.48967422670967 263.0
291.55302370178214 266.79999999999995
291.61636547019947 287.20000000000005
291.67969952961886 236.20000000000005
291.7430258776975 304.4
291.8063445120926 280.4
291.8696554304615 258.79999999999995
291.9329586304613 321.0
291.9962541097493 297.6
292.0595418659827 326.4
292.1228218968187 375.0
292.1860941999146 388.0
292.24935877292745 454.20000000000005
292.3126156135147 632.8
292.3758647193334 915.0
292.4391060880409 976.4000000000001
292.50233971729426 832.5999999999999
292.5655656047509 699.4000000000001
292.6287837480679 600.6
292.6919941449026 523.6
292.7551967929121 551.6
292.81839168975375 540.2
292.88157883308475 569.8
292.9447582205622 602.2
293.00792984984344 661.0
293.07109371858564 887.5999999999999
293.13424982444604 1403.6
293.1973981650819 1643.2
293.26053873815044 1396.6
293.32367154130884 1162.6
293.3867965722143 969.2
293.4499138285241 843.5999999999999
293.5130233078955 751.2
293.57612500798564 614.0
293.63921892645186 580.2
293.7023050609512 554.2
293.76538340914107 538.2
293.82845396867856 464.6
293.891516737221 449.4
293.95457171242555 387.20000000000005
294.0176188919495 421.0
294.0806582734499 383.0
294.1436898545841 340.20000000000005
294.20671363300943 351.6
294.269729606383 377.79999999999995
294.332737772362 382.6
294.39573812860374 364.0
294.45873067276534 340.20000000000005
294.5217154025041 358.20000000000005
294.58469231547724 317.79999999999995
294.647661409342 358.20000000000005
294.71062268175547 315.79999999999995
294.7735761303751 311.6
294.83652175285795 301.4
294.89945954686124 304.6
294.96238951004227 320.79999999999995
295.0253116400583 306.6
295.0882259345664 309.0
295.151132391224 263.79999999999995
295.21403100768816 313.6
295.2769217816162 326.4
295.3398047106652 271.79999999999995
295.40267979249256 277.20000000000005
295.4655470247554 320.4
295.52840640511096 329.4
295.59125793121643 281.4
295.6541016007291 277.20000000000005
295.7169374113063 259.6
295.77976536060504 251.20000000000005
295.84258544628267 272.79999999999995
295.9053976659963 256.0
295.9682020174033 253.0
296.03099849816084 252.79999999999995
296.0937871059261 272.4
296.15656783835635 271.0
296.2193406931088 309.6
296.28210566784065 263.6
296.34486276020914 308.0
296.40761196787156 268.4
296.470353288485 292.0
296.53308671970683 267.4
296.5958122591942 281.79999999999995
296.6585299046043 256.6
296.7212396535944 286.4
296.7839415038217 275.6
296.8466354529436 269.20000000000005
296.90932149861703 248.79999999999995
296.97199963849937 305.0
297.0346698702478 273.20000000000005
297.0973321915196 248.60000000000002
297.15998659997194 243.0
297.2226330932621 278.0
297.2852716690473 268.79999999999995
297.3479023249847 264.6
297.4105250587316 290.4
297.4731398679451 309.6
297.5357467502826 283.6
297.59834570340126 274.0
297.6609367249582 261.6
297.7235198126108 290.20000000000005
297.7860949640162 282.4
297.84866217683157 269.20000000000005
297.91122144871423 280.20000000000005
297.97377277732136 293.4
298.03631616031015 295.4
298.0988515953379 298.20000000000005
298.16137908006186 275.79999999999995
298.2238986121391 267.4
298.286410189227 258.0
298.3489138089828 301.4
298.4114094690636 286.79999999999995
298.4738971671266 259.0
298.5363769008292 260.4
298.5988486678285 283.20000000000005
298.6613124657817 285.4
298.7237682923461 240.79999999999995
298.7862161451789 255.20000000000005
298.8486560219373 244.39999999999998
298.91108792027865 245.79999999999995
298.97351183786 275.20000000000005
299.03592777233865 228.79999999999995
299.0983357213718 267.0
299.16073568261675 256.79999999999995
299.22312765373056 266.0
299.2855116323706 234.39999999999998
299.34788761619416 295.4
299.4102556028583 285.4
299.47261559002027 281.6
299.53496757533736 206.79999999999995
299.5973115564667 274.4
299.6596475310656 268.6
299.72197549679134 239.60000000000002
299.78429545130103 259.4
299.84660739225194 265.0
299.9089113173013 263.4
299.97120722410625 271.6
300.03349511032417 258.79999999999995
300.0957749736121 274.0
300.1580468116274 257.20000000000005
300.2203106220273 239.0
300.28256640246894 250.20000000000005
300.34481415060964 268.4
300.4070538641065 248.39999999999998
300.46928554061685 245.60000000000002
300.5315091777979 254.0
300.59372477330686 264.4
300.65593232480086 242.60000000000002
300.71813182993725 311.79999999999995
300.7803232863733 263.0
300.8425066917661 252.39999999999998
300.9046820437729 251.39999999999998
300.966849340051 243.79999999999995
301.0290085782575 290.6
301.09115975604976 244.79999999999995
301.15330287108486 276.6
301.21543792102017 256.4
301.2775649035128 265.79999999999995
301.33968381622014 267.4
301.40179465679915 262.20000000000005
301.46389742290734 286.6
301.5259921122017 286.0
301.5880787223396 277.0
301.6501572509783 235.0
301.71222769577474 268.4
301.7742900543865 228.20000000000005
301.8363443244706 279.0
301.8983905036843 247.20000000000005
301.96042858968485 278.0
302.0224585801295 263.4
302.0844804726754 226.20000000000005
302.1464942649798 282.20000000000005
302.2084999547 265.79999999999995
302.27049753949314 268.0
302.33248701701643 256.4
302.39446838492717 272.6
302.4564416408825 307.79999999999995
302.5184067825397 221.20000000000005
302.58036380755595 295.79999999999995
302.6423127135886 264.20000000000005
302.70425349829463 245.20000000000005
302.76618615933154 265.79999999999995
302.8281106943564 247.20000000000005
302.8900271010265 290.20000000000005
302.95193537699896 225.60000000000002
303.0138355199311 263.20000000000005
303.0757275274801 253.60000000000002
303.1376113973032 278.79999999999995
303.1994871270577 258.0
303.2613547144006 246.0
303.32321415698937 281.79999999999995
303.3850654524812 258.0
303.4469085985331 231.39999999999998
303.50874359280255 282.20000000000005
303.5705704329467 275.6
303.6323891166227 296.6
303.6941996414878 288.6
303.75600200519926 284.4
303.81779620541425 260.6
303.8795822397901 270.4
303.94136010598396 280.0
304.003129801653 256.79999999999995
304.06489132445455 288.4
304.12664467204587 292.4
304.1883898420839 291.79999999999995
304.2501268322262 250.20000000000005
304.31185564012986 235.79999999999995
304.3735762634521 255.20000000000005
304.43528869985016 271.79999999999995
304.4969929469812 281.20000000000005
304.5586890025026 288.79999999999995
304.6203768640715 249.20000000000005
304.68205652934495 273.79999999999995
304.7437279959804 267.20000000000005
304.805391261635 258.20000000000005
304.86704632396606 290.79999999999995
304.92869318063066 240.0
304.99033182928616 297.6
305.05196226758966 301.20000000000005
305.1135844931984 262.79999999999995
305.1751985037697 296.79999999999995
305.2368042969607 283.79999999999995
305.29840187042873 283.6
305.35999122183085 314.20000000000005
305.42157234882444 326.0
305.48314524906664 279.6
305.54470992021464 286.6
305.6062663599257 277.0
305.6678145658571 298.6
305.72935453566595 266.20000000000005
305.7908862670096 290.79999999999995
305.8524097575453 301.0
305.9139250049301 304.0
305.97543200682134 288.20000000000005
306.03693076087626 267.0
306.098421264752 294.79999999999995
306.1599035161058 344.20000000000005
306.22137751259504 292.20000000000005
306.2828432518767 302.0
306.3443007316082 304.6
306.40574994944666 329.6
306.46719090304936 308.0
306.5286235900735 333.20000000000005
306.59004800817627 318.20000000000005
306.65146415501493 324.4
306.71287202824675 286.20000000000005
306.77427162552885 316.6
306.8356629445185 278.0
306.89704598287295 308.4
306.95842073824946 316.6
307.01978720830516 307.79999999999995
307.0811453906973 314.79999999999995
307.1424952830832 314.20000000000005
307.20383688311995 320.0
307.26517018846477 321.79999999999995
307.326495196775 290.6
307.3878119057078 317.20000000000005
307.44912031292046 324.0
307.51042041607013 301.6
307.571712212814 312.4
307.6329957008094 319.20000000000005
307.69427087771345 310.4
307.7555377411835 308.6
307.81679628887656 330.4
307.8780465184501 306.6
307.9392884275612 333.0
308.00052201386717 318.4
308.06174727502514 341.0
308.1229642086924 371.20000000000005
308.1841728125262 341.20000000000005
308.2453730841837 383.0
308.3065650213221 356.4
308.36774862159876 363.0
308.42892388267074 368.0
308.4900908021953 413.20000000000005
308.5512493778297 392.6
308.6123996072313 428.20000000000005
308.6735414880571 385.20000000000005
308.7346750179644 385.20000000000005
308.7958001946104 423.79999999999995
308.8569170156524 395.79999999999995
308.9180254787476 423.20000000000005
308.97912558155326 469.20000000000005
309.0402173217265 440.4
309.10130069692457 402.6
309.1623757048048 420.4
309.2234423430243 385.4
309.2845006092403 378.4
309.3455505011101 383.6
309.4065920162909 380.79999999999995
309.4676251524399 349.79999999999995
309.5286499072143 388.79999999999995
309.5896662782714 364.4
309.65067426326834 352.4
309.7116738598624 375.4
309.7726650657108 379.4
309.8336478784707 397.20000000000005
309.8946222957994 334.79999999999995
309.95558831535413 373.4
310.0165459347921 352.0
310.07749515177045 335.79999999999995
310.13843596394656 319.6
310.1993683689775 321.4
310.2602923645205 348.4
310.32120794823294 355.79999999999995
310.38211511777195 357.79999999999995
310.44301387079474 371.79999999999995
310.5039042049586 381.6
310.5647861179206 387.79999999999995
310.6256596073382 330.20000000000005
310.68652467086844 337.6
310.74738130616856 357.0
310.8082295108958 336.6
310.8690692827074 364.79999999999995
310.92990061926065 352.0
310.99072351821275 347.0
311.05153797722085 345.79999999999995
311.1123439939422 324.6
311.173141566034 371.6
311.2339306911536 337.4
311.29471136695804 343.20000000000005
311.35548359110476 384.0
311.4162473612507 371.79999999999995
311.47700267505337 362.20000000000005
311.5377495301699 337.0
311.5984879242574 353.79999999999995
311.65921785497324 348.20000000000005
311.71993931997457 353.6
311.7806523169186 353.0
311.84135684346256 367.79999999999995
311.9020528972638 347.20000000000005
311.96274047597933 352.79999999999995
312.02341957726657 350.0
312.0840901987827 335.20000000000005
312.1447523381848 358.79999999999995
312.2054059931303 328.0
312.26605116127627 346.20000000000005
312.32668784027993 359.20000000000005
312.38731602779865 322.20000000000005
312.4479357214895 345.4
312.5085469190098 313.79999999999995
312.5691496180168 332.0
312.62974381616766 353.4
312.6903295111196 348.79999999999995
312.75090670052987 352.0
312.8114753820557 364.6
312.87203555335424 399.0
312.9325872120828 359.6
312.99313035589853 381.20000000000005
313.05366498245877 371.0
313.1141910894207 374.79999999999995
313.17470867444143 359.20000000000005
313.23521773517825 367.20000000000005
313.29571826928856 341.79999999999995
313.3562102744293 358.20000000000005
313.4166937482579 341.6
313.4771686884315 395.6
313.53763509260733 397.20000000000005
313.59809295844263 335.4
313.65854228359456 399.6
313.71898306572047 366.20000000000005
313.7794153024775 334.79999999999995
313.8398389915228 328.20000000000005
313.90025413051376 352.6
313.96066071710754 365.20000000000005
314.0210587489613 358.20000000000005
314.0814482237324 365.20000000000005
314.1418291390779 383.6
314.20220149265515 379.79999999999995
314.26256528212133 344.4
314.32292050513365 332.20000000000005
314.3832671593493 345.6
314.4436052424256 372.4
314.50393475201975 350.79999999999995
314.5642556857889 364.6
314.6245680413903 357.79999999999995
314.6848718164813 406.6
314.7451670087189 352.0
314.80545361576054 385.79999999999995
314.8657316352633 369.79999999999995
314.9260010648844 402.20000000000005
314.9862619022813 360.4
315.0465141451109 340.20000000000005
315.10675779103065 348.6
315.1669928376976 345.79999999999995
315.2272192827691 385.20000000000005
315.28743712390235 318.4
315.34764635875456 348.4
315.407846984983 423.0
315.4680390002448 360.79999999999995
315.5282224021973 366.0
315.5883971884976 395.20000000000005
315.6485633568031 369.79999999999995
315.70872090477076 385.79999999999995
315.76886983005807 353.6
315.8290101303221 329.0
315.8891418032201 366.20000000000005
315.94926484640933 381.79999999999995
316.009379257547 341.0
316.0694850342903 364.6
316.1295821742965 340.79999999999995
316.1896706752228 378.79999999999995
316.24975053472645 386.20000000000005
316.3098217504646 367.0
316.36988432009457 367.20000000000005
316.4299382412736 338.79999999999995
316.48998351165875 357.79999999999995
316.5500201289074 380.20000000000005
316.6100480906768 378.20000000000005
316.670067394624 339.4
316.73007803840636 358.20000000000005
316.790080019681 394.0
316.8500733361053 360.4
316.9100579853364 393.0
316.9700339650315 373.4
317.03000127284787 366.6
317.0899599064427 369.6
317.14990986347317 368.79999999999995
317.2098511415967 360.79999999999995
317.2697837384702 368.6
317.32970765175116 348.0
317.38962287909675 362.79999999999995
317.44952941816405 347.0
317.5094272666105 368.20000000000005
317.56931642209315 370.4
317.6291968822693 357.79999999999995
317.6890686447962 369.20000000000005
317.748931707331 390.6
317.80878606753095 360.0
317.86863172305334 348.6
317.9284686715553 389.79999999999995
317.9882969106941 382.4
318.048116438127 323.6
318.1079272515111 348.6
318.1677293485038 363.79999999999995
318.22752272676223 356.4
318.2873073839435 344.6
318.3470833177051 399.4
318.40685052570404 358.6
318.46660900559766 363.79999999999995
318.526358755043 359.79999999999995
318.58609977169755 361.4
318.6458320532184 325.20000000000005
318.70555559726273 370.0
318.76527040148784 316.4
318.8249764635509 341.79999999999995
318.8846737811092 343.6
318.9443623518199 354.0
319.0040421733403 359.4
319.0637132433275 342.6
319.12337555943884 327.0
319.1830291193314 380.20000000000005
319.24267392066264 381.20000000000005
319.30230996108963 380.4
319.3619372382696 351.4
319.42155574985975 368.0
319.4811654935174 339.79999999999995
319.54076646689964 352.0
319.6003586676639 360.4
319.6599420934672 384.0
319.71951674196674 374.20000000000005
319.77908261082 368.0
319.838639697684 376.4
319.898188000216 375.6
319.9577275160733 339.0
320.017258242913 377.4
320.0767801783924 374.20000000000005
320.13629332016876 382.20000000000005
320.1957976658992 339.6
320.25529321324103 430.4
320.3147799598515 345.6
320.3742579033877 397.0
320.4337270415069 387.0
320.4931873718664 376.79999999999995
320.5526388921234 369.79999999999995
320.6120815999351 371.79999999999995
320.6715154929587 344.0
320.73094056885145 364.0
320.7903568252707 388.20000000000005
320.8497642598734 341.79999999999995
320.909162870317 411.20000000000005
320.96855265425864 345.4
321.02793360935556 361.4
321.08730573326505 383.6
321.14666902364417 351.6
321.20602347815026 331.4
321.26536909444053 365.4
321.3247058701722 371.0
321.3840338030025 383.0
321.44335289058864 384.4
321.50266313058785 388.20000000000005
321.56196452065734 383.4
321.62125705845443 351.0
321.68054074163615 361.79999999999995
321.7398155678599 395.79999999999995
321.7990815347829 394.0
321.85833864006224 414.4
321.9175868813552 368.79999999999995
321.9768262563191 366.0
322.03605676261105 382.20000000000005
322.0952783978883 408.4
322.1544911598081 406.6
322.2136950460277 368.0
322.2728900542042 405.20000000000005
322.332076181995 372.79999999999995
322.3912534270572 376.4
322.4504217870481 377.0
322.50958125962484 399.6
322.5687318424447 394.20000000000005
322.6278735331649 387.0
322.68700632944257 417.20000000000005
322.74613022893516 405.0
322.8052452292997 383.20000000000005
322.8643513281935 387.20000000000005
322.92344852327375 396.20000000000005
322.9825368121976 404.4
323.0416161926224 384.0
323.1006866622054 419.79999999999995
323.15974821860374 383.79999999999995
323.2188008594746 343.4
323.27784458247527 376.4
323.336879385263 425.79999999999995
323.39590526549495 350.0
323.45492222082834 371.79999999999995
323.5139302489205 400.6
323.5729293474285 378.4
323.63191951400967 395.79999999999995
323.69090074632123 375.20000000000005
323.7498730420204 432.6
323.80883639876436 420.79999999999995
323.8677908142104 382.20000000000005
323.92673628601574 388.4
323.9856728118375 409.6
324.04460038933297 376.4
324.10351901615945 395.4
324.16242868997404 374.79999999999995
324.22132940843403 346.0
324.2802211691967 402.0
324.33910396991917 414.0
324.3979778082587 362.79999999999995
324.4568426818725 397.79999999999995
324.5156985884178 384.6
324.57454552555186 410.20000000000005
324.6333834909319 412.0
324.6922124822151 409.0
324.7510324970587 406.6
324.80984353312 411.6
324.8686455880561 394.0
324.9274386595243 390.4
324.9862227451818 384.6
325.0449978426858 390.6
325.10376394969353 417.4
325.1625210638623 385.0
325.22126918284926 386.20000000000005
325.2800083043117 431.20000000000005
325.33873842590674 368.6
325.39745954529167 398.6
325.4561716601237 376.79999999999995
325.51487476806005 385.20000000000005
325.5735688667579 360.6
325.63225395387457 400.4
325.6909300270673 402.79999999999995
325.7495970839932 392.6
325.8082551223095 377.0
325.8669041396735 381.79999999999995
325.92554413374245 391.79999999999995
325.98417510217354 391.20000000000005
326.0427970426239 388.0
326.1014099527508 361.6
326.1600138302116 389.4
326.2186086726634 391.4
326.2771944777633 409.0
326.33577124316884 367.0
326.39433896653696 398.6
326.452897645525 390.0
326.51144727779024 389.6
326.56998786098984 400.6
326.62851939278096 361.20000000000005
326.68704187082096 349.6
326.74555529276694 383.20000000000005
326.8040596562763 409.4
326.86255495900605 349.6
326.92104119861347 396.0
326.97951837275593 392.79999999999995
327.0379864790904 384.0
327.09644551527435 374.6
327.15489547896493 388.6
327.2133363678193 380.0
327.27176817949476 365.79999999999995
327.33019091164846 349.4
327.3886045619377 419.0
327.44700912801966 421.0
327.50540460755155 385.79999999999995
327.56379099819065 375.4
327.6221682975941 368.4
327.68053650341926 358.79999999999995
327.73889561332317 386.6
327.79724562496324 366.6
327.85558653599657 387.6
327.9139183440804 354.0
327.972241046872 360.0
328.03055464202856 370.6
328.0888591272074 408.20000000000005
328.14715450006554 415.6
328.2054407582604 422.0
328.2637178994491 409.4
328.3219859212889 374.79999999999995
328.38024482143703 392.20000000000005
328.43849459755063 403.4
328.49673524728706 387.6
328.5549667683035 409.20000000000005
328.6131891582571 383.20000000000005
328.6714024148052 407.4
328.72960653560494 455.6
328.78780151831353 455.6
328.8459873605883 451.20000000000005
328.9041640600863 457.4
328.962331614465 457.79999999999995
329.0204900213814 425.6
329.0786392784928 476.6
329.13677938345654 462.4
329.1949103339296 521.0
329.25303212756944 527.4
329.31114476203317 503.0
329.369248234978 463.79999999999995
329.42734254406116 437.20000000000005
329.48542768693994 397.79999999999995
329.5435036612715 427.20000000000005
329.6015704647131 397.6
329.659628094922 394.20000000000005
329.71767654955534 386.0
329.77571582627036 406.4
329.8337459227244 373.0
329.89176683657445 418.20000000000005
329.9497785654779 381.0
330.007781107092 409.6
330.06577445907396 398.0
330.1237586190809 363.0
330.18173358477014 393.4
330.23969935379887 415.4
330.2976559238243 400.0
330.3556032925037 411.20000000000005
330.4135414574943 403.79999999999995
330.4714704164532 383.79999999999995
330.5293901670378 387.20000000000005
330.5873007069053 402.6
330.64520203371274 386.0
330.7030941451175 444.20000000000005
330.76097703877673 378.0
330.8188507123478 401.4
330.8767151634878 429.6
330.934570389854 389.6
330.9924163891036 377.20000000000005
331.0502531588938 424.4
331.1080806968819 412.4
331.16589900072506 405.4
331.22370806808055 393.79999999999995
331.28150789660555 424.20000000000005
331.3392984839573 411.79999999999995
331.3970798277931 448.4
331.4548519257701 415.4
331.51261477554544 419.0
331.57036837477654 420.20000000000005
331.62811272112043 404.6
331.6858478122345 416.0
331.7435736457759 410.20000000000005
331.8012902194018 408.79999999999995
331.85899753076956 400.79999999999995
331.9166955775362 411.4
331.97438435735916 430.6
332.03206386789554 433.0
332.08973410680255 422.20000000000005
332.14739507173755 439.0
332.20504676035756 436.79999999999995
332.26268917032 460.6
332.320322299282 479.20000000000005
332.37794614490076 434.79999999999995
332.43556070483356 475.79999999999995
332.49316597673766 479.79999999999995
332.5507619582702 447.4
332.6083486470884 444.4
332.66592604084957 496.6
332.72349413721076 444.79999999999995
332.7810529338294 446.4
332.83860242836266 493.79999999999995
332.8961426184677 466.4
332.95367350180186 444.6
333.01119507602215 444.79999999999995
333.068707338786 460.20000000000005
333.1262102877506 457.6
333.18370392057307 496.79999999999995
333.24118823491074 440.20000000000005
333.29866322842076 466.6
333.35612889876046 438.0
333.41358524358697 436.0
333.4710322605574 459.79999999999995
333.52846994732926 440.79999999999995
333.5858983015596 449.4
333.6433173209057 416.79999999999995
333.70072700302467 452.0
333.7581273455739 443.4
333.81551834621047 468.6
333.8729000025917 437.4
333.93027231237477 434.4
333.987635273217 447.4
334.04498888277544 445.20000000000005
334.1023331387074 438.4
334.15966803867013 466.0
334.21699358032083 440.20000000000005
334.2743097613168 435.0
334.3316165793151 422.20000000000005
334.38891403197306 451.0
334.446202116948 411.20000000000005
334.5034808318969 431.6
334.56075017447716 428.20000000000005
334.618010142346 448.0
334.6752607331606 467.0
334.7325019445782 454.79999999999995
334.789733774256 476.79999999999995
334.8469562198512 439.79999999999995
334.9041692790211 466.20000000000005
334.9613729494229 466.0
335.01856722871383 477.20000000000005
335.07575211455105 430.6
335.13292760459194 449.0
335.19009369649353 465.79999999999995
335.24725038791314 430.4
335.30439767650796 463.79999999999995
335.3615355599353 461.6
335.4186640358523 468.6
335.47578310191625 441.0
335.5328927557843 462.20000000000005
335.5899929951137 461.0
335.6470838175617 439.20000000000005
335.70416522078546 446.6
335.76123720244226 433.4
335.8182997601894 448.0
335.875352891684 474.79999999999995
335.9323965945832 441.0
335.9894308665444 491.79999999999995
336.04645570522473 450.0
336.1034711082815 484.4
336.1604770733718 472.6
336.21747359815305 450.0
336.27446068028223 380.6
336.33143831741666 418.79999999999995
336.3884065072137 443.0
336.44536524733036 422.20000000000005
336.502314535424 435.0
336.5592543691518 442.79999999999995
336.61618474617103 409.79999999999995
336.67310566413886 397.4
336.7300171207126 425.20000000000005
336.78691911354935 402.6
336.84381164030634 446.4
336.9006946986409 423.79999999999995
336.95756828621023 406.4
337.01443240067147 404.4
337.0712870396819 437.6
337.12813220089885 459.79999999999995
337.1849678819794 427.6
337.2417940805808 450.6
337.29861079436023 382.79999999999995
337.35541802097504 419.4
337.41221575808237 435.6
337.4690040033395 432.4
337.52578275440356 421.79999999999995
337.5825520089318 412.6
337.6393117645816 431.0
337.69606201900996 458.79999999999995
337.75280276987417 459.4
337.8095340148315 429.4
337.8662557515392 423.6
337.9229679776545 406.4
337.9796706908345 438.4
338.03636388873656 417.6
338.0930475690178 418.20000000000005
338.1497217293355 400.6
338.2063863673469 415.79999999999995
338.26304148070926 417.6
338.3196870670796 419.79999999999995
338.37632312411534 415.4
338.43294964947376 393.20000000000005
338.48956664081186 433.4
338.546174095787 431.79999999999995
338.6027720120565 398.6
338.6593603872774 419.4
338.715939219107 434.4
338.7725085052025 448.0
338.8290682432212 423.4
338.88561843082016 431.79999999999995
338.9421590656568 429.0
338.9986901453882 436.4
339.0552116676717 429.20000000000005
339.1117236301644 422.4
339.16822603052367 434.6
339.22471886640665 417.4
339.2812021354705 402.79999999999995
339.3376758353726 439.4
339.39413996377 394.20000000000005
339.45059451832003 404.20000000000005
339.50703949667997 452.20000000000005
339.56347489650693 446.4
339.6199007154582 462.4
339.6763169511909 442.79999999999995
339.7327236013624 429.6
339.78912066362983 408.79999999999995
339.84550813565045 447.0
339.90188601508146 401.6
339.9582542995801 440.6
340.0146129868037 440.20000000000005
340.07096207440924 441.20000000000005
340.1273015600542 427.79999999999995
340.1836314413956 417.0
340.23995171609084 448.6
340.29626238179696 442.6
340.3525634361714 417.4
340.40885487687115 413.79999999999995
340.4651367015536 469.4
340.521408907876 459.6
340.5776714934954 448.4
340.63392445606905 445.20000000000005
340.6901677932544 429.0
340.7464015027084 439.6
340.80262558208847 431.0
340.8588400290518 472.6
340.9150448412555 446.20000000000005
340.97124001635694 448.0
341.0274255520132 450.0
341.0836014458816 460.20000000000005
341.1397676956193 448.4
341.1959242988836 453.79999999999995
341.25207125333174 430.0
341.30820855662085 422.4
341.3643362064082 429.20000000000005
341.42045420035106 430.0
341.4765625361066 444.20000000000005
341.53266121133197 446.0
341.5887502236846 448.79999999999995
341.6448295708215 424.0
341.7008992504 423.6
341.75695926007734 446.20000000000005
341.81300959751076 462.20000000000005
341.86905026035737 400.6
341.9250812462745 435.4
341.9811025529193 440.4
342.0371141779489 430.20000000000005
342.09311611902086 453.20000000000005
342.14910837379216 429.4
342.20509093992 486.20000000000005
342.26106381506173 414.20000000000005
342.3170269968745 421.20000000000005
342.3729804830155 443.20000000000005
342.4289242711421 448.6
342.48485835891137 455.0
342.5407827439805 462.79999999999995
342.5966974240069 493.79999999999995
342.6526023966477 480.0
342.7084976595602 485.79999999999995
342.76438321040143 463.20000000000005
342.82025904682877 470.4
342.8761251664994 470.6
342.9319815670706 446.0
342.98782824619946 512.2
343.0436652015433 499.79999999999995
343.0994924307594 466.6
343.1553099315049 468.4
343.21111770143705 465.79999999999995
343.266915738213 468.79999999999995
343.32270403949013 480.6
343.37848260292543 449.0
343.4342514261764 509.20000000000005
343.4900105069001 469.79999999999995
343.5457598427538 460.20000000000005
343.6014994313947 469.79999999999995
343.65722927048006 461.6
343.712949357667 469.79999999999995
343.76865969061294 467.6
343.82436026697496 448.4
343.8800510844103 469.0
343.93573214057614 459.4
343.9914034331298 413.4
344.0470649597285 455.20000000000005
344.1027167180294 445.20000000000005
344.15835870568975 476.0
344.2139909203668 471.4
344.26961335971777 488.0
344.3252260213999 469.4
344.3808289030703 493.4
344.43642200238634 474.79999999999995
344.4920053170052 465.4
344.54757884458405 487.79999999999995
344.60314258278015 417.6
344.6586965292507 463.20000000000005
344.71424068165294 438.79999999999995
344.76977503764414 485.20000000000005
344.8252995948814 427.0
344.88081435102214 438.6
344.9363193037235 488.79999999999995
344.9918144506426 462.6
345.0472997894368 452.0
345.10277531776325 456.0
345.1582410332792 429.0
345.21369693364187 454.6
345.2691430165084 455.4
345.3245792795362 478.6
345.38000572038237 499.79999999999995
345.4354223367041 441.4
345.49082912615876 484.79999999999995
345.5462260864034 479.0
345.6016132150954 506.0
345.6569905098919 510.0
345.71235796845014 516.0
345.7677155884273 500.0
345.8230633674807 509.6
345.8784013032674 495.79999999999995
345.9337293934449 482.20000000000005
345.98904763567015 532.4
346.0443560276005 482.6
346.09965456689315 457.79999999999995
346.1549432512053 460.4
346.21022207819425 472.4
346.2654910455172 472.6
346.3207501508313 422.0
346.3759993917939 459.6
346.4312387660621 471.0
346.48646827129323 480.20000000000005
346.5416879051444 487.6
346.59689766527293 502.0
346.65209754933596 492.79999999999995
346.7072875549908 486.6
346.76246767989466 442.4
346.8176379217048 453.4
346.8727982780783 510.4
346.9279487466724 481.4
346.9830893251446 477.20000000000005
347.0382200111518 455.6
347.0933408023513 442.6
347.1484516964005 469.79999999999995
347.2035526909564 421.6
347.25864378367635 483.20000000000005
347.3137249722175 440.4
347.36879625423717 506.0
347.4238576273925 453.0
347.47890908934073 476.0
347.5339506377391 487.20000000000005
347.58898227024486 459.20000000000005
347.6440039845152 460.79999999999995
347.69901577820735 504.20000000000005
347.75401764897856 475.20000000000005
347.80900959448604 499.4
347.863991612387 485.0
347.9189637003387 440.20000000000005
347.9739258559983 482.0
348.02887807702297 479.4
348.08382036107014 467.4
348.1387527057969 496.6
348.1936751088605 469.79999999999995
348.2485875679181 468.0
348.303490080627 504.79999999999995
348.3583826446444 532.6
348.41326525762753 468.4
348.46813791723366 477.79999999999995
348.52300062111993 469.79999999999995
348.5778533669436 542.8
348.6326961523619 486.20000000000005
348.6875289750321 483.6
348.74235183261135 489.6
348.7971647227568 471.79999999999995
348.8519676431258 503.6
348.90676059137564 488.20000000000005
348.9615435651634 476.79999999999995
349.01631656214636 504.20000000000005
349.0710795799818 483.6
349.1258326163268 485.79999999999995
349.18057566883874 490.6
349.2353087351748 487.20000000000005
349.2900318129921 464.0
349.3447448999479 473.0
349.39944799369954 509.6
349.45414109190415 528.2
349.50882419221904 463.79999999999995
349.56349729230124 460.79999999999995
349.6181603898082 490.4
349.67281348239703 495.4
349.727456567725 461.6
349.7820896434493 470.79999999999995
349.83671270722715 495.6
349.89132575671573 484.6
349.9459287895724 467.20000000000005
350.00052180345426 477.6
350.0551047960186 464.4
350.10967776492265 493.0
350.1642407078236 496.20000000000005
350.2187936223786 488.20000000000005
350.273336506245 510.6
350.32786935708003 496.6
350.3823921725408 478.4
350.43690495028466 488.4
350.4914076879687 482.6
350.5459003832503 480.4
350.60038303378656 465.6
350.65485563723473 463.79999999999995
350.709318191252 518.8
350.76377069349576 496.79999999999995
350.81821314162306 495.4
350.8726455332912 477.20000000000005
350.9270678661574 506.0
350.98148013787886 508.79999999999995
351.0358823461128 506.6
351.0902744885165 499.0
351.1446565627471 513.6
351.1990285664619 487.6
351.2533904973181 451.4
351.3077423529729 460.20000000000005
351.3620841310836 489.79999999999995
351.4164158293073 493.79999999999995
351.4707374453013 498.79999999999995
351.52504897672276 492.4
351.579350421229 457.4
351.63364177647725 484.20000000000005
351.6879230401247 491.20000000000005
351.74219420982854 494.79999999999995
351.796455283246 514.0
351.85070625803434 460.4
351.9049471318507 534.4
351.95917790235245 475.20000000000005
352.01339856719676 461.6
352.0676091240407 498.79999999999995
352.1218095705417 474.0
352.17599990435696 516.2
352.23018012314355 466.20000000000005
352.28435022455886 471.0
352.33851020626 494.79999999999995
352.39266006590435 463.79999999999995
352.446799801149 490.4
352.5009294096511 465.4
352.5550488890681 505.4
352.609158237057 492.0
352.66325745127523 445.4
352.7173465293799 460.20000000000005
352.77142546902815 447.20000000000005
352.82549426787733 488.6
352.8795529235847 477.20000000000005
352.9336014338074 500.6
352.98763979620253 511.79999999999995
353.0416680084276 493.6
353.0956860681397 461.6
353.149693972996 527.6
353.20369172065375 502.4
353.25767930877026 518.8
353.31165673500254 495.20000000000005
353.36562399700813 469.79999999999995
353.419581092444 513.4
353.4735280189675 487.0
353.5274647742358 487.79999999999995
353.58139135590613 507.6
353.63530776163583 490.20000000000005
353.6892139890819 491.79999999999995
353.74311003590174 491.20000000000005
353.79699589975246 517.6
353.8508715782914 500.79999999999995
353.90473706917567 468.4
353.9585923700626 471.6
354.0124374786094 479.20000000000005
354.0662723924732 498.6
354.1200971093113 449.79999999999995
354.1739116267809 455.20000000000005
354.22771594253925 480.4
354.2815100542435 491.4
354.33529395955094 496.20000000000005
354.3890676561188 487.20000000000005
354.4428311416043 470.4
354.49658441366466 498.0
354.5503274699571 512.6
354.60406030813886 473.79999999999995
354.657782925867 513.8
354.71149532079903 484.0
354.7651974905921 447.0
354.8188894329033 490.79999999999995
354.8725711453899 520.4
354.9262426257091 498.0
354.9799038715183 483.79999999999995
355.0335548804745 474.6
355.08719565023506 478.79999999999995
355.1408261784572 488.4
355.194446462798 474.79999999999995
355.2480565009149 501.79999999999995
355.30165629046496 510.20000000000005
355.35524582910557 469.6
355.4088251144937 528.2
355.4623941442868 479.20000000000005
355.515952916142 504.20000000000005
355.56950142771655 476.79999999999995
355.62303967666764 469.4
355.6765676606525 502.6
355.7300853773284 480.6
355.7835928243526 484.20000000000005
355.83708999938216 467.4
355.8905769000745 501.4
355.94405352408666 447.6
355.997519869076 469.79999999999995
356.05097593269966 476.79999999999995
356.10442171261496 491.0
356.15785720647904 493.0
356.2112824119491 481.79999999999995
356.26469732668255 460.4
356.3181019483364 467.79999999999995
356.37149627456796 497.79999999999995
356.4248803030345 494.6
356.47825403139313 478.6
356.53161745730114 475.20000000000005
356.5849705784158 468.4
356.63831339239425 475.0
356.69164589689376 475.4
356.74496808957156 497.4
356.79827996808484 464.6
356.85158153009087 480.0
356.90487277324684 464.6
356.9581536952099 471.20000000000005
357.0114242936374 451.20000000000005
357.0646845661866 478.0
357.11793451051454 481.4
357.1711741242786 500.0
357.224403405136 466.20000000000005
357.27762235074374 480.20000000000005
357.3308309587594 463.20000000000005
357.38402922683997 475.0
357.43721715264275 499.0
357.490394733825 474.4
357.5435619680438 473.20000000000005
357.59671885295654 469.0
357.6498653862203 497.6
357.70300156549246 451.0
357.75612738843006 485.79999999999995
357.80924285269043 451.6
357.86234795593083 480.20000000000005
357.91544269580845 493.4
357.9685270699805 432.4
358.02160107610416 503.0
358.0746647118367 458.4
358.1277179748355 463.0
358.18076086275744 461.6
358.23379337325997 449.4
358.28681550400034 469.4
358.3398272526357 482.0
358.3928286168233 449.79999999999995
358.4458195942203 424.79999999999995
358.49880018248405 479.6
358.55177037927166 450.79999999999995
358.60473018224036 485.20000000000005
358.6576795890475 463.20000000000005
358.7106185973501 491.4
358.7635472048056 438.79999999999995
358.81646540907116 503.6
358.8693732078039 459.4
358.9222705986611 402.79999999999995
358.97515757930006 451.20000000000005
359.0280341473779 462.79999999999995
359.0809003005519 445.6
359.13375603647927 467.20000000000005
359.1866013528172 459.6
359.23943624722295 442.6
359.29226071735377 455.79999999999995
359.34507476086685 471.0
359.3978783754194 458.20000000000005
359.4506715586687 468.4
359.50345430827196 458.0
359.5562266218863 443.6
359.6089884971691 482.6
359.6617399317775 428.79999999999995
359.71448092336874 464.6
359.7672114696 439.20000000000005
359.8199315681286 475.6
359.87264121661167 461.79999999999995
359.9253404127065 454.4
359.97802915407027 454.79999999999995
360.0307074383602 424.0
360.0833752632336 415.20000000000005
360.1360326263476 419.20000000000005
360.1886795253595 452.20000000000005
360.2413159579265 452.79999999999995
360.2939419217057 473.20000000000005
360.34655741435455 490.0
360.39916243353 455.79999999999995
360.45175697688956 462.6
360.5043410420903 480.20000000000005
360.5569146267894 490.0
360.60947772864426 443.0
360.6620303453119 425.4
360.7145724744497 469.79999999999995
360.76710411371477 491.0
360.81962526076444 430.4
360.8721359132558 495.0
360.9246360688462 403.79999999999995
360.9771257251929 431.20000000000005
361.02960487995296 451.6
361.0820735307837 437.6
361.1345316753424 429.20000000000005
361.18697931128605 450.6
361.23941643627217 425.6
361.29184304795785 439.6
361.3442591440003 430.6
361.39666472205687 408.79999999999995
361.44905977978453 34.0
361.50144431484074 -11.399999999999977
361.55381832488257 23.399999999999977
361.60618180756745 12.200000000000045
361.65853476055236 6.600000000000023
361.71087718149465 14.200000000000045
361.7632090680515 -21.200000000000045
361.8155304178802 -13.600000000000023
361.86784122863793 -21.799999999999955
361.92014149798194 6.7999999999999545
361.9724312235694 -29.399999999999977
362.02471040305755 7.600000000000023
362.0769790341037 -3.2000000000000455
362.1292371143649 -1.2000000000000455
362.18148464149857 -28.19999999999999
362.23372161316183 13.799999999999955
