
Integration time [ms]:   0.300
Averaging Nr. [scans]: 1
Smoothing Nr. [pixels]: 0
Data measured with spectrometer [name]: VIS
Wave   ;Sample   ;Dark     ;Reference
[nm]   ;[counts] ;[counts] ;[counts] 

450.961;  189.075;  204.125;    0.000
451.100;  242.075;  219.125;    0.000
451.239;  204.075;  196.125;    0.000
451.377;  243.075;  252.125;    0.000
451.516;  206.075;  215.125;    0.000
451.655;  228.075;  214.125;    0.000
451.794;  244.075;  241.125;    0.000
451.932;  209.075;  242.125;    0.000
452.071;  247.075;  204.125;    0.000
452.210;  214.075;  243.125;    0.000
452.348;  229.075;  241.125;    0.000
452.487;  229.075;  246.125;    0.000
452.626;  190.075;  235.125;    0.000
452.764;  209.075;  230.125;    0.000
452.903;  222.075;  199.125;    0.000
453.042;  222.075;  178.125;    0.000
453.180;  864.075;  291.125;    0.000
453.319;  996.075;  335.125;    0.000
453.458; 1008.075;  245.125;    0.000
453.596; 1002.075;  325.125;    0.000
453.735;  982.075;  291.125;    0.000
453.873; 1013.075;  295.125;    0.000
454.012;  981.075;  291.125;    0.000
454.150;  927.075;  292.125;    0.000
454.289; 1012.075;  328.125;    0.000
454.427; 1004.075;  295.125;    0.000
454.566; 1042.075;  295.125;    0.000
454.704; 1062.075;  301.125;    0.000
454.843; 1037.075;  278.125;    0.000
454.981; 1041.075;  306.125;    0.000
455.120; 1037.075;  237.125;    0.000
455.258; 1160.075;  325.125;    0.000
455.397; 1114.075;  276.125;    0.000
455.535; 1204.075;  269.125;    0.000
455.674; 1062.075;  259.125;    0.000
455.812; 1162.075;  264.125;    0.000
455.951; 1041.075;  286.125;    0.000
456.089; 1210.075;  302.125;    0.000
456.227; 1047.075;  230.125;    0.000
456.366; 1084.075;  303.125;    0.000
456.504; 1084.075;  316.125;    0.000
456.642; 1204.075;  309.125;    0.000
456.781; 1132.075;  299.125;    0.000
456.919; 1167.075;  281.125;    0.000
457.057; 1193.075;  253.125;    0.000
457.196; 1035.075;  268.125;    0.000
457.334; 1111.075;  292.125;    0.000
457.472; 1163.075;  287.125;    0.000
457.610; 1203.075;  300.125;    0.000
457.749; 1216.075;  342.125;    0.000
457.887; 1127.075;  310.125;    0.000
458.025; 1321.075;  310.125;    0.000
458.163; 1273.075;  323.125;    0.000
458.301; 1295.075;  336.125;    0.000
458.440; 1237.075;  297.125;    0.000
458.578; 1467.075;  295.125;    0.000
458.716; 1284.075;  309.125;    0.000
458.854; 1322.075;  335.125;    0.000
458.992; 1411.075;  244.125;    0.000
459.130; 1334.075;  370.125;    0.000
459.269; 1411.075;  313.125;    0.000
459.407; 1447.075;  370.125;    0.000
459.545; 1444.075;  341.125;    0.000
459.683; 1553.075;  336.125;    0.000
459.821; 1346.075;  311.125;    0.000
459.959; 1481.075;  330.125;    0.000
460.097; 1471.075;  355.125;    0.000
460.235; 1457.075;  348.125;    0.000
460.373; 1450.075;  338.125;    0.000
460.511; 1476.075;  361.125;    0.000
460.649; 1494.075;  295.125;    0.000
460.787; 1417.075;  325.125;    0.000
460.925; 1566.075;  266.125;    0.000
461.063; 1504.075;  365.125;    0.000
461.201; 1523.075;  334.125;    0.000
461.339; 1598.075;  341.125;    0.000
461.477; 1530.075;  304.125;    0.000
461.615; 1564.075;  311.125;    0.000
461.753; 1605.075;  342.125;    0.000
461.891; 1609.075;  333.125;    0.000
462.029; 1578.075;  336.125;    0.000
462.166; 1680.075;  272.125;    0.000
462.304; 1551.075;  313.125;    0.000
462.442; 1670.075;  313.125;    0.000
462.580; 1632.075;  328.125;    0.000
462.718; 1712.075;  358.125;    0.000
462.856; 1695.075;  302.125;    0.000
462.993; 1615.075;  360.125;    0.000
463.131; 1544.075;  280.125;    0.000
463.269; 1565.075;  312.125;    0.000
463.407; 1645.075;  263.125;    0.000
463.545; 1625.075;  253.125;    0.000
463.682; 1641.075;  296.125;    0.000
463.820; 1653.075;  308.125;    0.000
463.958; 1696.075;  300.125;    0.000
464.095; 1800.075;  289.125;    0.000
464.233; 1804.075;  340.125;    0.000
464.371; 1746.075;  300.125;    0.000
464.509; 1824.075;  266.125;    0.000
464.646; 1753.075;  294.125;    0.000
464.784; 1709.075;  284.125;    0.000
464.921; 1789.075;  350.125;    0.000
465.059; 1660.075;  256.125;    0.000
465.197; 1647.075;  289.125;    0.000
465.334; 1596.075;  287.125;    0.000
465.472; 1574.075;  322.125;    0.000
465.609; 1582.075;  311.125;    0.000
465.747; 1661.075;  336.125;    0.000
465.885; 1559.075;  308.125;    0.000
466.022; 1681.075;  299.125;    0.000
466.160; 1626.075;  293.125;    0.000
466.297; 1636.075;  317.125;    0.000
466.435; 1584.075;  336.125;    0.000
466.572; 1555.075;  282.125;    0.000
466.710; 1642.075;  299.125;    0.000
466.847; 1570.075;  288.125;    0.000
466.985; 1631.075;  274.125;    0.000
467.122; 1583.075;  302.125;    0.000
467.260; 1455.075;  271.125;    0.000
467.397; 1436.075;  263.125;    0.000
467.534; 1606.075;  320.125;    0.000
467.672; 1607.075;  309.125;    0.000
467.809; 1433.075;  275.125;    0.000
467.947; 1723.075;  319.125;    0.000
468.084; 1647.075;  309.125;    0.000
468.221; 1720.075;  302.125;    0.000
468.359; 1603.075;  286.125;    0.000
468.496; 1576.075;  293.125;    0.000
468.633; 1515.075;  273.125;    0.000
468.771; 1675.075;  296.125;    0.000
468.908; 1595.075;  277.125;    0.000
469.045; 1669.075;  303.125;    0.000
469.183; 1585.075;  314.125;    0.000
469.320; 1589.075;  278.125;    0.000
469.457; 1615.075;  308.125;    0.000
469.594; 1551.075;  272.125;    0.000
469.732; 1632.075;  321.125;    0.000
469.869; 1616.075;  299.125;    0.000
470.006; 1614.075;  267.125;    0.000
470.143; 1751.075;  298.125;    0.000
470.280; 1851.075;  272.125;    0.000
470.417; 1737.075;  314.125;    0.000
470.555; 1679.075;  305.125;    0.000
470.692; 1646.075;  309.125;    0.000
470.829; 1723.075;  311.125;    0.000
470.966; 1627.075;  260.125;    0.000
471.103; 1686.075;  267.125;    0.000
471.240; 1595.075;  290.125;    0.000
471.377; 1538.075;  290.125;    0.000
471.514; 1593.075;  295.125;    0.000
471.651; 1693.075;  300.125;    0.000
471.789; 1606.075;  281.125;    0.000
471.926; 1753.075;  291.125;    0.000
472.063; 1636.075;  305.125;    0.000
472.200; 1616.075;  285.125;    0.000
472.337; 1548.075;  288.125;    0.000
472.474; 1596.075;  276.125;    0.000
472.611; 1588.075;  309.125;    0.000
472.748; 1611.075;  280.125;    0.000
472.884; 1601.075;  300.125;    0.000
473.021; 1619.075;  280.125;    0.000
473.158; 1617.075;  304.125;    0.000
473.295; 1657.075;  308.125;    0.000
473.432; 1797.075;  294.125;    0.000
473.569; 1630.075;  288.125;    0.000
473.706; 1599.075;  254.125;    0.000
473.843; 1580.075;  282.125;    0.000
473.980; 1594.075;  286.125;    0.000
474.117; 1598.075;  257.125;    0.000
474.253; 1658.075;  298.125;    0.000
474.390; 1507.075;  253.125;    0.000
474.527; 1529.075;  271.125;    0.000
474.664; 1532.075;  257.125;    0.000
474.801; 1658.075;  296.125;    0.000
474.937; 1678.075;  263.125;    0.000
475.074; 1711.075;  262.125;    0.000
475.211; 1712.075;  299.125;    0.000
475.348; 1619.075;  308.125;    0.000
475.484; 1610.075;  278.125;    0.000
475.621; 1670.075;  287.125;    0.000
475.758; 1569.075;  231.125;    0.000
475.894; 1715.075;  295.125;    0.000
476.031; 1733.075;  290.125;    0.000
476.168; 1540.075;  287.125;    0.000
476.304; 1662.075;  331.125;    0.000
476.441; 1736.075;  301.125;    0.000
476.578; 1589.075;  263.125;    0.000
476.714; 1716.075;  261.125;    0.000
476.851; 1611.075;  247.125;    0.000
476.987; 1746.075;  297.125;    0.000
477.124; 1667.075;  296.125;    0.000
477.261; 1740.075;  299.125;    0.000
477.397; 1663.075;  292.125;    0.000
477.534; 1641.075;  289.125;    0.000
477.670; 1548.075;  268.125;    0.000
477.807; 1631.075;  234.125;    0.000
477.943; 1917.075;  279.125;    0.000
478.080; 1697.075;  276.125;    0.000
478.216; 1804.075;  248.125;    0.000
478.353; 1643.075;  296.125;    0.000
478.489; 1739.075;  267.125;    0.000
478.626; 1716.075;  243.125;    0.000
478.762; 1852.075;  252.125;    0.000
478.898; 1875.075;  266.125;    0.000
479.035; 1877.075;  290.125;    0.000
479.171; 1715.075;  247.125;    0.000
479.308; 1815.075;  283.125;    0.000
479.444; 1787.075;  244.125;    0.000
479.580; 1747.075;  259.125;    0.000
479.717; 1820.075;  301.125;    0.000
479.853; 1789.075;  257.125;    0.000
479.989; 1865.075;  249.125;    0.000
480.126; 1801.075;  218.125;    0.000
480.262; 1857.075;  275.125;    0.000
480.398; 1931.075;  246.125;    0.000
480.535; 1884.075;  246.125;    0.000
480.671; 1806.075;  272.125;    0.000
480.807; 1922.075;  281.125;    0.000
480.943; 1842.075;  233.125;    0.000
481.080; 1759.075;  303.125;    0.000
481.216; 1741.075;  229.125;    0.000
481.352; 1752.075;  240.125;    0.000
481.488; 1796.075;  284.125;    0.000
481.624; 1890.075;  236.125;    0.000
481.760; 1889.075;  255.125;    0.000
481.897; 1786.075;  206.125;    0.000
482.033; 1939.075;  254.125;    0.000
482.169; 1909.075;  268.125;    0.000
482.305; 1746.075;  214.125;    0.000
482.441; 1932.075;  225.125;    0.000
482.577; 1882.075;  251.125;    0.000
482.713; 1801.075;  221.125;    0.000
482.849; 1796.075;  218.125;    0.000
482.985; 1812.075;  245.125;    0.000
483.121; 1895.075;  224.125;    0.000
483.258; 1814.075;  249.125;    0.000
483.394; 2004.075;  224.125;    0.000
483.530; 1915.075;  247.125;    0.000
483.665; 1893.075;  256.125;    0.000
483.801; 1863.075;  220.125;    0.000
483.937; 1848.075;  200.125;    0.000
484.073; 1795.075;  272.125;    0.000
484.209; 1837.075;  243.125;    0.000
484.345; 1920.075;  274.125;    0.000
484.481; 2045.075;  264.125;    0.000
484.617; 1857.075;  270.125;    0.000
484.753; 2039.075;  244.125;    0.000
484.889; 1960.075;  293.125;    0.000
485.025; 1875.075;  257.125;    0.000
485.161; 2038.075;  264.125;    0.000
485.296; 1854.075;  247.125;    0.000
485.432; 1957.075;  240.125;    0.000
485.568; 1909.075;  240.125;    0.000
485.704; 1953.075;  232.125;    0.000
485.840; 1914.075;  280.125;    0.000
485.975; 2068.075;  253.125;    0.000
486.111; 1896.075;  250.125;    0.000
486.247; 1928.075;  272.125;    0.000
486.383; 1946.075;  258.125;    0.000
486.518; 1926.075;  256.125;    0.000
486.654; 1889.075;  250.125;    0.000
486.790; 2137.075;  259.125;    0.000
486.926; 2073.075;  256.125;    0.000
487.061; 1972.075;  267.125;    0.000
487.197; 1816.075;  224.125;    0.000
487.333; 1890.075;  265.125;    0.000
487.468; 1876.075;  223.125;    0.000
487.604; 1902.075;  298.125;    0.000
487.740; 1917.075;  261.125;    0.000
487.875; 2091.075;  278.125;    0.000
488.011; 1920.075;  292.125;    0.000
488.146; 1959.075;  239.125;    0.000
488.282; 1904.075;  265.125;    0.000
488.417; 1912.075;  286.125;    0.000
488.553; 1853.075;  271.125;    0.000
488.688; 1865.075;  252.125;    0.000
488.824; 1921.075;  239.125;    0.000
488.960; 2003.075;  266.125;    0.000
489.095; 1995.075;  229.125;    0.000
489.230; 1864.075;  247.125;    0.000
489.366; 1832.075;  260.125;    0.000
489.501; 1948.075;  257.125;    0.000
489.637; 1911.075;  233.125;    0.000
489.772; 1853.075;  254.125;    0.000
489.908; 2101.075;  235.125;    0.000
490.043; 1891.075;  266.125;    0.000
490.178; 1867.075;  228.125;    0.000
490.314; 1957.075;  310.125;    0.000
490.449; 1766.075;  251.125;    0.000
490.585; 2064.075;  221.125;    0.000
490.720; 1853.075;  203.125;    0.000
490.855; 1913.075;  266.125;    0.000
490.991; 1924.075;  249.125;    0.000
491.126; 1988.075;  313.125;    0.000
491.261; 2037.075;  284.125;    0.000
491.396; 1950.075;  225.125;    0.000
491.532; 1900.075;  227.125;    0.000
491.667; 2023.075;  210.125;    0.000
491.802; 1959.075;  214.125;    0.000
491.937; 1952.075;  246.125;    0.000
492.073; 1940.075;  250.125;    0.000
492.208; 1971.075;  267.125;    0.000
492.343; 1857.075;  245.125;    0.000
492.478; 1937.075;  271.125;    0.000
492.613; 1953.075;  253.125;    0.000
492.749; 1915.075;  249.125;    0.000
492.884; 1851.075;  217.125;    0.000
493.019; 1854.075;  244.125;    0.000
493.154; 1856.075;  265.125;    0.000
493.289; 2082.075;  266.125;    0.000
493.424; 2163.075;  226.125;    0.000
493.559; 1901.075;  222.125;    0.000
493.694; 1966.075;  218.125;    0.000
493.829; 1953.075;  246.125;    0.000
493.964; 1842.075;  243.125;    0.000
494.099; 1755.075;  269.125;    0.000
494.234; 2058.075;  249.125;    0.000
494.369; 1920.075;  279.125;    0.000
494.504; 1842.075;  261.125;    0.000
494.639; 1884.075;  289.125;    0.000
494.774; 1903.075;  252.125;    0.000
494.909; 1902.075;  250.125;    0.000
495.044; 1929.075;  207.125;    0.000
495.179; 1886.075;  266.125;    0.000
495.314; 1835.075;  228.125;    0.000
495.449; 1931.075;  262.125;    0.000
495.584; 1868.075;  281.125;    0.000
495.719; 1880.075;  251.125;    0.000
495.854; 1900.075;  237.125;    0.000
495.988; 2041.075;  238.125;    0.000
496.123; 1905.075;  255.125;    0.000
496.258; 2015.075;  264.125;    0.000
496.393; 1875.075;  253.125;    0.000
496.528; 1983.075;  244.125;    0.000
496.663; 1898.075;  267.125;    0.000
496.797; 1888.075;  271.125;    0.000
496.932; 2089.075;  262.125;    0.000
497.067; 2071.075;  260.125;    0.000
497.202; 1993.075;  264.125;    0.000
497.336; 2096.075;  243.125;    0.000
497.471; 2171.075;  251.125;    0.000
497.606; 2032.075;  219.125;    0.000
497.740; 2129.075;  264.125;    0.000
497.875; 2078.075;  252.125;    0.000
498.010; 2259.075;  241.125;    0.000
498.144; 2267.075;  261.125;    0.000
498.279; 2511.075;  221.125;    0.000
498.414; 2348.075;  246.125;    0.000
498.548; 2256.075;  212.125;    0.000
498.683; 2437.075;  260.125;    0.000
498.817; 2257.075;  244.125;    0.000
498.952; 2363.075;  252.125;    0.000
499.087; 2495.075;  251.125;    0.000
499.221; 2373.075;  282.125;    0.000
499.356; 2420.075;  264.125;    0.000
499.490; 2680.075;  280.125;    0.000
499.625; 2723.075;  256.125;    0.000
499.759; 2617.075;  253.125;    0.000
499.894; 2924.075;  261.125;    0.000
500.028; 2943.075;  304.125;    0.000
500.162; 2863.075;  272.125;    0.000
500.297; 3127.075;  274.125;    0.000
500.431; 2886.075;  320.125;    0.000
500.566; 3015.075;  268.125;    0.000
500.700; 3079.075;  280.125;    0.000
500.835; 2827.075;  288.125;    0.000
500.969; 2729.075;  253.125;    0.000
501.103; 2792.075;  234.125;    0.000
501.238; 2779.075;  302.125;    0.000
501.372; 2785.075;  292.125;    0.000
501.506; 2369.075;  222.125;    0.000
501.641; 2452.075;  274.125;    0.000
501.775; 2443.075;  245.125;    0.000
501.909; 2465.075;  283.125;    0.000
502.043; 2076.075;  252.125;    0.000
502.178; 2338.075;  293.125;    0.000
502.312; 2173.075;  223.125;    0.000
502.446; 2101.075;  292.125;    0.000
502.580; 2116.075;  253.125;    0.000
502.715; 2195.075;  282.125;    0.000
502.849; 2082.075;  258.125;    0.000
502.983; 2082.075;  267.125;    0.000
503.117; 2024.075;  226.125;    0.000
503.251; 2001.075;  260.125;    0.000
503.385; 2023.075;  291.125;    0.000
503.520; 1970.075;  279.125;    0.000
503.654; 1994.075;  229.125;    0.000
503.788; 1935.075;  259.125;    0.000
503.922; 1972.075;  246.125;    0.000
504.056; 1829.075;  269.125;    0.000
504.190; 1846.075;  265.125;    0.000
504.324; 2018.075;  298.125;    0.000
504.458; 1931.075;  235.125;    0.000
504.592; 1841.075;  275.125;    0.000
504.726; 1824.075;  226.125;    0.000
504.860; 1830.075;  298.125;    0.000
504.994; 1710.075;  253.125;    0.000
505.128; 1811.075;  283.125;    0.000
505.262; 1790.075;  255.125;    0.000
505.396; 1819.075;  219.125;    0.000
505.530; 1636.075;  279.125;    0.000
505.664; 1696.075;  306.125;    0.000
505.798; 1657.075;  297.125;    0.000
505.932; 1708.075;  273.125;    0.000
506.066; 1761.075;  271.125;    0.000
506.199; 1621.075;  273.125;    0.000
506.333; 1511.075;  227.125;    0.000
506.467; 1620.075;  302.125;    0.000
506.601; 1661.075;  254.125;    0.000
506.735; 1662.075;  299.125;    0.000
506.869; 1556.075;  278.125;    0.000
507.002; 1673.075;  259.125;    0.000
507.136; 1595.075;  285.125;    0.000
507.270; 1660.075;  255.125;    0.000
507.404; 1556.075;  273.125;    0.000
507.537; 1653.075;  245.125;    0.000
507.671; 1488.075;  251.125;    0.000
507.805; 1583.075;  286.125;    0.000
507.939; 1549.075;  261.125;    0.000
508.072; 1545.075;  298.125;    0.000
508.206; 1570.075;  238.125;    0.000
508.340; 1619.075;  289.125;    0.000
508.473; 1601.075;  255.125;    0.000
508.607; 1544.075;  266.125;    0.000
508.740; 1564.075;  253.125;    0.000
508.874; 1494.075;  233.125;    0.000
509.008; 1507.075;  274.125;    0.000
509.141; 1658.075;  235.125;    0.000
509.275; 1557.075;  225.125;    0.000
509.408; 1587.075;  254.125;    0.000
509.542; 1430.075;  244.125;    0.000
509.675; 1535.075;  263.125;    0.000
509.809; 1434.075;  271.125;    0.000
509.942; 1550.075;  246.125;    0.000
510.076; 1411.075;  221.125;    0.000
510.209; 1566.075;  270.125;    0.000
510.343; 1439.075;  265.125;    0.000
510.476; 1500.075;  291.125;    0.000
510.610; 1434.075;  251.125;    0.000
510.743; 1509.075;  304.125;    0.000
510.877; 1514.075;  259.125;    0.000
511.010; 1495.075;  274.125;    0.000
511.143; 1355.075;  255.125;    0.000
511.277; 1412.075;  267.125;    0.000
511.410; 1506.075;  270.125;    0.000
511.543; 1444.075;  231.125;    0.000
511.677; 1505.075;  275.125;    0.000
511.810; 1465.075;  265.125;    0.000
511.943; 1517.075;  231.125;    0.000
512.077; 1448.075;  225.125;    0.000
512.210; 1385.075;  235.125;    0.000
512.343; 1462.075;  251.125;    0.000
512.476; 1506.075;  260.125;    0.000
512.610; 1424.075;  289.125;    0.000
512.743; 1499.075;  270.125;    0.000
512.876; 1582.075;  289.125;    0.000
513.009; 1558.075;  293.125;    0.000
513.142; 1542.075;  282.125;    0.000
513.276; 1523.075;  244.125;    0.000
513.409; 1453.075;  277.125;    0.000
513.542; 1442.075;  254.125;    0.000
513.675; 1408.075;  258.125;    0.000
513.808; 1320.075;  243.125;    0.000
513.941; 1499.075;  274.125;    0.000
514.074; 1436.075;  296.125;    0.000
514.207; 1424.075;  267.125;    0.000
514.340; 1507.075;  283.125;    0.000
514.474; 1509.075;  255.125;    0.000
514.607; 1499.075;  291.125;    0.000
514.740; 1557.075;  296.125;    0.000
514.873; 1615.075;  275.125;    0.000
515.006; 1619.075;  313.125;    0.000
515.139; 1526.075;  253.125;    0.000
515.272; 1501.075;  263.125;    0.000
515.404; 1608.075;  258.125;    0.000
515.537; 1571.075;  285.125;    0.000
515.670; 1523.075;  286.125;    0.000
515.803; 1570.075;  266.125;    0.000
515.936; 1568.075;  251.125;    0.000
516.069; 1595.075;  231.125;    0.000
516.202; 1659.075;  278.125;    0.000
516.335; 1513.075;  295.125;    0.000
516.468; 1810.075;  239.125;    0.000
516.600; 2181.075;  229.125;    0.000
516.733; 2899.075;  301.125;    0.000
516.866; 2783.075;  287.125;    0.000
516.999; 2194.075;  265.125;    0.000
517.132; 3262.075;  291.125;    0.000
517.264; 4910.075;  262.125;    0.000
517.397; 4543.075;  292.125;    0.000
517.530; 2789.075;  299.125;    0.000
517.663; 2220.075;  268.125;    0.000
517.795; 2012.075;  323.125;    0.000
517.928; 1950.075;  281.125;    0.000
518.061; 2117.075;  242.125;    0.000
518.193; 3244.075;  279.125;    0.000
518.326; 6197.075;  288.125;    0.000
518.459; 6199.075;  251.125;    0.000
518.591; 3760.075;  314.125;    0.000
518.724; 2360.075;  279.125;    0.000
518.857; 1953.075;  245.125;    0.000
518.989; 1978.075;  290.125;    0.000
519.122; 1815.075;  319.125;    0.000
519.254; 1747.075;  295.125;    0.000
519.387; 1579.075;  271.125;    0.000
519.519; 1616.075;  312.125;    0.000
519.652; 1540.075;  289.125;    0.000
519.784; 1643.075;  311.125;    0.000
519.917; 1469.075;  283.125;    0.000
520.049; 1491.075;  281.125;    0.000
520.182; 1511.075;  242.125;    0.000
520.314; 1511.075;  310.125;    0.000
520.447; 1581.075;  215.125;    0.000
520.579; 1588.075;  277.125;    0.000
520.712; 1405.075;  224.125;    0.000
520.844; 1553.075;  293.125;    0.000
520.976; 1427.075;  281.125;    0.000
521.109; 1438.075;  279.125;    0.000
521.241; 1353.075;  318.125;    0.000
521.373; 1368.075;  242.125;    0.000
521.506; 1338.075;  246.125;    0.000
521.638; 1299.075;  312.125;    0.000
521.770; 1480.075;  257.125;    0.000
521.903; 1348.075;  295.125;    0.000
522.035; 1317.075;  283.125;    0.000
522.167; 1352.075;  281.125;    0.000
522.300; 1355.075;  262.125;    0.000
522.432; 1273.075;  272.125;    0.000
522.564; 1329.075;  277.125;    0.000
522.696; 1330.075;  295.125;    0.000
522.828; 1335.075;  284.125;    0.000
522.961; 1289.075;  295.125;    0.000
523.093; 1350.075;  282.125;    0.000
523.225; 1272.075;  270.125;    0.000
523.357; 1284.075;  285.125;    0.000
523.489; 1237.075;  292.125;    0.000
523.621; 1316.075;  285.125;    0.000
523.753; 1394.075;  273.125;    0.000
523.885; 1253.075;  271.125;    0.000
524.018; 1333.075;  276.125;    0.000
524.150; 1270.075;  320.125;    0.000
524.282; 1333.075;  304.125;    0.000
524.414; 1422.075;  302.125;    0.000
524.546; 1300.075;  305.125;    0.000
524.678; 1210.075;  264.125;    0.000
524.810; 1312.075;  258.125;    0.000
524.942; 1252.075;  252.125;    0.000
525.074; 1234.075;  275.125;    0.000
525.206; 1225.075;  286.125;    0.000
525.338; 1238.075;  280.125;    0.000
525.469; 1187.075;  267.125;    0.000
525.601; 1299.075;  266.125;    0.000
525.733; 1212.075;  283.125;    0.000
525.865; 1310.075;  273.125;    0.000
525.997; 1274.075;  286.125;    0.000
526.129; 1309.075;  249.125;    0.000
526.261; 1323.075;  233.125;    0.000
526.393; 1257.075;  257.125;    0.000
526.524; 1198.075;  184.125;    0.000
526.656; 1360.075;  259.125;    0.000
526.788; 1238.075;  268.125;    0.000
526.920; 1271.075;  262.125;    0.000
527.052; 1246.075;  250.125;    0.000
527.183; 1158.075;  264.125;    0.000
527.315; 1197.075;  301.125;    0.000
527.447; 1232.075;  262.125;    0.000
527.578; 1229.075;  267.125;    0.000
527.710; 1304.075;  299.125;    0.000
527.842; 1134.075;  266.125;    0.000
527.973; 1174.075;  240.125;    0.000
528.105; 1239.075;  275.125;    0.000
528.237; 1220.075;  239.125;    0.000
528.368; 1163.075;  275.125;    0.000
528.500; 1192.075;  271.125;    0.000
528.632; 1212.075;  252.125;    0.000
528.763; 1143.075;  253.125;    0.000
528.895; 1191.075;  259.125;    0.000
529.026; 1183.075;  209.125;    0.000
529.158; 1251.075;  291.125;    0.000
529.289; 1193.075;  280.125;    0.000
529.421; 1177.075;  274.125;    0.000
529.552; 1281.075;  253.125;    0.000
529.684; 1125.075;  310.125;    0.000
529.815; 1259.075;  305.125;    0.000
529.947; 1232.075;  234.125;    0.000
530.078; 1290.075;  259.125;    0.000
530.210; 1184.075;  264.125;    0.000
530.341; 1228.075;  267.125;    0.000
530.472; 1193.075;  232.125;    0.000
530.604; 1279.075;  293.125;    0.000
530.735; 1176.075;  275.125;    0.000
530.867; 1253.075;  280.125;    0.000
530.998; 1233.075;  295.125;    0.000
531.129; 1208.075;  274.125;    0.000
531.260; 1251.075;  272.125;    0.000
531.392; 1217.075;  275.125;    0.000
531.523; 1250.075;  244.125;    0.000
531.654; 1258.075;  289.125;    0.000
531.786; 1241.075;  259.125;    0.000
531.917; 1381.075;  286.125;    0.000
532.048; 1186.075;  293.125;    0.000
532.179; 1204.075;  288.125;    0.000
532.311; 1152.075;  296.125;    0.000
532.442; 1192.075;  277.125;    0.000
532.573; 1262.075;  273.125;    0.000
532.704; 1224.075;  308.125;    0.000
532.835; 1311.075;  308.125;    0.000
532.966; 1213.075;  274.125;    0.000
533.097; 1245.075;  310.125;    0.000
533.229; 1278.075;  294.125;    0.000
533.360; 1157.075;  324.125;    0.000
533.491; 1233.075;  278.125;    0.000
533.622; 1214.075;  319.125;    0.000
533.753; 1162.075;  303.125;    0.000
533.884; 1284.075;  269.125;    0.000
534.015; 1262.075;  266.125;    0.000
534.146; 1280.075;  283.125;    0.000
534.277; 1234.075;  299.125;    0.000
534.408; 1228.075;  265.125;    0.000
534.539; 1251.075;  310.125;    0.000
534.670; 1226.075;  319.125;    0.000
534.801; 1189.075;  281.125;    0.000
534.932; 1262.075;  239.125;    0.000
535.063; 1219.075;  276.125;    0.000
535.194; 1231.075;  361.125;    0.000
535.324; 1224.075;  283.125;    0.000
535.455; 1168.075;  282.125;    0.000
535.586; 1274.075;  331.125;    0.000
535.717; 1113.075;  262.125;    0.000
535.848; 1201.075;  308.125;    0.000
535.979; 1303.075;  273.125;    0.000
536.109; 1207.075;  277.125;    0.000
536.240; 1198.075;  293.125;    0.000
536.371; 1202.075;  295.125;    0.000
536.502; 1214.075;  330.125;    0.000
536.632; 1241.075;  280.125;    0.000
536.763; 1195.075;  332.125;    0.000
536.894; 1210.075;  334.125;    0.000
537.025; 1156.075;  295.125;    0.000
537.155; 1204.075;  321.125;    0.000
537.286; 1176.075;  292.125;    0.000
537.417; 1225.075;  314.125;    0.000
537.547; 1154.075;  287.125;    0.000
537.678; 1235.075;  287.125;    0.000
537.808; 1179.075;  278.125;    0.000
537.939; 1115.075;  304.125;    0.000
538.070; 1236.075;  303.125;    0.000
538.200; 1216.075;  279.125;    0.000
538.331; 1181.075;  321.125;    0.000
538.461; 1175.075;  313.125;    0.000
538.592; 1215.075;  290.125;    0.000
538.722; 1199.075;  285.125;    0.000
538.853; 1139.075;  261.125;    0.000
538.983; 1160.075;  280.125;    0.000
539.114; 1229.075;  310.125;    0.000
539.244; 1211.075;  281.125;    0.000
539.375; 1191.075;  292.125;    0.000
539.505; 1193.075;  286.125;    0.000
539.636; 1247.075;  276.125;    0.000
539.766; 1198.075;  287.125;    0.000
539.896; 1067.075;  292.125;    0.000
540.027; 1157.075;  262.125;    0.000
540.157; 1180.075;  269.125;    0.000
540.287; 1099.075;  282.125;    0.000
540.418; 1188.075;  269.125;    0.000
540.548; 1225.075;  328.125;    0.000
540.678; 1116.075;  271.125;    0.000
540.809; 1239.075;  272.125;    0.000
540.939; 1189.075;  299.125;    0.000
541.069; 1229.075;  266.125;    0.000
541.200; 1124.075;  242.125;    0.000
541.330; 1153.075;  257.125;    0.000
541.460; 1177.075;  270.125;    0.000
541.590; 1168.075;  287.125;    0.000
541.720; 1174.075;  255.125;    0.000
541.851; 1169.075;  273.125;    0.000
541.981; 1156.075;  244.125;    0.000
542.111; 1250.075;  263.125;    0.000
542.241; 1181.075;  271.125;    0.000
542.371; 1242.075;  263.125;    0.000
542.501; 1302.075;  274.125;    0.000
542.631; 1179.075;  288.125;    0.000
542.761; 1364.075;  261.125;    0.000
542.891; 1224.075;  253.125;    0.000
543.021; 1204.075;  249.125;    0.000
543.151; 1250.075;  261.125;    0.000
543.281; 1163.075;  256.125;    0.000
543.411; 1199.075;  290.125;    0.000
543.542; 1161.075;  278.125;    0.000
543.671; 1193.075;  238.125;    0.000
543.801; 1182.075;  256.125;    0.000
543.931; 1191.075;  254.125;    0.000
544.061; 1237.075;  237.125;    0.000
544.191; 1254.075;  245.125;    0.000
544.321; 1130.075;  267.125;    0.000
544.451; 1170.075;  262.125;    0.000
544.581; 1145.075;  221.125;    0.000
544.711; 1178.075;  252.125;    0.000
544.841; 1242.075;  264.125;    0.000
544.970; 1258.075;  315.125;    0.000
545.100; 1174.075;  245.125;    0.000
545.230; 1280.075;  276.125;    0.000
545.360; 1178.075;  278.125;    0.000
545.490; 1164.075;  268.125;    0.000
545.619; 1160.075;  237.125;    0.000
545.749; 1176.075;  228.125;    0.000
545.879; 1117.075;  234.125;    0.000
546.009; 1148.075;  287.125;    0.000
546.138; 1161.075;  222.125;    0.000
546.268; 1169.075;  228.125;    0.000
546.398; 1069.075;  244.125;    0.000
546.527; 1080.075;  233.125;    0.000
546.657; 1079.075;  189.125;    0.000
546.786; 1148.075;  247.125;    0.000
546.916; 1162.075;  244.125;    0.000
547.046; 1162.075;  214.125;    0.000
547.175; 1107.075;  242.125;    0.000
547.305; 1233.075;  252.125;    0.000
547.434; 1201.075;  191.125;    0.000
547.564; 1202.075;  208.125;    0.000
547.693; 1134.075;  213.125;    0.000
547.823; 1141.075;  209.125;    0.000
547.953; 1222.075;  250.125;    0.000
548.082; 1200.075;  231.125;    0.000
548.211; 1186.075;  226.125;    0.000
548.341; 1256.075;  254.125;    0.000
548.470; 1206.075;  266.125;    0.000
548.600; 1208.075;  229.125;    0.000
548.729; 1223.075;  225.125;    0.000
548.859; 1106.075;  185.125;    0.000
548.988; 1087.075;  225.125;    0.000
549.117; 1182.075;  241.125;    0.000
549.247; 1183.075;  236.125;    0.000
549.376; 1215.075;  220.125;    0.000
549.505; 1188.075;  254.125;    0.000
549.635; 1147.075;  268.125;    0.000
549.764; 1176.075;  194.125;    0.000
549.893; 1179.075;  232.125;    0.000
550.023; 1157.075;  222.125;    0.000
550.152; 1237.075;  223.125;    0.000
550.281; 1125.075;  210.125;    0.000
550.410; 1127.075;  197.125;    0.000
550.539; 1213.075;  222.125;    0.000
550.669; 1126.075;  245.125;    0.000
550.798; 1158.075;  265.125;    0.000
550.927; 1196.075;  249.125;    0.000
551.056; 1161.075;  184.125;    0.000
551.185; 1200.075;  247.125;    0.000
551.314; 1200.075;  258.125;    0.000
551.443; 1144.075;  224.125;    0.000
551.573; 1241.075;  204.125;    0.000
551.702; 1242.075;  220.125;    0.000
551.831; 1233.075;  287.125;    0.000
551.960; 1111.075;  259.125;    0.000
552.089; 1219.075;  222.125;    0.000
552.218; 1250.075;  254.125;    0.000
552.347; 1324.075;  260.125;    0.000
552.476; 1286.075;  251.125;    0.000
552.605; 1245.075;  229.125;    0.000
552.734; 1253.075;  261.125;    0.000
552.863; 1332.075;  225.125;    0.000
552.992; 1387.075;  202.125;    0.000
553.121; 1324.075;  193.125;    0.000
553.249; 1344.075;  224.125;    0.000
553.378; 1326.075;  274.125;    0.000
553.507; 1393.075;  248.125;    0.000
553.636; 1251.075;  203.125;    0.000
553.765; 1395.075;  224.125;    0.000
553.894; 1205.075;  246.125;    0.000
554.023; 1244.075;  229.125;    0.000
554.151; 1270.075;  216.125;    0.000
554.280; 1183.075;  223.125;    0.000
554.409; 1199.075;  240.125;    0.000
554.538; 1264.075;  277.125;    0.000
554.666; 1263.075;  244.125;    0.000
554.795; 1264.075;  240.125;    0.000
554.924; 1263.075;  257.125;    0.000
555.052; 1321.075;  266.125;    0.000
555.181; 1309.075;  244.125;    0.000
555.310; 1187.075;  262.125;    0.000
555.439; 1265.075;  260.125;    0.000
555.567; 1259.075;  234.125;    0.000
555.696; 1148.075;  237.125;    0.000
555.824; 1200.075;  232.125;    0.000
555.953; 1143.075;  279.125;    0.000
556.082; 1170.075;  234.125;    0.000
556.210; 1135.075;  235.125;    0.000
556.339; 1195.075;  198.125;    0.000
556.467; 1209.075;  216.125;    0.000
556.596; 1127.075;  273.125;    0.000
556.724; 1146.075;  245.125;    0.000
556.853; 1073.075;  241.125;    0.000
556.981; 1151.075;  219.125;    0.000
557.110; 1164.075;  242.125;    0.000
557.238; 1141.075;  202.125;    0.000
557.367; 1180.075;  254.125;    0.000
557.495; 1174.075;  260.125;    0.000
557.623; 1217.075;  207.125;    0.000
557.752; 1093.075;  219.125;    0.000
557.880; 1168.075;  209.125;    0.000
558.008; 1235.075;  243.125;    0.000
558.137; 1150.075;  244.125;    0.000
558.265; 1282.075;  221.125;    0.000
558.393; 1120.075;  297.125;    0.000
558.522; 1277.075;  232.125;    0.000
558.650; 1171.075;  299.125;    0.000
558.778; 1194.075;  210.125;    0.000
558.906; 1276.075;  240.125;    0.000
559.035; 1245.075;  252.125;    0.000
559.163; 1178.075;  246.125;    0.000
559.291; 1177.075;  213.125;    0.000
559.419; 1270.075;  221.125;    0.000
559.548; 1187.075;  208.125;    0.000
559.676; 1226.075;  254.125;    0.000
559.804; 1294.075;  213.125;    0.000
559.932; 1172.075;  208.125;    0.000
560.060; 1290.075;  276.125;    0.000
560.188; 1201.075;  278.125;    0.000
560.316; 1184.075;  217.125;    0.000
560.444; 1226.075;  254.125;    0.000
560.572; 1175.075;  226.125;    0.000
560.700; 1280.075;  282.125;    0.000
560.828; 1268.075;  211.125;    0.000
560.956; 1273.075;  264.125;    0.000
561.085; 1260.075;  295.125;    0.000
561.212; 1125.075;  229.125;    0.000
561.340; 1165.075;  259.125;    0.000
561.468; 1251.075;  253.125;    0.000
561.596; 1216.075;  240.125;    0.000
561.724; 1227.075;  259.125;    0.000
561.852; 1148.075;  224.125;    0.000
561.980; 1150.075;  251.125;    0.000
562.108; 1287.075;  214.125;    0.000
562.236; 1121.075;  258.125;    0.000
562.364; 1303.075;  237.125;    0.000
562.492; 1149.075;  228.125;    0.000
562.619; 1194.075;  223.125;    0.000
562.747; 1189.075;  263.125;    0.000
562.875; 1250.075;  257.125;    0.000
563.003; 1225.075;  216.125;    0.000
563.130; 1282.075;  190.125;    0.000
563.258; 1270.075;  225.125;    0.000
563.386; 1176.075;  259.125;    0.000
563.514; 1242.075;  264.125;    0.000
563.641; 1300.075;  230.125;    0.000
563.769; 1284.075;  257.125;    0.000
563.897; 1218.075;  210.125;    0.000
564.024; 1383.075;  221.125;    0.000
564.152; 1402.075;  256.125;    0.000
564.280; 1325.075;  225.125;    0.000
564.407; 1283.075;  262.125;    0.000
564.535; 1380.075;  235.125;    0.000
564.662; 1393.075;  238.125;    0.000
564.790; 1384.075;  248.125;    0.000
564.917; 1338.075;  214.125;    0.000
565.045; 1307.075;  253.125;    0.000
565.173; 1287.075;  225.125;    0.000
565.300; 1404.075;  261.125;    0.000
565.428; 1321.075;  218.125;    0.000
565.555; 1368.075;  245.125;    0.000
565.682; 1409.075;  242.125;    0.000
565.810; 1429.075;  228.125;    0.000
565.937; 1513.075;  230.125;    0.000
566.065; 1490.075;  251.125;    0.000
566.192; 1667.075;  196.125;    0.000
566.320; 1590.075;  217.125;    0.000
566.447; 1668.075;  224.125;    0.000
566.574; 1702.075;  221.125;    0.000
566.702; 1670.075;  221.125;    0.000
566.829; 1669.075;  252.125;    0.000
566.956; 1648.075;  214.125;    0.000
567.083; 1665.075;  204.125;    0.000
567.211; 1622.075;  216.125;    0.000
567.338; 1708.075;  228.125;    0.000
567.465; 1502.075;  208.125;    0.000
567.593; 1905.075;  205.125;    0.000
567.720; 1784.075;  194.125;    0.000
567.847; 1660.075;  268.125;    0.000
567.974; 1757.075;  198.125;    0.000
568.101; 1792.075;  224.125;    0.000
568.228; 2092.075;  236.125;    0.000
568.356; 2117.075;  207.125;    0.000
568.483; 2059.075;  220.125;    0.000
568.610; 1938.075;  181.125;    0.000
568.737; 2199.075;  216.125;    0.000
568.864; 2617.075;  258.125;    0.000
568.991; 2316.075;  203.125;    0.000
569.118; 2025.075;  232.125;    0.000
569.245; 1780.075;  192.125;    0.000
569.372; 1715.075;  226.125;    0.000
569.499; 1630.075;  211.125;    0.000
569.626; 1603.075;  247.125;    0.000
569.753; 1572.075;  248.125;    0.000
569.880; 1529.075;  226.125;    0.000
570.007; 1413.075;  215.125;    0.000
570.134; 1402.075;  205.125;    0.000
570.261; 1433.075;  187.125;    0.000
570.388; 1461.075;  258.125;    0.000
570.515; 1494.075;  241.125;    0.000
570.642; 1472.075;  211.125;    0.000
570.768; 1442.075;  228.125;    0.000
570.895; 1390.075;  229.125;    0.000
571.022; 1462.075;  203.125;    0.000
571.149; 1438.075;  206.125;    0.000
571.276; 1265.075;  191.125;    0.000
571.402; 1388.075;  218.125;    0.000
571.529; 1364.075;  192.125;    0.000
571.656; 1300.075;  209.125;    0.000
571.783; 1360.075;  181.125;    0.000
571.909; 1352.075;  251.125;    0.000
572.036; 1363.075;  225.125;    0.000
572.163; 1221.075;  214.125;    0.000
572.289; 1325.075;  252.125;    0.000
572.416; 1237.075;  220.125;    0.000
572.543; 1301.075;  225.125;    0.000
572.669; 1269.075;  226.125;    0.000
572.796; 1288.075;  231.125;    0.000
572.922; 1292.075;  258.125;    0.000
573.049; 1198.075;  202.125;    0.000
573.176; 1190.075;  254.125;    0.000
573.302; 1222.075;  215.125;    0.000
573.429; 1311.075;  251.125;    0.000
573.555; 1309.075;  221.125;    0.000
573.682; 1198.075;  227.125;    0.000
573.808; 1128.075;  259.125;    0.000
573.935; 1198.075;  233.125;    0.000
574.061; 1213.075;  241.125;    0.000
574.188; 1184.075;  238.125;    0.000
574.314; 1248.075;  221.125;    0.000
574.440; 1167.075;  221.125;    0.000
574.567; 1194.075;  216.125;    0.000
574.693; 1146.075;  224.125;    0.000
574.820; 1237.075;  199.125;    0.000
574.946; 1227.075;  248.125;    0.000
575.072; 1231.075;  220.125;    0.000
575.198; 1316.075;  262.125;    0.000
575.325; 1230.075;  232.125;    0.000
575.451; 1170.075;  225.125;    0.000
575.577; 1255.075;  216.125;    0.000
575.704; 1203.075;  248.125;    0.000
575.830; 1257.075;  227.125;    0.000
575.956; 1200.075;  206.125;    0.000
576.082; 1212.075;  222.125;    0.000
576.208; 1163.075;  206.125;    0.000
576.335; 1253.075;  256.125;    0.000
576.461; 1126.075;  247.125;    0.000
576.587; 1141.075;  219.125;    0.000
576.713; 1153.075;  215.125;    0.000
576.839; 1229.075;  225.125;    0.000
576.965; 1206.075;  230.125;    0.000
577.091; 1232.075;  235.125;    0.000
577.217; 1172.075;  235.125;    0.000
577.343; 1100.075;  233.125;    0.000
577.469; 1172.075;  242.125;    0.000
577.596; 1176.075;  241.125;    0.000
577.722; 1223.075;  255.125;    0.000
577.848; 1071.075;  235.125;    0.000
577.974; 1299.075;  210.125;    0.000
578.099; 1099.075;  239.125;    0.000
578.225; 1155.075;  258.125;    0.000
578.351; 1149.075;  209.125;    0.000
578.477; 1175.075;  255.125;    0.000
578.603; 1217.075;  213.125;    0.000
578.729; 1221.075;  221.125;    0.000
578.855; 1165.075;  209.125;    0.000
578.981; 1240.075;  206.125;    0.000
579.107; 1127.075;  221.125;    0.000
579.232; 1248.075;  206.125;    0.000
579.358; 1132.075;  226.125;    0.000
579.484; 1218.075;  244.125;    0.000
579.610; 1137.075;  261.125;    0.000
579.735; 1229.075;  270.125;    0.000
579.861; 1199.075;  255.125;    0.000
579.987; 1235.075;  249.125;    0.000
580.113; 1208.075;  260.125;    0.000
580.238; 1110.075;  206.125;    0.000
580.364; 1190.075;  249.125;    0.000
580.490; 1261.075;  225.125;    0.000
580.615; 1169.075;  266.125;    0.000
580.741; 1197.075;  224.125;    0.000
580.867; 1186.075;  251.125;    0.000
580.992; 1194.075;  270.125;    0.000
581.118; 1180.075;  248.125;    0.000
581.243; 1206.075;  251.125;    0.000
581.369; 1172.075;  192.125;    0.000
581.494; 1182.075;  259.125;    0.000
581.620; 1100.075;  245.125;    0.000
581.745; 1219.075;  232.125;    0.000
581.871; 1288.075;  243.125;    0.000
581.996; 1111.075;  216.125;    0.000
582.122; 1322.075;  263.125;    0.000
582.247; 1187.075;  254.125;    0.000
582.373; 1195.075;  232.125;    0.000
582.498; 1207.075;  275.125;    0.000
582.624; 1239.075;  260.125;    0.000
582.749; 1240.075;  251.125;    0.000
582.874; 1259.075;  245.125;    0.000
583.000; 1247.075;  278.125;    0.000
583.125; 1239.075;  211.125;    0.000
583.250; 1255.075;  246.125;    0.000
583.376; 1285.075;  259.125;    0.000
583.501; 1289.075;  254.125;    0.000
583.626; 1229.075;  209.125;    0.000
583.751; 1297.075;  239.125;    0.000
583.877; 1343.075;  255.125;    0.000
584.002; 1234.075;  263.125;    0.000
584.127; 1328.075;  205.125;    0.000
584.252; 1300.075;  196.125;    0.000
584.377; 1272.075;  249.125;    0.000
584.503; 1389.075;  219.125;    0.000
584.628; 1376.075;  243.125;    0.000
584.753; 1365.075;  250.125;    0.000
584.878; 1331.075;  208.125;    0.000
585.003; 1337.075;  234.125;    0.000
585.128; 1338.075;  207.125;    0.000
585.253; 1423.075;  219.125;    0.000
585.378; 1430.075;  205.125;    0.000
585.503; 1429.075;  256.125;    0.000
585.628; 1438.075;  217.125;    0.000
585.753; 1494.075;  213.125;    0.000
585.878; 1481.075;  147.125;    0.000
586.003; 1442.075;  256.125;    0.000
586.128; 1540.075;  214.125;    0.000
586.253; 1456.075;  254.125;    0.000
586.378; 1432.075;  252.125;    0.000
586.503; 1598.075;  219.125;    0.000
586.628; 1624.075;  226.125;    0.000
586.753; 1697.075;  237.125;    0.000
586.878; 1675.075;  185.125;    0.000
587.003; 1797.075;  248.125;    0.000
587.127; 1884.075;  237.125;    0.000
587.252; 1791.075;  221.125;    0.000
587.377; 2038.075;  244.125;    0.000
587.502; 2147.075;  260.125;    0.000
587.627; 2220.075;  232.125;    0.000
587.751; 2279.075;  250.125;    0.000
587.876; 2557.075;  234.125;    0.000
588.001; 2786.075;  248.125;    0.000
588.125; 3105.075;  236.125;    0.000
588.250; 3597.075;  192.125;    0.000
588.375; 4231.075;  265.125;    0.000
588.499; 5118.075;  235.125;    0.000
588.624; 7166.075;  212.125;    0.000
588.749;11274.075;  214.125;    0.000
588.873;21640.074;  236.125;    0.000
588.998;31463.074;  230.125;    0.000
589.122;26540.074;  231.125;    0.000
589.247;16544.074;  250.125;    0.000
589.372;13394.075;  247.125;    0.000
589.496;20999.074;  230.125;    0.000
589.621;26563.074;  237.125;    0.000
589.745;19471.074;  277.125;    0.000
589.870;10187.075;  283.125;    0.000
589.994; 6758.075;  263.125;    0.000
590.118; 5225.075;  239.125;    0.000
590.243; 4169.075;  218.125;    0.000
590.367; 3673.075;  226.125;    0.000
590.492; 3315.075;  269.125;    0.000
590.616; 3040.075;  205.125;    0.000
590.740; 2672.075;  243.125;    0.000
590.865; 2444.075;  281.125;    0.000
590.989; 2450.075;  233.125;    0.000
591.114; 2183.075;  222.125;    0.000
591.238; 2069.075;  204.125;    0.000
591.362; 2089.075;  283.125;    0.000
591.486; 2039.075;  236.125;    0.000
591.611; 1964.075;  228.125;    0.000
591.735; 1903.075;  249.125;    0.000
591.859; 1896.075;  202.125;    0.000
591.983; 1906.075;  257.125;    0.000
592.107; 1819.075;  230.125;    0.000
592.232; 1677.075;  266.125;    0.000
592.356; 1697.075;  232.125;    0.000
592.480; 1727.075;  245.125;    0.000
592.604; 1698.075;  254.125;    0.000
592.728; 1771.075;  233.125;    0.000
592.852; 1604.075;  213.125;    0.000
592.976; 1608.075;  234.125;    0.000
593.100; 1541.075;  246.125;    0.000
593.224; 1572.075;  305.125;    0.000
593.349; 1623.075;  240.125;    0.000
593.473; 1515.075;  206.125;    0.000
593.597; 1593.075;  243.125;    0.000
593.721; 1496.075;  247.125;    0.000
593.844; 1453.075;  230.125;    0.000
593.968; 1631.075;  226.125;    0.000
594.092; 1621.075;  193.125;    0.000
594.216; 1490.075;  237.125;    0.000
594.340; 1479.075;  235.125;    0.000
594.464; 1472.075;  225.125;    0.000
594.588; 1441.075;  269.125;    0.000
594.712; 1440.075;  242.125;    0.000
594.836; 1374.075;  240.125;    0.000
594.959; 1415.075;  255.125;    0.000
595.083; 1337.075;  258.125;    0.000
595.207; 1294.075;  264.125;    0.000
595.331; 1309.075;  215.125;    0.000
595.455; 1280.075;  234.125;    0.000
595.578; 1329.075;  215.125;    0.000
595.702; 1256.075;  259.125;    0.000
595.826; 1240.075;  232.125;    0.000
595.949; 1374.075;  251.125;    0.000
596.073; 1253.075;  197.125;    0.000
596.197; 1236.075;  239.125;    0.000
596.320; 1335.075;  229.125;    0.000
596.444; 1173.075;  264.125;    0.000
596.568; 1252.075;  207.125;    0.000
596.691; 1212.075;  234.125;    0.000
596.815; 1315.075;  241.125;    0.000
596.938; 1321.075;  244.125;    0.000
597.062; 1342.075;  210.125;    0.000
597.186; 1255.075;  247.125;    0.000
597.309; 1289.075;  215.125;    0.000
597.433; 1257.075;  266.125;    0.000
597.556; 1180.075;  234.125;    0.000
597.680; 1256.075;  261.125;    0.000
597.803; 1167.075;  239.125;    0.000
597.926; 1218.075;  251.125;    0.000
598.050; 1196.075;  227.125;    0.000
598.173; 1187.075;  247.125;    0.000
598.297; 1181.075;  244.125;    0.000
598.420; 1183.075;  243.125;    0.000
598.543; 1154.075;  237.125;    0.000
598.667; 1133.075;  239.125;    0.000
598.790; 1207.075;  217.125;    0.000
598.913; 1166.075;  244.125;    0.000
599.037; 1147.075;  249.125;    0.000
599.160; 1306.075;  222.125;    0.000
599.283; 1258.075;  235.125;    0.000
599.406; 1205.075;  228.125;    0.000
599.530; 1192.075;  234.125;    0.000
599.653; 1179.075;  228.125;    0.000
599.776; 1064.075;  263.125;    0.000
599.899; 1170.075;  197.125;    0.000
600.022; 1138.075;  224.125;    0.000
600.145; 1209.075;  211.125;    0.000
600.269; 1129.075;  246.125;    0.000
600.392; 1151.075;  233.125;    0.000
600.515; 1164.075;  266.125;    0.000
600.638; 1076.075;  246.125;    0.000
600.761; 1190.075;  213.125;    0.000
600.884; 1082.075;  279.125;    0.000
601.007; 1213.075;  268.125;    0.000
601.130; 1153.075;  203.125;    0.000
601.253; 1163.075;  241.125;    0.000
601.376; 1122.075;  248.125;    0.000
601.499; 1154.075;  241.125;    0.000
601.622; 1166.075;  266.125;    0.000
601.745; 1148.075;  237.125;    0.000
601.868; 1139.075;  256.125;    0.000
601.991; 1054.075;  260.125;    0.000
602.113; 1148.075;  246.125;    0.000
602.236; 1136.075;  243.125;    0.000
602.359; 1151.075;  220.125;    0.000
602.482; 1159.075;  236.125;    0.000
602.605; 1116.075;  216.125;    0.000
602.728; 1115.075;  247.125;    0.000
602.850; 1111.075;  255.125;    0.000
602.973; 1081.075;  224.125;    0.000
603.096; 1083.075;  258.125;    0.000
603.219; 1119.075;  222.125;    0.000
603.341; 1147.075;  235.125;    0.000
603.464; 1083.075;  223.125;    0.000
603.587; 1104.075;  250.125;    0.000
603.709; 1123.075;  229.125;    0.000
603.832; 1201.075;  285.125;    0.000
603.955; 1095.075;  225.125;    0.000
604.077; 1121.075;  235.125;    0.000
604.200; 1189.075;  209.125;    0.000
604.323; 1135.075;  240.125;    0.000
604.445; 1088.075;  198.125;    0.000
604.568; 1139.075;  230.125;    0.000
604.690; 1082.075;  225.125;    0.000
604.813; 1126.075;  248.125;    0.000
604.935; 1133.075;  204.125;    0.000
605.058; 1091.075;  191.125;    0.000
605.180; 1157.075;  237.125;    0.000
605.303; 1154.075;  224.125;    0.000
605.425; 1118.075;  244.125;    0.000
605.547; 1098.075;  268.125;    0.000
605.670; 1087.075;  211.125;    0.000
605.792; 1066.075;  266.125;    0.000
605.915; 1130.075;  202.125;    0.000
606.037; 1052.075;  236.125;    0.000
606.159; 1082.075;  234.125;    0.000
606.282; 1069.075;  223.125;    0.000
606.404; 1110.075;  217.125;    0.000
606.526; 1132.075;  221.125;    0.000
606.648; 1053.075;  204.125;    0.000
606.771; 1152.075;  265.125;    0.000
606.893; 1158.075;  211.125;    0.000
607.015; 1070.075;  206.125;    0.000
607.137; 1103.075;  222.125;    0.000
607.260; 1020.075;  228.125;    0.000
607.382; 1123.075;  202.125;    0.000
607.504; 1152.075;  257.125;    0.000
607.626; 1120.075;  249.125;    0.000
607.748; 1247.075;  233.125;    0.000
607.870; 1053.075;  222.125;    0.000
607.992; 1109.075;  227.125;    0.000
608.114; 1099.075;  228.125;    0.000
608.237; 1149.075;  254.125;    0.000
608.359; 1127.075;  216.125;    0.000
608.481; 1122.075;  197.125;    0.000
608.603; 1042.075;  209.125;    0.000
608.725; 1033.075;  220.125;    0.000
608.847; 1106.075;  259.125;    0.000
608.969; 1089.075;  242.125;    0.000
609.090; 1136.075;  218.125;    0.000
609.212; 1072.075;  200.125;    0.000
609.334; 1150.075;  212.125;    0.000
609.456; 1172.075;  231.125;    0.000
609.578; 1052.075;  249.125;    0.000
609.700; 1093.075;  185.125;    0.000
609.822;  981.075;  200.125;    0.000
609.944; 1076.075;  236.125;    0.000
610.065; 1063.075;  255.125;    0.000
610.187; 1121.075;  208.125;    0.000
610.309; 1106.075;  202.125;    0.000
610.431; 1094.075;  232.125;    0.000
610.552; 1119.075;  232.125;    0.000
610.674; 1171.075;  217.125;    0.000
610.796; 1070.075;  186.125;    0.000
610.918; 1070.075;  211.125;    0.000
611.039; 1096.075;  244.125;    0.000
611.161; 1191.075;  202.125;    0.000
611.282; 1045.075;  212.125;    0.000
611.404; 1136.075;  235.125;    0.000
611.526; 1094.075;  213.125;    0.000
611.647; 1149.075;  248.125;    0.000
611.769; 1003.075;  205.125;    0.000
611.890; 1100.075;  224.125;    0.000
612.012; 1081.075;  189.125;    0.000
612.133; 1202.075;  186.125;    0.000
612.255; 1250.075;  246.125;    0.000
612.377; 1129.075;  230.125;    0.000
612.498; 1111.075;  196.125;    0.000
612.619; 1070.075;  234.125;    0.000
612.741; 1104.075;  221.125;    0.000
612.862; 1078.075;  227.125;    0.000
612.984; 1016.075;  189.125;    0.000
613.105; 1055.075;  232.125;    0.000
613.226; 1112.075;  199.125;    0.000
613.348; 1083.075;  260.125;    0.000
613.469; 1158.075;  217.125;    0.000
613.590; 1111.075;  236.125;    0.000
613.712; 1061.075;  226.125;    0.000
613.833; 1135.075;  231.125;    0.000
613.954; 1225.075;  236.125;    0.000
614.076; 1146.075;  236.125;    0.000
614.197; 1091.075;  228.125;    0.000
614.318; 1178.075;  207.125;    0.000
614.439; 1105.075;  237.125;    0.000
614.560; 1120.075;  202.125;    0.000
614.682; 1046.075;  230.125;    0.000
614.803; 1063.075;  236.125;    0.000
614.924; 1092.075;  257.125;    0.000
615.045; 1118.075;  228.125;    0.000
615.166; 1155.075;  221.125;    0.000
615.287; 1122.075;  199.125;    0.000
615.408; 1279.075;  228.125;    0.000
615.529; 1323.075;  200.125;    0.000
615.650; 1204.075;  224.125;    0.000
615.771; 1157.075;  202.125;    0.000
615.892; 1096.075;  215.125;    0.000
616.013; 1349.075;  246.125;    0.000
616.134; 1523.075;  210.125;    0.000
616.255; 1513.075;  232.125;    0.000
616.376; 1288.075;  241.125;    0.000
616.497; 1143.075;  213.125;    0.000
616.618; 1144.075;  171.125;    0.000
616.739; 1181.075;  221.125;    0.000
616.860; 1210.075;  244.125;    0.000
616.981; 1161.075;  240.125;    0.000
617.102; 1065.075;  234.125;    0.000
617.222; 1121.075;  265.125;    0.000
617.343; 1026.075;  206.125;    0.000
617.464; 1100.075;  246.125;    0.000
617.585; 1078.075;  256.125;    0.000
617.705; 1062.075;  249.125;    0.000
617.826; 1186.075;  218.125;    0.000
617.947; 1000.075;  225.125;    0.000
618.068; 1079.075;  199.125;    0.000
618.188;  998.075;  202.125;    0.000
618.309; 1156.075;  220.125;    0.000
618.430; 1092.075;  229.125;    0.000
618.550; 1065.075;  252.125;    0.000
618.671; 1067.075;  233.125;    0.000
618.791; 1056.075;  227.125;    0.000
618.912; 1087.075;  236.125;    0.000
619.033; 1059.075;  220.125;    0.000
619.153; 1098.075;  228.125;    0.000
619.274;  955.075;  208.125;    0.000
619.394; 1075.075;  255.125;    0.000
619.515; 1011.075;  206.125;    0.000
619.635; 1059.075;  204.125;    0.000
619.756; 1046.075;  252.125;    0.000
619.876; 1045.075;  238.125;    0.000
619.996; 1097.075;  249.125;    0.000
620.117; 1055.075;  223.125;    0.000
620.237; 1061.075;  210.125;    0.000
620.358; 1122.075;  264.125;    0.000
620.478; 1144.075;  263.125;    0.000
620.598; 1116.075;  238.125;    0.000
620.719; 1059.075;  225.125;    0.000
620.839; 1070.075;  259.125;    0.000
620.959; 1166.075;  218.125;    0.000
621.079; 1013.075;  253.125;    0.000
621.200; 1021.075;  245.125;    0.000
621.320; 1029.075;  254.125;    0.000
621.440; 1034.075;  233.125;    0.000
621.560; 1072.075;  235.125;    0.000
621.681; 1026.075;  234.125;    0.000
621.801; 1076.075;  240.125;    0.000
621.921; 1062.075;  239.125;    0.000
622.041; 1046.075;  288.125;    0.000
622.161; 1019.075;  229.125;    0.000
622.281; 1014.075;  223.125;    0.000
622.401; 1079.075;  240.125;    0.000
622.521; 1024.075;  267.125;    0.000
622.641; 1076.075;  226.125;    0.000
622.761; 1103.075;  252.125;    0.000
622.882; 1026.075;  207.125;    0.000
623.002; 1049.075;  226.125;    0.000
623.121; 1017.075;  207.125;    0.000
623.241; 1127.075;  215.125;    0.000
623.361;  975.075;  222.125;    0.000
623.481;  952.075;  187.125;    0.000
623.601; 1036.075;  283.125;    0.000
623.721; 1080.075;  283.125;    0.000
623.841; 1053.075;  233.125;    0.000
623.961; 1049.075;  215.125;    0.000
624.081;  965.075;  219.125;    0.000
624.201; 1015.075;  221.125;    0.000
624.320; 1037.075;  215.125;    0.000
624.440;  976.075;  222.125;    0.000
624.560; 1052.075;  231.125;    0.000
624.680; 1038.075;  225.125;    0.000
624.799; 1029.075;  230.125;    0.000
624.919; 1062.075;  243.125;    0.000
625.039; 1039.075;  203.125;    0.000
625.159;  981.075;  257.125;    0.000
625.278; 1100.075;  230.125;    0.000
625.398; 1110.075;  195.125;    0.000
625.518; 1008.075;  211.125;    0.000
625.637; 1083.075;  267.125;    0.000
625.757; 1052.075;  228.125;    0.000
625.876;  999.075;  231.125;    0.000
625.996; 1044.075;  219.125;    0.000
626.115; 1027.075;  235.125;    0.000
626.235;  985.075;  199.125;    0.000
626.354; 1077.075;  226.125;    0.000
626.474;  975.075;  225.125;    0.000
626.594;  939.075;  223.125;    0.000
626.713; 1015.075;  231.125;    0.000
626.832; 1048.075;  287.125;    0.000
626.952;  950.075;  251.125;    0.000
627.071;  967.075;  254.125;    0.000
627.191; 1041.075;  193.125;    0.000
627.310;  973.075;  213.125;    0.000
627.429; 1003.075;  259.125;    0.000
627.549;  936.075;  243.125;    0.000
627.668;  951.075;  181.125;    0.000
627.787; 1026.075;  232.125;    0.000
627.907; 1028.075;  222.125;    0.000
628.026;  999.075;  219.125;    0.000
628.145; 1015.075;  201.125;    0.000
628.264;  961.075;  198.125;    0.000
628.384; 1008.075;  208.125;    0.000
628.503;  961.075;  251.125;    0.000
628.622;  953.075;  195.125;    0.000
628.741;  981.075;  180.125;    0.000
628.860;  960.075;  235.125;    0.000
628.980;  963.075;  222.125;    0.000
629.099;  954.075;  237.125;    0.000
629.218;  968.075;  175.125;    0.000
629.337; 1048.075;  194.125;    0.000
629.456;  985.075;  225.125;    0.000
629.575;  999.075;  239.125;    0.000
629.694;  998.075;  230.125;    0.000
629.813; 1019.075;  197.125;    0.000
629.932;  933.075;  225.125;    0.000
630.051;  946.075;  238.125;    0.000
630.170; 1031.075;  233.125;    0.000
630.289;  952.075;  231.125;    0.000
630.408;  943.075;  204.125;    0.000
630.527;  922.075;  262.125;    0.000
630.646;  994.075;  181.125;    0.000
630.764;  975.075;  218.125;    0.000
630.883; 1059.075;  215.125;    0.000
631.002;  921.075;  224.125;    0.000
631.121; 1016.075;  209.125;    0.000
631.240;  974.075;  230.125;    0.000
631.359; 1095.075;  235.125;    0.000
631.477;  967.075;  223.125;    0.000
631.596; 1064.075;  218.125;    0.000
631.715; 1121.075;  234.125;    0.000
631.834; 1002.075;  215.125;    0.000
631.952;  953.075;  243.125;    0.000
632.071; 1009.075;  219.125;    0.000
632.190;  941.075;  235.125;    0.000
632.308;  968.075;  239.125;    0.000
632.427;  936.075;  211.125;    0.000
632.546; 1016.075;  233.125;    0.000
632.664; 1014.075;  219.125;    0.000
632.783; 1014.075;  203.125;    0.000
632.901; 1079.075;  221.125;    0.000
633.020;  999.075;  197.125;    0.000
633.138; 1011.075;  244.125;    0.000
633.257; 1028.075;  205.125;    0.000
633.375;  966.075;  245.125;    0.000
633.494; 1031.075;  218.125;    0.000
633.612; 1025.075;  222.125;    0.000
633.731; 1045.075;  212.125;    0.000
633.849;  991.075;  218.125;    0.000
633.968;  920.075;  236.125;    0.000
634.086;  989.075;  233.125;    0.000
634.204;  996.075;  215.125;    0.000
634.323; 1052.075;  230.125;    0.000
634.441;  923.075;  235.125;    0.000
634.559;  963.075;  202.125;    0.000
634.678;  970.075;  218.125;    0.000
634.796; 1053.075;  203.125;    0.000
634.914;  919.075;  227.125;    0.000
635.032;  999.075;  279.125;    0.000
635.151;  927.075;  221.125;    0.000
635.269;  960.075;  207.125;    0.000
635.387; 1028.075;  195.125;    0.000
635.505;  961.075;  243.125;    0.000
635.623;  959.075;  269.125;    0.000
635.742;  971.075;  232.125;    0.000
635.860;  993.075;  243.125;    0.000
635.978;  963.075;  215.125;    0.000
636.096;  958.075;  225.125;    0.000
636.214;  983.075;  244.125;    0.000
636.332;  941.075;  226.125;    0.000
636.450;  938.075;  227.125;    0.000
636.568; 1007.075;  225.125;    0.000
636.686;  862.075;  194.125;    0.000
636.804;  977.075;  234.125;    0.000
636.922;  970.075;  177.125;    0.000
637.040;  972.075;  225.125;    0.000
637.158;  905.075;  194.125;    0.000
637.276; 1024.075;  219.125;    0.000
637.394;  984.075;  219.125;    0.000
637.512;  998.075;  210.125;    0.000
637.629; 1003.075;  242.125;    0.000
637.747;  988.075;  193.125;    0.000
637.865;  925.075;  219.125;    0.000
637.983;  981.075;  251.125;    0.000
638.101;  868.075;  221.125;    0.000
638.218;  929.075;  193.125;    0.000
638.336; 1009.075;  224.125;    0.000
638.454;  954.075;  227.125;    0.000
638.572; 1058.075;  245.125;    0.000
638.689;  891.075;  222.125;    0.000
638.807; 1032.075;  244.125;    0.000
638.925;  968.075;  238.125;    0.000
639.042;  994.075;  213.125;    0.000
639.160;  986.075;  186.125;    0.000
639.278;  941.075;  203.125;    0.000
639.395; 1001.075;  270.125;    0.000
639.513;  963.075;  227.125;    0.000
639.630;  944.075;  200.125;    0.000
639.748;  942.075;  199.125;    0.000
639.865; 1004.075;  233.125;    0.000
639.983;  982.075;  181.125;    0.000
640.100;  977.075;  219.125;    0.000
640.218; 1001.075;  234.125;    0.000
640.335;  990.075;  233.125;    0.000
640.453;  985.075;  202.125;    0.000
640.570;  976.075;  214.125;    0.000
640.688;  930.075;  215.125;    0.000
640.805;  926.075;  229.125;    0.000
640.922;  926.075;  244.125;    0.000
641.040;  996.075;  233.125;    0.000
641.157;  945.075;  199.125;    0.000
641.274; 1004.075;  205.125;    0.000
641.391;  968.075;  244.125;    0.000
641.509;  960.075;  184.125;    0.000
641.626;  983.075;  244.125;    0.000
641.743;  972.075;  221.125;    0.000
641.860; 1075.075;  206.125;    0.000
641.978;  909.075;  272.125;    0.000
642.095;  951.075;  218.125;    0.000
642.212;  947.075;  208.125;    0.000
642.329; 1013.075;  218.125;    0.000
642.446; 1009.075;  197.125;    0.000
642.563;  996.075;  214.125;    0.000
642.681;  937.075;  203.125;    0.000
642.798;  983.075;  236.125;    0.000
642.915;  970.075;  191.125;    0.000
643.032; 1018.075;  226.125;    0.000
643.149; 1011.075;  231.125;    0.000
643.266; 1010.075;  213.125;    0.000
643.383;  957.075;  240.125;    0.000
643.500; 1048.075;  185.125;    0.000
643.617;  960.075;  229.125;    0.000
643.734; 1021.075;  205.125;    0.000
643.850; 1104.075;  222.125;    0.000
643.967; 1134.075;  202.125;    0.000
644.084; 1031.075;  264.125;    0.000
644.201;  953.075;  214.125;    0.000
644.318; 1062.075;  206.125;    0.000
644.435; 1049.075;  225.125;    0.000
644.552;  932.075;  203.125;    0.000
644.668; 1013.075;  252.125;    0.000
644.785; 1086.075;  213.125;    0.000
644.902; 1098.075;  233.125;    0.000
645.019; 1060.075;  220.125;    0.000
645.135; 1069.075;  225.125;    0.000
645.252;  998.075;  218.125;    0.000
645.369;  972.075;  214.125;    0.000
645.485; 1032.075;  210.125;    0.000
645.602; 1125.075;  198.125;    0.000
645.719; 1014.075;  228.125;    0.000
645.835; 1058.075;  209.125;    0.000
645.952; 1029.075;  213.125;    0.000
646.068; 1141.075;  241.125;    0.000
646.185; 1112.075;  219.125;    0.000
646.302; 1126.075;  246.125;    0.000
646.418; 1110.075;  228.125;    0.000
646.535; 1184.075;  256.125;    0.000
646.651;  964.075;  222.125;    0.000
646.768; 1003.075;  203.125;    0.000
646.884; 1074.075;  199.125;    0.000
647.000; 1072.075;  194.125;    0.000
647.117; 1059.075;  214.125;    0.000
647.233; 1117.075;  209.125;    0.000
647.350; 1065.075;  235.125;    0.000
647.466; 1152.075;  237.125;    0.000
647.582; 1071.075;  231.125;    0.000
647.699; 1157.075;  219.125;    0.000
647.815; 1062.075;  200.125;    0.000
647.931; 1126.075;  173.125;    0.000
648.047; 1075.075;  184.125;    0.000
648.164; 1085.075;  199.125;    0.000
648.280; 1176.075;  209.125;    0.000
648.396; 1076.075;  220.125;    0.000
648.512; 1162.075;  212.125;    0.000
648.629; 1141.075;  214.125;    0.000
648.745; 1036.075;  197.125;    0.000
648.861; 1133.075;  228.125;    0.000
648.977; 1089.075;  238.125;    0.000
649.093; 1054.075;  208.125;    0.000
649.209; 1256.075;  179.125;    0.000
649.325; 1183.075;  256.125;    0.000
649.441; 1184.075;  224.125;    0.000
649.557; 1194.075;  247.125;    0.000
649.673; 1182.075;  214.125;    0.000
649.789; 1165.075;  213.125;    0.000
649.905; 1167.075;  170.125;    0.000
650.021; 1213.075;  236.125;    0.000
650.137; 1144.075;  229.125;    0.000
650.253; 1298.075;  207.125;    0.000
650.369; 1132.075;  198.125;    0.000
650.485; 1175.075;  225.125;    0.000
650.601; 1268.075;  260.125;    0.000
650.717; 1249.075;  196.125;    0.000
650.833; 1288.075;  219.125;    0.000
650.948; 1301.075;  203.125;    0.000
651.064; 1289.075;  232.125;    0.000
651.180; 1339.075;  252.125;    0.000
651.296; 1214.075;  190.125;    0.000
651.411; 1281.075;  235.125;    0.000
651.527; 1246.075;  227.125;    0.000
651.643; 1280.075;  238.125;    0.000
651.759; 1311.075;  260.125;    0.000
651.874; 1284.075;  217.125;    0.000
651.990; 1268.075;  239.125;    0.000
652.105; 1308.075;  215.125;    0.000
652.221; 1319.075;  237.125;    0.000
652.337; 1255.075;  238.125;    0.000
652.452; 1339.075;  230.125;    0.000
652.568; 1405.075;  201.125;    0.000
652.683; 1355.075;  243.125;    0.000
652.799; 1399.075;  218.125;    0.000
652.914; 1327.075;  189.125;    0.000
653.030; 1401.075;  191.125;    0.000
653.145; 1440.075;  240.125;    0.000
653.261; 1463.075;  225.125;    0.000
653.376; 1445.075;  241.125;    0.000
653.492; 1411.075;  188.125;    0.000
653.607; 1578.075;  219.125;    0.000
653.722; 1481.075;  268.125;    0.000
653.838; 1537.075;  262.125;    0.000
653.953; 1574.075;  188.125;    0.000
654.068; 1651.075;  244.125;    0.000
654.184; 1724.075;  247.125;    0.000
654.299; 1748.075;  228.125;    0.000
654.414; 1648.075;  181.125;    0.000
654.530; 1690.075;  210.125;    0.000
654.645; 1737.075;  240.125;    0.000
654.760; 1917.075;  219.125;    0.000
654.875; 1893.075;  178.125;    0.000
654.990; 2081.075;  222.125;    0.000
655.106; 1996.075;  227.125;    0.000
655.221; 2182.075;  270.125;    0.000
655.336; 2230.075;  199.125;    0.000
655.451; 2368.075;  235.125;    0.000
655.566; 2380.075;  251.125;    0.000
655.681; 2657.075;  253.125;    0.000
655.796; 2650.075;  207.125;    0.000
655.911; 2658.075;  213.125;    0.000
656.026; 2845.075;  247.125;    0.000
656.141; 3191.075;  209.125;    0.000
656.256; 3254.075;  226.125;    0.000
656.371; 3360.075;  201.125;    0.000
656.486; 3258.075;  196.125;    0.000
656.601; 3348.075;  239.125;    0.000
656.716; 2803.075;  234.125;    0.000
656.831; 3036.075;  223.125;    0.000
656.946; 2761.075;  246.125;    0.000
657.060; 2680.075;  230.125;    0.000
657.175; 2643.075;  207.125;    0.000
657.290; 2475.075;  213.125;    0.000
657.405; 2437.075;  319.125;    0.000
657.520; 2266.075;  241.125;    0.000
657.634; 2295.075;  235.125;    0.000
657.749; 2189.075;  275.125;    0.000
657.864; 2173.075;  210.125;    0.000
657.979; 2014.075;  227.125;    0.000
658.093; 2000.075;  206.125;    0.000
658.208; 2041.075;  217.125;    0.000
658.323; 1844.075;  227.125;    0.000
658.437; 1852.075;  217.125;    0.000
658.552; 1830.075;  237.125;    0.000
658.666; 1787.075;  233.125;    0.000
658.781; 1814.075;  248.125;    0.000
658.895; 1695.075;  233.125;    0.000
659.010; 1751.075;  238.125;    0.000
659.125; 1816.075;  206.125;    0.000
659.239; 1669.075;  220.125;    0.000
659.353; 1680.075;  236.125;    0.000
659.468; 1511.075;  238.125;    0.000
659.582; 1657.075;  275.125;    0.000
659.697; 1549.075;  239.125;    0.000
659.811; 1516.075;  232.125;    0.000
659.926; 1511.075;  230.125;    0.000
660.040; 1547.075;  257.125;    0.000
660.154; 1470.075;  221.125;    0.000
660.269; 1538.075;  219.125;    0.000
660.383; 1385.075;  228.125;    0.000
660.497; 1399.075;  243.125;    0.000
660.612; 1399.075;  238.125;    0.000
660.726; 1434.075;  260.125;    0.000
660.840; 1444.075;  239.125;    0.000
660.954; 1362.075;  236.125;    0.000
661.068; 1369.075;  239.125;    0.000
661.183; 1309.075;  245.125;    0.000
661.297; 1328.075;  198.125;    0.000
661.411; 1243.075;  203.125;    0.000
661.525; 1330.075;  244.125;    0.000
661.639; 1244.075;  229.125;    0.000
661.753; 1288.075;  238.125;    0.000
661.867; 1293.075;  237.125;    0.000
661.981; 1225.075;  219.125;    0.000
662.095; 1206.075;  232.125;    0.000
662.209; 1299.075;  236.125;    0.000
662.323; 1221.075;  209.125;    0.000
662.437; 1160.075;  206.125;    0.000
662.551; 1144.075;  217.125;    0.000
662.665; 1104.075;  262.125;    0.000
662.779; 1167.075;  234.125;    0.000
662.893; 1204.075;  222.125;    0.000
663.007; 1111.075;  189.125;    0.000
663.121; 1207.075;  258.125;    0.000
663.235; 1129.075;  191.125;    0.000
663.349; 1133.075;  259.125;    0.000
663.462; 1083.075;  209.125;    0.000
663.576; 1113.075;  244.125;    0.000
663.690; 1155.075;  237.125;    0.000
663.804; 1072.075;  205.125;    0.000
663.917; 1056.075;  207.125;    0.000
664.031; 1069.075;  234.125;    0.000
664.145;  962.075;  216.125;    0.000
664.258; 1069.075;  202.125;    0.000
664.372; 1017.075;  198.125;    0.000
664.486;  991.075;  181.125;    0.000
664.599; 1052.075;  229.125;    0.000
664.713; 1084.075;  266.125;    0.000
664.827; 1034.075;  185.125;    0.000
664.940; 1076.075;  225.125;    0.000
665.054; 1033.075;  198.125;    0.000
665.167;  963.075;  208.125;    0.000
665.281; 1017.075;  231.125;    0.000
665.394;  954.075;  228.125;    0.000
665.508; 1093.075;  204.125;    0.000
665.621; 1046.075;  263.125;    0.000
665.735;  995.075;  222.125;    0.000
665.848;  976.075;  237.125;    0.000
665.961; 1034.075;  180.125;    0.000
666.075; 1018.075;  212.125;    0.000
666.188; 1020.075;  229.125;    0.000
666.301; 1029.075;  247.125;    0.000
666.415;  971.075;  212.125;    0.000
666.528;  960.075;  268.125;    0.000
666.641;  940.075;  210.125;    0.000
666.755;  959.075;  178.125;    0.000
666.868;  922.075;  227.125;    0.000
666.981;  979.075;  250.125;    0.000
667.094;  951.075;  228.125;    0.000
667.207;  919.075;  235.125;    0.000
667.321;  847.075;  171.125;    0.000
667.434;  902.075;  191.125;    0.000
667.547;  951.075;  279.125;    0.000
667.660;  863.075;  210.125;    0.000
667.773;  951.075;  217.125;    0.000
667.886;  901.075;  209.125;    0.000
667.999;  904.075;  239.125;    0.000
668.112;  933.075;  227.125;    0.000
668.225;  955.075;  185.125;    0.000
668.338;  875.075;  222.125;    0.000
668.451;  822.075;  200.125;    0.000
668.564;  915.075;  237.125;    0.000
668.677;  862.075;  207.125;    0.000
668.790;  841.075;  208.125;    0.000
668.903;  923.075;  243.125;    0.000
669.016;  870.075;  190.125;    0.000
669.129;  827.075;  234.125;    0.000
669.242;  842.075;  185.125;    0.000
669.354;  840.075;  224.125;    0.000
669.467;  873.075;  219.125;    0.000
669.580;  854.075;  249.125;    0.000
669.693;  903.075;  187.125;    0.000
669.806;  822.075;  206.125;    0.000
669.918;  811.075;  192.125;    0.000
670.031;  882.075;  235.125;    0.000
670.144;  886.075;  238.125;    0.000
670.256;  823.075;  237.125;    0.000
670.369;  848.075;  237.125;    0.000
670.482;  849.075;  250.125;    0.000
670.594;  824.075;  273.125;    0.000
670.707;  900.075;  223.125;    0.000
670.820;  829.075;  238.125;    0.000
670.932;  881.075;  224.125;    0.000
671.045;  906.075;  219.125;    0.000
671.157;  851.075;  242.125;    0.000
671.270;  845.075;  235.125;    0.000
671.382;  822.075;  213.125;    0.000
671.495;  834.075;  254.125;    0.000
671.607;  840.075;  253.125;    0.000
671.720;  839.075;  169.125;    0.000
671.832;  828.075;  201.125;    0.000
671.944;  840.075;  250.125;    0.000
672.057;  818.075;  187.125;    0.000
672.169;  857.075;  224.125;    0.000
672.281;  877.075;  238.125;    0.000
672.394;  871.075;  250.125;    0.000
672.506;  895.075;  227.125;    0.000
672.618;  850.075;  223.125;    0.000
672.731;  806.075;  210.125;    0.000
672.843;  820.075;  245.125;    0.000
672.955;  825.075;  263.125;    0.000
673.067;  853.075;  239.125;    0.000
673.180;  850.075;  253.125;    0.000
673.292;  814.075;  243.125;    0.000
673.404;  791.075;  226.125;    0.000
673.516;  812.075;  223.125;    0.000
673.628;  852.075;  223.125;    0.000
673.740;  806.075;  216.125;    0.000
673.852;  858.075;  277.125;    0.000
673.964;  807.075;  211.125;    0.000
674.076;  787.075;  241.125;    0.000
674.188;  823.075;  251.125;    0.000
674.300;  812.075;  268.125;    0.000
674.412;  882.075;  260.125;    0.000
674.524;  875.075;  257.125;    0.000
674.636;  831.075;  222.125;    0.000
674.748;  847.075;  227.125;    0.000
674.860;  735.075;  250.125;    0.000
674.972;  868.075;  240.125;    0.000
675.084;  765.075;  262.125;    0.000
675.196;  855.075;  287.125;    0.000
675.307;  805.075;  257.125;    0.000
675.419;  741.075;  231.125;    0.000
675.531;  833.075;  274.125;    0.000
675.643;  776.075;  235.125;    0.000
675.755;  761.075;  275.125;    0.000
675.866;  832.075;  238.125;    0.000
675.978;  756.075;  209.125;    0.000
676.090;  760.075;  239.125;    0.000
676.201;  819.075;  249.125;    0.000
676.313;  764.075;  237.125;    0.000
676.425;  877.075;  263.125;    0.000
676.536;  787.075;  178.125;    0.000
676.648;  779.075;  245.125;    0.000
676.759;  781.075;  244.125;    0.000
676.871;  783.075;  242.125;    0.000
676.983;  786.075;  245.125;    0.000
677.094;  725.075;  209.125;    0.000
677.206;  807.075;  248.125;    0.000
677.317;  770.075;  260.125;    0.000
677.429;  797.075;  237.125;    0.000
677.540;  816.075;  226.125;    0.000
677.651;  678.075;  226.125;    0.000
677.763;  779.075;  194.125;    0.000
677.874;  714.075;  230.125;    0.000
677.986;  772.075;  202.125;    0.000
678.097;  779.075;  229.125;    0.000
678.208;  830.075;  263.125;    0.000
678.320;  807.075;  243.125;    0.000
678.431;  794.075;  229.125;    0.000
678.542;  731.075;  231.125;    0.000
678.653;  721.075;  224.125;    0.000
678.765;  790.075;  255.125;    0.000
678.876;  747.075;  175.125;    0.000
678.987;  730.075;  204.125;    0.000
679.098;  701.075;  227.125;    0.000
679.209;  702.075;  228.125;    0.000
679.320;  674.075;  223.125;    0.000
679.432;  747.075;  219.125;    0.000
679.543;  678.075;  210.125;    0.000
679.654;  702.075;  249.125;    0.000
679.765;  730.075;  222.125;    0.000
679.876;  706.075;  219.125;    0.000
679.987;  741.075;  213.125;    0.000
680.098;  774.075;  237.125;    0.000
680.209;  752.075;  188.125;    0.000
680.320;  724.075;  243.125;    0.000
680.431;  668.075;  227.125;    0.000
680.542;  682.075;  212.125;    0.000
680.653;  746.075;  266.125;    0.000
680.763;  653.075;  198.125;    0.000
680.874;  711.075;  211.125;    0.000
680.985;  659.075;  207.125;    0.000
681.096;  720.075;  244.125;    0.000
681.207;  762.075;  209.125;    0.000
681.318;  726.075;  215.125;    0.000
681.428;  745.075;  199.125;    0.000
681.539;  669.075;  175.125;    0.000
681.650;  623.075;  224.125;    0.000
681.760;  750.075;  216.125;    0.000
681.871;  664.075;  187.125;    0.000
681.982;  762.075;  237.125;    0.000
682.093;  698.075;  213.125;    0.000
682.203;  723.075;  190.125;    0.000
682.314;  750.075;  230.125;    0.000
682.424;  717.075;  223.125;    0.000
682.535;  642.075;  172.125;    0.000
682.646;  724.075;  268.125;    0.000
682.756;  699.075;  249.125;    0.000
682.867;  736.075;  225.125;    0.000
682.977;  696.075;  211.125;    0.000
683.088;  676.075;  238.125;    0.000
683.198;  719.075;  202.125;    0.000
683.308;  675.075;  196.125;    0.000
683.419;  743.075;  230.125;    0.000
683.529;  743.075;  213.125;    0.000
683.640;  691.075;  225.125;    0.000
683.750;  683.075;  203.125;    0.000
683.860;  751.075;  200.125;    0.000
683.971;  745.075;  269.125;    0.000
684.081;  699.075;  204.125;    0.000
684.191;  733.075;  228.125;    0.000
684.301;  679.075;  219.125;    0.000
684.412;  719.075;  222.125;    0.000
684.522;  646.075;  242.125;    0.000
684.632;  713.075;  234.125;    0.000
684.742;  690.075;  240.125;    0.000
684.852;  713.075;  229.125;    0.000
684.963;  671.075;  237.125;    0.000
685.073;  664.075;  205.125;    0.000
685.183;  712.075;  241.125;    0.000
685.293;  716.075;  202.125;    0.000
685.403;  774.075;  232.125;    0.000
685.513;  713.075;  244.125;    0.000
685.623;  745.075;  224.125;    0.000
685.733;  673.075;  236.125;    0.000
685.843;  765.075;  235.125;    0.000
685.953;  698.075;  216.125;    0.000
686.063;  702.075;  214.125;    0.000
686.173;  746.075;  198.125;    0.000
686.283;  698.075;  250.125;    0.000
686.393;  688.075;  227.125;    0.000
686.503;  658.075;  244.125;    0.000
686.612;  788.075;  247.125;    0.000
686.722;  728.075;  265.125;    0.000
686.832;  726.075;  213.125;    0.000
686.942;  713.075;  241.125;    0.000
687.052;  680.075;  238.125;    0.000
687.161;  679.075;  233.125;    0.000
687.271;  697.075;  232.125;    0.000
687.381;  676.075;  220.125;    0.000
687.491;  628.075;  206.125;    0.000
687.600;  707.075;  283.125;    0.000
687.710;  713.075;  212.125;    0.000
687.820;  668.075;  226.125;    0.000
687.929;  707.075;  202.125;    0.000
688.039;  735.075;  225.125;    0.000
688.148;  669.075;  235.125;    0.000
688.258;  670.075;  224.125;    0.000
688.367;  689.075;  239.125;    0.000
688.477;  701.075;  193.125;    0.000
688.586;  645.075;  226.125;    0.000
688.696;  674.075;  185.125;    0.000
688.805;  688.075;  190.125;    0.000
688.915;  662.075;  209.125;    0.000
689.024;  696.075;  214.125;    0.000
689.134;  682.075;  205.125;    0.000
689.243;  642.075;  190.125;    0.000
689.352;  707.075;  233.125;    0.000
689.462;  678.075;  196.125;    0.000
689.571;  651.075;  227.125;    0.000
689.680;  682.075;  206.125;    0.000
689.790;  682.075;  193.125;    0.000
689.899;  697.075;  204.125;    0.000
690.008;  696.075;  228.125;    0.000
690.117;  607.075;  207.125;    0.000
690.227;  626.075;  231.125;    0.000
690.336;  746.075;  222.125;    0.000
690.445;  656.075;  198.125;    0.000
690.554;  655.075;  202.125;    0.000
690.663;  675.075;  217.125;    0.000
690.772;  616.075;  213.125;    0.000
690.881;  686.075;  225.125;    0.000
690.990;  685.075;  217.125;    0.000
691.099;  677.075;  205.125;    0.000
691.209;  635.075;  220.125;    0.000
691.318;  645.075;  216.125;    0.000
691.427;  664.075;  188.125;    0.000
691.536;  668.075;  224.125;    0.000
691.644;  610.075;  212.125;    0.000
691.753;  677.075;  216.125;    0.000
691.862;  714.075;  250.125;    0.000
691.971;  619.075;  210.125;    0.000
692.080;  687.075;  232.125;    0.000
692.189;  666.075;  218.125;    0.000
692.298;  656.075;  220.125;    0.000
692.406;  644.075;  261.125;    0.000
692.515;  699.075;  253.125;    0.000
692.624;  661.075;  224.125;    0.000
692.733;  664.075;  209.125;    0.000
692.842;  669.075;  214.125;    0.000
692.950;  667.075;  206.125;    0.000
693.059;  615.075;  180.125;    0.000
693.168;  690.075;  220.125;    0.000
693.276;  679.075;  196.125;    0.000
693.385;  628.075;  203.125;    0.000
693.494;  675.075;  263.125;    0.000
693.602;  615.075;  222.125;    0.000
693.711;  650.075;  178.125;    0.000
693.819;  687.075;  230.125;    0.000
693.928;  665.075;  187.125;    0.000
694.036;  641.075;  219.125;    0.000
694.145;  731.075;  223.125;    0.000
694.253;  704.075;  241.125;    0.000
694.362;  675.075;  229.125;    0.000
694.470;  692.075;  223.125;    0.000
694.579;  602.075;  195.125;    0.000
694.687;  673.075;  257.125;    0.000
694.795;  657.075;  230.125;    0.000
694.904;  647.075;  196.125;    0.000
695.012;  675.075;  247.125;    0.000
695.120;  714.075;  215.125;    0.000
695.229;  668.075;  244.125;    0.000
695.337;  632.075;  197.125;    0.000
695.445;  709.075;  270.125;    0.000
695.553;  605.075;  241.125;    0.000
695.662;  654.075;  249.125;    0.000
695.770;  669.075;  244.125;    0.000
695.878;  667.075;  236.125;    0.000
695.986;  706.075;  253.125;    0.000
696.094;  724.075;  242.125;    0.000
696.202;  670.075;  174.125;    0.000
696.310;  676.075;  230.125;    0.000
696.419;  649.075;  218.125;    0.000
696.527;  634.075;  226.125;    0.000
696.635;  679.075;  217.125;    0.000
696.743;  676.075;  221.125;    0.000
696.851;  677.075;  259.125;    0.000
696.959;  688.075;  245.125;    0.000
697.067;  652.075;  235.125;    0.000
697.174;  687.075;  238.125;    0.000
697.282;  675.075;  208.125;    0.000
697.390;  696.075;  265.125;    0.000
697.498;  669.075;  202.125;    0.000
697.606;  649.075;  219.125;    0.000
697.714;  645.075;  245.125;    0.000
697.822;  717.075;  222.125;    0.000
697.929;  623.075;  194.125;    0.000
698.037;  640.075;  223.125;    0.000
698.145;  662.075;  213.125;    0.000
698.253;  612.075;  234.125;    0.000
698.360;  698.075;  211.125;    0.000
698.468;  731.075;  241.125;    0.000
698.576;  631.075;  249.125;    0.000
698.683;  648.075;  268.125;    0.000
698.791;  603.075;  223.125;    0.000
698.899;  706.075;  251.125;    0.000
699.006;  681.075;  216.125;    0.000
699.114;  731.075;  256.125;    0.000
699.221;  633.075;  226.125;    0.000
699.329;  665.075;  255.125;    0.000
699.436;  702.075;  213.125;    0.000
699.544;  636.075;  258.125;    0.000
699.651;  673.075;  214.125;    0.000
699.759;  646.075;  229.125;    0.000
699.866;  660.075;  239.125;    0.000
699.974;  572.075;  224.125;    0.000
700.081;  663.075;  227.125;    0.000
700.188;  714.075;  267.125;    0.000
700.296;  648.075;  222.125;    0.000
700.403;  703.075;  225.125;    0.000
700.510;  669.075;  248.125;    0.000
700.618;  697.075;  223.125;    0.000
700.725;  624.075;  243.125;    0.000
700.832;  619.075;  239.125;    0.000
700.940;  665.075;  284.125;    0.000
701.047;  640.075;  216.125;    0.000
701.154;  670.075;  249.125;    0.000
701.261;  619.075;  229.125;    0.000
701.368;  671.075;  247.125;    0.000
701.475;  634.075;  208.125;    0.000
701.582;  661.075;  262.125;    0.000
701.690;  670.075;  224.125;    0.000
701.797;  671.075;  294.125;    0.000
701.904;  699.075;  303.125;    0.000
702.011;  730.075;  278.125;    0.000
702.118;  694.075;  279.125;    0.000
702.225;  742.075;  342.125;    0.000
702.332;  687.075;  281.125;    0.000
702.439;  711.075;  313.125;    0.000
702.546;  764.075;  295.125;    0.000
702.652;  710.075;  293.125;    0.000
702.759;  770.075;  333.125;    0.000
702.866;  745.075;  272.125;    0.000
702.973;  763.075;  310.125;    0.000
703.080;  721.075;  313.125;    0.000
703.187;  720.075;  316.125;    0.000
703.294;  722.075;  328.125;    0.000
703.400;  662.075;  312.125;    0.000
703.507;  355.075;  349.125;    0.000
703.614;  300.075;  298.125;    0.000
703.720;  321.075;  300.125;    0.000
703.827;  330.075;  346.125;    0.000
703.934;  320.075;  308.125;    0.000
704.040;  267.075;  300.125;    0.000
704.147;  275.075;  317.125;    0.000
704.254;  320.075;  350.125;    0.000
704.360;  298.075;  285.125;    0.000
704.467;  363.075;  334.125;    0.000
704.573;  343.075;  330.125;    0.000
704.680;  327.075;  312.125;    0.000
704.786;  303.075;  305.125;    0.000
704.893;  308.075;  330.125;    0.000
704.999;  355.075;  315.125;    0.000
705.106;  339.075;  327.125;    0.000

