
Integration time [ms]:   0.300
Averaging Nr. [scans]: 1
Smoothing Nr. [pixels]: 0
Data measured with spectrometer [name]: UV2
Wave   ;Sample   ;Dark     ;Reference
[nm]   ;[counts] ;[counts] ;[counts] 

353.533;  176.325;  178.050;    0.000
353.597;  262.325;  251.050;    0.000
353.660;  204.325;  213.050;    0.000
353.723;  189.325;  185.050;    0.000
353.786;  192.325;  191.050;    0.000
353.850;  223.325;  238.050;    0.000
353.913;  166.325;  181.050;    0.000
353.976;  225.325;  190.050;    0.000
354.039;  179.325;  184.050;    0.000
354.102;  199.325;  231.050;    0.000
354.166;  178.325;  188.050;    0.000
354.229;  200.325;  224.050;    0.000
354.292;  159.325;  186.050;    0.000
354.355;  174.325;  175.050;    0.000
354.418;  180.325;  191.050;    0.000
354.481;  216.325;  181.050;    0.000
354.545;  463.325;  193.050;    0.000
354.608;  498.325;  210.050;    0.000
354.671;  440.325;  183.050;    0.000
354.734;  497.325;  189.050;    0.000
354.797;  519.325;  168.050;    0.000
354.860;  476.325;  178.050;    0.000
354.923;  490.325;  236.050;    0.000
354.986;  511.325;  181.050;    0.000
355.050;  491.325;  168.050;    0.000
355.113;  532.325;  201.050;    0.000
355.176;  491.325;  206.050;    0.000
355.239;  522.325;  213.050;    0.000
355.302;  526.325;  198.050;    0.000
355.365;  516.325;  199.050;    0.000
355.428;  585.325;  200.050;    0.000
355.491;  528.325;  232.050;    0.000
355.554;  522.325;  184.050;    0.000
355.617;  610.325;  214.050;    0.000
355.680;  533.325;  191.050;    0.000
355.743;  529.325;  161.050;    0.000
355.806;  537.325;  153.050;    0.000
355.869;  570.325;  221.050;    0.000
355.932;  552.325;  152.050;    0.000
355.995;  587.325;  195.050;    0.000
356.058;  577.325;  172.050;    0.000
356.121;  567.325;  186.050;    0.000
356.184;  576.325;  196.050;    0.000
356.247;  609.325;  183.050;    0.000
356.310;  606.325;  159.050;    0.000
356.373;  617.325;  183.050;    0.000
356.436;  590.325;  176.050;    0.000
356.498;  607.325;  191.050;    0.000
356.561;  593.325;  145.050;    0.000
356.624;  608.325;  187.050;    0.000
356.687;  599.325;  181.050;    0.000
356.750;  662.325;  227.050;    0.000
356.813;  578.325;  147.050;    0.000
356.876;  643.325;  184.050;    0.000
356.939;  607.325;  141.050;    0.000
357.001;  590.325;  188.050;    0.000
357.064;  596.325;  173.050;    0.000
357.127;  626.325;  159.050;    0.000
357.190;  614.325;  185.050;    0.000
357.253;  646.325;  180.050;    0.000
357.316;  584.325;  199.050;    0.000
357.378;  587.325;  196.050;    0.000
357.441;  654.325;  175.050;    0.000
357.504;  634.325;  164.050;    0.000
357.567;  622.325;  145.050;    0.000
357.629;  593.325;  205.050;    0.000
357.692;  604.325;  175.050;    0.000
357.755;  612.325;  205.050;    0.000
357.818;  558.325;  141.050;    0.000
357.880;  672.325;  170.050;    0.000
357.943;  637.325;  152.050;    0.000
358.006;  627.325;  145.050;    0.000
358.069;  657.325;  164.050;    0.000
358.131;  630.325;  148.050;    0.000
358.194;  623.325;  122.050;    0.000
358.257;  613.325;  147.050;    0.000
358.319;  604.325;  156.050;    0.000
358.382;  685.325;  193.050;    0.000
358.445;  642.325;  155.050;    0.000
358.507;  652.325;  160.050;    0.000
358.570;  645.325;  159.050;    0.000
358.633;  683.325;  163.050;    0.000
358.695;  659.325;  174.050;    0.000
358.758;  640.325;  127.050;    0.000
358.821;  669.325;  165.050;    0.000
358.883;  663.325;  145.050;    0.000
358.946;  676.325;  127.050;    0.000
359.008;  674.325;  180.050;    0.000
359.071;  675.325;  173.050;    0.000
359.134;  675.325;  150.050;    0.000
359.196;  622.325;  158.050;    0.000
359.259;  701.325;  159.050;    0.000
359.321;  660.325;  159.050;    0.000
359.384;  624.325;  182.050;    0.000
359.446;  616.325;  140.050;    0.000
359.509;  694.325;  146.050;    0.000
359.571;  693.325;  133.050;    0.000
359.634;  625.325;   93.050;    0.000
359.696;  643.325;  142.050;    0.000
359.759;  695.325;  161.050;    0.000
359.821;  714.325;  110.050;    0.000
359.884;  685.325;  114.050;    0.000
359.946;  669.325;  180.050;    0.000
360.009;  648.325;  158.050;    0.000
360.071;  678.325;  116.050;    0.000
360.134;  692.325;  170.050;    0.000
360.196;  683.325;  128.050;    0.000
360.259;  665.325;  157.050;    0.000
360.321;  665.325;  122.050;    0.000
360.384;  670.325;  119.050;    0.000
360.446;  669.325;  122.050;    0.000
360.508;  726.325;  195.050;    0.000
360.571;  661.325;  128.050;    0.000
360.633;  679.325;  172.050;    0.000
360.696;  674.325;  115.050;    0.000
360.758;  711.325;  162.050;    0.000
360.820;  664.325;  149.050;    0.000
360.883;  667.325;  151.050;    0.000
360.945;  708.325;  149.050;    0.000
361.007;  664.325;  135.050;    0.000
361.070;  664.325;  162.050;    0.000
361.132;  739.325;  198.050;    0.000
361.194;  710.325;  141.050;    0.000
361.257;  671.325;  154.050;    0.000
361.319;  671.325;  147.050;    0.000
361.381;  711.325;  154.050;    0.000
361.443;  634.325;  144.050;    0.000
361.506;  732.325;  164.050;    0.000
361.568;  666.325;  148.050;    0.000
361.630;  714.325;  127.050;    0.000
361.693;  728.325;  158.050;    0.000
361.755;  720.325;  161.050;    0.000
361.817;  701.325;  173.050;    0.000
361.879;  762.325;  159.050;    0.000
361.941;  690.325;  153.050;    0.000
362.004;  703.325;  148.050;    0.000
362.066;  677.325;  150.050;    0.000
362.128;  771.325;  132.050;    0.000
362.190;  738.325;  207.050;    0.000
362.252;  748.325;  142.050;    0.000
362.315;  734.325;  153.050;    0.000
362.377;  757.325;  164.050;    0.000
362.439;  682.325;  155.050;    0.000
362.501;  734.325;  157.050;    0.000
362.563;  719.325;  188.050;    0.000
362.625;  718.325;  194.050;    0.000
362.688;  745.325;  159.050;    0.000
362.750;  772.325;  205.050;    0.000
362.812;  760.325;  148.050;    0.000
362.874;  718.325;  173.050;    0.000
362.936;  760.325;  152.050;    0.000
362.998;  709.325;  145.050;    0.000
363.060;  781.325;  184.050;    0.000
363.122;  767.325;  147.050;    0.000
363.184;  754.325;  136.050;    0.000
363.246;  751.325;  171.050;    0.000
363.308;  751.325;  154.050;    0.000
363.370;  735.325;  175.050;    0.000
363.432;  758.325;  139.050;    0.000
363.494;  768.325;  163.050;    0.000
363.556;  692.325;  117.050;    0.000
363.618;  740.325;  126.050;    0.000
363.680;  708.325;  147.050;    0.000
363.742;  762.325;  161.050;    0.000
363.804;  775.325;  159.050;    0.000
363.866;  773.325;  170.050;    0.000
363.928;  727.325;  122.050;    0.000
363.990;  753.325;  167.050;    0.000
364.052;  722.325;  180.050;    0.000
364.114;  774.325;  119.050;    0.000
364.176;  811.325;  184.050;    0.000
364.238;  742.325;  180.050;    0.000
364.300;  785.325;  159.050;    0.000
364.362;  760.325;  163.050;    0.000
364.424;  738.325;  139.050;    0.000
364.486;  786.325;  189.050;    0.000
364.548;  778.325;  167.050;    0.000
364.609;  795.325;  165.050;    0.000
364.671;  789.325;  171.050;    0.000
364.733;  768.325;  165.050;    0.000
364.795;  816.325;  122.050;    0.000
364.857;  778.325;  147.050;    0.000
364.919;  750.325;  104.050;    0.000
364.981;  771.325;  143.050;    0.000
365.042;  777.325;  166.050;    0.000
365.104;  783.325;  162.050;    0.000
365.166;  754.325;  155.050;    0.000
365.228;  824.325;  179.050;    0.000
365.290;  724.325;  133.050;    0.000
365.351;  795.325;  142.050;    0.000
365.413;  758.325;  144.050;    0.000
365.475;  788.325;  139.050;    0.000
365.537;  751.325;  181.050;    0.000
365.598;  749.325;  166.050;    0.000
365.660;  778.325;  130.050;    0.000
365.722;  802.325;  177.050;    0.000
365.784;  765.325;  149.050;    0.000
365.845;  710.325;  156.050;    0.000
365.907;  743.325;  122.050;    0.000
365.969;  812.325;  140.050;    0.000
366.030;  774.325;  156.050;    0.000
366.092;  791.325;  140.050;    0.000
366.154;  802.325;  169.050;    0.000
366.215;  790.325;  170.050;    0.000
366.277;  819.325;  143.050;    0.000
366.339;  770.325;  139.050;    0.000
366.400;  786.325;  139.050;    0.000
366.462;  772.325;  140.050;    0.000
366.524;  776.325;  150.050;    0.000
366.585;  764.325;  163.050;    0.000
366.647;  826.325;  193.050;    0.000
366.708;  772.325;  135.050;    0.000
366.770;  823.325;  165.050;    0.000
366.832;  861.325;  168.050;    0.000
366.893;  781.325;  157.050;    0.000
366.955;  778.325;  132.050;    0.000
367.016;  775.325;  127.050;    0.000
367.078;  812.325;  146.050;    0.000
367.139;  809.325;  129.050;    0.000
367.201;  769.325;  148.050;    0.000
367.262;  824.325;  165.050;    0.000
367.324;  844.325;  171.050;    0.000
367.385;  761.325;  118.050;    0.000
367.447;  857.325;  144.050;    0.000
367.508;  775.325;  135.050;    0.000
367.570;  785.325;  160.050;    0.000
367.631;  761.325;  157.050;    0.000
367.693;  805.325;  168.050;    0.000
367.754;  789.325;  139.050;    0.000
367.816;  802.325;  141.050;    0.000
367.877;  867.325;  195.050;    0.000
367.939;  799.325;  166.050;    0.000
368.000;  791.325;  127.050;    0.000
368.062;  773.325;  143.050;    0.000
368.123;  870.325;  156.050;    0.000
368.184;  802.325;  179.050;    0.000
368.246;  792.325;  168.050;    0.000
368.307;  860.325;  203.050;    0.000
368.369;  803.325;  149.050;    0.000
368.430;  808.325;  121.050;    0.000
368.491;  810.325;  131.050;    0.000
368.553;  815.325;  161.050;    0.000
368.614;  797.325;  157.050;    0.000
368.675;  816.325;  152.050;    0.000
368.737;  785.325;  168.050;    0.000
368.798;  840.325;  147.050;    0.000
368.859;  842.325;  174.050;    0.000
368.921;  877.325;  168.050;    0.000
368.982;  857.325;  151.050;    0.000
369.043;  771.325;  169.050;    0.000
369.104;  861.325;  149.050;    0.000
369.166;  894.325;  178.050;    0.000
369.227;  831.325;  149.050;    0.000
369.288;  811.325;  131.050;    0.000
369.349;  816.325;  128.050;    0.000
369.411;  863.325;  198.050;    0.000
369.472;  828.325;  156.050;    0.000
369.533;  796.325;  142.050;    0.000
369.594;  852.325;  125.050;    0.000
369.656;  899.325;  153.050;    0.000
369.717;  736.325;  124.050;    0.000
369.778;  805.325;  163.050;    0.000
369.839;  875.325;  130.050;    0.000
369.900;  865.325;  170.050;    0.000
369.961;  840.325;  142.050;    0.000
370.023;  839.325;  197.050;    0.000
370.084;  831.325;  151.050;    0.000
370.145;  852.325;  128.050;    0.000
370.206;  903.325;  152.050;    0.000
370.267;  845.325;  154.050;    0.000
370.328;  832.325;  154.050;    0.000
370.389;  852.325;  173.050;    0.000
370.451;  825.325;  191.050;    0.000
370.512;  814.325;  155.050;    0.000
370.573;  837.325;  134.050;    0.000
370.634;  851.325;  160.050;    0.000
370.695;  851.325;  124.050;    0.000
370.756;  873.325;  169.050;    0.000
370.817;  854.325;  169.050;    0.000
370.878;  905.325;  200.050;    0.000
370.939;  862.325;  157.050;    0.000
371.000;  854.325;  131.050;    0.000
371.061;  853.325;  136.050;    0.000
371.122;  868.325;  176.050;    0.000
371.183;  809.325;   81.050;    0.000
371.244;  884.325;  156.050;    0.000
371.305;  836.325;  131.050;    0.000
371.366;  873.325;  161.050;    0.000
371.427;  919.325;  127.050;    0.000
371.488;  901.325;  184.050;    0.000
371.549;  841.325;  159.050;    0.000
371.610;  891.325;  147.050;    0.000
371.671;  881.325;  132.050;    0.000
371.732;  850.325;  163.050;    0.000
371.793;  917.325;  179.050;    0.000
371.853;  867.325;  179.050;    0.000
371.914;  856.325;  149.050;    0.000
371.975;  831.325;  117.050;    0.000
372.036;  860.325;  141.050;    0.000
372.097;  809.325;  101.050;    0.000
372.158;  852.325;  115.050;    0.000
372.219;  887.325;  174.050;    0.000
372.280;  910.325;  134.050;    0.000
372.340;  901.325;  180.050;    0.000
372.401;  829.325;  166.050;    0.000
372.462;  819.325;  171.050;    0.000
372.523;  878.325;  132.050;    0.000
372.584;  860.325;  182.050;    0.000
372.645;  881.325;  149.050;    0.000
372.705;  873.325;  182.050;    0.000
372.766;  878.325;  145.050;    0.000
372.827;  872.325;  161.050;    0.000
372.888;  945.325;  156.050;    0.000
372.948;  921.325;  158.050;    0.000
373.009;  877.325;  178.050;    0.000
373.070;  862.325;  166.050;    0.000
373.131;  915.325;  154.050;    0.000
373.191;  951.325;  193.050;    0.000
373.252;  887.325;  148.050;    0.000
373.313;  899.325;  152.050;    0.000
373.373;  846.325;  156.050;    0.000
373.434;  944.325;  166.050;    0.000
373.495;  898.325;  152.050;    0.000
373.555;  870.325;  145.050;    0.000
373.616;  910.325;  141.050;    0.000
373.677;  908.325;  169.050;    0.000
373.737;  951.325;  166.050;    0.000
373.798;  888.325;  151.050;    0.000
373.859;  926.325;  170.050;    0.000
373.919;  908.325;  206.050;    0.000
373.980;  943.325;  140.050;    0.000
374.041;  854.325;  148.050;    0.000
374.101;  883.325;  165.050;    0.000
374.162;  912.325;  166.050;    0.000
374.222;  909.325;  156.050;    0.000
374.283;  938.325;  161.050;    0.000
374.343;  972.325;  185.050;    0.000
374.404;  902.325;  148.050;    0.000
374.465;  963.325;  162.050;    0.000
374.525;  927.325;  177.050;    0.000
374.586;  908.325;  164.050;    0.000
374.646;  945.325;  180.050;    0.000
374.707;  932.325;  203.050;    0.000
374.767;  902.325;  148.050;    0.000
374.828;  896.325;  142.050;    0.000
374.888;  985.325;  187.050;    0.000
374.949;  923.325;  137.050;    0.000
375.009;  991.325;  155.050;    0.000
375.070;  924.325;  165.050;    0.000
375.130;  959.325;  168.050;    0.000
375.190;  947.325;  157.050;    0.000
375.251;  986.325;  206.050;    0.000
375.311;  918.325;  141.050;    0.000
375.372;  961.325;  144.050;    0.000
375.432;  910.325;  153.050;    0.000
375.493;  946.325;  168.050;    0.000
375.553;  958.325;  146.050;    0.000
375.613;  940.325;  142.050;    0.000
375.674;  945.325;  153.050;    0.000
375.734;  922.325;  166.050;    0.000
375.794;  948.325;  145.050;    0.000
375.855;  942.325;  162.050;    0.000
375.915;  911.325;  162.050;    0.000
375.975;  963.325;  144.050;    0.000
376.036;  922.325;  128.050;    0.000
376.096;  931.325;  122.050;    0.000
376.156;  996.325;  140.050;    0.000
376.217; 1000.325;  158.050;    0.000
376.277;  972.325;  163.050;    0.000
376.337;  946.325;  139.050;    0.000
376.398;  940.325;  176.050;    0.000
376.458;  949.325;  143.050;    0.000
376.518;  953.325;  136.050;    0.000
376.578;  947.325;  177.050;    0.000
376.639;  932.325;  163.050;    0.000
376.699;  979.325;  183.050;    0.000
376.759;  965.325;  169.050;    0.000
376.819;  965.325;  147.050;    0.000
376.880;  958.325;  188.050;    0.000
376.940; 1023.325;  185.050;    0.000
377.000;  938.325;  131.050;    0.000
377.060;  973.325;  182.050;    0.000
377.120;  957.325;  165.050;    0.000
377.180;  970.325;  169.050;    0.000
377.241;  948.325;  146.050;    0.000
377.301; 1006.325;  183.050;    0.000
377.361;  929.325;  124.050;    0.000
377.421; 1037.325;  186.050;    0.000
377.481; 1014.325;  178.050;    0.000
377.541;  975.325;  140.050;    0.000
377.601;  982.325;  175.050;    0.000
377.661;  999.325;  169.050;    0.000
377.722; 1021.325;  144.050;    0.000
377.782;  980.325;  182.050;    0.000
377.842; 1010.325;  161.050;    0.000
377.902; 1042.325;  151.050;    0.000
377.962;  944.325;  134.050;    0.000
378.022;  967.325;  153.050;    0.000
378.082;  967.325;  178.050;    0.000
378.142;  956.325;  118.050;    0.000
378.202;  996.325;  153.050;    0.000
378.262;  955.325;  166.050;    0.000
378.322;  994.325;  174.050;    0.000
378.382; 1006.325;  148.050;    0.000
378.442; 1063.325;  190.050;    0.000
378.502;  953.325;  136.050;    0.000
378.562; 1004.325;  130.050;    0.000
378.622; 1050.325;  188.050;    0.000
378.682; 1034.325;  163.050;    0.000
378.742; 1012.325;  150.050;    0.000
378.802; 1017.325;  127.050;    0.000
378.862; 1119.325;  186.050;    0.000
378.921; 1130.325;  203.050;    0.000
378.981; 1100.325;  177.050;    0.000
379.041; 1083.325;  134.050;    0.000
379.101; 1027.325;  167.050;    0.000
379.161; 1072.325;  130.050;    0.000
379.221; 1078.325;  169.050;    0.000
379.281; 1065.325;  162.050;    0.000
379.341; 1088.325;  134.050;    0.000
379.401; 1096.325;  151.050;    0.000
379.460; 1105.325;  190.050;    0.000
379.520; 1122.325;  158.050;    0.000
379.580; 1089.325;  162.050;    0.000
379.640; 1079.325;  146.050;    0.000
379.700; 1087.325;  167.050;    0.000
379.759; 1101.325;  194.050;    0.000
379.819; 1094.325;  176.050;    0.000
379.879; 1115.325;  140.050;    0.000
379.939; 1152.325;  184.050;    0.000
379.999; 1082.325;  165.050;    0.000
380.058; 1133.325;  194.050;    0.000
380.118; 1118.325;  137.050;    0.000
380.178; 1160.325;  139.050;    0.000
380.237; 1123.325;  139.050;    0.000
380.297; 1172.325;  160.050;    0.000
380.357; 1161.325;  194.050;    0.000
380.417; 1152.325;  174.050;    0.000
380.476; 1185.325;  153.050;    0.000
380.536; 1124.325;  169.050;    0.000
380.596; 1179.325;  159.050;    0.000
380.655; 1189.325;  178.050;    0.000
380.715; 1103.325;  196.050;    0.000
380.775; 1209.325;  202.050;    0.000
380.834; 1167.325;  186.050;    0.000
380.894; 1212.325;  167.050;    0.000
380.954; 1155.325;  150.050;    0.000
381.013; 1196.325;  187.050;    0.000
381.073; 1217.325;  114.050;    0.000
381.132; 1204.325;  176.050;    0.000
381.192; 1189.325;  197.050;    0.000
381.252; 1212.325;  172.050;    0.000
381.311; 1181.325;  155.050;    0.000
381.371; 1259.325;  172.050;    0.000
381.430; 1215.325;  143.050;    0.000
381.490; 1235.325;  136.050;    0.000
381.549; 1123.325;  131.050;    0.000
381.609; 1187.325;  203.050;    0.000
381.668; 1248.325;  135.050;    0.000
381.728; 1242.325;  163.050;    0.000
381.787; 1244.325;  195.050;    0.000
381.847; 1356.325;  185.050;    0.000
381.906; 1246.325;  187.050;    0.000
381.966; 1337.325;  153.050;    0.000
382.025; 1394.325;  175.050;    0.000
382.085; 1295.325;  195.050;    0.000
382.144; 1387.325;  210.050;    0.000
382.204; 1370.325;  201.050;    0.000
382.263; 1371.325;  178.050;    0.000
382.323; 1398.325;  151.050;    0.000
382.382; 1396.325;  147.050;    0.000
382.441; 1434.325;  144.050;    0.000
382.501; 1368.325;  156.050;    0.000
382.560; 1492.325;  160.050;    0.000
382.619; 1532.325;  173.050;    0.000
382.679; 1619.325;  167.050;    0.000
382.738; 1682.325;  189.050;    0.000
382.798; 1795.325;  181.050;    0.000
382.857; 1861.325;  161.050;    0.000
382.916; 2085.325;  162.050;    0.000
382.976; 2158.325;  169.050;    0.000
383.035; 2056.325;  174.050;    0.000
383.094; 2074.325;  178.050;    0.000
383.154; 2309.325;  188.050;    0.000
383.213; 2661.325;  162.050;    0.000
383.272; 2588.325;  144.050;    0.000
383.331; 2183.325;  144.050;    0.000
383.391; 2040.325;  198.050;    0.000
383.450; 1939.325;  185.050;    0.000
383.509; 1937.325;  132.050;    0.000
383.568; 2045.325;  171.050;    0.000
383.628; 2136.325;  171.050;    0.000
383.687; 2271.325;  172.050;    0.000
383.746; 2620.325;  144.050;    0.000
383.805; 3011.325;  177.050;    0.000
383.864; 2985.325;  145.050;    0.000
383.924; 2379.325;  203.050;    0.000
383.983; 2046.325;  153.050;    0.000
384.042; 1835.325;  171.050;    0.000
384.101; 1686.325;  186.050;    0.000
384.160; 1695.325;  132.050;    0.000
384.219; 1562.325;  157.050;    0.000
384.279; 1540.325;  166.050;    0.000
384.338; 1488.325;  141.050;    0.000
384.397; 1406.325;  142.050;    0.000
384.456; 1366.325;  155.050;    0.000
384.515; 1420.325;  158.050;    0.000
384.574; 1487.325;  208.050;    0.000
384.633; 1411.325;  158.050;    0.000
384.692; 1344.325;  162.050;    0.000
384.751; 1338.325;  179.050;    0.000
384.810; 1387.325;  150.050;    0.000
384.869; 1308.325;  147.050;    0.000
384.929; 1338.325;  132.050;    0.000
384.988; 1331.325;  166.050;    0.000
385.047; 1300.325;  161.050;    0.000
385.106; 1330.325;  180.050;    0.000
385.165; 1295.325;  123.050;    0.000
385.224; 1318.325;  153.050;    0.000
385.283; 1328.325;  158.050;    0.000
385.342; 1287.325;  184.050;    0.000
385.401; 1408.325;  191.050;    0.000
385.459; 1264.325;  143.050;    0.000
385.518; 1264.325;  152.050;    0.000
385.577; 1331.325;  134.050;    0.000
385.636; 1334.325;  187.050;    0.000
385.695; 1325.325;  141.050;    0.000
385.754; 1295.325;  143.050;    0.000
385.813; 1277.325;  145.050;    0.000
385.872; 1312.325;  116.050;    0.000
385.931; 1332.325;  147.050;    0.000
385.990; 1289.325;  170.050;    0.000
386.049; 1296.325;  189.050;    0.000
386.107; 1301.325;  122.050;    0.000
386.166; 1297.325;  155.050;    0.000
386.225; 1281.325;  173.050;    0.000
386.284; 1261.325;  138.050;    0.000
386.343; 1361.325;  216.050;    0.000
386.402; 1285.325;  162.050;    0.000
386.460; 1349.325;  131.050;    0.000
386.519; 1303.325;  122.050;    0.000
386.578; 1239.325;  140.050;    0.000
386.637; 1337.325;  169.050;    0.000
386.696; 1275.325;  176.050;    0.000
386.754; 1257.325;  127.050;    0.000
386.813; 1242.325;  138.050;    0.000
386.872; 1242.325;  135.050;    0.000
386.931; 1339.325;  170.050;    0.000
386.989; 1324.325;  167.050;    0.000
387.048; 1277.325;  131.050;    0.000
387.107; 1310.325;  176.050;    0.000
387.165; 1292.325;  139.050;    0.000
387.224; 1326.325;  150.050;    0.000
387.283; 1225.325;  169.050;    0.000
387.342; 1317.325;  191.050;    0.000
387.400; 1196.325;  131.050;    0.000
387.459; 1289.325;  139.050;    0.000
387.517; 1336.325;  214.050;    0.000
387.576; 1293.325;  146.050;    0.000
387.635; 1293.325;  161.050;    0.000
387.693; 1273.325;  197.050;    0.000
387.752; 1329.325;  159.050;    0.000
387.811; 1255.325;  144.050;    0.000
387.869; 1363.325;  172.050;    0.000
387.928; 1341.325;  160.050;    0.000
387.986; 1233.325;  192.050;    0.000
388.045; 1271.325;  121.050;    0.000
388.103; 1314.325;  129.050;    0.000
388.162; 1228.325;  169.050;    0.000
388.221; 1223.325;  171.050;    0.000
388.279; 1251.325;  135.050;    0.000
388.338; 1322.325;  222.050;    0.000
388.396; 1240.325;  168.050;    0.000
388.455; 1273.325;  178.050;    0.000
388.513; 1206.325;  151.050;    0.000
388.572; 1310.325;  147.050;    0.000
388.630; 1228.325;  158.050;    0.000
388.689; 1271.325;  163.050;    0.000
388.747; 1229.325;  180.050;    0.000
388.806; 1204.325;  119.050;    0.000
388.864; 1236.325;  159.050;    0.000
388.922; 1317.325;  152.050;    0.000
388.981; 1224.325;  125.050;    0.000
389.039; 1229.325;  151.050;    0.000
389.098; 1271.325;  151.050;    0.000
389.156; 1343.325;  175.050;    0.000
389.214; 1333.325;  133.050;    0.000
389.273; 1263.325;  142.050;    0.000
389.331; 1217.325;  179.050;    0.000
389.390; 1210.325;  179.050;    0.000
389.448; 1248.325;  159.050;    0.000
389.506; 1209.325;  140.050;    0.000
389.565; 1236.325;  160.050;    0.000
389.623; 1319.325;  181.050;    0.000
389.681; 1182.325;  181.050;    0.000
389.740; 1235.325;  187.050;    0.000
389.798; 1229.325;  163.050;    0.000
389.856; 1275.325;  185.050;    0.000
389.914; 1264.325;  170.050;    0.000
389.973; 1232.325;  150.050;    0.000
390.031; 1294.325;  149.050;    0.000
390.089; 1301.325;  191.050;    0.000
390.147; 1194.325;  126.050;    0.000
390.206; 1265.325;  174.050;    0.000
390.264; 1221.325;  164.050;    0.000
390.322; 1232.325;  150.050;    0.000
390.380; 1231.325;  137.050;    0.000
390.439; 1250.325;  176.050;    0.000
390.497; 1297.325;  188.050;    0.000
390.555; 1289.325;  143.050;    0.000
390.613; 1207.325;  174.050;    0.000
390.671; 1218.325;  208.050;    0.000
390.729; 1190.325;  135.050;    0.000
390.788; 1257.325;  169.050;    0.000
390.846; 1247.325;  173.050;    0.000
390.904; 1258.325;  176.050;    0.000
390.962; 1250.325;  179.050;    0.000
391.020; 1266.325;  201.050;    0.000
391.078; 1251.325;  192.050;    0.000
391.136; 1264.325;  170.050;    0.000
391.194; 1294.325;  163.050;    0.000
391.253; 1308.325;  203.050;    0.000
391.311; 1252.325;  170.050;    0.000
391.369; 1248.325;  191.050;    0.000
391.427; 1347.325;  226.050;    0.000
391.485; 1282.325;  181.050;    0.000
391.543; 1329.325;  177.050;    0.000
391.601; 1271.325;  150.050;    0.000
391.659; 1227.325;  201.050;    0.000
391.717; 1222.325;  166.050;    0.000
391.775; 1268.325;  200.050;    0.000
391.833; 1251.325;  180.050;    0.000
391.891; 1268.325;  172.050;    0.000
391.949; 1306.325;  174.050;    0.000
392.007; 1322.325;  194.050;    0.000
392.065; 1331.325;  161.050;    0.000
392.123; 1240.325;  159.050;    0.000
392.180; 1277.325;  193.050;    0.000
392.238; 1326.325;  188.050;    0.000
392.296; 1260.325;  206.050;    0.000
392.354; 1280.325;  170.050;    0.000
392.412; 1323.325;  207.050;    0.000
392.470; 1249.325;  168.050;    0.000
392.528; 1302.325;  185.050;    0.000
392.586; 1257.325;  154.050;    0.000
392.644; 1287.325;  190.050;    0.000
392.701; 1302.325;  195.050;    0.000
392.759; 1303.325;  229.050;    0.000
392.817; 1332.325;  176.050;    0.000
392.875; 1333.325;  198.050;    0.000
392.933; 1288.325;  174.050;    0.000
392.991; 1310.325;  237.050;    0.000
393.048; 1278.325;  212.050;    0.000
393.106; 1265.325;  191.050;    0.000
393.164; 1311.325;  136.050;    0.000
393.222; 1311.325;  164.050;    0.000
393.279; 1276.325;  208.050;    0.000
393.337; 1334.325;  203.050;    0.000
393.395; 1335.325;  191.050;    0.000
393.453; 1286.325;  153.050;    0.000
393.510; 1324.325;  171.050;    0.000
393.568; 1341.325;  203.050;    0.000
393.626; 1276.325;  169.050;    0.000
393.684; 1324.325;  201.050;    0.000
393.741; 1336.325;  172.050;    0.000
393.799; 1307.325;  149.050;    0.000
393.857; 1307.325;  151.050;    0.000
393.914; 1347.325;  192.050;    0.000
393.972; 1293.325;  176.050;    0.000
394.030; 1283.325;  165.050;    0.000
394.087; 1290.325;  192.050;    0.000
394.145; 1290.325;  183.050;    0.000
394.202; 1330.325;  161.050;    0.000
394.260; 1323.325;  135.050;    0.000
394.318; 1334.325;  188.050;    0.000
394.375; 1296.325;  163.050;    0.000
394.433; 1344.325;  151.050;    0.000
394.490; 1304.325;  190.050;    0.000
394.548; 1392.325;  157.050;    0.000
394.605; 1324.325;  205.050;    0.000
394.663; 1321.325;  173.050;    0.000
394.720; 1351.325;  171.050;    0.000
394.778; 1303.325;  190.050;    0.000
394.836; 1339.325;  134.050;    0.000
394.893; 1387.325;  142.050;    0.000
394.951; 1321.325;  192.050;    0.000
395.008; 1368.325;  149.050;    0.000
395.065; 1362.325;  194.050;    0.000
395.123; 1386.325;  160.050;    0.000
395.180; 1350.325;  178.050;    0.000
395.238; 1343.325;  191.050;    0.000
395.295; 1329.325;  160.050;    0.000
395.353; 1340.325;  162.050;    0.000
395.410; 1350.325;  165.050;    0.000
395.468; 1372.325;  190.050;    0.000
395.525; 1312.325;  173.050;    0.000
395.582; 1321.325;  161.050;    0.000
395.640; 1331.325;  200.050;    0.000
395.697; 1390.325;  198.050;    0.000
395.754; 1339.325;  136.050;    0.000
395.812; 1409.325;  172.050;    0.000
395.869; 1457.325;  172.050;    0.000
395.927; 1444.325;  145.050;    0.000
395.984; 1362.325;  220.050;    0.000
396.041; 1382.325;  137.050;    0.000
396.098; 1271.325;  161.050;    0.000
396.156; 1389.325;  159.050;    0.000
396.213; 1411.325;  200.050;    0.000
396.270; 1434.325;  209.050;    0.000
396.328; 1348.325;  162.050;    0.000
396.385; 1410.325;  186.050;    0.000
396.442; 1347.325;  177.050;    0.000
396.499; 1396.325;  183.050;    0.000
396.557; 1378.325;  182.050;    0.000
396.614; 1351.325;  186.050;    0.000
396.671; 1368.325;  144.050;    0.000
396.728; 1396.325;  176.050;    0.000
396.785; 1445.325;  169.050;    0.000
396.843; 1422.325;  134.050;    0.000
396.900; 1382.325;  184.050;    0.000
396.957; 1359.325;  197.050;    0.000
397.014; 1423.325;  187.050;    0.000
397.071; 1419.325;  186.050;    0.000
397.128; 1406.325;  200.050;    0.000
397.186; 1518.325;  175.050;    0.000
397.243; 1434.325;  154.050;    0.000
397.300; 1478.325;  191.050;    0.000
397.357; 1462.325;  238.050;    0.000
397.414; 1374.325;  161.050;    0.000
397.471; 1372.325;  135.050;    0.000
397.528; 1428.325;  158.050;    0.000
397.585; 1468.325;  159.050;    0.000
397.642; 1432.325;  180.050;    0.000
397.699; 1432.325;  170.050;    0.000
397.756; 1457.325;  175.050;    0.000
397.814; 1489.325;  182.050;    0.000
397.871; 1469.325;  173.050;    0.000
397.928; 1397.325;  173.050;    0.000
397.985; 1435.325;  176.050;    0.000
398.042; 1519.325;  189.050;    0.000
398.099; 1475.325;  160.050;    0.000
398.156; 1403.325;  218.050;    0.000
398.212; 1447.325;  194.050;    0.000
398.269; 1476.325;  199.050;    0.000
398.326; 1460.325;  188.050;    0.000
398.383; 1456.325;  187.050;    0.000
398.440; 1448.325;  174.050;    0.000
398.497; 1400.325;  214.050;    0.000
398.554; 1481.325;  181.050;    0.000
398.611; 1485.325;  195.050;    0.000
398.668; 1457.325;  145.050;    0.000
398.725; 1503.325;  178.050;    0.000
398.782; 1567.325;  210.050;    0.000
398.839; 1607.325;  216.050;    0.000
398.895; 1525.325;  189.050;    0.000
398.952; 1553.325;  206.050;    0.000
399.009; 1584.325;  142.050;    0.000
399.066; 1564.325;  192.050;    0.000
399.123; 1556.325;  181.050;    0.000
399.180; 1549.325;  200.050;    0.000
399.236; 1543.325;  156.050;    0.000
399.293; 1551.325;  194.050;    0.000
399.350; 1567.325;  167.050;    0.000
399.407; 1625.325;  192.050;    0.000
399.463; 1561.325;  161.050;    0.000
399.520; 1518.325;  149.050;    0.000
399.577; 1626.325;  156.050;    0.000
399.634; 1642.325;  195.050;    0.000
399.690; 1553.325;  163.050;    0.000
399.747; 1649.325;  192.050;    0.000
399.804; 1656.325;  212.050;    0.000
399.861; 1720.325;  203.050;    0.000
399.917; 1588.325;  221.050;    0.000
399.974; 1663.325;  221.050;    0.000
400.031; 1695.325;  195.050;    0.000
400.087; 1639.325;  159.050;    0.000
400.144; 1651.325;  201.050;    0.000
400.201; 1559.325;  206.050;    0.000
400.257; 1614.325;  168.050;    0.000
400.314; 1628.325;  183.050;    0.000
400.370; 1560.325;  209.050;    0.000
400.427; 1588.325;  192.050;    0.000
400.484; 1558.325;  150.050;    0.000
400.540; 1554.325;  213.050;    0.000
400.597; 1583.325;  161.050;    0.000
400.653; 1587.325;  170.050;    0.000
400.710; 1547.325;  173.050;    0.000
400.766; 1572.325;  204.050;    0.000
400.823; 1622.325;  194.050;    0.000
400.879; 1554.325;  188.050;    0.000
400.936; 1566.325;  172.050;    0.000
400.993; 1566.325;  154.050;    0.000
401.049; 1527.325;  157.050;    0.000
401.105; 1600.325;  214.050;    0.000
401.162; 1612.325;  195.050;    0.000
401.218; 1558.325;  195.050;    0.000
401.275; 1582.325;  182.050;    0.000
401.331; 1594.325;  188.050;    0.000
401.388; 1609.325;  194.050;    0.000
401.444; 1609.325;  175.050;    0.000
401.501; 1596.325;  169.050;    0.000
401.557; 1594.325;  176.050;    0.000
401.614; 1598.325;  153.050;    0.000
401.670; 1587.325;  178.050;    0.000
401.726; 1523.325;  179.050;    0.000
401.783; 1651.325;  198.050;    0.000
401.839; 1554.325;  179.050;    0.000
401.895; 1584.325;  154.050;    0.000
401.952; 1544.325;  138.050;    0.000
402.008; 1542.325;  135.050;    0.000
402.064; 1552.325;  154.050;    0.000
402.121; 1580.325;  199.050;    0.000
402.177; 1587.325;  126.050;    0.000
402.233; 1549.325;  190.050;    0.000
402.290; 1572.325;  175.050;    0.000
402.346; 1615.325;  200.050;    0.000
402.402; 1639.325;  191.050;    0.000
402.458; 1596.325;  172.050;    0.000
402.515; 1583.325;  186.050;    0.000
402.571; 1559.325;  189.050;    0.000
402.627; 1634.325;  151.050;    0.000
402.683; 1594.325;  187.050;    0.000
402.740; 1595.325;  147.050;    0.000
402.796; 1590.325;  176.050;    0.000
402.852; 1622.325;  200.050;    0.000
402.908; 1654.325;  201.050;    0.000
402.964; 1600.325;  153.050;    0.000
403.021; 1584.325;  165.050;    0.000
403.077; 1656.325;  195.050;    0.000
403.133; 1558.325;  139.050;    0.000
403.189; 1682.325;  166.050;    0.000
403.245; 1609.325;  194.050;    0.000
403.301; 1677.325;  210.050;    0.000
403.357; 1645.325;  187.050;    0.000
403.414; 1700.325;  195.050;    0.000
403.470; 1560.325;  150.050;    0.000
403.526; 1569.325;  158.050;    0.000
403.582; 1593.325;  184.050;    0.000
403.638; 1631.325;  171.050;    0.000
403.694; 1693.325;  197.050;    0.000
403.750; 1685.325;  196.050;    0.000
403.806; 1701.325;  192.050;    0.000
403.862; 1627.325;  169.050;    0.000
403.918; 1584.325;  199.050;    0.000
403.974; 1633.325;  156.050;    0.000
404.030; 1689.325;  193.050;    0.000
404.086; 1641.325;  161.050;    0.000
404.142; 1584.325;  172.050;    0.000
404.198; 1651.325;  195.050;    0.000
404.254; 1623.325;  167.050;    0.000
404.310; 1619.325;  156.050;    0.000
404.366; 1695.325;  144.050;    0.000
404.422; 1699.325;  161.050;    0.000
404.478; 1688.325;  179.050;    0.000
404.534; 1638.325;  163.050;    0.000
404.590; 1662.325;  183.050;    0.000
404.646; 1568.325;  155.050;    0.000
404.701; 1604.325;  142.050;    0.000
404.757; 1693.325;  175.050;    0.000
404.813; 1716.325;  153.050;    0.000
404.869; 1726.325;  199.050;    0.000
404.925; 1641.325;  153.050;    0.000
404.981; 1589.325;  174.050;    0.000
405.037; 1691.325;  185.050;    0.000
405.092; 1655.325;  166.050;    0.000
405.148; 1632.325;  161.050;    0.000
405.204; 1689.325;  170.050;    0.000
405.260; 1743.325;  154.050;    0.000
405.316; 1656.325;  128.050;    0.000
405.371; 1780.325;  142.050;    0.000
405.427; 1735.325;  196.050;    0.000
405.483; 1731.325;  172.050;    0.000
405.539; 1662.325;  182.050;    0.000
405.594; 1705.325;  153.050;    0.000
405.650; 1653.325;  124.050;    0.000
405.706; 1702.325;  189.050;    0.000
405.761; 1772.325;  165.050;    0.000
405.817; 1640.325;  152.050;    0.000
405.873; 1721.325;  174.050;    0.000
405.928; 1727.325;  167.050;    0.000
405.984; 1742.325;  210.050;    0.000
406.040; 1713.325;  160.050;    0.000
406.095; 1687.325;  163.050;    0.000
406.151; 1729.325;  208.050;    0.000
406.207; 1788.325;  177.050;    0.000
406.262; 1752.325;  176.050;    0.000
406.318; 1787.325;  157.050;    0.000
406.374; 1704.325;  141.050;    0.000
406.429; 1767.325;  189.050;    0.000
406.485; 1757.325;  190.050;    0.000
406.540; 1781.325;  155.050;    0.000
406.596; 1784.325;  182.050;    0.000
406.651; 1749.325;  200.050;    0.000
406.707; 1790.325;  130.050;    0.000
406.763; 1795.325;  174.050;    0.000
406.818; 1779.325;  151.050;    0.000
406.874; 1739.325;  122.050;    0.000
406.929; 1853.325;  153.050;    0.000
406.985; 1856.325;  198.050;    0.000
407.040; 1800.325;  174.050;    0.000
407.095; 1782.325;  161.050;    0.000
407.151; 1802.325;  184.050;    0.000
407.206; 1863.325;  188.050;    0.000
407.262; 1873.325;  180.050;    0.000
407.317; 1965.325;  186.050;    0.000
407.373; 1930.325;  200.050;    0.000
407.428; 1940.325;  211.050;    0.000
407.484; 1882.325;  193.050;    0.000
407.539; 1855.325;  167.050;    0.000
407.594; 1881.325;  178.050;    0.000
407.650; 1914.325;  171.050;    0.000
407.705; 1903.325;  153.050;    0.000
407.760; 1896.325;  196.050;    0.000
407.816; 1902.325;  205.050;    0.000
407.871; 1917.325;  232.050;    0.000
407.926; 1902.325;  215.050;    0.000
407.982; 1898.325;  154.050;    0.000
408.037; 1927.325;  217.050;    0.000
408.092; 1852.325;  190.050;    0.000
408.148; 1915.325;  181.050;    0.000
408.203; 1910.325;  203.050;    0.000
408.258; 1814.325;  154.050;    0.000
408.314; 1878.325;  198.050;    0.000
408.369; 1895.325;  156.050;    0.000
408.424; 1898.325;  216.050;    0.000
408.479; 1950.325;  191.050;    0.000
408.534; 1898.325;  200.050;    0.000
408.590; 1812.325;  182.050;    0.000
408.645; 1884.325;  141.050;    0.000
408.700; 1926.325;  209.050;    0.000
408.755; 1952.325;  205.050;    0.000
408.810; 1816.325;  171.050;    0.000
408.866; 1897.325;  200.050;    0.000
408.921; 1933.325;  188.050;    0.000
408.976; 1908.325;  156.050;    0.000
409.031; 1865.325;  164.050;    0.000
409.086; 1919.325;  155.050;    0.000
409.141; 1931.325;  205.050;    0.000
409.196; 1829.325;  173.050;    0.000
409.252; 1851.325;  179.050;    0.000
409.307; 1887.325;  131.050;    0.000
409.362; 1884.325;  173.050;    0.000
409.417; 1780.325;  120.050;    0.000
409.472; 1875.325;  198.050;    0.000
409.527; 1908.325;  153.050;    0.000
409.582; 1932.325;  177.050;    0.000
409.637; 1857.325;  184.050;    0.000
409.692; 1897.325;  203.050;    0.000
409.747; 1852.325;  158.050;    0.000
409.802; 1891.325;  212.050;    0.000
409.857; 1847.325;  192.050;    0.000
409.912; 1957.325;  179.050;    0.000
409.967; 1861.325;  177.050;    0.000
410.022; 1941.325;  204.050;    0.000
410.077; 1830.325;  175.050;    0.000
410.132; 1896.325;  207.050;    0.000
410.187; 1793.325;  169.050;    0.000
410.242; 1857.325;  186.050;    0.000
410.297; 1847.325;  185.050;    0.000
410.351; 1922.325;  191.050;    0.000
410.406; 1893.325;  215.050;    0.000
410.461; 1905.325;  190.050;    0.000
410.516; 1865.325;  172.050;    0.000
410.571; 1900.325;  190.050;    0.000
410.626; 1950.325;  189.050;    0.000
410.681; 1825.325;  191.050;    0.000
410.736; 1905.325;  166.050;    0.000
410.790; 1909.325;  179.050;    0.000
410.845; 1875.325;  196.050;    0.000
410.900; 1940.325;  168.050;    0.000
410.955; 1929.325;  173.050;    0.000
411.010; 1871.325;  162.050;    0.000
411.064; 1855.325;  205.050;    0.000
411.119; 1840.325;  203.050;    0.000
411.174; 1923.325;  207.050;    0.000
411.229; 1947.325;  218.050;    0.000
411.283; 1942.325;  218.050;    0.000
411.338; 1908.325;  180.050;    0.000
411.393; 1845.325;  191.050;    0.000
411.447; 1942.325;  207.050;    0.000
411.502; 1886.325;  204.050;    0.000
411.557; 1902.325;  208.050;    0.000
411.612; 1905.325;  191.050;    0.000
411.666; 1895.325;  233.050;    0.000
411.721; 1906.325;  193.050;    0.000
411.776; 1896.325;  195.050;    0.000
411.830; 1862.325;  229.050;    0.000
411.885; 1885.325;  181.050;    0.000
411.939; 1940.325;  214.050;    0.000
411.994; 1826.325;  140.050;    0.000
412.049; 1879.325;  205.050;    0.000
412.103; 1900.325;  232.050;    0.000
412.158; 1917.325;  228.050;    0.000
412.212; 1901.325;  204.050;    0.000
412.267; 1934.325;  203.050;    0.000
412.322; 1964.325;  212.050;    0.000
412.376; 1861.325;  195.050;    0.000
412.431; 1881.325;  197.050;    0.000
412.485; 1887.325;  235.050;    0.000
412.540; 1894.325;  197.050;    0.000
412.594; 1883.325;  199.050;    0.000
412.649; 1885.325;  195.050;    0.000
412.703; 1887.325;  214.050;    0.000
412.758; 1898.325;  213.050;    0.000
412.812; 1894.325;  154.050;    0.000
412.866; 1828.325;  159.050;    0.000
412.921; 1853.325;  207.050;    0.000
412.975; 1928.325;  194.050;    0.000
413.030; 1924.325;  214.050;    0.000
413.084; 1890.325;  174.050;    0.000
413.139; 1897.325;  211.050;    0.000
413.193; 1905.325;  223.050;    0.000
413.247; 1911.325;  198.050;    0.000
413.302; 1857.325;  184.050;    0.000
413.356; 1902.325;  194.050;    0.000
413.410; 1935.325;  219.050;    0.000
413.465; 1927.325;  209.050;    0.000
413.519; 1900.325;  178.050;    0.000
413.573; 1877.325;  189.050;    0.000
413.628; 1914.325;  184.050;    0.000
413.682; 1906.325;  189.050;    0.000
413.736; 1966.325;  196.050;    0.000
413.791; 1879.325;  208.050;    0.000
413.845; 1891.325;  206.050;    0.000
413.899; 1896.325;  193.050;    0.000
413.953; 1932.325;  176.050;    0.000
414.008; 1882.325;  163.050;    0.000
414.062; 1810.325;  195.050;    0.000
414.116; 1934.325;  176.050;    0.000
414.170; 1887.325;  218.050;    0.000
414.225; 1905.325;  183.050;    0.000
414.279; 1926.325;  191.050;    0.000
414.333; 1952.325;  215.050;    0.000
414.387; 1912.325;  187.050;    0.000
414.441; 1940.325;  182.050;    0.000
414.496; 1957.325;  205.050;    0.000
414.550; 1894.325;  203.050;    0.000
414.604; 1941.325;  223.050;    0.000
414.658; 1931.325;  159.050;    0.000
414.712; 1927.325;  194.050;    0.000
414.766; 1855.325;  232.050;    0.000
414.820; 1904.325;  235.050;    0.000
414.874; 1919.325;  169.050;    0.000
414.928; 1906.325;  207.050;    0.000
414.982; 1928.325;  174.050;    0.000
415.037; 1836.325;  173.050;    0.000
415.091; 1935.325;  219.050;    0.000
415.145; 1898.325;  174.050;    0.000
415.199; 1864.325;  207.050;    0.000
415.253; 1907.325;  228.050;    0.000
415.307; 1839.325;  182.050;    0.000
415.361; 1944.325;  219.050;    0.000
415.415; 1938.325;  218.050;    0.000
415.469; 1897.325;  233.050;    0.000
415.523; 1982.325;  203.050;    0.000
415.577; 1912.325;  186.050;    0.000
415.631; 1883.325;  215.050;    0.000
415.684; 1864.325;  212.050;    0.000
415.738; 1907.325;  206.050;    0.000
415.792; 1900.325;  219.050;    0.000
415.846; 1847.325;  208.050;    0.000
415.900; 1864.325;  203.050;    0.000
415.954; 1911.325;  237.050;    0.000
416.008; 1926.325;  242.050;    0.000
416.062; 1889.325;  197.050;    0.000
416.116; 1832.325;  189.050;    0.000
416.169; 1853.325;  199.050;    0.000
416.223; 1886.325;  230.050;    0.000
416.277; 1844.325;  226.050;    0.000
416.331; 1875.325;  254.050;    0.000
416.385; 1833.325;  204.050;    0.000
416.439; 1937.325;  201.050;    0.000
416.492; 1924.325;  238.050;    0.000
416.546; 1893.325;  234.050;    0.000
416.600; 1884.325;  244.050;    0.000
416.654; 1819.325;  233.050;    0.000
416.707; 1831.325;  214.050;    0.000
416.761; 1895.325;  214.050;    0.000
416.815; 1879.325;  192.050;    0.000
416.869; 1867.325;  225.050;    0.000
416.922; 1874.325;  214.050;    0.000
416.976; 1834.325;  206.050;    0.000
417.030; 1894.325;  226.050;    0.000
417.083; 1894.325;  207.050;    0.000
417.137; 1930.325;  236.050;    0.000
417.191; 1832.325;  208.050;    0.000
417.244; 1904.325;  260.050;    0.000
417.298; 1934.325;  222.050;    0.000
417.352; 1906.325;  191.050;    0.000
417.405; 1958.325;  229.050;    0.000
417.459; 1837.325;  249.050;    0.000
417.512; 1855.325;  259.050;    0.000
417.566; 1858.325;  220.050;    0.000
417.620; 1872.325;  229.050;    0.000
417.673; 1842.325;  190.050;    0.000
417.727; 1881.325;  204.050;    0.000
417.780; 1976.325;  223.050;    0.000
417.834; 1866.325;  213.050;    0.000
417.887; 1863.325;  238.050;    0.000
417.941; 1878.325;  244.050;    0.000
417.994; 1921.325;  247.050;    0.000
418.048; 1973.325;  225.050;    0.000
418.101; 1780.325;  210.050;    0.000
418.155; 1856.325;  224.050;    0.000
418.208; 1912.325;  229.050;    0.000
418.262; 1921.325;  255.050;    0.000
418.315; 1905.325;  248.050;    0.000
418.369; 1895.325;  212.050;    0.000
418.422; 1899.325;  241.050;    0.000
418.476; 1901.325;  220.050;    0.000
418.529; 1931.325;  257.050;    0.000
418.582; 1855.325;  203.050;    0.000
418.636; 1882.325;  221.050;    0.000
418.689; 1852.325;  202.050;    0.000
418.743; 1925.325;  227.050;    0.000
418.796; 1920.325;  226.050;    0.000
418.849; 1900.325;  199.050;    0.000
418.903; 1882.325;  234.050;    0.000
418.956; 1877.325;  236.050;    0.000
419.009; 1893.325;  305.050;    0.000
419.063; 1843.325;  216.050;    0.000
419.116; 1879.325;  245.050;    0.000
419.169; 1886.325;  208.050;    0.000
419.222; 1835.325;  233.050;    0.000
419.276; 1895.325;  244.050;    0.000
419.329; 1832.325;  197.050;    0.000
419.382; 1784.325;  222.050;    0.000
419.435; 1900.325;  199.050;    0.000
419.489; 1852.325;  226.050;    0.000
419.542; 1866.325;  223.050;    0.000
419.595; 1935.325;  204.050;    0.000
419.648; 1909.325;  234.050;    0.000
419.701; 1893.325;  211.050;    0.000
419.755; 1861.325;  184.050;    0.000
419.808; 1918.325;  223.050;    0.000
419.861; 1814.325;  197.050;    0.000
419.914; 1935.325;  258.050;    0.000
419.967; 1839.325;  205.050;    0.000
420.020; 1893.325;  195.050;    0.000
420.073; 1898.325;  191.050;    0.000
420.127; 1840.325;  256.050;    0.000
420.180; 1852.325;  232.050;    0.000
420.233; 1836.325;  200.050;    0.000
420.286; 1903.325;  207.050;    0.000
420.339; 1886.325;  223.050;    0.000
420.392; 1861.325;  243.050;    0.000
420.445; 1849.325;  195.050;    0.000
420.498; 1739.325;  239.050;    0.000
420.551; 1814.325;  201.050;    0.000
420.604; 1770.325;  245.050;    0.000
420.657; 1841.325;  221.050;    0.000
420.710; 1787.325;  223.050;    0.000
420.763; 1810.325;  241.050;    0.000
420.816; 1848.325;  198.050;    0.000
420.869; 1778.325;  210.050;    0.000
420.922; 1759.325;  206.050;    0.000
420.975; 1842.325;  239.050;    0.000
421.028; 1910.325;  248.050;    0.000
421.081; 1811.325;  236.050;    0.000
421.134; 1892.325;  208.050;    0.000
421.187; 1770.325;  216.050;    0.000
421.239; 1836.325;  199.050;    0.000
421.292; 1826.325;  255.050;    0.000
421.345; 1788.325;  241.050;    0.000
421.398; 1855.325;  221.050;    0.000
421.451; 1806.325;  237.050;    0.000
421.504; 1815.325;  225.050;    0.000
421.557; 1768.325;  213.050;    0.000
421.609; 1739.325;  178.050;    0.000
421.662; 1816.325;  206.050;    0.000
421.715; 1862.325;  212.050;    0.000
421.768; 1786.325;  236.050;    0.000
421.821; 1763.325;  228.050;    0.000
421.873; 1796.325;  200.050;    0.000
421.926; 1797.325;  226.050;    0.000
421.979; 1808.325;  221.050;    0.000
422.032; 1736.325;  219.050;    0.000
422.084; 1716.325;  253.050;    0.000
422.137; 1711.325;  195.050;    0.000
422.190; 1777.325;  192.050;    0.000
422.243; 1753.325;  236.050;    0.000
422.295; 1803.325;  205.050;    0.000
422.348; 1853.325;  198.050;    0.000
422.401; 1778.325;  245.050;    0.000
422.453; 1815.325;  241.050;    0.000
422.506; 1727.325;  255.050;    0.000
422.559; 1842.325;  188.050;    0.000
422.611; 1749.325;  236.050;    0.000
422.664; 1766.325;  218.050;    0.000
422.716; 1846.325;  210.050;    0.000
422.769; 1784.325;  209.050;    0.000
422.822; 1770.325;  213.050;    0.000
422.874; 1711.325;  227.050;    0.000
422.927; 1820.325;  272.050;    0.000
422.979; 1710.325;  204.050;    0.000
423.032; 1835.325;  210.050;    0.000
423.084; 1650.325;  236.050;    0.000
423.137; 1818.325;  223.050;    0.000
423.189; 1761.325;  253.050;    0.000
423.242; 1732.325;  185.050;    0.000
423.294; 1822.325;  232.050;    0.000
423.347; 1756.325;  213.050;    0.000
423.399; 1744.325;  227.050;    0.000
423.452; 1805.325;  236.050;    0.000
423.504; 1733.325;  232.050;    0.000
423.557; 1714.325;  195.050;    0.000
423.609; 1733.325;  238.050;    0.000
423.662; 1743.325;  207.050;    0.000
423.714; 1725.325;  231.050;    0.000
423.766; 1775.325;  211.050;    0.000
423.819; 1752.325;  207.050;    0.000
423.871; 1757.325;  228.050;    0.000
423.923; 1688.325;  223.050;    0.000
423.976; 1697.325;  217.050;    0.000
424.028; 1676.325;  231.050;    0.000
424.081; 1729.325;  219.050;    0.000
424.133; 1693.325;  255.050;    0.000
424.185; 1689.325;  199.050;    0.000
424.238; 1775.325;  238.050;    0.000
424.290; 1701.325;  209.050;    0.000
424.342; 1735.325;  213.050;    0.000
424.394; 1747.325;  215.050;    0.000
424.447; 1765.325;  265.050;    0.000
424.499; 1680.325;  238.050;    0.000
424.551; 1765.325;  256.050;    0.000
424.603; 1702.325;  222.050;    0.000
424.656; 1748.325;  227.050;    0.000
424.708; 1767.325;  250.050;    0.000
424.760; 1697.325;  228.050;    0.000
424.812; 1775.325;  249.050;    0.000
424.864; 1790.325;  222.050;    0.000
424.917; 1683.325;  235.050;    0.000
424.969; 1654.325;  266.050;    0.000
425.021; 1741.325;  233.050;    0.000
425.073; 1754.325;  194.050;    0.000
425.125; 1712.325;  256.050;    0.000
425.177; 1632.325;  225.050;    0.000
425.229; 1688.325;  242.050;    0.000
425.282; 1693.325;  236.050;    0.000
425.334; 1688.325;  250.050;    0.000
425.386; 1687.325;  231.050;    0.000
425.438; 1721.325;  216.050;    0.000
425.490; 1643.325;  240.050;    0.000
425.542; 1685.325;  231.050;    0.000
425.594; 1665.325;  206.050;    0.000
425.646; 1758.325;  201.050;    0.000
425.698; 1667.325;  193.050;    0.000
425.750; 1734.325;  241.050;    0.000
425.802; 1709.325;  199.050;    0.000
425.854; 1691.325;  216.050;    0.000
425.906; 1618.325;  220.050;    0.000
425.958; 1690.325;  200.050;    0.000
426.010; 1688.325;  214.050;    0.000
426.062; 1703.325;  245.050;    0.000
426.114; 1732.325;  241.050;    0.000
426.166; 1682.325;  241.050;    0.000
426.218; 1620.325;  255.050;    0.000
426.270; 1627.325;  228.050;    0.000
426.321; 1648.325;  222.050;    0.000
426.373; 1671.325;  218.050;    0.000
426.425; 1696.325;  258.050;    0.000
426.477; 1673.325;  225.050;    0.000
426.529; 1590.325;  223.050;    0.000
426.581; 1725.325;  198.050;    0.000
426.633; 1650.325;  228.050;    0.000
426.684; 1627.325;  210.050;    0.000
426.736; 1673.325;  208.050;    0.000
426.788; 1692.325;  231.050;    0.000
426.840; 1575.325;  212.050;    0.000
426.892; 1614.325;  221.050;    0.000
426.943; 1682.325;  240.050;    0.000
426.995; 1601.325;  243.050;    0.000
427.047; 1677.325;  231.050;    0.000
427.099; 1590.325;  189.050;    0.000
427.150; 1574.325;  212.050;    0.000
427.202; 1592.325;  219.050;    0.000
427.254; 1655.325;  203.050;    0.000
427.306; 1659.325;  217.050;    0.000
427.357; 1710.325;  232.050;    0.000
427.409; 1670.325;  251.050;    0.000
427.461; 1623.325;  185.050;    0.000
427.512; 1658.325;  239.050;    0.000
427.564; 1594.325;  208.050;    0.000
427.616; 1692.325;  233.050;    0.000
427.667; 1584.325;  223.050;    0.000
427.719; 1580.325;  206.050;    0.000
427.770; 1606.325;  195.050;    0.000
427.822; 1620.325;  223.050;    0.000
427.874; 1593.325;  232.050;    0.000
427.925; 1599.325;  209.050;    0.000
427.977; 1597.325;  208.050;    0.000
428.028; 1598.325;  187.050;    0.000
428.080; 1623.325;  209.050;    0.000
428.131; 1599.325;  237.050;    0.000
428.183; 1642.325;  200.050;    0.000
428.234; 1621.325;  215.050;    0.000
428.286; 1634.325;  229.050;    0.000
428.337; 1592.325;  206.050;    0.000
428.389; 1672.325;  216.050;    0.000
428.440; 1624.325;  287.050;    0.000
428.492; 1627.325;  269.050;    0.000
428.543; 1664.325;  234.050;    0.000
428.595; 1565.325;  214.050;    0.000
428.646; 1561.325;  229.050;    0.000
428.697; 1609.325;  249.050;    0.000
428.749; 1622.325;  250.050;    0.000
428.800; 1667.325;  242.050;    0.000
428.852; 1615.325;  232.050;    0.000
428.903; 1683.325;  196.050;    0.000
428.954; 1525.325;  226.050;    0.000
429.006; 1552.325;  232.050;    0.000
429.057; 1608.325;  188.050;    0.000
429.108; 1656.325;  237.050;    0.000
429.160; 1594.325;  221.050;    0.000
429.211; 1537.325;  222.050;    0.000
429.262; 1563.325;  215.050;    0.000
429.314; 1641.325;  225.050;    0.000
429.365; 1551.325;  220.050;    0.000
429.416; 1604.325;  242.050;    0.000
429.467; 1595.325;  220.050;    0.000
429.519; 1512.325;  217.050;    0.000
429.570; 1583.325;  248.050;    0.000
429.621; 1598.325;  233.050;    0.000
429.672; 1625.325;  220.050;    0.000
429.724; 1584.325;  179.050;    0.000
429.775; 1599.325;  218.050;    0.000
429.826; 1576.325;  197.050;    0.000
429.877; 1486.325;  206.050;    0.000
429.928; 1631.325;  229.050;    0.000
429.980; 1499.325;  207.050;    0.000
430.031; 1608.325;  264.050;    0.000
430.082; 1567.325;  210.050;    0.000
430.133; 1550.325;  218.050;    0.000
430.184; 1502.325;  246.050;    0.000
430.235; 1636.325;  201.050;    0.000
430.286; 1539.325;  207.050;    0.000
430.337; 1556.325;  224.050;    0.000
430.388; 1598.325;  216.050;    0.000
430.439; 1514.325;  210.050;    0.000
430.490; 1531.325;  208.050;    0.000
430.542; 1558.325;  211.050;    0.000
430.593; 1607.325;  203.050;    0.000
430.644; 1538.325;  235.050;    0.000
430.695; 1570.325;  200.050;    0.000
430.746; 1512.325;  215.050;    0.000
430.797; 1572.325;  235.050;    0.000
430.848; 1590.325;  197.050;    0.000
430.898; 1524.325;  209.050;    0.000
430.949; 1556.325;  231.050;    0.000
431.000; 1559.325;  227.050;    0.000
431.051; 1549.325;  225.050;    0.000
431.102; 1562.325;  180.050;    0.000
431.153; 1523.325;  248.050;    0.000
431.204; 1489.325;  185.050;    0.000
431.255; 1512.325;  199.050;    0.000
431.306; 1611.325;  228.050;    0.000
431.357; 1526.325;  237.050;    0.000
431.408; 1544.325;  223.050;    0.000
431.458; 1563.325;  240.050;    0.000
431.509; 1535.325;  207.050;    0.000
431.560; 1560.325;  219.050;    0.000
431.611; 1510.325;  206.050;    0.000
431.662; 1593.325;  253.050;    0.000
431.713; 1548.325;  199.050;    0.000
431.763; 1540.325;  197.050;    0.000
431.814; 1545.325;  205.050;    0.000
431.865; 1578.325;  218.050;    0.000
431.916; 1531.325;  202.050;    0.000
431.966; 1557.325;  203.050;    0.000
432.017; 1637.325;  244.050;    0.000
432.068; 1553.325;  246.050;    0.000
432.118; 1588.325;  212.050;    0.000
432.169; 1552.325;  214.050;    0.000
432.220; 1571.325;  241.050;    0.000
432.271; 1593.325;  237.050;    0.000
432.321; 1493.325;  246.050;    0.000
432.372; 1535.325;  257.050;    0.000
432.423; 1529.325;  198.050;    0.000
432.473; 1562.325;  202.050;    0.000
432.524; 1597.325;  242.050;    0.000
432.574; 1549.325;  202.050;    0.000
432.625; 1476.325;  212.050;    0.000
432.676; 1545.325;  242.050;    0.000
432.726; 1668.325;  268.050;    0.000
432.777; 1595.325;  228.050;    0.000
432.827; 1545.325;  230.050;    0.000
432.878; 1547.325;  221.050;    0.000
432.928; 1597.325;  218.050;    0.000
432.979; 1475.325;  243.050;    0.000
433.029; 1494.325;  217.050;    0.000
433.080; 1529.325;  208.050;    0.000
433.130; 1550.325;  236.050;    0.000
433.181; 1571.325;  282.050;    0.000
433.231; 1580.325;  257.050;    0.000
433.282; 1560.325;  268.050;    0.000
433.332; 1571.325;  241.050;    0.000
433.383; 1556.325;  271.050;    0.000
433.433; 1592.325;  262.050;    0.000
433.484; 1573.325;  266.050;    0.000
433.534; 1509.325;  217.050;    0.000
433.585; 1570.325;  230.050;    0.000
433.635; 1599.325;  245.050;    0.000
433.685; 1577.325;  250.050;    0.000
433.736; 1587.325;  308.050;    0.000
433.786; 1593.325;  242.050;    0.000
433.836; 1580.325;  256.050;    0.000
433.887; 1534.325;  250.050;    0.000
433.937; 1585.325;  250.050;    0.000
433.987; 1558.325;  219.050;    0.000
434.038; 1579.325;  248.050;    0.000
434.088; 1539.325;  231.050;    0.000
434.138; 1628.325;  266.050;    0.000
434.189; 1553.325;  240.050;    0.000
434.239; 1576.325;  245.050;    0.000
434.289; 1624.325;  285.050;    0.000
434.339; 1544.325;  255.050;    0.000
434.389; 1571.325;  242.050;    0.000
434.440; 1529.325;  273.050;    0.000
434.490; 1633.325;  272.050;    0.000
434.540; 1621.325;  264.050;    0.000
434.590; 1575.325;  233.050;    0.000
434.640; 1568.325;  244.050;    0.000
434.691; 1651.325;  226.050;    0.000
434.741; 1571.325;  253.050;    0.000
434.791; 1653.325;  269.050;    0.000
434.841; 1672.325;  252.050;    0.000
434.891; 1595.325;  281.050;    0.000
434.941; 1572.325;  296.050;    0.000
434.991; 1564.325;  264.050;    0.000
435.042; 1609.325;  262.050;    0.000
435.092; 1615.325;  237.050;    0.000
435.142; 1580.325;  232.050;    0.000
435.192; 1579.325;  251.050;    0.000
435.242; 1591.325;  251.050;    0.000
435.292; 1531.325;  246.050;    0.000
435.342; 1530.325;  236.050;    0.000
435.392; 1545.325;  273.050;    0.000
435.442; 1480.325;  273.050;    0.000
435.492; 1550.325;  273.050;    0.000
435.542; 1552.325;  242.050;    0.000
435.592; 1548.325;  213.050;    0.000
435.642; 1567.325;  248.050;    0.000
435.692; 1531.325;  242.050;    0.000
435.742; 1520.325;  222.050;    0.000
435.792; 1583.325;  260.050;    0.000
435.842; 1557.325;  266.050;    0.000
435.891; 1520.325;  227.050;    0.000
435.941; 1502.325;  228.050;    0.000
435.991; 1529.325;  282.050;    0.000
436.041; 1488.325;  231.050;    0.000
436.091; 1529.325;  250.050;    0.000
436.141; 1491.325;  221.050;    0.000
436.191; 1478.325;  223.050;    0.000
436.241; 1413.325;  250.050;    0.000
436.290; 1495.325;  243.050;    0.000
436.340; 1477.325;  236.050;    0.000
436.390; 1474.325;  260.050;    0.000
436.440; 1460.325;  253.050;    0.000
436.490; 1495.325;  236.050;    0.000
436.539; 1470.325;  249.050;    0.000
436.589; 1493.325;  231.050;    0.000
436.639; 1452.325;  237.050;    0.000
436.689; 1481.325;  222.050;    0.000
436.738; 1500.325;  263.050;    0.000
436.788; 1534.325;  230.050;    0.000
436.838; 1485.325;  281.050;    0.000
436.887; 1501.325;  230.050;    0.000
436.937; 1455.325;  250.050;    0.000
436.987; 1445.325;  251.050;    0.000
437.036; 1532.325;  238.050;    0.000
437.086; 1417.325;  234.050;    0.000
437.136; 1445.325;  250.050;    0.000
437.185; 1446.325;  228.050;    0.000
437.235; 1519.325;  309.050;    0.000
437.285; 1451.325;  246.050;    0.000
437.334; 1461.325;  262.050;    0.000
437.384; 1497.325;  228.050;    0.000
437.433; 1406.325;  241.050;    0.000
437.483; 1478.325;  220.050;    0.000
437.532; 1470.325;  252.050;    0.000
437.582; 1479.325;  270.050;    0.000
437.631; 1445.325;  251.050;    0.000
437.681; 1400.325;  284.050;    0.000
437.730; 1494.325;  239.050;    0.000
437.780; 1422.325;  221.050;    0.000
437.829; 1376.325;  254.050;    0.000
437.879; 1439.325;  221.050;    0.000
437.928; 1449.325;  205.050;    0.000
437.978; 1456.325;  223.050;    0.000
438.027; 1476.325;  262.050;    0.000
438.077; 1365.325;  280.050;    0.000
438.126; 1460.325;  254.050;    0.000
438.176; 1439.325;  230.050;    0.000
438.225; 1433.325;  227.050;    0.000
438.274; 1427.325;  264.050;    0.000
438.324; 1431.325;  233.050;    0.000
438.373; 1379.325;  238.050;    0.000
438.422; 1442.325;  260.050;    0.000
438.472; 1423.325;  223.050;    0.000
438.521; 1488.325;  213.050;    0.000
438.570; 1474.325;  236.050;    0.000
438.620; 1486.325;  282.050;    0.000
438.669; 1452.325;  209.050;    0.000
438.718; 1450.325;  245.050;    0.000
438.768; 1391.325;  238.050;    0.000
438.817; 1520.325;  259.050;    0.000
438.866; 1378.325;  232.050;    0.000
438.915; 1461.325;  288.050;    0.000
438.965; 1444.325;  228.050;    0.000
439.014; 1446.325;  246.050;    0.000
439.063; 1505.325;  287.050;    0.000
439.112; 1406.325;  217.050;    0.000
439.162; 1509.325;  275.050;    0.000
439.211; 1457.325;  287.050;    0.000
439.260; 1422.325;  238.050;    0.000
439.309; 1421.325;  225.050;    0.000
439.358; 1478.325;  248.050;    0.000
439.407; 1449.325;  237.050;    0.000
439.456; 1359.325;  223.050;    0.000
439.506; 1448.325;  266.050;    0.000
439.555; 1485.325;  260.050;    0.000
439.604; 1466.325;  233.050;    0.000
439.653; 1477.325;  242.050;    0.000
439.702; 1432.325;  255.050;    0.000
439.751; 1377.325;  202.050;    0.000
439.800; 1469.325;  247.050;    0.000
439.849; 1424.325;  250.050;    0.000
439.898; 1413.325;  216.050;    0.000
439.947; 1425.325;  231.050;    0.000
439.996; 1439.325;  272.050;    0.000
440.045; 1469.325;  217.050;    0.000
440.094; 1497.325;  220.050;    0.000
440.143; 1561.325;  245.050;    0.000
440.192; 1431.325;  267.050;    0.000
440.241; 1386.325;  263.050;    0.000
440.290; 1513.325;  246.050;    0.000
440.339; 1445.325;  225.050;    0.000
440.388; 1465.325;  256.050;    0.000
440.437; 1502.325;  253.050;    0.000
440.486; 1462.325;  249.050;    0.000
440.535; 1515.325;  232.050;    0.000
440.583; 1495.325;  220.050;    0.000
440.632; 1497.325;  239.050;    0.000
440.681; 1400.325;  236.050;    0.000
440.730; 1564.325;  282.050;    0.000
440.779; 1504.325;  245.050;    0.000
440.828; 1418.325;  213.050;    0.000
440.876; 1445.325;  231.050;    0.000
440.925; 1409.325;  271.050;    0.000
440.974; 1497.325;  240.050;    0.000
441.023; 1469.325;  214.050;    0.000
441.072; 1478.325;  236.050;    0.000
441.120; 1589.325;  271.050;    0.000
441.169; 1513.325;  281.050;    0.000
441.218; 1475.325;  255.050;    0.000
441.267; 1511.325;  272.050;    0.000
441.315; 1506.325;  229.050;    0.000
441.364; 1465.325;  241.050;    0.000
441.413; 1495.325;  224.050;    0.000
441.461; 1482.325;  241.050;    0.000
441.510; 1558.325;  289.050;    0.000
441.559; 1522.325;  222.050;    0.000
441.607; 1539.325;  242.050;    0.000
441.656; 1524.325;  255.050;    0.000
441.705; 1494.325;  260.050;    0.000
441.753; 1606.325;  290.050;    0.000
441.802; 1550.325;  264.050;    0.000
441.850; 1552.325;  224.050;    0.000
441.899; 1491.325;  275.050;    0.000
441.948; 1540.325;  227.050;    0.000
441.996; 1524.325;  216.050;    0.000
442.045; 1550.325;  271.050;    0.000
442.093; 1473.325;  227.050;    0.000
442.142; 1486.325;  273.050;    0.000
442.190; 1465.325;  257.050;    0.000
442.239; 1489.325;  269.050;    0.000
442.287; 1468.325;  257.050;    0.000
442.336; 1507.325;  237.050;    0.000
442.384; 1486.325;  214.050;    0.000
442.433; 1519.325;  272.050;    0.000
442.481; 1585.325;  258.050;    0.000
442.529; 1461.325;  242.050;    0.000
442.578; 1506.325;  278.050;    0.000
442.626; 1400.325;  264.050;    0.000
442.675; 1492.325;  293.050;    0.000
442.723; 1435.325;  244.050;    0.000
442.771; 1537.325;  232.050;    0.000
442.820; 1576.325;  266.050;    0.000
442.868; 1587.325;  253.050;    0.000
442.917; 1571.325;  250.050;    0.000
442.965; 1500.325;  279.050;    0.000
443.013; 1551.325;  253.050;    0.000
443.062; 1489.325;  282.050;    0.000
443.110; 1508.325;  258.050;    0.000
443.158; 1452.325;  246.050;    0.000
443.206; 1483.325;  255.050;    0.000
443.255; 1502.325;  296.050;    0.000
443.303; 1549.325;  272.050;    0.000
443.351; 1491.325;  270.050;    0.000
443.399; 1527.325;  258.050;    0.000
443.448; 1546.325;  265.050;    0.000
443.496; 1558.325;  219.050;    0.000
443.544; 1515.325;  205.050;    0.000
443.592; 1538.325;  266.050;    0.000
443.640; 1584.325;  260.050;    0.000
443.689; 1452.325;  232.050;    0.000
443.737; 1560.325;  281.050;    0.000
443.785; 1564.325;  248.050;    0.000
443.833; 1588.325;  286.050;    0.000
443.881; 1497.325;  225.050;    0.000
443.929; 1493.325;  255.050;    0.000
443.977; 1559.325;  248.050;    0.000
444.025; 1529.325;  255.050;    0.000
444.074; 1533.325;  266.050;    0.000
444.122; 1615.325;  266.050;    0.000
444.170; 1541.325;  207.050;    0.000
444.218; 1514.325;  253.050;    0.000
444.266; 1563.325;  263.050;    0.000
444.314; 1587.325;  272.050;    0.000
444.362; 1576.325;  272.050;    0.000
444.410; 1541.325;  255.050;    0.000
444.458; 1536.325;  288.050;    0.000
444.506; 1606.325;  263.050;    0.000
444.554; 1600.325;  243.050;    0.000
444.602; 1621.325;  285.050;    0.000
444.650; 1577.325;  273.050;    0.000
444.698; 1595.325;  221.050;    0.000
444.746; 1582.325;  243.050;    0.000
444.793; 1603.325;  217.050;    0.000
444.841; 1569.325;  262.050;    0.000
444.889; 1609.325;  264.050;    0.000
444.937; 1604.325;  226.050;    0.000
444.985; 1584.325;  257.050;    0.000
445.033; 1598.325;  264.050;    0.000
445.081; 1561.325;  264.050;    0.000
445.129; 1577.325;  187.050;    0.000
445.176; 1533.325;  212.050;    0.000
445.224; 1573.325;  198.050;    0.000
445.272; 1578.325;  265.050;    0.000
445.320; 1673.325;  239.050;    0.000
445.368; 1615.325;  245.050;    0.000
445.415; 1591.325;  215.050;    0.000
445.463; 1591.325;  202.050;    0.000
445.511; 1594.325;  234.050;    0.000
445.559; 1611.325;  269.050;    0.000
445.606; 1620.325;  214.050;    0.000
445.654; 1604.325;  227.050;    0.000
445.702; 1510.325;  276.050;    0.000
445.749; 1662.325;  256.050;    0.000
445.797; 1570.325;  236.050;    0.000
445.845; 1599.325;  230.050;    0.000
445.892; 1575.325;  233.050;    0.000
445.940; 1566.325;  257.050;    0.000
445.988; 1586.325;  253.050;    0.000
446.035; 1644.325;  265.050;    0.000
446.083; 1610.325;  254.050;    0.000
446.130; 1528.325;  228.050;    0.000
446.178; 1612.325;  256.050;    0.000
446.226; 1610.325;  238.050;    0.000
446.273; 1613.325;  228.050;    0.000
446.321; 1606.325;  220.050;    0.000
446.368; 1597.325;  249.050;    0.000
446.416; 1619.325;  221.050;    0.000
446.463; 1716.325;  232.050;    0.000
446.511; 1631.325;  243.050;    0.000
446.558; 1660.325;  217.050;    0.000
446.606; 1621.325;  256.050;    0.000
446.653; 1622.325;  238.050;    0.000
446.701; 1623.325;  259.050;    0.000
446.748; 1628.325;  227.050;    0.000
446.796; 1607.325;  236.050;    0.000
446.843; 1747.325;  241.050;    0.000
446.891; 1716.325;  292.050;    0.000
446.938; 1712.325;  219.050;    0.000
446.985; 1689.325;  255.050;    0.000
447.033; 1772.325;  237.050;    0.000
447.080; 1750.325;  278.050;    0.000
447.128; 1713.325;  237.050;    0.000
447.175; 1763.325;  247.050;    0.000
447.222; 1777.325;  235.050;    0.000
447.270; 1797.325;  274.050;    0.000
447.317; 1740.325;  222.050;    0.000
447.364; 1719.325;  230.050;    0.000
447.411; 1822.325;  297.050;    0.000
447.459; 1815.325;  243.050;    0.000
447.506; 1851.325;  202.050;    0.000
447.553; 1799.325;  232.050;    0.000
447.601; 1838.325;  262.050;    0.000
447.648; 1844.325;  254.050;    0.000
447.695; 1880.325;  287.050;    0.000
447.742; 1946.325;  232.050;    0.000
447.789; 1912.325;  257.050;    0.000
447.837; 2000.325;  260.050;    0.000
447.884; 1937.325;  272.050;    0.000
447.931; 1997.325;  241.050;    0.000
447.978; 2002.325;  241.050;    0.000
448.025; 1967.325;  264.050;    0.000
448.072; 2037.325;  279.050;    0.000
448.120; 2027.325;  263.050;    0.000
448.167; 2033.325;  284.050;    0.000
448.214; 1966.325;  252.050;    0.000
448.261; 1974.325;  247.050;    0.000
448.308; 1945.325;  249.050;    0.000
448.355; 1942.325;  263.050;    0.000
448.402; 1927.325;  251.050;    0.000
448.449; 1862.325;  257.050;    0.000
448.496; 1798.325;  243.050;    0.000
448.543; 1841.325;  274.050;    0.000
448.590; 1856.325;  299.050;    0.000
448.637; 1784.325;  259.050;    0.000
448.684; 1790.325;  266.050;    0.000
448.731; 1706.325;  261.050;    0.000
448.778; 1773.325;  292.050;    0.000
448.825; 1773.325;  253.050;    0.000
448.872; 1761.325;  253.050;    0.000
448.919; 1770.325;  218.050;    0.000
448.966; 1812.325;  254.050;    0.000
449.013; 1747.325;  263.050;    0.000
449.060; 1763.325;  282.050;    0.000
449.107; 1677.325;  244.050;    0.000
449.154; 1660.325;  236.050;    0.000
449.200; 1699.325;  226.050;    0.000
449.247; 1714.325;  273.050;    0.000
449.294; 1672.325;  270.050;    0.000
449.341; 1669.325;  283.050;    0.000
449.388; 1629.325;  261.050;    0.000
449.435; 1636.325;  254.050;    0.000
449.481; 1718.325;  318.050;    0.000
449.528; 1617.325;  274.050;    0.000
449.575; 1643.325;  251.050;    0.000
449.622; 1619.325;  276.050;    0.000
449.668; 1567.325;  242.050;    0.000
449.715; 1606.325;  286.050;    0.000
449.762; 1599.325;  268.050;    0.000
449.809; 1664.325;  285.050;    0.000
449.855; 1598.325;  277.050;    0.000
449.902; 1586.325;  246.050;    0.000
449.949; 1578.325;  268.050;    0.000
449.995; 1564.325;  289.050;    0.000
450.042; 1595.325;  256.050;    0.000
450.089; 1576.325;  290.050;    0.000
450.135; 1596.325;  300.050;    0.000
450.182; 1526.325;  317.050;    0.000
450.229; 1553.325;  282.050;    0.000
450.275; 1550.325;  307.050;    0.000
450.322; 1549.325;  260.050;    0.000
450.368; 1511.325;  315.050;    0.000
450.415; 1558.325;  306.050;    0.000
450.462; 1481.325;  314.050;    0.000
450.508; 1526.325;  303.050;    0.000
450.555; 1549.325;  281.050;    0.000
450.601; 1542.325;  291.050;    0.000
450.648; 1532.325;  288.050;    0.000
450.694; 1503.325;  290.050;    0.000
450.741; 1516.325;  303.050;    0.000
450.787; 1477.325;  298.050;    0.000
450.834; 1530.325;  265.050;    0.000
450.880; 1529.325;  273.050;    0.000
450.927; 1524.325;  312.050;    0.000
450.973; 1515.325;  303.050;    0.000
451.019; 1495.325;  222.050;    0.000
451.066; 1512.325;  284.050;    0.000
451.112; 1483.325;  296.050;    0.000
451.159; 1505.325;  299.050;    0.000
451.205; 1504.325;  311.050;    0.000
451.251; 1496.325;  306.050;    0.000
451.298; 1555.325;  281.050;    0.000
451.344; 1530.325;  311.050;    0.000
451.390; 1523.325;  331.050;    0.000
451.437; 1445.325;  303.050;    0.000
451.483; 1521.325;  284.050;    0.000
451.529; 1440.325;  310.050;    0.000
451.576; 1462.325;  301.050;    0.000
451.622; 1402.325;  275.050;    0.000
451.668; 1435.325;  269.050;    0.000
451.714; 1491.325;  277.050;    0.000
451.761; 1471.325;  298.050;    0.000
451.807; 1476.325;  316.050;    0.000
451.853; 1476.325;  301.050;    0.000
451.899; 1404.325;  292.050;    0.000
451.945; 1468.325;  324.050;    0.000
451.992; 1472.325;  292.050;    0.000
452.038; 1415.325;  261.050;    0.000
452.084; 1405.325;  286.050;    0.000
452.130; 1481.325;  301.050;    0.000
452.176; 1443.325;  287.050;    0.000
452.222; 1345.325;  265.050;    0.000
452.268; 1438.325;  268.050;    0.000
452.315; 1427.325;  272.050;    0.000
452.361; 1395.325;  258.050;    0.000
452.407; 1410.325;  279.050;    0.000
452.453; 1427.325;  252.050;    0.000
452.499; 1454.325;  305.050;    0.000
452.545; 1462.325;  263.050;    0.000
452.591; 1446.325;  284.050;    0.000
452.637; 1442.325;  289.050;    0.000
452.683; 1418.325;  249.050;    0.000
452.729; 1440.325;  290.050;    0.000
452.775; 1432.325;  315.050;    0.000
452.821; 1446.325;  271.050;    0.000
452.867; 1462.325;  258.050;    0.000
452.913; 1458.325;  256.050;    0.000
452.959; 1449.325;  266.050;    0.000
453.005; 1469.325;  299.050;    0.000
453.051; 1414.325;  299.050;    0.000
453.097; 1460.325;  268.050;    0.000
453.142; 1420.325;  251.050;    0.000
453.188; 1433.325;  284.050;    0.000
453.234; 1469.325;  285.050;    0.000
453.280; 1386.325;  263.050;    0.000
453.326; 1381.325;  273.050;    0.000
453.372; 1439.325;  253.050;    0.000
453.418; 1389.325;  269.050;    0.000
453.463; 1389.325;  250.050;    0.000
453.509; 1448.325;  289.050;    0.000
453.555; 1441.325;  262.050;    0.000
453.601; 1420.325;  274.050;    0.000
453.647; 1501.325;  306.050;    0.000
453.692; 1365.325;  264.050;    0.000
453.738; 1391.325;  312.050;    0.000
453.784; 1407.325;  300.050;    0.000
453.829; 1357.325;  284.050;    0.000
453.875; 1339.325;  270.050;    0.000
453.921; 1379.325;  237.050;    0.000
453.967; 1346.325;  263.050;    0.000
454.012; 1450.325;  295.050;    0.000
454.058; 1393.325;  293.050;    0.000
454.104; 1364.325;  264.050;    0.000
454.149; 1456.325;  282.050;    0.000
454.195; 1322.325;  277.050;    0.000
454.240; 1524.325;  307.050;    0.000
454.286; 1395.325;  282.050;    0.000
454.332; 1365.325;  291.050;    0.000
454.377; 1367.325;  302.050;    0.000
454.423; 1390.325;  276.050;    0.000
454.468; 1381.325;  281.050;    0.000
454.514; 1390.325;  290.050;    0.000
454.559; 1401.325;  289.050;    0.000
454.605; 1396.325;  258.050;    0.000
454.650; 1364.325;  281.050;    0.000
454.696; 1441.325;  308.050;    0.000
454.741; 1346.325;  288.050;    0.000
454.787; 1387.325;  284.050;    0.000
454.832; 1357.325;  306.050;    0.000
454.878; 1377.325;  288.050;    0.000
454.923; 1365.325;  287.050;    0.000
454.969; 1394.325;  325.050;    0.000
455.014; 1420.325;  323.050;    0.000
455.060; 1407.325;  290.050;    0.000
455.105; 1387.325;  285.050;    0.000
455.150; 1439.325;  303.050;    0.000
455.196; 1414.325;  282.050;    0.000
455.241; 1365.325;  281.050;    0.000
455.286; 1366.325;  290.050;    0.000
455.332; 1418.325;  280.050;    0.000
455.377; 1370.325;  243.050;    0.000
455.422; 1436.325;  308.050;    0.000
455.468; 1341.325;  308.050;    0.000
455.513; 1448.325;  290.050;    0.000
455.558; 1382.325;  211.050;    0.000
455.604; 1340.325;  289.050;    0.000
455.649; 1399.325;  297.050;    0.000
455.694; 1353.325;  287.050;    0.000
455.739; 1371.325;  296.050;    0.000
455.785; 1390.325;  315.050;    0.000
455.830; 1405.325;  328.050;    0.000
455.875; 1402.325;  310.050;    0.000
455.920; 1363.325;  261.050;    0.000
455.965; 1350.325;  277.050;    0.000
456.010; 1384.325;  317.050;    0.000
456.056; 1411.325;  299.050;    0.000
456.101; 1348.325;  262.050;    0.000
456.146; 1422.325;  318.050;    0.000
456.191; 1476.325;  274.050;    0.000
456.236; 1419.325;  274.050;    0.000
456.281; 1424.325;  275.050;    0.000
456.326; 1421.325;  256.050;    0.000
456.371; 1394.325;  260.050;    0.000
456.416; 1395.325;  304.050;    0.000
456.461; 1418.325;  278.050;    0.000
456.507; 1387.325;  299.050;    0.000
456.552; 1483.325;  305.050;    0.000
456.597; 1392.325;  271.050;    0.000
456.642; 1410.325;  273.050;    0.000
456.687; 1358.325;  290.050;    0.000
456.732; 1478.325;  327.050;    0.000
456.776; 1376.325;  284.050;    0.000
456.821; 1409.325;  321.050;    0.000
456.866; 1396.325;  272.050;    0.000
456.911; 1396.325;  232.050;    0.000
456.956; 1414.325;  263.050;    0.000
457.001; 1395.325;  277.050;    0.000
457.046; 1393.325;  284.050;    0.000
457.091; 1359.325;  269.050;    0.000
457.136; 1371.325;  269.050;    0.000
457.181; 1378.325;  275.050;    0.000
457.225; 1438.325;  310.050;    0.000
457.270; 1439.325;  295.050;    0.000
457.315; 1436.325;  284.050;    0.000
457.360; 1344.325;  264.050;    0.000
457.405; 1386.325;  273.050;    0.000
457.450; 1434.325;  284.050;    0.000
457.494; 1364.325;  273.050;    0.000
457.539; 1353.325;  287.050;    0.000
457.584; 1419.325;  279.050;    0.000
457.629; 1416.325;  288.050;    0.000
457.673; 1380.325;  297.050;    0.000
457.718; 1359.325;  270.050;    0.000
457.763; 1471.325;  295.050;    0.000
457.807; 1362.325;  321.050;    0.000
457.852; 1439.325;  293.050;    0.000
457.897; 1433.325;  282.050;    0.000
457.941; 1414.325;  320.050;    0.000
457.986; 1446.325;  295.050;    0.000
458.031; 1424.325;  314.050;    0.000
458.075; 1412.325;  280.050;    0.000
458.120; 1393.325;  314.050;    0.000
458.165; 1402.325;  289.050;    0.000
458.209; 1396.325;  289.050;    0.000
458.254; 1421.325;  272.050;    0.000
458.298; 1395.325;  305.050;    0.000
458.343; 1455.325;  284.050;    0.000
458.387; 1452.325;  340.050;    0.000
458.432; 1395.325;  306.050;    0.000
458.476; 1477.325;  311.050;    0.000
458.521; 1398.325;  304.050;    0.000
458.565; 1464.325;  329.050;    0.000
458.610; 1469.325;  287.050;    0.000
458.654; 1396.325;  300.050;    0.000
458.699; 1409.325;  295.050;    0.000
458.743; 1458.325;  269.050;    0.000
458.788; 1431.325;  294.050;    0.000
458.832; 1453.325;  301.050;    0.000
458.877; 1479.325;  303.050;    0.000
458.921; 1425.325;  259.050;    0.000
458.965; 1464.325;  308.050;    0.000
459.010; 1460.325;  330.050;    0.000
459.054; 1507.325;  298.050;    0.000
459.099; 1418.325;  303.050;    0.000
459.143; 1531.325;  333.050;    0.000
459.187; 1477.325;  291.050;    0.000
459.231; 1465.325;  316.050;    0.000
459.276; 1552.325;  294.050;    0.000
459.320; 1470.325;  291.050;    0.000
459.364; 1448.325;  318.050;    0.000
459.409; 1429.325;  325.050;    0.000
459.453; 1527.325;  293.050;    0.000
459.497; 1559.325;  354.050;    0.000
459.541; 1478.325;  313.050;    0.000
459.586; 1517.325;  282.050;    0.000
459.630; 1507.325;  286.050;    0.000
459.674; 1576.325;  292.050;    0.000
459.718; 1546.325;  280.050;    0.000
459.762; 1486.325;  304.050;    0.000
459.807; 1545.325;  352.050;    0.000
459.851; 1556.325;  300.050;    0.000
459.895; 1507.325;  311.050;    0.000
459.939; 1528.325;  303.050;    0.000
459.983; 1514.325;  299.050;    0.000
460.027; 1511.325;  307.050;    0.000
460.071; 1563.325;  313.050;    0.000
460.115; 1450.325;  325.050;    0.000
460.159; 1567.325;  331.050;    0.000
460.204; 1490.325;  301.050;    0.000
460.248; 1594.325;  329.050;    0.000
460.292; 1570.325;  310.050;    0.000
460.336; 1548.325;  304.050;    0.000
460.380; 1572.325;  313.050;    0.000
460.424; 1604.325;  300.050;    0.000
460.468; 1566.325;  338.050;    0.000
460.512; 1558.325;  310.050;    0.000
460.556; 1583.325;  337.050;    0.000
460.599; 1517.325;  310.050;    0.000
460.643; 1515.325;  303.050;    0.000
460.687; 1550.325;  316.050;    0.000
460.731; 1516.325;  292.050;    0.000
460.775; 1572.325;  294.050;    0.000
460.819; 1563.325;  310.050;    0.000
460.863; 1516.325;  349.050;    0.000
460.907; 1516.325;  265.050;    0.000
460.951; 1563.325;  325.050;    0.000
460.995; 1597.325;  338.050;    0.000
461.038; 1502.325;  304.050;    0.000
461.082; 1581.325;  312.050;    0.000
461.126; 1609.325;  358.050;    0.000
461.170; 1488.325;  306.050;    0.000
461.214; 1557.325;  330.050;    0.000
461.257; 1588.325;  311.050;    0.000
461.301; 1547.325;  303.050;    0.000
461.345; 1611.325;  310.050;    0.000
461.389; 1551.325;  296.050;    0.000
461.432; 1575.325;  304.050;    0.000
461.476; 1515.325;  305.050;    0.000
461.520; 1534.325;  319.050;    0.000
461.563; 1574.325;  294.050;    0.000
461.607; 1536.325;  295.050;    0.000
461.651; 1508.325;  335.050;    0.000
461.694; 1568.325;  276.050;    0.000
461.738; 1630.325;  327.050;    0.000
461.782; 1564.325;  288.050;    0.000
461.825; 1649.325;  319.050;    0.000
461.869; 1577.325;  305.050;    0.000
461.913; 1629.325;  281.050;    0.000
461.956; 1540.325;  281.050;    0.000
462.000; 1507.325;  339.050;    0.000
462.043; 1671.325;  347.050;    0.000
462.087; 1609.325;  314.050;    0.000
462.130; 1651.325;  332.050;    0.000
462.174; 1605.325;  332.050;    0.000
462.217; 1580.325;  299.050;    0.000
462.261; 1682.325;  323.050;    0.000
462.304; 1571.325;  286.050;    0.000
462.348; 1570.325;  305.050;    0.000
462.391; 1581.325;  293.050;    0.000
462.435; 1645.325;  365.050;    0.000
462.478; 1620.325;  329.050;    0.000
462.522; 1592.325;  316.050;    0.000
462.565; 1682.325;  328.050;    0.000
462.608; 1683.325;  350.050;    0.000
462.652; 1619.325;  328.050;    0.000
462.695; 1635.325;  358.050;    0.000
462.739; 1597.325;  317.050;    0.000
462.782; 1684.325;  329.050;    0.000
462.825; 1666.325;  368.050;    0.000
462.869; 1660.325;  343.050;    0.000
462.912; 1736.325;  404.050;    0.000
462.955; 1715.325;  328.050;    0.000
462.998; 1679.325;  340.050;    0.000
463.042; 1644.325;  361.050;    0.000
463.085; 1753.325;  337.050;    0.000
463.128; 1679.325;  373.050;    0.000
463.172; 1540.325;  347.050;    0.000
463.215;  376.325;  305.050;    0.000
463.258;  339.325;  324.050;    0.000
463.301;  271.325;  296.050;    0.000
463.344;  342.325;  332.050;    0.000
463.388;  311.325;  309.050;    0.000
463.431;  287.325;  298.050;    0.000
463.474;  348.325;  351.050;    0.000
463.517;  338.325;  319.050;    0.000
463.560;  306.325;  325.050;    0.000
463.603;  342.325;  330.050;    0.000
463.646;  352.325;  332.050;    0.000
463.690;  327.325;  325.050;    0.000
463.733;  310.325;  323.050;    0.000
463.776;  288.325;  276.050;    0.000
463.819;  328.325;  320.050;    0.000
463.862;  273.325;  275.050;    0.000

