
Integration time [ms]:   0.300
Averaging Nr. [scans]: 1
Smoothing Nr. [pixels]: 0
Data measured with spectrometer [name]: UV1
Wave   ;Sample   ;Dark     ;Reference
[nm]   ;[counts] ;[counts] ;[counts] 

236.381;  125.925;  160.350;    0.000
236.451;  214.925;  198.350;    0.000
236.520;  185.925;  179.350;    0.000
236.590;  203.925;  205.350;    0.000
236.660;  192.925;  199.350;    0.000
236.730;  197.925;  178.350;    0.000
236.799;  198.925;  201.350;    0.000
236.869;  171.925;  197.350;    0.000
236.939;  196.925;  180.350;    0.000
237.009;  195.925;  165.350;    0.000
237.078;  185.925;  191.350;    0.000
237.148;  150.925;  146.350;    0.000
237.218;  180.925;  142.350;    0.000
237.287;  205.925;  190.350;    0.000
237.357;  150.925;  182.350;    0.000
237.427;  189.925;  139.350;    0.000
237.496;  470.925;  221.350;    0.000
237.566;  403.925;  183.350;    0.000
237.636;  411.925;  157.350;    0.000
237.705;  436.925;  189.350;    0.000
237.775;  425.925;  169.350;    0.000
237.845;  448.925;  156.350;    0.000
237.914;  444.925;  185.350;    0.000
237.984;  430.925;  194.350;    0.000
238.054;  435.925;  138.350;    0.000
238.123;  443.925;  166.350;    0.000
238.193;  351.925;  174.350;    0.000
238.263;  461.925;  158.350;    0.000
238.332;  404.925;  167.350;    0.000
238.402;  446.925;  173.350;    0.000
238.471;  408.925;  153.350;    0.000
238.541;  468.925;  167.350;    0.000
238.611;  407.925;  165.350;    0.000
238.680;  399.925;  157.350;    0.000
238.750;  422.925;  152.350;    0.000
238.819;  481.925;  190.350;    0.000
238.889;  389.925;  151.350;    0.000
238.958;  436.925;  166.350;    0.000
239.028;  470.925;  180.350;    0.000
239.097;  384.925;  170.350;    0.000
239.167;  447.925;  177.350;    0.000
239.237;  403.925;  195.350;    0.000
239.306;  367.925;  145.350;    0.000
239.376;  438.925;  158.350;    0.000
239.445;  465.925;  187.350;    0.000
239.515;  474.925;  160.350;    0.000
239.584;  414.925;  173.350;    0.000
239.654;  386.925;  184.350;    0.000
239.723;  424.925;  195.350;    0.000
239.793;  427.925;  183.350;    0.000
239.862;  418.925;  190.350;    0.000
239.932;  388.925;  168.350;    0.000
240.001;  396.925;  164.350;    0.000
240.070;  405.925;  183.350;    0.000
240.140;  392.925;  175.350;    0.000
240.209;  402.925;  135.350;    0.000
240.279;  399.925;  176.350;    0.000
240.348;  387.925;  184.350;    0.000
240.418;  423.925;  157.350;    0.000
240.487;  387.925;  189.350;    0.000
240.556;  434.925;  157.350;    0.000
240.626;  404.925;  174.350;    0.000
240.695;  414.925;  180.350;    0.000
240.765;  412.925;  152.350;    0.000
240.834;  390.925;  136.350;    0.000
240.903;  412.925;  196.350;    0.000
240.973;  383.925;  183.350;    0.000
241.042;  380.925;  150.350;    0.000
241.112;  445.925;  168.350;    0.000
241.181;  442.925;  152.350;    0.000
241.250;  419.925;  132.350;    0.000
241.320;  396.925;  209.350;    0.000
241.389;  393.925;  169.350;    0.000
241.458;  461.925;  204.350;    0.000
241.528;  426.925;  176.350;    0.000
241.597;  414.925;  170.350;    0.000
241.666;  373.925;  168.350;    0.000
241.736;  419.925;  172.350;    0.000
241.805;  363.925;  160.350;    0.000
241.874;  406.925;  176.350;    0.000
241.943;  408.925;  165.350;    0.000
242.013;  409.925;  206.350;    0.000
242.082;  412.925;  162.350;    0.000
242.151;  414.925;  180.350;    0.000
242.221;  368.925;  154.350;    0.000
242.290;  415.925;  122.350;    0.000
242.359;  371.925;  121.350;    0.000
242.428;  471.925;  187.350;    0.000
242.498;  374.925;  140.350;    0.000
242.567;  423.925;  173.350;    0.000
242.636;  380.925;  155.350;    0.000
242.705;  436.925;  108.350;    0.000
242.774;  386.925;  145.350;    0.000
242.844;  376.925;  162.350;    0.000
242.913;  426.925;  178.350;    0.000
242.982;  407.925;  163.350;    0.000
243.051;  387.925;  138.350;    0.000
243.120;  426.925;  172.350;    0.000
243.190;  365.925;  155.350;    0.000
243.259;  436.925;  159.350;    0.000
243.328;  424.925;  173.350;    0.000
243.397;  410.925;  175.350;    0.000
243.466;  378.925;  170.350;    0.000
243.535;  387.925;  161.350;    0.000
243.605;  383.925;  149.350;    0.000
243.674;  411.925;  162.350;    0.000
243.743;  440.925;  175.350;    0.000
243.812;  410.925;  159.350;    0.000
243.881;  352.925;  158.350;    0.000
243.950;  422.925;  154.350;    0.000
244.019;  448.925;  185.350;    0.000
244.088;  417.925;  175.350;    0.000
244.158;  434.925;  167.350;    0.000
244.227;  383.925;  159.350;    0.000
244.296;  408.925;  143.350;    0.000
244.365;  405.925;  182.350;    0.000
244.434;  375.925;  117.350;    0.000
244.503;  400.925;  109.350;    0.000
244.572;  378.925;  147.350;    0.000
244.641;  353.925;  129.350;    0.000
244.710;  411.925;  159.350;    0.000
244.779;  378.925;  166.350;    0.000
244.848;  355.925;  122.350;    0.000
244.917;  418.925;  167.350;    0.000
244.986;  419.925;  158.350;    0.000
245.055;  398.925;  175.350;    0.000
245.124;  380.925;  153.350;    0.000
245.193;  400.925;  155.350;    0.000
245.262;  370.925;  137.350;    0.000
245.331;  340.925;  145.350;    0.000
245.400;  322.925;  107.350;    0.000
245.469;  403.925;  162.350;    0.000
245.538;  399.925;  165.350;    0.000
245.607;  404.925;  178.350;    0.000
245.676;  369.925;  166.350;    0.000
245.745;  386.925;  169.350;    0.000
245.814;  384.925;  155.350;    0.000
245.883;  446.925;  186.350;    0.000
245.952;  385.925;  165.350;    0.000
246.021;  417.925;  169.350;    0.000
246.090;  410.925;  170.350;    0.000
246.159;  371.925;  155.350;    0.000
246.227;  354.925;  161.350;    0.000
246.296;  373.925;  142.350;    0.000
246.365;  391.925;  160.350;    0.000
246.434;  388.925;  199.350;    0.000
246.503;  332.925;  155.350;    0.000
246.572;  400.925;  206.350;    0.000
246.641;  375.925;  177.350;    0.000
246.710;  418.925;  178.350;    0.000
246.779;  373.925;  193.350;    0.000
246.847;  409.925;  147.350;    0.000
246.916;  363.925;  131.350;    0.000
246.985;  404.925;  168.350;    0.000
247.054;  398.925;  143.350;    0.000
247.123;  395.925;  130.350;    0.000
247.192;  359.925;  175.350;    0.000
247.260;  360.925;  171.350;    0.000
247.329;  373.925;  162.350;    0.000
247.398;  378.925;  163.350;    0.000
247.467;  358.925;  155.350;    0.000
247.536;  400.925;  149.350;    0.000
247.604;  397.925;  191.350;    0.000
247.673;  327.925;  193.350;    0.000
247.742;  390.925;  159.350;    0.000
247.811;  394.925;  167.350;    0.000
247.879;  357.925;  176.350;    0.000
247.948;  395.925;  157.350;    0.000
248.017;  348.925;  150.350;    0.000
248.086;  382.925;  153.350;    0.000
248.154;  402.925;  157.350;    0.000
248.223;  359.925;  198.350;    0.000
248.292;  368.925;  188.350;    0.000
248.361;  415.925;  157.350;    0.000
248.429;  336.925;  138.350;    0.000
248.498;  360.925;  166.350;    0.000
248.567;  374.925;  179.350;    0.000
248.635;  401.925;  210.350;    0.000
248.704;  390.925;  168.350;    0.000
248.773;  363.925;  147.350;    0.000
248.841;  355.925;  155.350;    0.000
248.910;  428.925;  183.350;    0.000
248.979;  327.925;  171.350;    0.000
249.047;  332.925;  152.350;    0.000
249.116;  358.925;  155.350;    0.000
249.185;  380.925;  217.350;    0.000
249.253;  319.925;  149.350;    0.000
249.322;  390.925;  167.350;    0.000
249.390;  335.925;  182.350;    0.000
249.459;  360.925;  173.350;    0.000
249.528;  359.925;  162.350;    0.000
249.596;  374.925;  162.350;    0.000
249.665;  400.925;  163.350;    0.000
249.733;  362.925;  147.350;    0.000
249.802;  399.925;  170.350;    0.000
249.871;  344.925;  179.350;    0.000
249.939;  366.925;  179.350;    0.000
250.008;  409.925;  201.350;    0.000
250.076;  372.925;  189.350;    0.000
250.145;  336.925;  171.350;    0.000
250.213;  359.925;  161.350;    0.000
250.282;  396.925;  171.350;    0.000
250.350;  339.925;  138.350;    0.000
250.419;  383.925;  172.350;    0.000
250.487;  401.925;  207.350;    0.000
250.556;  390.925;  160.350;    0.000
250.624;  355.925;  187.350;    0.000
250.693;  358.925;  141.350;    0.000
250.761;  406.925;  182.350;    0.000
250.830;  373.925;  203.350;    0.000
250.898;  326.925;  160.350;    0.000
250.967;  374.925;  143.350;    0.000
251.035;  364.925;  142.350;    0.000
251.104;  336.925;  159.350;    0.000
251.172;  349.925;  189.350;    0.000
251.241;  364.925;  134.350;    0.000
251.309;  392.925;  179.350;    0.000
251.378;  325.925;  203.350;    0.000
251.446;  373.925;  151.350;    0.000
251.514;  383.925;  176.350;    0.000
251.583;  345.925;  173.350;    0.000
251.651;  383.925;  163.350;    0.000
251.720;  367.925;  151.350;    0.000
251.788;  377.925;  205.350;    0.000
251.856;  330.925;  126.350;    0.000
251.925;  321.925;  118.350;    0.000
251.993;  372.925;  139.350;    0.000
252.062;  372.925;  161.350;    0.000
252.130;  385.925;  180.350;    0.000
252.198;  390.925;  141.350;    0.000
252.267;  341.925;  145.350;    0.000
252.335;  359.925;  159.350;    0.000
252.403;  321.925;  158.350;    0.000
252.472;  329.925;  142.350;    0.000
252.540;  300.925;  162.350;    0.000
252.608;  339.925;  180.350;    0.000
252.677;  354.925;  137.350;    0.000
252.745;  401.925;  183.350;    0.000
252.813;  305.925;  151.350;    0.000
252.881;  281.925;  109.350;    0.000
252.950;  316.925;  174.350;    0.000
253.018;  330.925;  136.350;    0.000
253.086;  305.925;  149.350;    0.000
253.155;  319.925;  127.350;    0.000
253.223;  325.925;  156.350;    0.000
253.291;  305.925;  163.350;    0.000
253.359;  292.925;  174.350;    0.000
253.428;  339.925;  174.350;    0.000
253.496;  316.925;  161.350;    0.000
253.564;  295.925;  128.350;    0.000
253.632;  265.925;  153.350;    0.000
253.700;  327.925;  185.350;    0.000
253.769;  308.925;  163.350;    0.000
253.837;  323.925;  176.350;    0.000
253.905;  294.925;  164.350;    0.000
253.973;  277.925;  156.350;    0.000
254.041;  314.925;  154.350;    0.000
254.110;  283.925;  165.350;    0.000
254.178;  294.925;  148.350;    0.000
254.246;  248.925;  138.350;    0.000
254.314;  263.925;  164.350;    0.000
254.382;  290.925;  167.350;    0.000
254.450;  296.925;  134.350;    0.000
254.518;  278.925;  192.350;    0.000
254.587;  277.925;  139.350;    0.000
254.655;  274.925;  162.350;    0.000
254.723;  282.925;  131.350;    0.000
254.791;  321.925;  181.350;    0.000
254.859;  318.925;  146.350;    0.000
254.927;  343.925;  189.350;    0.000
254.995;  296.925;  141.350;    0.000
255.063;  322.925;  181.350;    0.000
255.131;  295.925;  156.350;    0.000
255.199;  274.925;  175.350;    0.000
255.267;  322.925;  120.350;    0.000
255.336;  319.925;  186.350;    0.000
255.404;  268.925;  134.350;    0.000
255.472;  272.925;  172.350;    0.000
255.540;  292.925;  157.350;    0.000
255.608;  268.925;  186.350;    0.000
255.676;  310.925;  155.350;    0.000
255.744;  315.925;  143.350;    0.000
255.812;  265.925;  134.350;    0.000
255.880;  321.925;  188.350;    0.000
255.948;  293.925;  163.350;    0.000
256.016;  324.925;  175.350;    0.000
256.084;  334.925;  191.350;    0.000
256.152;  287.925;  187.350;    0.000
256.220;  277.925;  152.350;    0.000
256.288;  313.925;  141.350;    0.000
256.356;  293.925;  139.350;    0.000
256.424;  244.925;  121.350;    0.000
256.491;  304.925;  139.350;    0.000
256.559;  309.925;  144.350;    0.000
256.627;  337.925;  158.350;    0.000
256.695;  283.925;  121.350;    0.000
256.763;  325.925;  150.350;    0.000
256.831;  305.925;  181.350;    0.000
256.899;  291.925;  146.350;    0.000
256.967;  275.925;   71.350;    0.000
257.035;  330.925;  164.350;    0.000
257.103;  333.925;  191.350;    0.000
257.171;  291.925;  140.350;    0.000
257.238;  298.925;  165.350;    0.000
257.306;  308.925;  127.350;    0.000
257.374;  306.925;  120.350;    0.000
257.442;  291.925;  139.350;    0.000
257.510;  320.925;  158.350;    0.000
257.578;  294.925;  164.350;    0.000
257.646;  299.925;  151.350;    0.000
257.713;  300.925;  136.350;    0.000
257.781;  314.925;  137.350;    0.000
257.849;  355.925;  151.350;    0.000
257.917;  332.925;  154.350;    0.000
257.985;  316.925;  113.350;    0.000
258.052;  305.925;  140.350;    0.000
258.120;  336.925;  176.350;    0.000
258.188;  370.925;  157.350;    0.000
258.256;  321.925;  153.350;    0.000
258.324;  377.925;  184.350;    0.000
258.391;  285.925;  144.350;    0.000
258.459;  383.925;  162.350;    0.000
258.527;  342.925;  154.350;    0.000
258.595;  311.925;  122.350;    0.000
258.662;  305.925;  164.350;    0.000
258.730;  365.925;  114.350;    0.000
258.798;  312.925;  131.350;    0.000
258.865;  352.925;  171.350;    0.000
258.933;  376.925;  145.350;    0.000
259.001;  381.925;  150.350;    0.000
259.069;  293.925;  123.350;    0.000
259.136;  369.925;  139.350;    0.000
259.204;  361.925;  165.350;    0.000
259.272;  337.925;  114.350;    0.000
259.339;  361.925;  179.350;    0.000
259.407;  369.925;  153.350;    0.000
259.475;  395.925;  143.350;    0.000
259.542;  387.925;  136.350;    0.000
259.610;  401.925;  133.350;    0.000
259.677;  363.925;  159.350;    0.000
259.745;  353.925;  130.350;    0.000
259.813;  392.925;  175.350;    0.000
259.880;  386.925;  158.350;    0.000
259.948;  347.925;  124.350;    0.000
260.016;  366.925;  105.350;    0.000
260.083;  423.925;  169.350;    0.000
260.151;  391.925;  133.350;    0.000
260.218;  426.925;  143.350;    0.000
260.286;  414.925;  134.350;    0.000
260.353;  416.925;  160.350;    0.000
260.421;  384.925;  128.350;    0.000
260.489;  388.925;  150.350;    0.000
260.556;  464.925;  179.350;    0.000
260.624;  448.925;  113.350;    0.000
260.691;  445.925;  128.350;    0.000
260.759;  453.925;  146.350;    0.000
260.826;  405.925;  111.350;    0.000
260.894;  433.925;  115.350;    0.000
260.961;  435.925;  138.350;    0.000
261.029;  471.925;  152.350;    0.000
261.096;  441.925;  175.350;    0.000
261.164;  421.925;  131.350;    0.000
261.231;  487.925;  141.350;    0.000
261.299;  472.925;  125.350;    0.000
261.366;  472.925;  142.350;    0.000
261.434;  463.925;  133.350;    0.000
261.501;  439.925;  137.350;    0.000
261.568;  456.925;  184.350;    0.000
261.636;  469.925;  138.350;    0.000
261.703;  493.925;  161.350;    0.000
261.771;  472.925;  160.350;    0.000
261.838;  502.925;  178.350;    0.000
261.906;  459.925;  128.350;    0.000
261.973;  471.925;  139.350;    0.000
262.040;  457.925;  148.350;    0.000
262.108;  501.925;  130.350;    0.000
262.175;  508.925;  117.350;    0.000
262.243;  564.925;  174.350;    0.000
262.310;  488.925;  145.350;    0.000
262.377;  485.925;  108.350;    0.000
262.445;  547.925;  147.350;    0.000
262.512;  515.925;  124.350;    0.000
262.579;  481.925;  127.350;    0.000
262.647;  519.925;  166.350;    0.000
262.714;  533.925;  150.350;    0.000
262.781;  532.925;  121.350;    0.000
262.849;  464.925;  126.350;    0.000
262.916;  529.925;  119.350;    0.000
262.983;  550.925;  155.350;    0.000
263.051;  489.925;  137.350;    0.000
263.118;  527.925;  160.350;    0.000
263.185;  547.925;  151.350;    0.000
263.252;  477.925;  167.350;    0.000
263.320;  494.925;  123.350;    0.000
263.387;  491.925;  134.350;    0.000
263.454;  498.925;  144.350;    0.000
263.522;  502.925;  153.350;    0.000
263.589;  527.925;  161.350;    0.000
263.656;  522.925;  117.350;    0.000
263.723;  516.925;  101.350;    0.000
263.790;  560.925;  128.350;    0.000
263.858;  564.925;  142.350;    0.000
263.925;  622.925;  182.350;    0.000
263.992;  590.925;  146.350;    0.000
264.059;  565.925;  132.350;    0.000
264.126;  645.925;  154.350;    0.000
264.194;  639.925;  153.350;    0.000
264.261;  592.925;  157.350;    0.000
264.328;  562.925;  171.350;    0.000
264.395;  561.925;  166.350;    0.000
264.462;  655.925;  165.350;    0.000
264.529;  620.925;  124.350;    0.000
264.597;  579.925;  120.350;    0.000
264.664;  596.925;  159.350;    0.000
264.731;  629.925;  145.350;    0.000
264.798;  604.925;  100.350;    0.000
264.865;  569.925;  166.350;    0.000
264.932;  582.925;  132.350;    0.000
264.999;  609.925;  137.350;    0.000
265.066;  577.925;  124.350;    0.000
265.133;  573.925;  162.350;    0.000
265.201;  611.925;  163.350;    0.000
265.268;  554.925;  174.350;    0.000
265.335;  623.925;  132.350;    0.000
265.402;  587.925;  116.350;    0.000
265.469;  635.925;  121.350;    0.000
265.536;  688.925;  157.350;    0.000
265.603;  634.925;  151.350;    0.000
265.670;  604.925;  164.350;    0.000
265.737;  580.925;  142.350;    0.000
265.804;  602.925;  146.350;    0.000
265.871;  671.925;  168.350;    0.000
265.938;  578.925;  131.350;    0.000
266.005;  667.925;  208.350;    0.000
266.072;  651.925;  125.350;    0.000
266.139;  634.925;  161.350;    0.000
266.206;  600.925;  134.350;    0.000
266.273;  662.925;  155.350;    0.000
266.340;  628.925;  122.350;    0.000
266.407;  634.925;  134.350;    0.000
266.474;  612.925;  126.350;    0.000
266.541;  653.925;  153.350;    0.000
266.608;  654.925;  129.350;    0.000
266.675;  715.925;  185.350;    0.000
266.742;  662.925;  153.350;    0.000
266.808;  627.925;  169.350;    0.000
266.875;  705.925;  156.350;    0.000
266.942;  700.925;  172.350;    0.000
267.009;  606.925;  150.350;    0.000
267.076;  724.925;  184.350;    0.000
267.143;  690.925;  170.350;    0.000
267.210;  653.925;  132.350;    0.000
267.277;  677.925;  146.350;    0.000
267.344;  686.925;  159.350;    0.000
267.410;  667.925;  174.350;    0.000
267.477;  660.925;  169.350;    0.000
267.544;  677.925;  130.350;    0.000
267.611;  657.925;  169.350;    0.000
267.678;  666.925;  197.350;    0.000
267.745;  700.925;  185.350;    0.000
267.811;  667.925;  160.350;    0.000
267.878;  675.925;  143.350;    0.000
267.945;  671.925;  126.350;    0.000
268.012;  680.925;  172.350;    0.000
268.079;  725.925;  156.350;    0.000
268.145;  706.925;  128.350;    0.000
268.212;  730.925;  107.350;    0.000
268.279;  684.925;  135.350;    0.000
268.346;  667.925;  166.350;    0.000
268.412;  723.925;  150.350;    0.000
268.479;  712.925;  176.350;    0.000
268.546;  640.925;  119.350;    0.000
268.613;  751.925;  201.350;    0.000
268.679;  738.925;  141.350;    0.000
268.746;  680.925;  177.350;    0.000
268.813;  689.925;  134.350;    0.000
268.879;  711.925;  141.350;    0.000
268.946;  756.925;  172.350;    0.000
269.013;  762.925;  150.350;    0.000
269.079;  699.925;  124.350;    0.000
269.146;  643.925;  135.350;    0.000
269.213;  708.925;  200.350;    0.000
269.280;  707.925;  142.350;    0.000
269.346;  708.925;  153.350;    0.000
269.413;  710.925;  140.350;    0.000
269.479;  758.925;  171.350;    0.000
269.546;  703.925;  156.350;    0.000
269.613;  664.925;  145.350;    0.000
269.679;  699.925;  168.350;    0.000
269.746;  716.925;  136.350;    0.000
269.813;  744.925;  153.350;    0.000
269.879;  692.925;  162.350;    0.000
269.946;  705.925;  156.350;    0.000
270.012;  702.925;  178.350;    0.000
270.079;  645.925;  132.350;    0.000
270.145;  711.925;  146.350;    0.000
270.212;  713.925;  145.350;    0.000
270.279;  723.925;  184.350;    0.000
270.345;  664.925;  143.350;    0.000
270.412;  729.925;  158.350;    0.000
270.478;  674.925;  143.350;    0.000
270.545;  717.925;  150.350;    0.000
270.611;  746.925;  156.350;    0.000
270.678;  647.925;  121.350;    0.000
270.744;  645.925;  161.350;    0.000
270.811;  730.925;  173.350;    0.000
270.877;  715.925;  115.350;    0.000
270.944;  664.925;  114.350;    0.000
271.010;  710.925;  122.350;    0.000
271.077;  671.925;  142.350;    0.000
271.143;  732.925;  152.350;    0.000
271.210;  666.925;  135.350;    0.000
271.276;  725.925;  107.350;    0.000
271.342;  702.925;  173.350;    0.000
271.409;  700.925;  171.350;    0.000
271.475;  675.925;  136.350;    0.000
271.542;  652.925;  121.350;    0.000
271.608;  667.925;  133.350;    0.000
271.675;  634.925;  136.350;    0.000
271.741;  775.925;  151.350;    0.000
271.807;  690.925;  130.350;    0.000
271.874;  669.925;  168.350;    0.000
271.940;  716.925;  156.350;    0.000
272.007;  620.925;  122.350;    0.000
272.073;  706.925;  121.350;    0.000
272.139;  740.925;  137.350;    0.000
272.206;  657.925;  152.350;    0.000
272.272;  729.925;  162.350;    0.000
272.338;  733.925;  197.350;    0.000
272.405;  656.925;  144.350;    0.000
272.471;  625.925;  160.350;    0.000
272.537;  697.925;  142.350;    0.000
272.604;  661.925;  141.350;    0.000
272.670;  689.925;  182.350;    0.000
272.736;  703.925;  126.350;    0.000
272.802;  663.925;  146.350;    0.000
272.869;  667.925;  163.350;    0.000
272.935;  671.925;  132.350;    0.000
273.001;  651.925;  119.350;    0.000
273.068;  670.925;  137.350;    0.000
273.134;  720.925;  155.350;    0.000
273.200;  762.925;  165.350;    0.000
273.266;  696.925;  156.350;    0.000
273.333;  702.925;  143.350;    0.000
273.399;  642.925;  128.350;    0.000
273.465;  699.925;  167.350;    0.000
273.531;  650.925;  122.350;    0.000
273.597;  733.925;  182.350;    0.000
273.664;  756.925;  177.350;    0.000
273.730;  718.925;  124.350;    0.000
273.796;  756.925;  143.350;    0.000
273.862;  716.925;  155.350;    0.000
273.928;  741.925;  137.350;    0.000
273.995;  729.925;  188.350;    0.000
274.061;  764.925;  154.350;    0.000
274.127;  717.925;  161.350;    0.000
274.193;  679.925;   95.350;    0.000
274.259;  683.925;  128.350;    0.000
274.325;  743.925;  146.350;    0.000
274.391;  761.925;  113.350;    0.000
274.457;  717.925;  150.350;    0.000
274.524;  768.925;  165.350;    0.000
274.590;  714.925;  140.350;    0.000
274.656;  744.925;  165.350;    0.000
274.722;  783.925;  118.350;    0.000
274.788;  815.925;  143.350;    0.000
274.854;  765.925;  150.350;    0.000
274.920;  754.925;   88.350;    0.000
274.986;  793.925;  178.350;    0.000
275.052;  778.925;  145.350;    0.000
275.118;  822.925;  105.350;    0.000
275.184;  833.925;  129.350;    0.000
275.250;  836.925;  138.350;    0.000
275.316;  837.925;  173.350;    0.000
275.382;  790.925;  106.350;    0.000
275.448;  868.925;  160.350;    0.000
275.514;  805.925;  162.350;    0.000
275.580;  853.925;  135.350;    0.000
275.646;  775.925;  120.350;    0.000
275.712;  738.925;  157.350;    0.000
275.778;  855.925;  128.350;    0.000
275.844;  819.925;  117.350;    0.000
275.910;  811.925;  121.350;    0.000
275.976;  894.925;  172.350;    0.000
276.042;  882.925;  114.350;    0.000
276.108;  944.925;  200.350;    0.000
276.174;  950.925;  132.350;    0.000
276.240;  872.925;  128.350;    0.000
276.306;  944.925;  124.350;    0.000
276.372;  980.925;  133.350;    0.000
276.437;  931.925;  146.350;    0.000
276.503;  926.925;  136.350;    0.000
276.569; 1009.925;  162.350;    0.000
276.635;  917.925;  128.350;    0.000
276.701;  983.925;  148.350;    0.000
276.767;  994.925;  155.350;    0.000
276.833; 1022.925;  128.350;    0.000
276.899; 1025.925;  145.350;    0.000
276.964; 1009.925;  124.350;    0.000
277.030; 1146.925;  130.350;    0.000
277.096; 1126.925;  139.350;    0.000
277.162; 1158.925;  164.350;    0.000
277.228; 1075.925;  108.350;    0.000
277.293; 1285.925;  138.350;    0.000
277.359; 1204.925;  123.350;    0.000
277.425; 1352.925;  183.350;    0.000
277.491; 1496.925;  144.350;    0.000
277.557; 1538.925;  130.350;    0.000
277.622; 2237.925;  151.350;    0.000
277.688; 2039.925;  169.350;    0.000
277.754; 2313.925;  199.350;    0.000
277.820; 2315.925;  170.350;    0.000
277.885; 2786.925;  173.350;    0.000
277.951; 3359.925;  187.350;    0.000
278.017; 2896.925;  152.350;    0.000
278.083; 2551.925;  137.350;    0.000
278.148; 2460.925;  147.350;    0.000
278.214; 2490.925;  162.350;    0.000
278.280; 2682.925;  171.350;    0.000
278.345; 2479.925;  174.350;    0.000
278.411; 2194.925;  152.350;    0.000
278.477; 2277.925;  173.350;    0.000
278.542; 2514.925;  161.350;    0.000
278.608; 2530.925;  155.350;    0.000
278.674; 2864.925;  169.350;    0.000
278.739; 3054.925;  142.350;    0.000
278.805; 3583.925;  164.350;    0.000
278.871; 3822.925;  160.350;    0.000
278.936; 4848.925;  121.350;    0.000
279.002; 6739.925;  166.350;    0.000
279.067; 8508.925;  199.350;    0.000
279.133; 8098.925;  150.350;    0.000
279.199; 6938.925;  154.350;    0.000
279.264; 7475.925;  154.350;    0.000
279.330; 8648.925;  159.350;    0.000
279.395;10911.925;  143.350;    0.000
279.461;14346.925;  173.350;    0.000
279.527;15628.925;  163.350;    0.000
279.592;14018.925;  167.350;    0.000
279.658;11835.925;  189.350;    0.000
279.723;11548.925;  153.350;    0.000
279.789;13014.925;  174.350;    0.000
279.854;10245.925;  129.350;    0.000
279.920; 8966.925;  165.350;    0.000
279.985; 8436.925;  152.350;    0.000
280.051; 8585.925;  164.350;    0.000
280.116; 9904.925;  187.350;    0.000
280.182;13725.925;  160.350;    0.000
280.247;14976.925;  124.350;    0.000
280.313;12915.925;  154.350;    0.000
280.378; 9271.925;  152.350;    0.000
280.444; 7281.925;  165.350;    0.000
280.509; 5827.925;  164.350;    0.000
280.574; 5283.925;  160.350;    0.000
280.640; 4444.925;  167.350;    0.000
280.705; 4034.925;  190.350;    0.000
280.771; 3787.925;  154.350;    0.000
280.836; 3544.925;  158.350;    0.000
280.902; 3092.925;  124.350;    0.000
280.967; 3105.925;  179.350;    0.000
281.032; 3052.925;  187.350;    0.000
281.098; 2712.925;  155.350;    0.000
281.163; 2649.925;  133.350;    0.000
281.229; 2525.925;  170.350;    0.000
281.294; 2367.925;  175.350;    0.000
281.359; 2319.925;  163.350;    0.000
281.425; 2283.925;  161.350;    0.000
281.490; 2165.925;  162.350;    0.000
281.555; 2043.925;  137.350;    0.000
281.621; 2008.925;  163.350;    0.000
281.686; 1896.925;  155.350;    0.000
281.751; 2006.925;  158.350;    0.000
281.816; 1823.925;  139.350;    0.000
281.882; 1868.925;  150.350;    0.000
281.947; 1649.925;  165.350;    0.000
282.012; 1641.925;  171.350;    0.000
282.078; 1712.925;  177.350;    0.000
282.143; 1708.925;  149.350;    0.000
282.208; 1629.925;  181.350;    0.000
282.273; 1653.925;  166.350;    0.000
282.339; 1571.925;  165.350;    0.000
282.404; 1547.925;  166.350;    0.000
282.469; 1469.925;  150.350;    0.000
282.534; 1537.925;  176.350;    0.000
282.600; 1521.925;  117.350;    0.000
282.665; 1440.925;  134.350;    0.000
282.730; 1362.925;  155.350;    0.000
282.795; 1491.925;  193.350;    0.000
282.860; 1431.925;  160.350;    0.000
282.926; 1307.925;  174.350;    0.000
282.991; 1333.925;  161.350;    0.000
283.056; 1366.925;  157.350;    0.000
283.121; 1412.925;  178.350;    0.000
283.186; 1372.925;  152.350;    0.000
283.251; 1282.925;  167.350;    0.000
283.316; 1361.925;  186.350;    0.000
283.382; 1334.925;  148.350;    0.000
283.447; 1283.925;  191.350;    0.000
283.512; 1265.925;  132.350;    0.000
283.577; 1356.925;  179.350;    0.000
283.642; 1329.925;  185.350;    0.000
283.707; 1236.925;  136.350;    0.000
283.772; 1218.925;  119.350;    0.000
283.837; 1227.925;  136.350;    0.000
283.902; 1273.925;  135.350;    0.000
283.967; 1227.925;  146.350;    0.000
284.032; 1307.925;  140.350;    0.000
284.097; 1268.925;  199.350;    0.000
284.163; 1330.925;  144.350;    0.000
284.228; 1243.925;  183.350;    0.000
284.293; 1266.925;  141.350;    0.000
284.358; 1360.925;  146.350;    0.000
284.423; 1319.925;  127.350;    0.000
284.488; 1320.925;  186.350;    0.000
284.553; 1330.925;  155.350;    0.000
284.618; 1340.925;  118.350;    0.000
284.683; 1505.925;  145.350;    0.000
284.748; 1428.925;  139.350;    0.000
284.812; 1583.925;  147.350;    0.000
284.877; 1792.925;  123.350;    0.000
284.942; 2021.925;  153.350;    0.000
285.007; 2519.925;  168.350;    0.000
285.072; 3287.925;  181.350;    0.000
285.137; 5052.925;  147.350;    0.000
285.202; 6575.925;  175.350;    0.000
285.267; 5431.925;  182.350;    0.000
285.332; 3792.925;  136.350;    0.000
285.397; 2628.925;  138.350;    0.000
285.462; 2377.925;  151.350;    0.000
285.527; 1936.925;  159.350;    0.000
285.591; 1880.925;  177.350;    0.000
285.656; 1637.925;  144.350;    0.000
285.721; 1591.925;  125.350;    0.000
285.786; 1467.925;  169.350;    0.000
285.851; 1453.925;  175.350;    0.000
285.916; 1459.925;  164.350;    0.000
285.981; 1319.925;  134.350;    0.000
286.045; 1310.925;  154.350;    0.000
286.110; 1400.925;  136.350;    0.000
286.175; 1259.925;  155.350;    0.000
286.240; 1286.925;  138.350;    0.000
286.305; 1296.925;  213.350;    0.000
286.369; 1220.925;  221.350;    0.000
286.434; 1245.925;  172.350;    0.000
286.499; 1202.925;  161.350;    0.000
286.564; 1268.925;  189.350;    0.000
286.628; 1089.925;  144.350;    0.000
286.693; 1177.925;  176.350;    0.000
286.758; 1117.925;  168.350;    0.000
286.823; 1170.925;  142.350;    0.000
286.887; 1199.925;  134.350;    0.000
286.952; 1161.925;  180.350;    0.000
287.017; 1137.925;  204.350;    0.000
287.082; 1097.925;  120.350;    0.000
287.146; 1046.925;  173.350;    0.000
287.211; 1098.925;  167.350;    0.000
287.276; 1089.925;  164.350;    0.000
287.340; 1109.925;  138.350;    0.000
287.405; 1077.925;  172.350;    0.000
287.470; 1114.925;  142.350;    0.000
287.534; 1106.925;  155.350;    0.000
287.599; 1061.925;  166.350;    0.000
287.663; 1021.925;  171.350;    0.000
287.728; 1113.925;  190.350;    0.000
287.793; 1082.925;  197.350;    0.000
287.857; 1126.925;  165.350;    0.000
287.922; 1071.925;  147.350;    0.000
287.987; 1049.925;  167.350;    0.000
288.051; 1085.925;  151.350;    0.000
288.116; 1094.925;  154.350;    0.000
288.180; 1100.925;  186.350;    0.000
288.245; 1062.925;  161.350;    0.000
288.309; 1119.925;  177.350;    0.000
288.374; 1121.925;  151.350;    0.000
288.439; 1054.925;  169.350;    0.000
288.503; 1015.925;  133.350;    0.000
288.568; 1102.925;  206.350;    0.000
288.632;  998.925;  192.350;    0.000
288.697; 1025.925;  183.350;    0.000
288.761; 1082.925;  148.350;    0.000
288.826; 1130.925;  136.350;    0.000
288.890; 1042.925;  185.350;    0.000
288.955; 1182.925;  150.350;    0.000
289.019; 1021.925;  165.350;    0.000
289.084; 1050.925;  150.350;    0.000
289.148; 1062.925;  146.350;    0.000
289.212;  986.925;  172.350;    0.000
289.277;  994.925;  177.350;    0.000
289.341; 1027.925;  190.350;    0.000
289.406; 1078.925;  117.350;    0.000
289.470; 1038.925;  173.350;    0.000
289.535; 1060.925;  170.350;    0.000
289.599; 1012.925;  154.350;    0.000
289.663; 1038.925;  173.350;    0.000
289.728; 1060.925;  176.350;    0.000
289.792; 1040.925;  138.350;    0.000
289.857; 1049.925;  203.350;    0.000
289.921; 1021.925;  143.350;    0.000
289.985; 1050.925;  150.350;    0.000
290.050; 1073.925;  170.350;    0.000
290.114;  975.925;  125.350;    0.000
290.178; 1105.925;  161.350;    0.000
290.243; 1045.925;  119.350;    0.000
290.307; 1102.925;  169.350;    0.000
290.371; 1005.925;  169.350;    0.000
290.436; 1094.925;  170.350;    0.000
290.500; 1109.925;  144.350;    0.000
290.564; 1001.925;  179.350;    0.000
290.629; 1014.925;  166.350;    0.000
290.693; 1129.925;  156.350;    0.000
290.757; 1068.925;  147.350;    0.000
290.821; 1113.925;  170.350;    0.000
290.886; 1005.925;  167.350;    0.000
290.950; 1026.925;  187.350;    0.000
291.014; 1123.925;  164.350;    0.000
291.078; 1013.925;  115.350;    0.000
291.143; 1041.925;  149.350;    0.000
291.207; 1177.925;  163.350;    0.000
291.271;  994.925;  177.350;    0.000
291.335; 1052.925;  148.350;    0.000
291.399; 1047.925;  155.350;    0.000
291.464; 1109.925;  114.350;    0.000
291.528; 1247.925;  153.350;    0.000
291.592; 1158.925;  156.350;    0.000
291.656; 1133.925;  170.350;    0.000
291.720; 1076.925;  159.350;    0.000
291.784; 1149.925;  159.350;    0.000
291.849; 1138.925;  154.350;    0.000
291.913; 1122.925;  118.350;    0.000
291.977; 1105.925;  157.350;    0.000
292.041; 1145.925;  163.350;    0.000
292.105; 1101.925;  135.350;    0.000
292.169; 1028.925;  155.350;    0.000
292.233; 1142.925;  163.350;    0.000
292.297; 1165.925;  144.350;    0.000
292.361; 1155.925;  143.350;    0.000
292.425; 1151.925;  177.350;    0.000
292.490; 1149.925;  159.350;    0.000
292.554; 1226.925;  137.350;    0.000
292.618; 1395.925;  144.350;    0.000
292.682; 1370.925;  169.350;    0.000
292.746; 1472.925;  166.350;    0.000
292.810; 2051.925;  147.350;    0.000
292.874; 2506.925;  160.350;    0.000
292.938; 2374.925;  174.350;    0.000
293.002; 2096.925;  148.350;    0.000
293.066; 2005.925;  115.350;    0.000
293.130; 1822.925;  133.350;    0.000
293.194; 1714.925;  148.350;    0.000
293.258; 1750.925;  167.350;    0.000
293.322; 1695.925;  166.350;    0.000
293.386; 1765.925;  193.350;    0.000
293.450; 1750.925;  142.350;    0.000
293.514; 2234.925;  170.350;    0.000
293.577; 2704.925;  153.350;    0.000
293.641; 3602.925;  171.350;    0.000
293.705; 3733.925;  168.350;    0.000
293.769; 3150.925;  155.350;    0.000
293.833; 2724.925;  161.350;    0.000
293.897; 2289.925;  124.350;    0.000
293.961; 2284.925;  165.350;    0.000
294.025; 2045.925;  118.350;    0.000
294.089; 2018.925;  125.350;    0.000
294.152; 1899.925;  160.350;    0.000
294.216; 1649.925;  160.350;    0.000
294.280; 1709.925;  158.350;    0.000
294.344; 1579.925;  119.350;    0.000
294.408; 1566.925;  168.350;    0.000
294.472; 1386.925;  156.350;    0.000
294.536; 1345.925;  192.350;    0.000
294.599; 1339.925;  171.350;    0.000
294.663; 1290.925;  139.350;    0.000
294.727; 1396.925;  136.350;    0.000
294.791; 1370.925;  118.350;    0.000
294.855; 1381.925;  118.350;    0.000
294.918; 1396.925;  127.350;    0.000
294.982; 1244.925;  167.350;    0.000
295.046; 1213.925;  178.350;    0.000
295.110; 1162.925;  157.350;    0.000
295.173; 1211.925;  101.350;    0.000
295.237; 1087.925;  145.350;    0.000
295.301; 1073.925;  135.350;    0.000
295.364; 1163.925;  185.350;    0.000
295.428; 1160.925;  112.350;    0.000
295.492; 1146.925;  142.350;    0.000
295.556; 1126.925;  170.350;    0.000
295.619; 1169.925;  193.350;    0.000
295.683; 1090.925;  144.350;    0.000
295.747; 1049.925;  152.350;    0.000
295.810; 1102.925;  139.350;    0.000
295.874; 1074.925;  157.350;    0.000
295.938; 1023.925;  128.350;    0.000
296.001; 1056.925;  164.350;    0.000
296.065;  965.925;  184.350;    0.000
296.128; 1000.925;  127.350;    0.000
296.192; 1008.925;  166.350;    0.000
296.256;  974.925;  154.350;    0.000
296.319;  941.925;  128.350;    0.000
296.383; 1051.925;  146.350;    0.000
296.447; 1029.925;  155.350;    0.000
296.510; 1023.925;  177.350;    0.000
296.574; 1030.925;  169.350;    0.000
296.637; 1079.925;  140.350;    0.000
296.701; 1006.925;  181.350;    0.000
296.764; 1033.925;  131.350;    0.000
296.828;  986.925;  194.350;    0.000
296.891; 1034.925;  146.350;    0.000
296.955;  940.925;  160.350;    0.000
297.018; 1016.925;  174.350;    0.000
297.082;  969.925;  153.350;    0.000
297.145;  934.925;  133.350;    0.000
297.209;  966.925;  149.350;    0.000
297.272;  941.925;  150.350;    0.000
297.336; 1011.925;  119.350;    0.000
297.399;  931.925;  160.350;    0.000
297.463;  938.925;  158.350;    0.000
297.526;  938.925;  160.350;    0.000
297.590;  965.925;  173.350;    0.000
297.653; 1030.925;  121.350;    0.000
297.717;  968.925;  168.350;    0.000
297.780;  958.925;  131.350;    0.000
297.843; 1026.925;  154.350;    0.000
297.907;  931.925;  126.350;    0.000
297.970;  936.925;  180.350;    0.000
298.034;  939.925;  140.350;    0.000
298.097;  964.925;  207.350;    0.000
298.160;  914.925;  177.350;    0.000
298.224;  944.925;  165.350;    0.000
298.287;  937.925;  160.350;    0.000
298.350;  900.925;  176.350;    0.000
298.414;  899.925;  155.350;    0.000
298.477;  846.925;  132.350;    0.000
298.540;  863.925;  162.350;    0.000
298.604;  903.925;  180.350;    0.000
298.667;  917.925;  208.350;    0.000
298.730;  924.925;  177.350;    0.000
298.794;  868.925;  126.350;    0.000
298.857;  938.925;  171.350;    0.000
298.920;  888.925;  124.350;    0.000
298.984;  931.925;  146.350;    0.000
299.047;  901.925;  140.350;    0.000
299.110;  915.925;  159.350;    0.000
299.173;  882.925;  177.350;    0.000
299.237;  941.925;  196.350;    0.000
299.300;  858.925;  121.350;    0.000
299.363;  931.925;  172.350;    0.000
299.426;  816.925;  117.350;    0.000
299.489;  854.925;  138.350;    0.000
299.553;  871.925;  198.350;    0.000
299.616;  962.925;  158.350;    0.000
299.679;  888.925;  148.350;    0.000
299.742;  851.925;  138.350;    0.000
299.805;  846.925;  157.350;    0.000
299.868;  902.925;  183.350;    0.000
299.932;  942.925;  137.350;    0.000
299.995;  905.925;  152.350;    0.000
300.058;  822.925;  171.350;    0.000
300.121;  974.925;  172.350;    0.000
300.184;  838.925;  161.350;    0.000
300.247;  834.925;  156.350;    0.000
300.310;  897.925;  154.350;    0.000
300.374;  938.925;  147.350;    0.000
300.437;  882.925;  144.350;    0.000
300.500;  926.925;  152.350;    0.000
300.563;  800.925;  160.350;    0.000
300.626;  917.925;  167.350;    0.000
300.689;  876.925;  193.350;    0.000
300.752;  820.925;  134.350;    0.000
300.815;  880.925;  194.350;    0.000
300.878;  909.925;  156.350;    0.000
300.941;  821.925;  177.350;    0.000
301.004;  875.925;  160.350;    0.000
301.067;  867.925;  153.350;    0.000
301.130;  825.925;  167.350;    0.000
301.193;  833.925;  156.350;    0.000
301.256;  891.925;  176.350;    0.000
301.319;  844.925;  172.350;    0.000
301.382;  834.925;  150.350;    0.000
301.445;  829.925;  183.350;    0.000
301.508;  829.925;  118.350;    0.000
301.571;  806.925;  142.350;    0.000
301.634;  841.925;  164.350;    0.000
301.697;  774.925;  169.350;    0.000
301.760;  893.925;  197.350;    0.000
301.823;  909.925;  155.350;    0.000
301.885;  806.925;  165.350;    0.000
301.948;  803.925;  168.350;    0.000
302.011;  838.925;  172.350;    0.000
302.074;  875.925;  182.350;    0.000
302.137;  845.925;  161.350;    0.000
302.200;  852.925;  174.350;    0.000
302.263;  812.925;  158.350;    0.000
302.326;  816.925;  168.350;    0.000
302.388;  826.925;  165.350;    0.000
302.451;  855.925;  158.350;    0.000
302.514;  749.925;  181.350;    0.000
302.577;  843.925;  147.350;    0.000
302.640;  821.925;  178.350;    0.000
302.703;  856.925;  164.350;    0.000
302.765;  874.925;  149.350;    0.000
302.828;  875.925;  192.350;    0.000
302.891;  912.925;  201.350;    0.000
302.954;  969.925;  135.350;    0.000
303.016;  865.925;  180.350;    0.000
303.079;  854.925;  192.350;    0.000
303.142;  914.925;  176.350;    0.000
303.205;  789.925;  176.350;    0.000
303.267;  841.925;  163.350;    0.000
303.330;  831.925;  162.350;    0.000
303.393;  818.925;  164.350;    0.000
303.456;  840.925;  180.350;    0.000
303.518;  831.925;  162.350;    0.000
303.581;  751.925;  137.350;    0.000
303.644;  822.925;  135.350;    0.000
303.706;  824.925;  170.350;    0.000
303.769;  779.925;  216.350;    0.000
303.832;  842.925;  143.350;    0.000
303.894;  892.925;  162.350;    0.000
303.957;  840.925;  149.350;    0.000
304.020;  815.925;  111.350;    0.000
304.082;  884.925;  158.350;    0.000
304.145;  860.925;  149.350;    0.000
304.207;  823.925;  169.350;    0.000
304.270;  885.925;  170.350;    0.000
304.333;  834.925;  185.350;    0.000
304.395;  831.925;  179.350;    0.000
304.458;  867.925;  174.350;    0.000
304.520;  902.925;  160.350;    0.000
304.583;  853.925;  175.350;    0.000
304.646;  838.925;  160.350;    0.000
304.708;  812.925;  173.350;    0.000
304.771;  790.925;  115.350;    0.000
304.833;  876.925;  172.350;    0.000
304.896;  825.925;  187.350;    0.000
304.958;  844.925;  142.350;    0.000
305.021;  871.925;  164.350;    0.000
305.083;  918.925;  139.350;    0.000
305.146;  897.925;  162.350;    0.000
305.208;  833.925;  135.350;    0.000
305.271;  789.925;  159.350;    0.000
305.333;  870.925;  210.350;    0.000
305.396;  860.925;  151.350;    0.000
305.458;  877.925;  195.350;    0.000
305.520;  857.925;  179.350;    0.000
305.583;  845.925;  157.350;    0.000
305.645;  840.925;  187.350;    0.000
305.708;  751.925;  159.350;    0.000
305.770;  817.925;  189.350;    0.000
305.833;  875.925;  147.350;    0.000
305.895;  897.925;  154.350;    0.000
305.957;  835.925;  143.350;    0.000
306.020;  812.925;  133.350;    0.000
306.082;  867.925;  146.350;    0.000
306.144;  862.925;  171.350;    0.000
306.207;  819.925;  151.350;    0.000
306.269;  772.925;  169.350;    0.000
306.331;  895.925;  162.350;    0.000
306.394;  802.925;  171.350;    0.000
306.456;  842.925;  155.350;    0.000
306.518;  844.925;  183.350;    0.000
306.581;  783.925;  180.350;    0.000
306.643;  830.925;  199.350;    0.000
306.705;  806.925;  163.350;    0.000
306.768;  844.925;  183.350;    0.000
306.830;  849.925;  183.350;    0.000
306.892;  910.925;  190.350;    0.000
306.954;  852.925;  161.350;    0.000
307.017;  844.925;  151.350;    0.000
307.079;  815.925;  147.350;    0.000
307.141;  853.925;  179.350;    0.000
307.203;  822.925;  143.350;    0.000
307.266;  883.925;  142.350;    0.000
307.328;  903.925;  161.350;    0.000
307.390;  838.925;  189.350;    0.000
307.452;  843.925;  155.350;    0.000
307.514;  896.925;  211.350;    0.000
307.577;  870.925;  201.350;    0.000
307.639;  950.925;  192.350;    0.000
307.701;  920.925;  162.350;    0.000
307.763;  944.925;  155.350;    0.000
307.825;  923.925;  193.350;    0.000
307.887;  962.925;  214.350;    0.000
307.949;  908.925;  208.350;    0.000
308.012;  877.925;  175.350;    0.000
308.074;  903.925;  155.350;    0.000
308.136;  922.925;  172.350;    0.000
308.198;  818.925;  171.350;    0.000
308.260;  889.925;  182.350;    0.000
308.322;  957.925;  177.350;    0.000
308.384;  952.925;  207.350;    0.000
308.446;  896.925;  170.350;    0.000
308.508;  896.925;  177.350;    0.000
308.570;  907.925;  195.350;    0.000
308.632;  989.925;  190.350;    0.000
308.694;  943.925;  161.350;    0.000
308.756;  945.925;  173.350;    0.000
308.818;  969.925;  190.350;    0.000
308.880;  986.925;  197.350;    0.000
308.942;  957.925;  223.350;    0.000
309.004; 1020.925;  176.350;    0.000
309.066;  893.925;  182.350;    0.000
309.128;  939.925;  185.350;    0.000
309.190; 1048.925;  166.350;    0.000
309.252; 1055.925;  191.350;    0.000
309.314; 1161.925;  208.350;    0.000
309.376; 1139.925;  205.350;    0.000
309.438; 1128.925;  166.350;    0.000
309.500; 1011.925;  195.350;    0.000
309.562; 1118.925;  163.350;    0.000
309.624; 1087.925;  162.350;    0.000
309.686; 1158.925;  194.350;    0.000
309.747; 1123.925;  179.350;    0.000
309.809; 1044.925;  211.350;    0.000
309.871; 1056.925;  191.350;    0.000
309.933; 1034.925;  151.350;    0.000
309.995; 1056.925;  179.350;    0.000
310.057; 1030.925;  175.350;    0.000
310.119;  975.925;  161.350;    0.000
310.180;  957.925;  167.350;    0.000
310.242; 1072.925;  171.350;    0.000
310.304;  989.925;  209.350;    0.000
310.366; 1008.925;  229.350;    0.000
310.428;  926.925;  132.350;    0.000
310.489;  963.925;  165.350;    0.000
310.551;  981.925;  193.350;    0.000
310.613;  995.925;  182.350;    0.000
310.675; 1027.925;  186.350;    0.000
310.737;  922.925;  192.350;    0.000
310.798;  974.925;  194.350;    0.000
310.860;  987.925;  220.350;    0.000
310.922;  940.925;  161.350;    0.000
310.983;  914.925;  203.350;    0.000
311.045; 1012.925;  198.350;    0.000
311.107; 1036.925;  179.350;    0.000
311.169;  926.925;  154.350;    0.000
311.230;  903.925;  134.350;    0.000
311.292;  988.925;  215.350;    0.000
311.354;  953.925;  171.350;    0.000
311.415;  983.925;  195.350;    0.000
311.477;  900.925;  185.350;    0.000
311.539;  868.925;  183.350;    0.000
311.600;  979.925;  183.350;    0.000
311.662;  955.925;  207.350;    0.000
311.724;  988.925;  193.350;    0.000
311.785;  991.925;  180.350;    0.000
311.847;  899.925;  155.350;    0.000
311.908;  928.925;  179.350;    0.000
311.970;  948.925;  193.350;    0.000
312.032;  953.925;  188.350;    0.000
312.093;  874.925;  166.350;    0.000
312.155;  936.925;  147.350;    0.000
312.216;  965.925;  177.350;    0.000
312.278;  931.925;  162.350;    0.000
312.339;  909.925;  158.350;    0.000
312.401;  978.925;  181.350;    0.000
312.462;  949.925;  153.350;    0.000
312.524;  953.925;  186.350;    0.000
312.585;  966.925;  191.350;    0.000
312.647;  925.925;  131.350;    0.000
312.708;  858.925;  170.350;    0.000
312.770;  941.925;  194.350;    0.000
312.831;  865.925;  161.350;    0.000
312.893;  880.925;  179.350;    0.000
312.954;  953.925;  183.350;    0.000
313.016;  922.925;  189.350;    0.000
313.077; 1009.925;  169.350;    0.000
313.139;  969.925;  148.350;    0.000
313.200;  965.925;  155.350;    0.000
313.261;  969.925;  213.350;    0.000
313.323;  918.925;  162.350;    0.000
313.384;  871.925;  160.350;    0.000
313.446;  987.925;  202.350;    0.000
313.507;  893.925;  149.350;    0.000
313.568;  933.925;  194.350;    0.000
313.630;  888.925;  163.350;    0.000
313.691;  948.925;  158.350;    0.000
313.752;  882.925;  179.350;    0.000
313.814;  919.925;  180.350;    0.000
313.875;  941.925;  191.350;    0.000
313.936;  921.925;  169.350;    0.000
313.998;  921.925;  165.350;    0.000
314.059;  942.925;  211.350;    0.000
314.120;  898.925;  190.350;    0.000
314.182;  925.925;  185.350;    0.000
314.243;  895.925;  186.350;    0.000
314.304;  857.925;  178.350;    0.000
314.365;  934.925;  187.350;    0.000
314.427;  940.925;  145.350;    0.000
314.488;  941.925;  184.350;    0.000
314.549;  926.925;  181.350;    0.000
314.610;  897.925;  151.350;    0.000
314.672;  978.925;  153.350;    0.000
314.733;  947.925;  148.350;    0.000
314.794;  939.925;  156.350;    0.000
314.855;  954.925;  196.350;    0.000
314.917;  975.925;  157.350;    0.000
314.978;  906.925;  174.350;    0.000
315.039;  920.925;  168.350;    0.000
315.100;  958.925;  154.350;    0.000
315.161;  926.925;  176.350;    0.000
315.222;  940.925;  198.350;    0.000
315.283;  922.925;  169.350;    0.000
315.345;  871.925;  162.350;    0.000
315.406;  874.925;  199.350;    0.000
315.467;  850.925;  180.350;    0.000
315.528; 1033.925;  179.350;    0.000
315.589;  896.925;  166.350;    0.000
315.650;  886.925;  179.350;    0.000
315.711;  938.925;  177.350;    0.000
315.772;  986.925;  180.350;    0.000
315.833;  921.925;  157.350;    0.000
315.894;  885.925;  133.350;    0.000
315.955;  964.925;  205.350;    0.000
316.016;  958.925;  190.350;    0.000
316.078;  904.925;  174.350;    0.000
316.139;  971.925;  208.350;    0.000
316.200;  913.925;  166.350;    0.000
316.261;  893.925;  186.350;    0.000
316.322;  920.925;  185.350;    0.000
316.383;  911.925;  179.350;    0.000
316.444;  932.925;  172.350;    0.000
316.504;  901.925;  181.350;    0.000
316.565;  977.925;  197.350;    0.000
316.626;  945.925;  196.350;    0.000
316.687;  892.925;  173.350;    0.000
316.748;  955.925;  178.350;    0.000
316.809;  877.925;  178.350;    0.000
316.870;  883.925;  134.350;    0.000
316.931;  943.925;  166.350;    0.000
316.992;  961.925;  200.350;    0.000
317.053;  894.925;  169.350;    0.000
317.114;  923.925;  185.350;    0.000
317.175;  974.925;  213.350;    0.000
317.235;  894.925;  199.350;    0.000
317.296;  939.925;  190.350;    0.000
317.357;  958.925;  152.350;    0.000
317.418;  980.925;  192.350;    0.000
317.479;  918.925;  170.350;    0.000
317.540;  966.925;  179.350;    0.000
317.601;  972.925;  155.350;    0.000
317.661;  854.925;  154.350;    0.000
317.722;  947.925;  190.350;    0.000
317.783;  884.925;  149.350;    0.000
317.844;  908.925;  207.350;    0.000
317.904;  895.925;  153.350;    0.000
317.965;  928.925;  179.350;    0.000
318.026;  920.925;  235.350;    0.000
318.087;  915.925;  184.350;    0.000
318.148;  913.925;  201.350;    0.000
318.208;  926.925;  220.350;    0.000
318.269;  973.925;  175.350;    0.000
318.330;  961.925;  185.350;    0.000
318.390;  952.925;  180.350;    0.000
318.451;  893.925;  164.350;    0.000
318.512;  926.925;  150.350;    0.000
318.572;  945.925;  205.350;    0.000
318.633;  925.925;  224.350;    0.000
318.694;  909.925;  202.350;    0.000
318.754;  891.925;  196.350;    0.000
318.815;  904.925;  187.350;    0.000
318.876;  873.925;  200.350;    0.000
318.936;  985.925;  232.350;    0.000
318.997;  913.925;  211.350;    0.000
319.058;  916.925;  194.350;    0.000
319.118;  921.925;  197.350;    0.000
319.179;  887.925;  162.350;    0.000
319.239;  913.925;  188.350;    0.000
319.300;  913.925;  205.350;    0.000
319.361;  937.925;  179.350;    0.000
319.421;  845.925;  182.350;    0.000
319.482;  892.925;  189.350;    0.000
319.542;  927.925;  180.350;    0.000
319.603;  935.925;  204.350;    0.000
319.663;  917.925;  195.350;    0.000
319.724;  823.925;  135.350;    0.000
319.784;  829.925;  184.350;    0.000
319.845;  878.925;  160.350;    0.000
319.905;  948.925;  206.350;    0.000
319.966;  901.925;  203.350;    0.000
320.026;  958.925;  203.350;    0.000
320.087;  867.925;  206.350;    0.000
320.147;  900.925;  180.350;    0.000
320.208;  841.925;  189.350;    0.000
320.268;  887.925;  179.350;    0.000
320.329;  952.925;  215.350;    0.000
320.389;  896.925;  193.350;    0.000
320.449;  965.925;  210.350;    0.000
320.510;  927.925;  206.350;    0.000
320.570;  972.925;  221.350;    0.000
320.631;  973.925;  203.350;    0.000
320.691;  875.925;  190.350;    0.000
320.751;  889.925;  205.350;    0.000
320.812;  888.925;  191.350;    0.000
320.872; 1007.925;  216.350;    0.000
320.932;  923.925;  209.350;    0.000
320.993;  916.925;  189.350;    0.000
321.053;  957.925;  228.350;    0.000
321.113;  939.925;  163.350;    0.000
321.174;  954.925;  204.350;    0.000
321.234;  926.925;  214.350;    0.000
321.294;  885.925;  184.350;    0.000
321.355;  925.925;  216.350;    0.000
321.415;  974.925;  187.350;    0.000
321.475;  912.925;  216.350;    0.000
321.535;  910.925;  189.350;    0.000
321.596;  949.925;  186.350;    0.000
321.656;  929.925;  204.350;    0.000
321.716;  896.925;  183.350;    0.000
321.776;  859.925;  194.350;    0.000
321.837;  938.925;  190.350;    0.000
321.897;  945.925;  219.350;    0.000
321.957; 1009.925;  222.350;    0.000
322.017;  913.925;  183.350;    0.000
322.077;  896.925;  239.350;    0.000
322.138;  916.925;  219.350;    0.000
322.198;  929.925;  185.350;    0.000
322.258;  951.925;  231.350;    0.000
322.318;  937.925;  197.350;    0.000
322.378;  983.925;  179.350;    0.000
322.438;  977.925;  217.350;    0.000
322.499;  931.925;  238.350;    0.000
322.559;  894.925;  197.350;    0.000
322.619;  923.925;  204.350;    0.000
322.679;  826.925;  199.350;    0.000
322.739;  961.925;  194.350;    0.000
322.799;  884.925;  203.350;    0.000
322.859;  978.925;  234.350;    0.000
322.919;  954.925;  194.350;    0.000
322.979;  932.925;  219.350;    0.000
323.039;  867.925;  193.350;    0.000
323.099;  887.925;  207.350;    0.000
323.159;  886.925;  213.350;    0.000
323.219;  912.925;  171.350;    0.000
323.279;  935.925;  215.350;    0.000
323.339;  882.925;  170.350;    0.000
323.399;  980.925;  195.350;    0.000
323.459;  896.925;  234.350;    0.000
323.519;  869.925;  201.350;    0.000
323.579;  906.925;  167.350;    0.000
323.639;  892.925;  209.350;    0.000
323.699;  955.925;  217.350;    0.000
323.759;  939.925;  213.350;    0.000
323.819;  987.925;  216.350;    0.000
323.879;  940.925;  193.350;    0.000
323.939;  859.925;  182.350;    0.000
323.999;  948.925;  206.350;    0.000
324.059;  850.925;  196.350;    0.000
324.119;  866.925;  240.350;    0.000
324.178;  877.925;  186.350;    0.000
324.238;  970.925;  179.350;    0.000
324.298;  897.925;  195.350;    0.000
324.358;  884.925;  208.350;    0.000
324.418;  920.925;  190.350;    0.000
324.478;  879.925;  197.350;    0.000
324.538;  970.925;  157.350;    0.000
324.597;  869.925;  219.350;    0.000
324.657;  869.925;  176.350;    0.000
324.717;  917.925;  179.350;    0.000
324.777;  886.925;  190.350;    0.000
324.837;  870.925;  172.350;    0.000
324.896;  883.925;  199.350;    0.000
324.956;  885.925;  216.350;    0.000
325.016;  903.925;  191.350;    0.000
325.076;  924.925;  185.350;    0.000
325.135;  886.925;  174.350;    0.000
325.195;  918.925;  175.350;    0.000
325.255;  845.925;  144.350;    0.000
325.315;  902.925;  201.350;    0.000
325.374;  907.925;  198.350;    0.000
325.434;  892.925;  181.350;    0.000
325.494;  944.925;  183.350;    0.000
325.553;  993.925;  172.350;    0.000
325.613;  946.925;  200.350;    0.000
325.673;  912.925;  177.350;    0.000
325.732;  903.925;  174.350;    0.000
325.792;  947.925;  181.350;    0.000
325.852;  855.925;  214.350;    0.000
325.911;  896.925;  230.350;    0.000
325.971;  883.925;  198.350;    0.000
326.031;  910.925;  201.350;    0.000
326.090;  906.925;  214.350;    0.000
326.150;  974.925;  163.350;    0.000
326.209;  999.925;  207.350;    0.000
326.269;  938.925;  201.350;    0.000
326.328;  896.925;  208.350;    0.000
326.388;  926.925;  169.350;    0.000
326.448; 1010.925;  229.350;    0.000
326.507;  932.925;  243.350;    0.000
326.567;  820.925;  162.350;    0.000
326.626;  873.925;  200.350;    0.000
326.686;  856.925;  166.350;    0.000
326.745;  860.925;  178.350;    0.000
326.805;  923.925;  185.350;    0.000
326.864;  911.925;  209.350;    0.000
326.924; 1003.925;  234.350;    0.000
326.983;  889.925;  197.350;    0.000
327.043;  939.925;  217.350;    0.000
327.102;  896.925;  174.350;    0.000
327.161;  914.925;  172.350;    0.000
327.221;  898.925;  183.350;    0.000
327.280;  913.925;  200.350;    0.000
327.340;  948.925;  200.350;    0.000
327.399; 1003.925;  219.350;    0.000
327.459;  880.925;  246.350;    0.000
327.518;  944.925;  217.350;    0.000
327.577;  861.925;  212.350;    0.000
327.637;  955.925;  188.350;    0.000
327.696;  816.925;  201.350;    0.000
327.755;  889.925;  199.350;    0.000
327.815;  905.925;  224.350;    0.000
327.874;  967.925;  236.350;    0.000
327.933;  866.925;  182.350;    0.000
327.993;  889.925;  206.350;    0.000
328.052;  917.925;  191.350;    0.000
328.111;  951.925;  222.350;    0.000
328.171;  902.925;  200.350;    0.000
328.230;  838.925;  203.350;    0.000
328.289;  963.925;  219.350;    0.000
328.349;  897.925;  231.350;    0.000
328.408;  930.925;  223.350;    0.000
328.467;  886.925;  226.350;    0.000
328.526;  912.925;  197.350;    0.000
328.586;  892.925;  221.350;    0.000
328.645;  947.925;  199.350;    0.000
328.704;  940.925;  227.350;    0.000
328.763;  860.925;  201.350;    0.000
328.822;  945.925;  230.350;    0.000
328.882;  851.925;  244.350;    0.000
328.941;  914.925;  221.350;    0.000
329.000;  929.925;  207.350;    0.000
329.059;  865.925;  208.350;    0.000
329.118;  951.925;  203.350;    0.000
329.177;  866.925;  198.350;    0.000
329.237;  938.925;  218.350;    0.000
329.296;  925.925;  213.350;    0.000
329.355;  935.925;  208.350;    0.000
329.414;  920.925;  231.350;    0.000
329.473;  862.925;  221.350;    0.000
329.532;  918.925;  243.350;    0.000
329.591;  973.925;  210.350;    0.000
329.650;  962.925;  232.350;    0.000
329.709;  957.925;  211.350;    0.000
329.768;  964.925;  194.350;    0.000
329.827;  920.925;  237.350;    0.000
329.886;  951.925;  213.350;    0.000
329.945;  984.925;  190.350;    0.000
330.004; 1025.925;  233.350;    0.000
330.063;  981.925;  191.350;    0.000
330.122; 1159.925;  234.350;    0.000
330.181; 1234.925;  220.350;    0.000
330.240; 1243.925;  191.350;    0.000
330.299; 1105.925;  210.350;    0.000
330.358;  967.925;  191.350;    0.000
330.417; 1016.925;  225.350;    0.000
330.476;  946.925;  226.350;    0.000
330.535;  894.925;  217.350;    0.000
330.594;  899.925;  205.350;    0.000
330.653;  860.925;  193.350;    0.000
330.712;  987.925;  206.350;    0.000
330.771;  906.925;  175.350;    0.000
330.830;  932.925;  204.350;    0.000
330.889;  884.925;  198.350;    0.000
330.948;  909.925;  198.350;    0.000
331.006;  850.925;  207.350;    0.000
331.065;  852.925;  203.350;    0.000
331.124;  883.925;  210.350;    0.000
331.183;  831.925;  165.350;    0.000
331.242;  889.925;  195.350;    0.000
331.301;  828.925;  191.350;    0.000
331.359;  891.925;  205.350;    0.000
331.418;  846.925;  183.350;    0.000
331.477;  994.925;  198.350;    0.000
331.536;  935.925;  211.350;    0.000
331.595;  851.925;  191.350;    0.000
331.653;  900.925;  232.350;    0.000
331.712;  886.925;  225.350;    0.000
331.771;  850.925;  199.350;    0.000
331.830;  856.925;  189.350;    0.000
331.888;  850.925;  219.350;    0.000
331.947;  827.925;  188.350;    0.000
332.006;  816.925;  180.350;    0.000
332.065;  816.925;  177.350;    0.000
332.123;  929.925;  214.350;    0.000
332.182;  870.925;  223.350;    0.000
332.241;  886.925;  202.350;    0.000
332.299;  859.925;  180.350;    0.000
332.358;  885.925;  206.350;    0.000
332.417;  863.925;  195.350;    0.000
332.475;  856.925;  221.350;    0.000
332.534;  888.925;  207.350;    0.000
332.592;  834.925;  190.350;    0.000
332.651;  865.925;  203.350;    0.000
332.710;  910.925;  219.350;    0.000
332.768;  947.925;  210.350;    0.000
332.827;  853.925;  173.350;    0.000
332.885;  848.925;  239.350;    0.000
332.944;  915.925;  145.350;    0.000
333.003;  868.925;  197.350;    0.000
333.061;  912.925;  179.350;    0.000
333.120;  925.925;  198.350;    0.000
333.178;  969.925;  185.350;    0.000
333.237;  904.925;  204.350;    0.000
333.295;  985.925;  266.350;    0.000
333.354;  907.925;  181.350;    0.000
333.412;  907.925;  189.350;    0.000
333.471;  915.925;  216.350;    0.000
333.529;  987.925;  220.350;    0.000
333.588;  959.925;  193.350;    0.000
333.646;  994.925;  186.350;    0.000
333.705;  952.925;  210.350;    0.000
333.763;  938.925;  222.350;    0.000
333.822;  952.925;  222.350;    0.000
333.880;  932.925;  202.350;    0.000
333.938;  984.925;  205.350;    0.000
333.997;  919.925;  199.350;    0.000
334.055;  928.925;  199.350;    0.000
334.114;  993.925;  237.350;    0.000
334.172;  827.925;  155.350;    0.000
334.230;  929.925;  208.350;    0.000
334.289;  960.925;  191.350;    0.000
334.347;  861.925;  211.350;    0.000
334.405;  943.925;  212.350;    0.000
334.464;  840.925;  179.350;    0.000
334.522;  869.925;  160.350;    0.000
334.580;  885.925;  195.350;    0.000
334.639;  903.925;  191.350;    0.000
334.697;  862.925;  194.350;    0.000
334.755;  863.925;  185.350;    0.000
334.814;  885.925;  214.350;    0.000
334.872;  841.925;  179.350;    0.000
334.930;  860.925;  169.350;    0.000
334.988;  970.925;  201.350;    0.000
335.047;  888.925;  188.350;    0.000
335.105;  923.925;  175.350;    0.000
335.163;  933.925;  191.350;    0.000
335.221;  823.925;  196.350;    0.000
335.280;  874.925;  182.350;    0.000
335.338;  969.925;  202.350;    0.000
335.396;  964.925;  219.350;    0.000
335.454;  897.925;  187.350;    0.000
335.512;  944.925;  236.350;    0.000
335.570;  928.925;  209.350;    0.000
335.629;  923.925;  247.350;    0.000
335.687;  867.925;  219.350;    0.000
335.745;  917.925;  203.350;    0.000
335.803;  993.925;  220.350;    0.000
335.861;  995.925;  208.350;    0.000
335.919;  902.925;  223.350;    0.000
335.977;  922.925;  201.350;    0.000
336.035;  911.925;  193.350;    0.000
336.094;  899.925;  178.350;    0.000
336.152;  910.925;  182.350;    0.000
336.210;  962.925;  199.350;    0.000
336.268;  962.925;  216.350;    0.000
336.326;  912.925;  216.350;    0.000
336.384;  934.925;  201.350;    0.000
336.442;  962.925;  197.350;    0.000
336.500;  954.925;  203.350;    0.000
336.558;  960.925;  198.350;    0.000
336.616;  953.925;  210.350;    0.000
336.674;  830.925;  192.350;    0.000
336.732;  834.925;  182.350;    0.000
336.790;  888.925;  189.350;    0.000
336.848;  969.925;  233.350;    0.000
336.906;  923.925;  235.350;    0.000
336.964;  954.925;  208.350;    0.000
337.022;  928.925;  249.350;    0.000
337.080;  975.925;  204.350;    0.000
337.138;  917.925;  176.350;    0.000
337.195;  882.925;  207.350;    0.000
337.253;  962.925;  214.350;    0.000
337.311;  969.925;  210.350;    0.000
337.369;  872.925;  222.350;    0.000
337.427;  917.925;  236.350;    0.000
337.485;  920.925;  241.350;    0.000
337.543;  884.925;  217.350;    0.000
337.601;  951.925;  221.350;    0.000
337.658;  909.925;  205.350;    0.000
337.716;  825.925;  210.350;    0.000
337.774;  815.925;  196.350;    0.000
337.832;  911.925;  200.350;    0.000
337.890;  850.925;  192.350;    0.000
337.947;  913.925;  192.350;    0.000
338.005;  887.925;  211.350;    0.000
338.063;  812.925;  176.350;    0.000
338.121;  866.925;  222.350;    0.000
338.178;  844.925;  198.350;    0.000
338.236;  819.925;  210.350;    0.000
338.294;  964.925;  211.350;    0.000
338.352;  861.925;  212.350;    0.000
338.409;  894.925;  199.350;    0.000
338.467;  883.925;  205.350;    0.000
338.525;  872.925;  217.350;    0.000
338.583;  893.925;  197.350;    0.000
338.640;  839.925;  226.350;    0.000
338.698;  878.925;  201.350;    0.000
338.756;  936.925;  192.350;    0.000
338.813;  881.925;  220.350;    0.000
338.871;  927.925;  258.350;    0.000
338.928;  908.925;  223.350;    0.000
338.986;  856.925;  200.350;    0.000
339.044;  901.925;  206.350;    0.000
339.101;  863.925;  250.350;    0.000
339.159;  946.925;  245.350;    0.000
339.216;  903.925;  227.350;    0.000
339.274;  933.925;  260.350;    0.000
339.332;  843.925;  223.350;    0.000
339.389;  910.925;  233.350;    0.000
339.447;  918.925;  206.350;    0.000
339.504;  930.925;  229.350;    0.000
339.562;  867.925;  194.350;    0.000
339.619;  932.925;  245.350;    0.000
339.677; 1064.925;  238.350;    0.000
339.734;  890.925;  197.350;    0.000
339.792;  884.925;  210.350;    0.000
339.849;  910.925;  201.350;    0.000
339.907;  893.925;  252.350;    0.000
339.964;  911.925;  191.350;    0.000
340.022;  912.925;  246.350;    0.000
340.079;  963.925;  213.350;    0.000
340.137;  840.925;  240.350;    0.000
340.194;  921.925;  208.350;    0.000
340.252;  864.925;  215.350;    0.000
340.309;  875.925;  203.350;    0.000
340.366;  838.925;  194.350;    0.000
340.424;  935.925;  226.350;    0.000
340.481;  899.925;  234.350;    0.000
340.538;  895.925;  205.350;    0.000
340.596;  880.925;  197.350;    0.000
340.653;  984.925;  233.350;    0.000
340.711;  870.925;  273.350;    0.000
340.768;  944.925;  237.350;    0.000
340.825;  872.925;  224.350;    0.000
340.883;  939.925;  240.350;    0.000
340.940;  911.925;  216.350;    0.000
340.997;  856.925;  228.350;    0.000
341.054;  861.925;  200.350;    0.000
341.112;  855.925;  220.350;    0.000
341.169;  918.925;  226.350;    0.000
341.226;  894.925;  206.350;    0.000
341.284;  919.925;  204.350;    0.000
341.341;  923.925;  214.350;    0.000
341.398;  826.925;  160.350;    0.000
341.455;  900.925;  209.350;    0.000
341.512;  922.925;  233.350;    0.000
341.570;  926.925;  240.350;    0.000
341.627;  942.925;  209.350;    0.000
341.684;  866.925;  178.350;    0.000
341.741;  869.925;  254.350;    0.000
341.798;  920.925;  232.350;    0.000
341.856;  882.925;  196.350;    0.000
341.913;  930.925;  244.350;    0.000
341.970;  920.925;  203.350;    0.000
342.027;  925.925;  235.350;    0.000
342.084;  897.925;  214.350;    0.000
342.141;  880.925;  194.350;    0.000
342.198;  886.925;  194.350;    0.000
342.255;  913.925;  219.350;    0.000
342.313;  903.925;  195.350;    0.000
342.370;  881.925;  207.350;    0.000
342.427;  947.925;  217.350;    0.000
342.484;  910.925;  213.350;    0.000
342.541;  957.925;  215.350;    0.000
342.598;  948.925;  247.350;    0.000
342.655;  897.925;  205.350;    0.000
342.712;  882.925;  226.350;    0.000
342.769;  860.925;  212.350;    0.000
342.826;  865.925;  203.350;    0.000
342.883;  947.925;  207.350;    0.000
342.940;  805.925;  204.350;    0.000
342.997;  882.925;  237.350;    0.000
343.054;  915.925;  210.350;    0.000
343.111;  837.925;  209.350;    0.000
343.168;  966.925;  201.350;    0.000
343.225;  917.925;  208.350;    0.000
343.282;  878.925;  216.350;    0.000
343.339;  838.925;  237.350;    0.000
343.395;  877.925;  218.350;    0.000
343.452; 1002.925;  234.350;    0.000
343.509;  901.925;  214.350;    0.000
343.566;  958.925;  222.350;    0.000
343.623;  882.925;  226.350;    0.000
343.680;  907.925;  245.350;    0.000
343.737;  920.925;  209.350;    0.000
343.794;  913.925;  227.350;    0.000
343.850;  914.925;  197.350;    0.000
343.907;  882.925;  211.350;    0.000
343.964;  978.925;  190.350;    0.000
344.021;  889.925;  252.350;    0.000
344.078;  913.925;  261.350;    0.000
344.134;  892.925;  206.350;    0.000
344.191; 1052.925;  231.350;    0.000
344.248;  958.925;  225.350;    0.000
344.305;  937.925;  210.350;    0.000
344.361;  941.925;  194.350;    0.000
344.418;  973.925;  219.350;    0.000
344.475;  871.925;  245.350;    0.000
344.532;  990.925;  238.350;    0.000
344.588;  877.925;  235.350;    0.000
344.645;  945.925;  229.350;    0.000
344.702;  949.925;  145.350;    0.000
344.758;  922.925;  240.350;    0.000
344.815;  858.925;  215.350;    0.000
344.872;  897.925;  203.350;    0.000
344.928; 1007.925;  208.350;    0.000
344.985;  975.925;  216.350;    0.000
345.042;  994.925;  234.350;    0.000
345.098;  932.925;  183.350;    0.000
345.155;  939.925;  241.350;    0.000
345.212;  962.925;  222.350;    0.000
345.268;  966.925;  234.350;    0.000
345.325;  998.925;  181.350;    0.000
345.381;  987.925;  251.350;    0.000
345.438; 1032.925;  256.350;    0.000
345.495;  986.925;  247.350;    0.000
345.551; 1036.925;  231.350;    0.000
345.608;  872.925;  206.350;    0.000
345.664;  874.925;  201.350;    0.000
345.721;  951.925;  216.350;    0.000
345.777;  862.925;  195.350;    0.000
345.834;  837.925;  195.350;    0.000
345.890;  935.925;  227.350;    0.000
345.947;  914.925;  240.350;    0.000
346.003;  926.925;  248.350;    0.000
346.060;  870.925;  213.350;    0.000
346.116;  969.925;  225.350;    0.000
346.173;  912.925;  199.350;    0.000
346.229;  996.925;  264.350;    0.000
346.285;  930.925;  246.350;    0.000
346.342; 1022.925;  240.350;    0.000
346.398;  945.925;  222.350;    0.000
346.455;  949.925;  231.350;    0.000
346.511;  975.925;  214.350;    0.000
346.567;  972.925;  231.350;    0.000
346.624;  980.925;  222.350;    0.000
346.680;  971.925;  197.350;    0.000
346.737;  989.925;  225.350;    0.000
346.793;  970.925;  255.350;    0.000
346.849;  969.925;  245.350;    0.000
346.906;  989.925;  221.350;    0.000
346.962; 1026.925;  260.350;    0.000
347.018; 1039.925;  238.350;    0.000
347.074;  966.925;  257.350;    0.000
347.131; 1005.925;  200.350;    0.000
347.187;  929.925;  232.350;    0.000
347.243;  998.925;  240.350;    0.000
347.300; 1000.925;  249.350;    0.000
347.356;  994.925;  250.350;    0.000
347.412;  951.925;  252.350;    0.000
347.468;  971.925;  254.350;    0.000
347.524;  950.925;  280.350;    0.000
347.581;  947.925;  228.350;    0.000
347.637; 1040.925;  261.350;    0.000
347.693;  938.925;  238.350;    0.000
347.749;  932.925;  261.350;    0.000
347.805;  872.925;  238.350;    0.000
347.862;  980.925;  246.350;    0.000
347.918;  937.925;  256.350;    0.000
347.974;  984.925;  277.350;    0.000
348.030;  999.925;  242.350;    0.000
348.086;  971.925;  223.350;    0.000
348.142;  925.925;  215.350;    0.000
348.198; 1081.925;  272.350;    0.000
348.254;  967.925;  292.350;    0.000
348.311;  954.925;  235.350;    0.000
348.367;  954.925;  263.350;    0.000
348.423;  979.925;  193.350;    0.000
348.479;  953.925;  266.350;    0.000
348.535; 1012.925;  238.350;    0.000
348.591;  966.925;  237.350;    0.000
348.647;  952.925;  239.350;    0.000
348.703;  898.925;  240.350;    0.000
348.759;  961.925;  253.350;    0.000
348.815; 1025.925;  255.350;    0.000
348.871;  926.925;  256.350;    0.000
348.927;  901.925;  261.350;    0.000
348.983;  974.925;  258.350;    0.000
349.039;  837.925;  204.350;    0.000
349.095;  895.925;  215.350;    0.000
349.151;  936.925;  230.350;    0.000
349.207;  953.925;  216.350;    0.000
349.263;  994.925;  235.350;    0.000
349.319;  891.925;  244.350;    0.000
349.374;  984.925;  213.350;    0.000
349.430;  987.925;  241.350;    0.000
349.486; 1029.925;  248.350;    0.000
349.542;  978.925;  259.350;    0.000
349.598;  934.925;  208.350;    0.000
349.654; 1005.925;  242.350;    0.000
349.710;  950.925;  246.350;    0.000
349.766;  911.925;  226.350;    0.000
349.821;  960.925;  227.350;    0.000
349.877;  960.925;  226.350;    0.000
349.933;  983.925;  249.350;    0.000
349.989; 1022.925;  263.350;    0.000
350.045;  964.925;  267.350;    0.000
350.100;  945.925;  219.350;    0.000
350.156; 1001.925;  207.350;    0.000
350.212;  946.925;  230.350;    0.000
350.268;  942.925;  223.350;    0.000
350.323;  943.925;  217.350;    0.000
350.379;  987.925;  227.350;    0.000
350.435;  921.925;  219.350;    0.000
350.491;  932.925;  195.350;    0.000
350.546; 1062.925;  229.350;    0.000
350.602;  984.925;  222.350;    0.000
350.658; 1036.925;  225.350;    0.000
350.713;  975.925;  231.350;    0.000
350.769;  951.925;  193.350;    0.000
350.825;  960.925;  182.350;    0.000
350.880;  969.925;  193.350;    0.000
350.936; 1017.925;  222.350;    0.000
350.992;  880.925;  217.350;    0.000
351.047;  992.925;  226.350;    0.000
351.103;  919.925;  187.350;    0.000
351.158;  961.925;  212.350;    0.000
351.214;  919.925;  207.350;    0.000
351.270;  913.925;  194.350;    0.000
351.325; 1035.925;  213.350;    0.000
351.381;  958.925;  223.350;    0.000
351.436; 1035.925;  222.350;    0.000
351.492;  986.925;  219.350;    0.000
351.547; 1071.925;  205.350;    0.000
351.603;  928.925;  218.350;    0.000
351.658;  914.925;  199.350;    0.000
351.714;  950.925;  201.350;    0.000
351.769; 1084.925;  209.350;    0.000
351.825; 1020.925;  226.350;    0.000
351.880;  901.925;  189.350;    0.000
351.936;  996.925;  201.350;    0.000
351.991; 1042.925;  220.350;    0.000
352.047;  941.925;  232.350;    0.000
352.102;  935.925;  185.350;    0.000
352.158;  927.925;  228.350;    0.000
352.213;  957.925;  204.350;    0.000
352.268;  948.925;  220.350;    0.000
352.324;  951.925;  206.350;    0.000
352.379;  944.925;  182.350;    0.000
352.434; 1010.925;  214.350;    0.000
352.490; 1015.925;  250.350;    0.000
352.545;  979.925;  290.350;    0.000
352.601;  980.925;  247.350;    0.000
352.656; 1015.925;  203.350;    0.000
352.711;  952.925;  197.350;    0.000
352.767;  904.925;  169.350;    0.000
352.822; 1006.925;  191.350;    0.000
352.877;  941.925;  235.350;    0.000
352.932;  968.925;  231.350;    0.000
352.988;  957.925;  224.350;    0.000
353.043;  987.925;  226.350;    0.000
353.098;  958.925;  227.350;    0.000
353.153;  953.925;  239.350;    0.000
353.209;  955.925;  217.350;    0.000
353.264;  993.925;  198.350;    0.000
353.319;  966.925;  247.350;    0.000
353.374; 1004.925;  199.350;    0.000
353.430;  973.925;  247.350;    0.000
353.485; 1010.925;  242.350;    0.000
353.540; 1005.925;  237.350;    0.000
353.595;  912.925;  233.350;    0.000
353.650;  979.925;  221.350;    0.000
353.705; 1025.925;  259.350;    0.000
353.761;  974.925;  223.350;    0.000
353.816; 1031.925;  234.350;    0.000
353.871;  981.925;  226.350;    0.000
353.926; 1062.925;  232.350;    0.000
353.981;  961.925;  245.350;    0.000
354.036;  972.925;  247.350;    0.000
354.091;  940.925;  233.350;    0.000
354.146;  953.925;  253.350;    0.000
354.201;  994.925;  236.350;    0.000
354.256;  919.925;  210.350;    0.000
354.311; 1051.925;  279.350;    0.000
354.367;  969.925;  208.350;    0.000
354.422;  977.925;  228.350;    0.000
354.477;  982.925;  202.350;    0.000
354.532; 1018.925;  215.350;    0.000
354.587;  942.925;  249.350;    0.000
354.642;  949.925;  206.350;    0.000
354.697;  981.925;  226.350;    0.000
354.751;  972.925;  241.350;    0.000
354.806; 1016.925;  249.350;    0.000
354.861; 1008.925;  216.350;    0.000
354.916; 1013.925;  249.350;    0.000
354.971;  959.925;  217.350;    0.000
355.026; 1029.925;  236.350;    0.000
355.081; 1049.925;  242.350;    0.000
355.136; 1001.925;  216.350;    0.000
355.191;  955.925;  216.350;    0.000
355.246;  924.925;  258.350;    0.000
355.301; 1015.925;  250.350;    0.000
355.355; 1057.925;  251.350;    0.000
355.410; 1019.925;  216.350;    0.000
355.465;  958.925;  224.350;    0.000
355.520;  939.925;  221.350;    0.000
355.575;  938.925;  255.350;    0.000
355.630; 1063.925;  225.350;    0.000
355.684;  932.925;  210.350;    0.000
355.739;  914.925;  232.350;    0.000
355.794;  982.925;  202.350;    0.000
355.849;  910.925;  211.350;    0.000
355.904; 1002.925;  226.350;    0.000
355.958;  911.925;  191.350;    0.000
356.013;  948.925;  208.350;    0.000
356.068;  992.925;  229.350;    0.000
356.123; 1084.925;  243.350;    0.000
356.177; 1038.925;  227.350;    0.000
356.232;  940.925;  243.350;    0.000
356.287;  993.925;  216.350;    0.000
356.341; 1003.925;  242.350;    0.000
356.396;  943.925;  175.350;    0.000
356.451;  984.925;  271.350;    0.000
356.505;  943.925;  225.350;    0.000
356.560;  999.925;  260.350;    0.000
356.615;  938.925;  213.350;    0.000
356.669; 1048.925;  213.350;    0.000
356.724; 1039.925;  221.350;    0.000
356.778;  940.925;  232.350;    0.000
356.833;  924.925;  178.350;    0.000
356.888;  958.925;  236.350;    0.000
356.942;  985.925;  224.350;    0.000
356.997; 1080.925;  228.350;    0.000
357.051;  959.925;  226.350;    0.000
357.106;  973.925;  185.350;    0.000
357.160;  960.925;  202.350;    0.000
357.215;  991.925;  232.350;    0.000
357.269;  995.925;  224.350;    0.000
357.324;  966.925;  219.350;    0.000
357.378;  915.925;  196.350;    0.000
357.433;  957.925;  241.350;    0.000
357.487; 1044.925;  244.350;    0.000
357.542;  972.925;  210.350;    0.000
357.596;  966.925;  231.350;    0.000
357.651;  996.925;  248.350;    0.000
357.705;  969.925;  232.350;    0.000
357.760; 1037.925;  224.350;    0.000
357.814; 1003.925;  221.350;    0.000
357.868; 1014.925;  207.350;    0.000
357.923;  965.925;  234.350;    0.000
357.977;  943.925;  218.350;    0.000
358.032;  937.925;  244.350;    0.000
358.086;  924.925;  246.350;    0.000
358.140; 1036.925;  235.350;    0.000
358.195;  977.925;  237.350;    0.000
358.249;  992.925;  233.350;    0.000
358.303; 1001.925;  254.350;    0.000
358.358;  905.925;  217.350;    0.000
358.412; 1025.925;  245.350;    0.000
358.466; 1027.925;  230.350;    0.000
358.521; 1003.925;  214.350;    0.000
358.575; 1029.925;  243.350;    0.000
358.629;  923.925;  230.350;    0.000
358.683;  995.925;  232.350;    0.000
358.738; 1002.925;  249.350;    0.000
358.792;  990.925;  249.350;    0.000
358.846;  997.925;  271.350;    0.000
358.900;  996.925;  265.350;    0.000
358.954;  938.925;  236.350;    0.000
359.009;  894.925;  254.350;    0.000
359.063;  870.925;  216.350;    0.000
359.117;  993.925;  245.350;    0.000
359.171; 1049.925;  252.350;    0.000
359.225; 1026.925;  240.350;    0.000
359.280;  960.925;  239.350;    0.000
359.334;  946.925;  234.350;    0.000
359.388;  969.925;  258.350;    0.000
359.442;  933.925;  220.350;    0.000
359.496;  876.925;  206.350;    0.000
359.550;  973.925;  279.350;    0.000
359.604; 1024.925;  263.350;    0.000
359.658; 1003.925;  251.350;    0.000
359.712; 1015.925;  244.350;    0.000
359.766;  913.925;  217.350;    0.000
359.820;  937.925;  235.350;    0.000
359.875;  977.925;  249.350;    0.000
359.929; 1042.925;  269.350;    0.000
359.983;  872.925;  240.350;    0.000
360.037;  935.925;  252.350;    0.000
360.091;  995.925;  271.350;    0.000
360.145;  977.925;  222.350;    0.000
360.199;  878.925;  302.350;    0.000
360.253;  919.925;  234.350;    0.000
360.306;  982.925;  258.350;    0.000
360.360;  978.925;  249.350;    0.000
360.414; 1033.925;  231.350;    0.000
360.468; 1004.925;  261.350;    0.000
360.522;  934.925;  277.350;    0.000
360.576;  982.925;  273.350;    0.000
360.630; 1020.925;  264.350;    0.000
360.684; 1095.925;  223.350;    0.000
360.738; 1017.925;  266.350;    0.000
360.792;  984.925;  252.350;    0.000
360.846;  982.925;  234.350;    0.000
360.899; 1055.925;  296.350;    0.000
360.953; 1040.925;  273.350;    0.000
361.007; 1023.925;  251.350;    0.000
361.061;  963.925;  250.350;    0.000
361.115;  926.925;  267.350;    0.000
361.168; 1028.925;  308.350;    0.000
361.222; 1027.925;  246.350;    0.000
361.276; 1044.925;  261.350;    0.000
361.330;  988.925;  233.350;    0.000
361.384;  988.925;  269.350;    0.000
361.437;  977.925;  270.350;    0.000
361.491;  974.925;  263.350;    0.000
361.545;  961.925;  288.350;    0.000
361.599;  999.925;  270.350;    0.000
361.652; 1063.925;  256.350;    0.000
361.706;  985.925;  263.350;    0.000
361.760;  962.925;  237.350;    0.000
361.813;  981.925;  278.350;    0.000
361.867; 1016.925;  317.350;    0.000
361.921;  962.925;  260.350;    0.000
361.974;  961.925;  239.350;    0.000
362.028;  944.925;  266.350;    0.000
362.082;  963.925;  269.350;    0.000
362.135;  933.925;  262.350;    0.000
362.189;  952.925;  258.350;    0.000
362.242; 1033.925;  273.350;    0.000
362.296;  971.925;  261.350;    0.000
362.350;  970.925;  272.350;    0.000
362.403;  981.925;  291.350;    0.000
362.457;  931.925;  253.350;    0.000
362.510; 1029.925;  266.350;    0.000
362.564;  974.925;  260.350;    0.000
362.617;  968.925;  280.350;    0.000
362.671;  999.925;  281.350;    0.000
362.724;  988.925;  234.350;    0.000
362.778;  967.925;  311.350;    0.000
362.831;  952.925;  276.350;    0.000
362.885; 1049.925;  288.350;    0.000
362.938;  916.925;  284.350;    0.000
362.992;  311.925;  245.350;    0.000
363.045;  268.925;  277.350;    0.000
363.099;  265.925;  246.350;    0.000
363.152;  277.925;  290.350;    0.000
363.205;  305.925;  256.350;    0.000
363.259;  252.925;  238.350;    0.000
363.312;  281.925;  290.350;    0.000
363.366;  245.925;  287.350;    0.000
363.419;  311.925;  279.350;    0.000
363.472;  311.925;  304.350;    0.000
363.526;  267.925;  305.350;    0.000
363.579;  265.925;  281.350;    0.000
363.632;  265.925;  279.350;    0.000
363.686;  266.925;  277.350;    0.000
363.739;  270.925;  268.350;    0.000
363.792;  286.925;  274.350;    0.000

