
Integration time [ms]:   1.000
Averaging Nr. [scans]: 1
Smoothing Nr. [pixels]: 0
Data measured with spectrometer [name]: UV2
Wave   ;Sample   ;Dark     ;Reference
[nm]   ;[counts] ;[counts] ;[counts] 

353.533;  224.075;  216.475;    0.000
353.597;  211.075;  244.475;    0.000
353.660;  199.075;  181.475;    0.000
353.723;  227.075;  203.475;    0.000
353.786;  199.075;  180.475;    0.000
353.850;  225.075;  213.475;    0.000
353.913;  199.075;  191.475;    0.000
353.976;  213.075;  195.475;    0.000
354.039;  163.075;  158.475;    0.000
354.102;  197.075;  199.475;    0.000
354.166;  202.075;  185.475;    0.000
354.229;  201.075;  188.475;    0.000
354.292;  218.075;  188.475;    0.000
354.355;  241.075;  226.475;    0.000
354.418;  204.075;  158.475;    0.000
354.481;  196.075;  185.475;    0.000
354.545;  472.075;  191.475;    0.000
354.608;  500.075;  247.475;    0.000
354.671;  450.075;  176.475;    0.000
354.734;  471.075;  198.475;    0.000
354.797;  467.075;  195.475;    0.000
354.860;  477.075;  212.475;    0.000
354.923;  513.075;  184.475;    0.000
354.986;  474.075;  169.475;    0.000
355.050;  481.075;  206.475;    0.000
355.113;  505.075;  210.475;    0.000
355.176;  494.075;  217.475;    0.000
355.239;  516.075;  201.475;    0.000
355.302;  530.075;  193.475;    0.000
355.365;  568.075;  234.475;    0.000
355.428;  492.075;  182.475;    0.000
355.491;  564.075;  233.475;    0.000
355.554;  553.075;  167.475;    0.000
355.617;  580.075;  195.475;    0.000
355.680;  529.075;  198.475;    0.000
355.743;  505.075;  186.475;    0.000
355.806;  527.075;  171.475;    0.000
355.869;  548.075;  244.475;    0.000
355.932;  535.075;  164.475;    0.000
355.995;  582.075;  220.475;    0.000
356.058;  568.075;  172.475;    0.000
356.121;  561.075;  228.475;    0.000
356.184;  605.075;  225.475;    0.000
356.247;  573.075;  161.475;    0.000
356.310;  552.075;  195.475;    0.000
356.373;  603.075;  191.475;    0.000
356.436;  550.075;  147.475;    0.000
356.498;  570.075;  183.475;    0.000
356.561;  538.075;  137.475;    0.000
356.624;  615.075;  186.475;    0.000
356.687;  597.075;  158.475;    0.000
356.750;  564.075;  194.475;    0.000
356.813;  598.075;  186.475;    0.000
356.876;  584.075;  161.475;    0.000
356.939;  603.075;  188.475;    0.000
357.001;  614.075;  200.475;    0.000
357.064;  619.075;  182.475;    0.000
357.127;  590.075;  168.475;    0.000
357.190;  613.075;  157.475;    0.000
357.253;  631.075;  199.475;    0.000
357.316;  612.075;  187.475;    0.000
357.378;  595.075;  174.475;    0.000
357.441;  598.075;  165.475;    0.000
357.504;  600.075;  189.475;    0.000
357.567;  565.075;  116.475;    0.000
357.629;  619.075;  176.475;    0.000
357.692;  587.075;  134.475;    0.000
357.755;  652.075;  175.475;    0.000
357.818;  577.075;  159.475;    0.000
357.880;  636.075;  185.475;    0.000
357.943;  615.075;  159.475;    0.000
358.006;  627.075;  176.475;    0.000
358.069;  593.075;  156.475;    0.000
358.131;  596.075;  170.475;    0.000
358.194;  615.075;  125.475;    0.000
358.257;  591.075;  186.475;    0.000
358.319;  641.075;  139.475;    0.000
358.382;  650.075;  175.475;    0.000
358.445;  597.075;  170.475;    0.000
358.507;  599.075;  129.475;    0.000
358.570;  601.075;  168.475;    0.000
358.633;  610.075;  152.475;    0.000
358.695;  596.075;  194.475;    0.000
358.758;  632.075;  154.475;    0.000
358.821;  619.075;  147.475;    0.000
358.883;  650.075;  163.475;    0.000
358.946;  620.075;  155.475;    0.000
359.008;  663.075;  208.475;    0.000
359.071;  657.075;  182.475;    0.000
359.134;  603.075;  126.475;    0.000
359.196;  592.075;  142.475;    0.000
359.259;  649.075;  138.475;    0.000
359.321;  625.075;  153.475;    0.000
359.384;  644.075;  186.475;    0.000
359.446;  587.075;  152.475;    0.000
359.509;  677.075;  144.475;    0.000
359.571;  638.075;  164.475;    0.000
359.634;  640.075;  171.475;    0.000
359.696;  611.075;  144.475;    0.000
359.759;  671.075;  171.475;    0.000
359.821;  680.075;  161.475;    0.000
359.884;  612.075;  159.475;    0.000
359.946;  649.075;  186.475;    0.000
360.009;  705.075;  171.475;    0.000
360.071;  645.075;  166.475;    0.000
360.134;  719.075;  215.475;    0.000
360.196;  611.075;  138.475;    0.000
360.259;  696.075;  196.475;    0.000
360.321;  642.075;  148.475;    0.000
360.384;  658.075;  150.475;    0.000
360.446;  633.075;  148.475;    0.000
360.508;  661.075;  172.475;    0.000
360.571;  677.075;  155.475;    0.000
360.633;  646.075;  153.475;    0.000
360.696;  624.075;  142.475;    0.000
360.758;  650.075;  165.475;    0.000
360.820;  636.075;  155.475;    0.000
360.883;  662.075;  156.475;    0.000
360.945;  676.075;  171.475;    0.000
361.007;  661.075;  138.475;    0.000
361.070;  720.075;  129.475;    0.000
361.132;  731.075;  166.475;    0.000
361.194;  658.075;  143.475;    0.000
361.257;  693.075;  154.475;    0.000
361.319;  624.075;  176.475;    0.000
361.381;  671.075;  143.475;    0.000
361.443;  679.075;  136.475;    0.000
361.506;  700.075;  160.475;    0.000
361.568;  684.075;  140.475;    0.000
361.630;  671.075;  159.475;    0.000
361.693;  695.075;  162.475;    0.000
361.755;  695.075;  185.475;    0.000
361.817;  699.075;  209.475;    0.000
361.879;  681.075;  161.475;    0.000
361.941;  717.075;  152.475;    0.000
362.004;  701.075;  132.475;    0.000
362.066;  727.075;  159.475;    0.000
362.128;  697.075;  143.475;    0.000
362.190;  652.075;  131.475;    0.000
362.252;  696.075;  131.475;    0.000
362.315;  732.075;  175.475;    0.000
362.377;  687.075;  140.475;    0.000
362.439;  656.075;  140.475;    0.000
362.501;  685.075;  140.475;    0.000
362.563;  681.075;  152.475;    0.000
362.625;  739.075;  174.475;    0.000
362.688;  649.075;  195.475;    0.000
362.750;  727.075;  221.475;    0.000
362.812;  668.075;  171.475;    0.000
362.874;  758.075;  117.475;    0.000
362.936;  725.075;  162.475;    0.000
362.998;  682.075;  142.475;    0.000
363.060;  697.075;  143.475;    0.000
363.122;  693.075;  148.475;    0.000
363.184;  698.075;  179.475;    0.000
363.246;  784.075;  186.475;    0.000
363.308;  680.075;  180.475;    0.000
363.370;  748.075;  200.475;    0.000
363.432;  700.075;  139.475;    0.000
363.494;  750.075;  138.475;    0.000
363.556;  679.075;  114.475;    0.000
363.618;  697.075;  153.475;    0.000
363.680;  723.075;  153.475;    0.000
363.742;  685.075;  178.475;    0.000
363.804;  714.075;  214.475;    0.000
363.866;  763.075;  170.475;    0.000
363.928;  696.075;  145.475;    0.000
363.990;  745.075;  215.475;    0.000
364.052;  690.075;  166.475;    0.000
364.114;  700.075;  168.475;    0.000
364.176;  741.075;  176.475;    0.000
364.238;  701.075;  203.475;    0.000
364.300;  696.075;  158.475;    0.000
364.362;  756.075;  152.475;    0.000
364.424;  689.075;  119.475;    0.000
364.486;  742.075;  187.475;    0.000
364.548;  726.075;  180.475;    0.000
364.609;  743.075;  212.475;    0.000
364.671;  723.075;  165.475;    0.000
364.733;  736.075;  190.475;    0.000
364.795;  754.075;  148.475;    0.000
364.857;  728.075;  159.475;    0.000
364.919;  713.075;  159.475;    0.000
364.981;  771.075;  191.475;    0.000
365.042;  751.075;  170.475;    0.000
365.104;  720.075;  145.475;    0.000
365.166;  709.075;  134.475;    0.000
365.228;  742.075;  150.475;    0.000
365.290;  719.075;  158.475;    0.000
365.351;  745.075;  168.475;    0.000
365.413;  739.075;  173.475;    0.000
365.475;  718.075;  172.475;    0.000
365.537;  778.075;  126.475;    0.000
365.598;  773.075;  160.475;    0.000
365.660;  682.075;  127.475;    0.000
365.722;  747.075;  189.475;    0.000
365.784;  782.075;  161.475;    0.000
365.845;  776.075;  152.475;    0.000
365.907;  660.075;  117.475;    0.000
365.969;  752.075;  146.475;    0.000
366.030;  751.075;  171.475;    0.000
366.092;  708.075;  155.475;    0.000
366.154;  751.075;  137.475;    0.000
366.215;  745.075;  147.475;    0.000
366.277;  763.075;  148.475;    0.000
366.339;  787.075;  158.475;    0.000
366.400;  729.075;  140.475;    0.000
366.462;  739.075;  159.475;    0.000
366.524;  800.075;  160.475;    0.000
366.585;  791.075;  157.475;    0.000
366.647;  793.075;  170.475;    0.000
366.708;  702.075;  123.475;    0.000
366.770;  735.075;  194.475;    0.000
366.832;  791.075;  191.475;    0.000
366.893;  725.075;  155.475;    0.000
366.955;  776.075;  132.475;    0.000
367.016;  758.075;  126.475;    0.000
367.078;  703.075;  202.475;    0.000
367.139;  773.075;  116.475;    0.000
367.201;  704.075;  134.475;    0.000
367.262;  757.075;  157.475;    0.000
367.324;  788.075;  202.475;    0.000
367.385;  705.075;  118.475;    0.000
367.447;  810.075;  155.475;    0.000
367.508;  769.075;  134.475;    0.000
367.570;  772.075;  165.475;    0.000
367.631;  741.075;  118.475;    0.000
367.693;  794.075;  170.475;    0.000
367.754;  806.075;  154.475;    0.000
367.816;  754.075;  146.475;    0.000
367.877;  781.075;  175.475;    0.000
367.939;  768.075;  200.475;    0.000
368.000;  780.075;  168.475;    0.000
368.062;  748.075;  138.475;    0.000
368.123;  766.075;  170.475;    0.000
368.184;  808.075;  188.475;    0.000
368.246;  769.075;  145.475;    0.000
368.307;  817.075;  163.475;    0.000
368.369;  739.075;  144.475;    0.000
368.430;  748.075;  140.475;    0.000
368.491;  755.075;  133.475;    0.000
368.553;  764.075;  145.475;    0.000
368.614;  824.075;  158.475;    0.000
368.675;  811.075;  147.475;    0.000
368.737;  795.075;  157.475;    0.000
368.798;  761.075;  163.475;    0.000
368.859;  779.075;  173.475;    0.000
368.921;  799.075;  122.475;    0.000
368.982;  773.075;  184.475;    0.000
369.043;  769.075;  169.475;    0.000
369.104;  784.075;  142.475;    0.000
369.166;  797.075;  169.475;    0.000
369.227;  753.075;  156.475;    0.000
369.288;  784.075;  151.475;    0.000
369.349;  796.075;  191.475;    0.000
369.411;  823.075;  168.475;    0.000
369.472;  876.075;  155.475;    0.000
369.533;  770.075;  149.475;    0.000
369.594;  735.075;  174.475;    0.000
369.656;  785.075;  188.475;    0.000
369.717;  805.075;  113.475;    0.000
369.778;  795.075;  184.475;    0.000
369.839;  840.075;  151.475;    0.000
369.900;  825.075;  180.475;    0.000
369.961;  750.075;  171.475;    0.000
370.023;  794.075;  143.475;    0.000
370.084;  745.075;  137.475;    0.000
370.145;  803.075;  152.475;    0.000
370.206;  806.075;  151.475;    0.000
370.267;  798.075;  134.475;    0.000
370.328;  770.075;  178.475;    0.000
370.389;  836.075;  181.475;    0.000
370.451;  813.075;  169.475;    0.000
370.512;  834.075;  172.475;    0.000
370.573;  790.075;  148.475;    0.000
370.634;  762.075;  156.475;    0.000
370.695;  799.075;  151.475;    0.000
370.756;  832.075;  185.475;    0.000
370.817;  814.075;  185.475;    0.000
370.878;  804.075;  191.475;    0.000
370.939;  762.075;  147.475;    0.000
371.000;  823.075;  162.475;    0.000
371.061;  817.075;  145.475;    0.000
371.122;  838.075;  179.475;    0.000
371.183;  759.075;  114.475;    0.000
371.244;  842.075;  180.475;    0.000
371.305;  811.075;  138.475;    0.000
371.366;  816.075;  157.475;    0.000
371.427;  782.075;  148.475;    0.000
371.488;  779.075;  138.475;    0.000
371.549;  838.075;  193.475;    0.000
371.610;  805.075;  158.475;    0.000
371.671;  759.075;  119.475;    0.000
371.732;  800.075;  159.475;    0.000
371.793;  829.075;  178.475;    0.000
371.853;  790.075;  155.475;    0.000
371.914;  824.075;  148.475;    0.000
371.975;  801.075;  124.475;    0.000
372.036;  799.075;  158.475;    0.000
372.097;  756.075;  136.475;    0.000
372.158;  770.075;  116.475;    0.000
372.219;  849.075;  157.475;    0.000
372.280;  820.075;  151.475;    0.000
372.340;  823.075;  190.475;    0.000
372.401;  775.075;  151.475;    0.000
372.462;  798.075;  129.475;    0.000
372.523;  782.075;  121.475;    0.000
372.584;  809.075;  152.475;    0.000
372.645;  807.075;  132.475;    0.000
372.705;  857.075;  190.475;    0.000
372.766;  802.075;  153.475;    0.000
372.827;  826.075;  133.475;    0.000
372.888;  804.075;  161.475;    0.000
372.948;  877.075;  159.475;    0.000
373.009;  854.075;  164.475;    0.000
373.070;  812.075;  139.475;    0.000
373.131;  822.075;  137.475;    0.000
373.191;  855.075;  181.475;    0.000
373.252;  838.075;  154.475;    0.000
373.313;  862.075;  179.475;    0.000
373.373;  835.075;  136.475;    0.000
373.434;  826.075;  169.475;    0.000
373.495;  809.075;   97.475;    0.000
373.555;  860.075;  142.475;    0.000
373.616;  850.075;  178.475;    0.000
373.677;  859.075;  167.475;    0.000
373.737;  872.075;  139.475;    0.000
373.798;  856.075;  155.475;    0.000
373.859;  819.075;  162.475;    0.000
373.919;  908.075;  174.475;    0.000
373.980;  823.075;  172.475;    0.000
374.041;  853.075;  166.475;    0.000
374.101;  849.075;  172.475;    0.000
374.162;  835.075;  188.475;    0.000
374.222;  835.075;  186.475;    0.000
374.283;  833.075;  195.475;    0.000
374.343;  894.075;  204.475;    0.000
374.404;  862.075;  187.475;    0.000
374.465;  845.075;  183.475;    0.000
374.525;  819.075;  136.475;    0.000
374.586;  840.075;  140.475;    0.000
374.646;  838.075;  191.475;    0.000
374.707;  862.075;  208.475;    0.000
374.767;  866.075;  178.475;    0.000
374.828;  837.075;  159.475;    0.000
374.888;  821.075;  143.475;    0.000
374.949;  866.075;  202.475;    0.000
375.009;  872.075;  151.475;    0.000
375.070;  866.075;  160.475;    0.000
375.130;  880.075;  160.475;    0.000
375.190;  858.075;  164.475;    0.000
375.251;  954.075;  196.475;    0.000
375.311;  873.075;  154.475;    0.000
375.372;  848.075;  197.475;    0.000
375.432;  911.075;  159.475;    0.000
375.493;  906.075;  197.475;    0.000
375.553;  864.075;  165.475;    0.000
375.613;  866.075;  174.475;    0.000
375.674;  887.075;  165.475;    0.000
375.734;  883.075;  128.475;    0.000
375.794;  830.075;  169.475;    0.000
375.855;  855.075;  193.475;    0.000
375.915;  864.075;  162.475;    0.000
375.975;  865.075;  181.475;    0.000
376.036;  859.075;  161.475;    0.000
376.096;  856.075;  131.475;    0.000
376.156;  897.075;  165.475;    0.000
376.217;  889.075;  182.475;    0.000
376.277;  938.075;  185.475;    0.000
376.337;  891.075;  177.475;    0.000
376.398;  881.075;  162.475;    0.000
376.458;  880.075;  179.475;    0.000
376.518;  928.075;  150.475;    0.000
376.578;  830.075;  165.475;    0.000
376.639;  875.075;  159.475;    0.000
376.699;  864.075;  180.475;    0.000
376.759;  899.075;  206.475;    0.000
376.819;  869.075;  146.475;    0.000
376.880;  894.075;  177.475;    0.000
376.940;  883.075;  160.475;    0.000
377.000;  835.075;  149.475;    0.000
377.060;  873.075;  180.475;    0.000
377.120;  894.075;  146.475;    0.000
377.180;  890.075;  137.475;    0.000
377.241;  921.075;  163.475;    0.000
377.301;  921.075;  169.475;    0.000
377.361;  914.075;  137.475;    0.000
377.421;  942.075;  184.475;    0.000
377.481;  890.075;  185.475;    0.000
377.541;  868.075;  146.475;    0.000
377.601;  924.075;  179.475;    0.000
377.661;  964.075;  181.475;    0.000
377.722;  962.075;  185.475;    0.000
377.782;  968.075;  147.475;    0.000
377.842;  873.075;  190.475;    0.000
377.902;  913.075;  166.475;    0.000
377.962;  913.075;  153.475;    0.000
378.022;  894.075;  163.475;    0.000
378.082;  963.075;  146.475;    0.000
378.142;  916.075;  152.475;    0.000
378.202;  904.075;  164.475;    0.000
378.262;  870.075;  195.475;    0.000
378.322;  992.075;  190.475;    0.000
378.382;  937.075;  152.475;    0.000
378.442;  975.075;  175.475;    0.000
378.502;  887.075;  153.475;    0.000
378.562;  894.075;  142.475;    0.000
378.622;  929.075;  166.475;    0.000
378.682;  978.075;  173.475;    0.000
378.742;  945.075;  182.475;    0.000
378.802;  965.075;  145.475;    0.000
378.862; 1008.075;  210.475;    0.000
378.921;  956.075;  182.475;    0.000
378.981;  940.075;  185.475;    0.000
379.041;  960.075;  130.475;    0.000
379.101;  926.075;  177.475;    0.000
379.161;  915.075;  166.475;    0.000
379.221;  937.075;  162.475;    0.000
379.281; 1027.075;  167.475;    0.000
379.341;  957.075;  136.475;    0.000
379.401;  956.075;  145.475;    0.000
379.460;  983.075;  176.475;    0.000
379.520;  984.075;  162.475;    0.000
379.580; 1031.075;  144.475;    0.000
379.640;  990.075;  163.475;    0.000
379.700;  967.075;  157.475;    0.000
379.759; 1099.075;  165.475;    0.000
379.819; 1013.075;  190.475;    0.000
379.879;  981.075;  143.475;    0.000
379.939; 1044.075;  188.475;    0.000
379.999; 1063.075;  141.475;    0.000
380.058; 1041.075;  169.475;    0.000
380.118; 1058.075;  158.475;    0.000
380.178; 1048.075;  114.475;    0.000
380.237; 1067.075;  157.475;    0.000
380.297; 1039.075;  177.475;    0.000
380.357; 1022.075;  189.475;    0.000
380.417; 1048.075;  182.475;    0.000
380.476; 1001.075;  178.475;    0.000
380.536; 1023.075;  189.475;    0.000
380.596; 1055.075;  183.475;    0.000
380.655; 1044.075;  195.475;    0.000
380.715; 1075.075;  170.475;    0.000
380.775; 1050.075;  170.475;    0.000
380.834; 1067.075;  179.475;    0.000
380.894; 1049.075;  188.475;    0.000
380.954; 1027.075;  142.475;    0.000
381.013; 1117.075;  178.475;    0.000
381.073; 1066.075;  164.475;    0.000
381.132; 1121.075;  192.475;    0.000
381.192; 1108.075;  187.475;    0.000
381.252; 1109.075;  176.475;    0.000
381.311; 1116.075;  206.475;    0.000
381.371; 1118.075;  167.475;    0.000
381.430; 1100.075;  131.475;    0.000
381.490; 1093.075;  150.475;    0.000
381.549; 1088.075;  129.475;    0.000
381.609; 1127.075;  178.475;    0.000
381.668; 1064.075;  194.475;    0.000
381.728; 1153.075;  210.475;    0.000
381.787; 1188.075;  190.475;    0.000
381.847; 1151.075;  181.475;    0.000
381.906; 1153.075;  156.475;    0.000
381.966; 1179.075;  176.475;    0.000
382.025; 1166.075;  186.475;    0.000
382.085; 1131.075;  192.475;    0.000
382.144; 1233.075;  173.475;    0.000
382.204; 1240.075;  207.475;    0.000
382.263; 1259.075;  193.475;    0.000
382.323; 1204.075;  164.475;    0.000
382.382; 1269.075;  161.475;    0.000
382.441; 1196.075;  199.475;    0.000
382.501; 1323.075;  208.475;    0.000
382.560; 1381.075;  173.475;    0.000
382.619; 1339.075;  179.475;    0.000
382.679; 1428.075;  177.475;    0.000
382.738; 1479.075;  190.475;    0.000
382.798; 1515.075;  213.475;    0.000
382.857; 1668.075;  195.475;    0.000
382.916; 1781.075;  184.475;    0.000
382.976; 1795.075;  169.475;    0.000
383.035; 1723.075;  194.475;    0.000
383.094; 1773.075;  185.475;    0.000
383.154; 2041.075;  198.475;    0.000
383.213; 2286.075;  147.475;    0.000
383.272; 2161.075;  175.475;    0.000
383.331; 1899.075;  122.475;    0.000
383.391; 1644.075;  185.475;    0.000
383.450; 1692.075;  160.475;    0.000
383.509; 1644.075;  168.475;    0.000
383.568; 1758.075;  196.475;    0.000
383.628; 1835.075;  156.475;    0.000
383.687; 1919.075;  171.475;    0.000
383.746; 2105.075;  155.475;    0.000
383.805; 2485.075;  201.475;    0.000
383.864; 2474.075;  125.475;    0.000
383.924; 2013.075;  213.475;    0.000
383.983; 1701.075;  188.475;    0.000
384.042; 1620.075;  162.475;    0.000
384.101; 1470.075;  183.475;    0.000
384.160; 1418.075;  155.475;    0.000
384.219; 1412.075;  155.475;    0.000
384.279; 1362.075;  189.475;    0.000
384.338; 1289.075;  156.475;    0.000
384.397; 1282.075;  148.475;    0.000
384.456; 1284.075;  154.475;    0.000
384.515; 1343.075;  160.475;    0.000
384.574; 1270.075;  223.475;    0.000
384.633; 1160.075;  133.475;    0.000
384.692; 1188.075;  163.475;    0.000
384.751; 1247.075;  186.475;    0.000
384.810; 1241.075;  187.475;    0.000
384.869; 1188.075;  172.475;    0.000
384.929; 1193.075;  153.475;    0.000
384.988; 1173.075;  174.475;    0.000
385.047; 1205.075;  154.475;    0.000
385.106; 1212.075;  164.475;    0.000
385.165; 1087.075;  151.475;    0.000
385.224; 1166.075;  147.475;    0.000
385.283; 1158.075;  176.475;    0.000
385.342; 1160.075;  142.475;    0.000
385.401; 1205.075;  175.475;    0.000
385.459; 1201.075;  150.475;    0.000
385.518; 1134.075;  124.475;    0.000
385.577; 1210.075;  115.475;    0.000
385.636; 1185.075;  174.475;    0.000
385.695; 1192.075;  158.475;    0.000
385.754; 1132.075;  150.475;    0.000
385.813; 1156.075;  129.475;    0.000
385.872; 1142.075;  146.475;    0.000
385.931; 1142.075;  194.475;    0.000
385.990; 1213.075;  174.475;    0.000
386.049; 1231.075;  176.475;    0.000
386.107; 1215.075;  151.475;    0.000
386.166; 1158.075;  178.475;    0.000
386.225; 1176.075;  162.475;    0.000
386.284; 1146.075;  180.475;    0.000
386.343; 1175.075;  171.475;    0.000
386.402; 1095.075;  176.475;    0.000
386.460; 1216.075;  144.475;    0.000
386.519; 1169.075;  140.475;    0.000
386.578; 1132.075;  145.475;    0.000
386.637; 1153.075;  164.475;    0.000
386.696; 1201.075;  189.475;    0.000
386.754; 1133.075;  135.475;    0.000
386.813; 1220.075;  139.475;    0.000
386.872; 1109.075;  121.475;    0.000
386.931; 1158.075;  153.475;    0.000
386.989; 1204.075;  211.475;    0.000
387.048; 1192.075;  156.475;    0.000
387.107; 1199.075;  210.475;    0.000
387.165; 1104.075;  129.475;    0.000
387.224; 1116.075;  205.475;    0.000
387.283; 1175.075;  130.475;    0.000
387.342; 1227.075;  171.475;    0.000
387.400; 1155.075;  156.475;    0.000
387.459; 1189.075;  141.475;    0.000
387.517; 1205.075;  219.475;    0.000
387.576; 1151.075;  166.475;    0.000
387.635; 1179.075;  136.475;    0.000
387.693; 1193.075;  191.475;    0.000
387.752; 1108.075;  165.475;    0.000
387.811; 1092.075;  158.475;    0.000
387.869; 1137.075;  204.475;    0.000
387.928; 1143.075;  149.475;    0.000
387.986; 1158.075;  156.475;    0.000
388.045; 1167.075;  123.475;    0.000
388.103; 1187.075;  150.475;    0.000
388.162; 1154.075;  173.475;    0.000
388.221; 1113.075;  143.475;    0.000
388.279; 1142.075;  129.475;    0.000
388.338; 1223.075;  212.475;    0.000
388.396; 1111.075;  150.475;    0.000
388.455; 1142.075;  167.475;    0.000
388.513; 1102.075;  116.475;    0.000
388.572; 1134.075;  181.475;    0.000
388.630; 1149.075;  187.475;    0.000
388.689; 1089.075;  180.475;    0.000
388.747; 1120.075;  154.475;    0.000
388.806; 1096.075;  161.475;    0.000
388.864; 1142.075;  167.475;    0.000
388.922; 1160.075;  184.475;    0.000
388.981; 1070.075;  169.475;    0.000
389.039; 1125.075;  102.475;    0.000
389.098; 1173.075;  183.475;    0.000
389.156; 1086.075;  182.475;    0.000
389.214; 1149.075;  173.475;    0.000
389.273; 1092.075;  167.475;    0.000
389.331; 1148.075;  170.475;    0.000
389.390; 1186.075;  150.475;    0.000
389.448; 1098.075;  156.475;    0.000
389.506; 1152.075;  149.475;    0.000
389.565; 1159.075;  162.475;    0.000
389.623; 1179.075;  188.475;    0.000
389.681; 1168.075;  204.475;    0.000
389.740; 1154.075;  187.475;    0.000
389.798; 1099.075;  153.475;    0.000
389.856; 1159.075;  214.475;    0.000
389.914; 1157.075;  177.475;    0.000
389.973; 1205.075;  189.475;    0.000
390.031; 1192.075;  178.475;    0.000
390.089; 1107.075;  163.475;    0.000
390.147; 1157.075;  170.475;    0.000
390.206; 1182.075;  183.475;    0.000
390.264; 1144.075;  161.475;    0.000
390.322; 1141.075;  148.475;    0.000
390.380; 1087.075;  138.475;    0.000
390.439; 1170.075;  194.475;    0.000
390.497; 1186.075;  170.475;    0.000
390.555; 1091.075;  165.475;    0.000
390.613; 1164.075;  177.475;    0.000
390.671; 1117.075;  170.475;    0.000
390.729; 1156.075;  158.475;    0.000
390.788; 1142.075;  162.475;    0.000
390.846; 1139.075;  161.475;    0.000
390.904; 1171.075;  197.475;    0.000
390.962; 1214.075;  212.475;    0.000
391.020; 1135.075;  224.475;    0.000
391.078; 1166.075;  184.475;    0.000
391.136; 1125.075;  191.475;    0.000
391.194; 1141.075;  187.475;    0.000
391.253; 1116.075;  197.475;    0.000
391.311; 1125.075;  185.475;    0.000
391.369; 1136.075;  207.475;    0.000
391.427; 1246.075;  222.475;    0.000
391.485; 1200.075;  184.475;    0.000
391.543; 1241.075;  203.475;    0.000
391.601; 1206.075;  151.475;    0.000
391.659; 1151.075;  176.475;    0.000
391.717; 1188.075;  190.475;    0.000
391.775; 1153.075;  159.475;    0.000
391.833; 1134.075;  186.475;    0.000
391.891; 1128.075;  154.475;    0.000
391.949; 1113.075;  181.475;    0.000
392.007; 1213.075;  190.475;    0.000
392.065; 1200.075;  182.475;    0.000
392.123; 1164.075;  158.475;    0.000
392.180; 1197.075;  198.475;    0.000
392.238; 1182.075;  191.475;    0.000
392.296; 1194.075;  164.475;    0.000
392.354; 1187.075;  172.475;    0.000
392.412; 1245.075;  194.475;    0.000
392.470; 1188.075;  154.475;    0.000
392.528; 1164.075;  172.475;    0.000
392.586; 1210.075;  179.475;    0.000
392.644; 1183.075;  173.475;    0.000
392.701; 1188.075;  202.475;    0.000
392.759; 1207.075;  180.475;    0.000
392.817; 1155.075;  181.475;    0.000
392.875; 1198.075;  168.475;    0.000
392.933; 1169.075;  161.475;    0.000
392.991; 1231.075;  216.475;    0.000
393.048; 1245.075;  197.475;    0.000
393.106; 1179.075;  199.475;    0.000
393.164; 1162.075;  173.475;    0.000
393.222; 1174.075;  179.475;    0.000
393.279; 1265.075;  209.475;    0.000
393.337; 1266.075;  185.475;    0.000
393.395; 1219.075;  174.475;    0.000
393.453; 1186.075;  181.475;    0.000
393.510; 1244.075;  188.475;    0.000
393.568; 1276.075;  191.475;    0.000
393.626; 1200.075;  151.475;    0.000
393.684; 1201.075;  208.475;    0.000
393.741; 1192.075;  179.475;    0.000
393.799; 1217.075;  149.475;    0.000
393.857; 1157.075;  136.475;    0.000
393.914; 1189.075;  190.475;    0.000
393.972; 1162.075;  155.475;    0.000
394.030; 1191.075;  170.475;    0.000
394.087; 1262.075;  213.475;    0.000
394.145; 1192.075;  191.475;    0.000
394.202; 1220.075;  188.475;    0.000
394.260; 1162.075;  168.475;    0.000
394.318; 1253.075;  176.475;    0.000
394.375; 1184.075;  159.475;    0.000
394.433; 1239.075;  168.475;    0.000
394.490; 1165.075;  163.475;    0.000
394.548; 1164.075;  163.475;    0.000
394.605; 1210.075;  181.475;    0.000
394.663; 1219.075;  180.475;    0.000
394.720; 1225.075;  193.475;    0.000
394.778; 1216.075;  168.475;    0.000
394.836; 1213.075;  128.475;    0.000
394.893; 1184.075;  151.475;    0.000
394.951; 1211.075;  173.475;    0.000
395.008; 1282.075;  201.475;    0.000
395.065; 1251.075;  139.475;    0.000
395.123; 1258.075;  173.475;    0.000
395.180; 1279.075;  144.475;    0.000
395.238; 1289.075;  135.475;    0.000
395.295; 1240.075;  167.475;    0.000
395.353; 1277.075;  150.475;    0.000
395.410; 1256.075;  165.475;    0.000
395.468; 1265.075;  223.475;    0.000
395.525; 1238.075;  156.475;    0.000
395.582; 1299.075;  178.475;    0.000
395.640; 1290.075;  178.475;    0.000
395.697; 1311.075;  173.475;    0.000
395.754; 1218.075;  154.475;    0.000
395.812; 1218.075;  169.475;    0.000
395.869; 1307.075;  196.475;    0.000
395.927; 1268.075;  190.475;    0.000
395.984; 1251.075;  195.475;    0.000
396.041; 1276.075;  160.475;    0.000
396.098; 1248.075;  161.475;    0.000
396.156; 1315.075;  187.475;    0.000
396.213; 1269.075;  200.475;    0.000
396.270; 1317.075;  160.475;    0.000
396.328; 1233.075;  113.475;    0.000
396.385; 1291.075;  165.475;    0.000
396.442; 1243.075;  168.475;    0.000
396.499; 1248.075;  117.475;    0.000
396.557; 1352.075;  203.475;    0.000
396.614; 1260.075;  155.475;    0.000
396.671; 1287.075;  187.475;    0.000
396.728; 1299.075;  169.475;    0.000
396.785; 1269.075;  167.475;    0.000
396.843; 1277.075;  154.475;    0.000
396.900; 1269.075;  172.475;    0.000
396.957; 1223.075;  176.475;    0.000
397.014; 1339.075;  193.475;    0.000
397.071; 1362.075;  170.475;    0.000
397.128; 1302.075;  172.475;    0.000
397.186; 1320.075;  205.475;    0.000
397.243; 1331.075;  163.475;    0.000
397.300; 1337.075;  193.475;    0.000
397.357; 1406.075;  166.475;    0.000
397.414; 1286.075;  149.475;    0.000
397.471; 1271.075;  157.475;    0.000
397.528; 1355.075;  180.475;    0.000
397.585; 1324.075;  203.475;    0.000
397.642; 1312.075;  156.475;    0.000
397.699; 1372.075;  229.475;    0.000
397.756; 1339.075;  185.475;    0.000
397.814; 1325.075;  191.475;    0.000
397.871; 1325.075;  170.475;    0.000
397.928; 1289.075;  191.475;    0.000
397.985; 1357.075;  183.475;    0.000
398.042; 1319.075;  161.475;    0.000
398.099; 1368.075;  192.475;    0.000
398.156; 1348.075;  176.475;    0.000
398.212; 1420.075;  170.475;    0.000
398.269; 1352.075;  158.475;    0.000
398.326; 1361.075;  175.475;    0.000
398.383; 1343.075;  177.475;    0.000
398.440; 1333.075;  169.475;    0.000
398.497; 1363.075;  184.475;    0.000
398.554; 1393.075;  196.475;    0.000
398.611; 1352.075;  198.475;    0.000
398.668; 1351.075;  135.475;    0.000
398.725; 1388.075;  181.475;    0.000
398.782; 1419.075;  195.475;    0.000
398.839; 1392.075;  179.475;    0.000
398.895; 1361.075;  188.475;    0.000
398.952; 1373.075;  176.475;    0.000
399.009; 1413.075;  183.475;    0.000
399.066; 1491.075;  190.475;    0.000
399.123; 1443.075;  174.475;    0.000
399.180; 1432.075;  191.475;    0.000
399.236; 1514.075;  217.475;    0.000
399.293; 1356.075;  154.475;    0.000
399.350; 1427.075;  210.475;    0.000
399.407; 1523.075;  202.475;    0.000
399.463; 1417.075;  162.475;    0.000
399.520; 1394.075;  207.475;    0.000
399.577; 1487.075;  174.475;    0.000
399.634; 1473.075;  170.475;    0.000
399.690; 1451.075;  186.475;    0.000
399.747; 1516.075;  218.475;    0.000
399.804; 1456.075;  200.475;    0.000
399.861; 1447.075;  190.475;    0.000
399.917; 1478.075;  218.475;    0.000
399.974; 1491.075;  200.475;    0.000
400.031; 1485.075;  200.475;    0.000
400.087; 1457.075;  153.475;    0.000
400.144; 1451.075;  188.475;    0.000
400.201; 1476.075;  198.475;    0.000
400.257; 1435.075;  205.475;    0.000
400.314; 1484.075;  183.475;    0.000
400.370; 1504.075;  227.475;    0.000
400.427; 1463.075;  177.475;    0.000
400.484; 1371.075;  202.475;    0.000
400.540; 1437.075;  173.475;    0.000
400.597; 1493.075;  212.475;    0.000
400.653; 1455.075;  182.475;    0.000
400.710; 1455.075;  201.475;    0.000
400.766; 1443.075;  188.475;    0.000
400.823; 1402.075;  205.475;    0.000
400.879; 1478.075;  165.475;    0.000
400.936; 1483.075;  180.475;    0.000
400.993; 1453.075;  181.475;    0.000
401.049; 1471.075;  147.475;    0.000
401.105; 1454.075;  205.475;    0.000
401.162; 1476.075;  197.475;    0.000
401.218; 1441.075;  177.475;    0.000
401.275; 1436.075;  183.475;    0.000
401.331; 1481.075;  198.475;    0.000
401.388; 1466.075;  209.475;    0.000
401.444; 1459.075;  211.475;    0.000
401.501; 1416.075;  185.475;    0.000
401.557; 1405.075;  190.475;    0.000
401.614; 1362.075;  172.475;    0.000
401.670; 1478.075;  185.475;    0.000
401.726; 1517.075;  196.475;    0.000
401.783; 1435.075;  187.475;    0.000
401.839; 1408.075;  192.475;    0.000
401.895; 1474.075;  173.475;    0.000
401.952; 1428.075;  145.475;    0.000
402.008; 1440.075;  197.475;    0.000
402.064; 1407.075;  146.475;    0.000
402.121; 1503.075;  197.475;    0.000
402.177; 1398.075;  173.475;    0.000
402.233; 1485.075;  185.475;    0.000
402.290; 1387.075;  175.475;    0.000
402.346; 1491.075;  164.475;    0.000
402.402; 1395.075;  173.475;    0.000
402.458; 1544.075;  183.475;    0.000
402.515; 1412.075;  147.475;    0.000
402.571; 1419.075;  210.475;    0.000
402.627; 1421.075;  181.475;    0.000
402.683; 1461.075;  177.475;    0.000
402.740; 1451.075;  162.475;    0.000
402.796; 1473.075;  178.475;    0.000
402.852; 1463.075;  138.475;    0.000
402.908; 1424.075;  181.475;    0.000
402.964; 1494.075;  151.475;    0.000
403.021; 1519.075;  170.475;    0.000
403.077; 1460.075;  204.475;    0.000
403.133; 1425.075;  144.475;    0.000
403.189; 1485.075;  207.475;    0.000
403.245; 1506.075;  184.475;    0.000
403.301; 1575.075;  170.475;    0.000
403.357; 1497.075;  201.475;    0.000
403.414; 1500.075;  205.475;    0.000
403.470; 1488.075;  170.475;    0.000
403.526; 1518.075;  135.475;    0.000
403.582; 1443.075;  180.475;    0.000
403.638; 1496.075;  185.475;    0.000
403.694; 1557.075;  169.475;    0.000
403.750; 1533.075;  210.475;    0.000
403.806; 1562.075;  210.475;    0.000
403.862; 1543.075;  219.475;    0.000
403.918; 1555.075;  191.475;    0.000
403.974; 1498.075;  193.475;    0.000
404.030; 1474.075;  154.475;    0.000
404.086; 1484.075;  170.475;    0.000
404.142; 1469.075;  194.475;    0.000
404.198; 1493.075;  224.475;    0.000
404.254; 1550.075;  177.475;    0.000
404.310; 1546.075;  204.475;    0.000
404.366; 1537.075;  170.475;    0.000
404.422; 1580.075;  172.475;    0.000
404.478; 1528.075;  153.475;    0.000
404.534; 1528.075;  159.475;    0.000
404.590; 1602.075;  203.475;    0.000
404.646; 1520.075;  164.475;    0.000
404.701; 1545.075;  141.475;    0.000
404.757; 1573.075;  195.475;    0.000
404.813; 1553.075;  152.475;    0.000
404.869; 1506.075;  174.475;    0.000
404.925; 1537.075;  167.475;    0.000
404.981; 1544.075;  175.475;    0.000
405.037; 1556.075;  170.475;    0.000
405.092; 1540.075;  155.475;    0.000
405.148; 1480.075;  160.475;    0.000
405.204; 1562.075;  158.475;    0.000
405.260; 1539.075;  128.475;    0.000
405.316; 1537.075;  168.475;    0.000
405.371; 1541.075;  162.475;    0.000
405.427; 1545.075;  187.475;    0.000
405.483; 1576.075;  214.475;    0.000
405.539; 1505.075;  163.475;    0.000
405.594; 1538.075;  191.475;    0.000
405.650; 1584.075;  124.475;    0.000
405.706; 1548.075;  188.475;    0.000
405.761; 1575.075;  204.475;    0.000
405.817; 1664.075;  150.475;    0.000
405.873; 1562.075;  152.475;    0.000
405.928; 1587.075;  135.475;    0.000
405.984; 1621.075;  209.475;    0.000
406.040; 1603.075;  165.475;    0.000
406.095; 1605.075;  146.475;    0.000
406.151; 1630.075;  169.475;    0.000
406.207; 1643.075;  174.475;    0.000
406.262; 1548.075;  189.475;    0.000
406.318; 1615.075;  141.475;    0.000
406.374; 1590.075;  178.475;    0.000
406.429; 1572.075;  197.475;    0.000
406.485; 1645.075;  194.475;    0.000
406.540; 1639.075;  149.475;    0.000
406.596; 1541.075;  173.475;    0.000
406.651; 1664.075;  154.475;    0.000
406.707; 1679.075;  183.475;    0.000
406.763; 1658.075;  156.475;    0.000
406.818; 1629.075;  181.475;    0.000
406.874; 1578.075;  135.475;    0.000
406.929; 1703.075;  194.475;    0.000
406.985; 1655.075;  166.475;    0.000
407.040; 1714.075;  207.475;    0.000
407.095; 1632.075;  213.475;    0.000
407.151; 1638.075;  198.475;    0.000
407.206; 1663.075;  186.475;    0.000
407.262; 1635.075;  148.475;    0.000
407.317; 1740.075;  212.475;    0.000
407.373; 1777.075;  209.475;    0.000
407.428; 1746.075;  218.475;    0.000
407.484; 1667.075;  158.475;    0.000
407.539; 1727.075;  165.475;    0.000
407.594; 1787.075;  197.475;    0.000
407.650; 1762.075;  177.475;    0.000
407.705; 1672.075;  154.475;    0.000
407.760; 1775.075;  198.475;    0.000
407.816; 1675.075;  181.475;    0.000
407.871; 1743.075;  185.475;    0.000
407.926; 1758.075;  167.475;    0.000
407.982; 1749.075;  172.475;    0.000
408.037; 1711.075;  202.475;    0.000
408.092; 1695.075;  201.475;    0.000
408.148; 1731.075;  199.475;    0.000
408.203; 1744.075;  174.475;    0.000
408.258; 1698.075;  157.475;    0.000
408.314; 1769.075;  194.475;    0.000
408.369; 1687.075;  189.475;    0.000
408.424; 1747.075;  204.475;    0.000
408.479; 1713.075;  192.475;    0.000
408.534; 1724.075;  215.475;    0.000
408.590; 1652.075;  190.475;    0.000
408.645; 1635.075;  159.475;    0.000
408.700; 1701.075;  191.475;    0.000
408.755; 1740.075;  217.475;    0.000
408.810; 1671.075;  158.475;    0.000
408.866; 1659.075;  166.475;    0.000
408.921; 1773.075;  214.475;    0.000
408.976; 1766.075;  158.475;    0.000
409.031; 1711.075;  185.475;    0.000
409.086; 1725.075;  158.475;    0.000
409.141; 1703.075;  180.475;    0.000
409.196; 1768.075;  188.475;    0.000
409.252; 1710.075;  186.475;    0.000
409.307; 1663.075;  135.475;    0.000
409.362; 1760.075;  162.475;    0.000
409.417; 1713.075;  149.475;    0.000
409.472; 1727.075;  205.475;    0.000
409.527; 1780.075;  184.475;    0.000
409.582; 1721.075;  174.475;    0.000
409.637; 1699.075;  188.475;    0.000
409.692; 1686.075;  211.475;    0.000
409.747; 1693.075;  159.475;    0.000
409.802; 1713.075;  199.475;    0.000
409.857; 1704.075;  118.475;    0.000
409.912; 1691.075;  177.475;    0.000
409.967; 1606.075;  182.475;    0.000
410.022; 1682.075;  188.475;    0.000
410.077; 1668.075;  204.475;    0.000
410.132; 1799.075;  174.475;    0.000
410.187; 1631.075;  169.475;    0.000
410.242; 1678.075;  178.475;    0.000
410.297; 1798.075;  185.475;    0.000
410.351; 1735.075;  203.475;    0.000
410.406; 1673.075;  180.475;    0.000
410.461; 1741.075;  213.475;    0.000
410.516; 1702.075;  198.475;    0.000
410.571; 1714.075;  171.475;    0.000
410.626; 1697.075;  186.475;    0.000
410.681; 1686.075;  187.475;    0.000
410.736; 1702.075;  147.475;    0.000
410.790; 1746.075;  186.475;    0.000
410.845; 1758.075;  152.475;    0.000
410.900; 1732.075;  202.475;    0.000
410.955; 1706.075;  196.475;    0.000
411.010; 1668.075;  150.475;    0.000
411.064; 1756.075;  200.475;    0.000
411.119; 1748.075;  203.475;    0.000
411.174; 1737.075;  176.475;    0.000
411.229; 1724.075;  203.475;    0.000
411.283; 1701.075;  176.475;    0.000
411.338; 1691.075;  153.475;    0.000
411.393; 1699.075;  168.475;    0.000
411.447; 1804.075;  223.475;    0.000
411.502; 1767.075;  238.475;    0.000
411.557; 1726.075;  179.475;    0.000
411.612; 1673.075;  159.475;    0.000
411.666; 1729.075;  189.475;    0.000
411.721; 1755.075;  212.475;    0.000
411.776; 1665.075;  242.475;    0.000
411.830; 1738.075;  194.475;    0.000
411.885; 1750.075;  188.475;    0.000
411.939; 1762.075;  245.475;    0.000
411.994; 1709.075;  177.475;    0.000
412.049; 1702.075;  170.475;    0.000
412.103; 1752.075;  196.475;    0.000
412.158; 1754.075;  215.475;    0.000
412.212; 1744.075;  199.475;    0.000
412.267; 1738.075;  191.475;    0.000
412.322; 1820.075;  238.475;    0.000
412.376; 1751.075;  243.475;    0.000
412.431; 1706.075;  214.475;    0.000
412.485; 1735.075;  210.475;    0.000
412.540; 1768.075;  200.475;    0.000
412.594; 1785.075;  174.475;    0.000
412.649; 1711.075;  246.475;    0.000
412.703; 1742.075;  182.475;    0.000
412.758; 1843.075;  222.475;    0.000
412.812; 1687.075;  201.475;    0.000
412.866; 1732.075;  162.475;    0.000
412.921; 1767.075;  202.475;    0.000
412.975; 1694.075;  212.475;    0.000
413.030; 1737.075;  238.475;    0.000
413.084; 1755.075;  201.475;    0.000
413.139; 1773.075;  210.475;    0.000
413.193; 1729.075;  218.475;    0.000
413.247; 1710.075;  203.475;    0.000
413.302; 1716.075;  176.475;    0.000
413.356; 1705.075;  215.475;    0.000
413.410; 1780.075;  204.475;    0.000
413.465; 1696.075;  186.475;    0.000
413.519; 1712.075;  196.475;    0.000
413.573; 1689.075;  181.475;    0.000
413.628; 1718.075;  200.475;    0.000
413.682; 1769.075;  157.475;    0.000
413.736; 1677.075;  194.475;    0.000
413.791; 1713.075;  193.475;    0.000
413.845; 1702.075;  225.475;    0.000
413.899; 1668.075;  195.475;    0.000
413.953; 1700.075;  173.475;    0.000
414.008; 1750.075;  186.475;    0.000
414.062; 1776.075;  217.475;    0.000
414.116; 1790.075;  169.475;    0.000
414.170; 1759.075;  228.475;    0.000
414.225; 1695.075;  177.475;    0.000
414.279; 1710.075;  210.475;    0.000
414.333; 1677.075;  207.475;    0.000
414.387; 1718.075;  217.475;    0.000
414.441; 1735.075;  187.475;    0.000
414.496; 1747.075;  215.475;    0.000
414.550; 1722.075;  204.475;    0.000
414.604; 1740.075;  206.475;    0.000
414.658; 1754.075;  139.475;    0.000
414.712; 1663.075;  198.475;    0.000
414.766; 1811.075;  208.475;    0.000
414.820; 1784.075;  199.475;    0.000
414.874; 1743.075;  216.475;    0.000
414.928; 1746.075;  186.475;    0.000
414.982; 1653.075;  176.475;    0.000
415.037; 1793.075;  181.475;    0.000
415.091; 1723.075;  208.475;    0.000
415.145; 1655.075;  209.475;    0.000
415.199; 1682.075;  186.475;    0.000
415.253; 1702.075;  203.475;    0.000
415.307; 1764.075;  197.475;    0.000
415.361; 1803.075;  223.475;    0.000
415.415; 1761.075;  213.475;    0.000
415.469; 1794.075;  226.475;    0.000
415.523; 1760.075;  222.475;    0.000
415.577; 1767.075;  205.475;    0.000
415.631; 1771.075;  224.475;    0.000
415.684; 1760.075;  193.475;    0.000
415.738; 1694.075;  224.475;    0.000
415.792; 1689.075;  204.475;    0.000
415.846; 1763.075;  189.475;    0.000
415.900; 1739.075;  223.475;    0.000
415.954; 1825.075;  187.475;    0.000
416.008; 1820.075;  237.475;    0.000
416.062; 1774.075;  195.475;    0.000
416.116; 1759.075;  223.475;    0.000
416.169; 1767.075;  210.475;    0.000
416.223; 1716.075;  232.475;    0.000
416.277; 1715.075;  227.475;    0.000
416.331; 1752.075;  216.475;    0.000
416.385; 1725.075;  186.475;    0.000
416.439; 1747.075;  226.475;    0.000
416.492; 1733.075;  229.475;    0.000
416.546; 1715.075;  216.475;    0.000
416.600; 1717.075;  211.475;    0.000
416.654; 1784.075;  226.475;    0.000
416.707; 1741.075;  248.475;    0.000
416.761; 1632.075;  217.475;    0.000
416.815; 1735.075;  207.475;    0.000
416.869; 1694.075;  226.475;    0.000
416.922; 1723.075;  192.475;    0.000
416.976; 1756.075;  205.475;    0.000
417.030; 1737.075;  233.475;    0.000
417.083; 1671.075;  226.475;    0.000
417.137; 1790.075;  222.475;    0.000
417.191; 1741.075;  217.475;    0.000
417.244; 1739.075;  221.475;    0.000
417.298; 1704.075;  201.475;    0.000
417.352; 1673.075;  170.475;    0.000
417.405; 1756.075;  234.475;    0.000
417.459; 1726.075;  241.475;    0.000
417.512; 1689.075;  247.475;    0.000
417.566; 1655.075;  219.475;    0.000
417.620; 1658.075;  228.475;    0.000
417.673; 1723.075;  192.475;    0.000
417.727; 1744.075;  203.475;    0.000
417.780; 1672.075;  204.475;    0.000
417.834; 1655.075;  234.475;    0.000
417.887; 1816.075;  245.475;    0.000
417.941; 1735.075;  211.475;    0.000
417.994; 1769.075;  244.475;    0.000
418.048; 1733.075;  203.475;    0.000
418.101; 1693.075;  212.475;    0.000
418.155; 1677.075;  251.475;    0.000
418.208; 1753.075;  286.475;    0.000
418.262; 1766.075;  243.475;    0.000
418.315; 1752.075;  214.475;    0.000
418.369; 1762.075;  269.475;    0.000
418.422; 1774.075;  222.475;    0.000
418.476; 1764.075;  226.475;    0.000
418.529; 1782.075;  238.475;    0.000
418.582; 1809.075;  210.475;    0.000
418.636; 1720.075;  221.475;    0.000
418.689; 1702.075;  224.475;    0.000
418.743; 1801.075;  228.475;    0.000
418.796; 1706.075;  192.475;    0.000
418.849; 1724.075;  230.475;    0.000
418.903; 1805.075;  257.475;    0.000
418.956; 1744.075;  241.475;    0.000
419.009; 1706.075;  247.475;    0.000
419.063; 1710.075;  235.475;    0.000
419.116; 1717.075;  218.475;    0.000
419.169; 1748.075;  219.475;    0.000
419.222; 1775.075;  215.475;    0.000
419.276; 1728.075;  202.475;    0.000
419.329; 1750.075;  210.475;    0.000
419.382; 1682.075;  188.475;    0.000
419.435; 1729.075;  222.475;    0.000
419.489; 1739.075;  232.475;    0.000
419.542; 1697.075;  250.475;    0.000
419.595; 1686.075;  240.475;    0.000
419.648; 1654.075;  261.475;    0.000
419.701; 1722.075;  222.475;    0.000
419.755; 1685.075;  233.475;    0.000
419.808; 1698.075;  178.475;    0.000
419.861; 1734.075;  207.475;    0.000
419.914; 1746.075;  223.475;    0.000
419.967; 1736.075;  216.475;    0.000
420.020; 1708.075;  211.475;    0.000
420.073; 1710.075;  200.475;    0.000
420.127; 1664.075;  248.475;    0.000
420.180; 1676.075;  220.475;    0.000
420.233; 1709.075;  215.475;    0.000
420.286; 1763.075;  222.475;    0.000
420.339; 1740.075;  229.475;    0.000
420.392; 1743.075;  245.475;    0.000
420.445; 1659.075;  221.475;    0.000
420.498; 1684.075;  224.475;    0.000
420.551; 1687.075;  170.475;    0.000
420.604; 1675.075;  237.475;    0.000
420.657; 1731.075;  235.475;    0.000
420.710; 1741.075;  223.475;    0.000
420.763; 1665.075;  219.475;    0.000
420.816; 1719.075;  200.475;    0.000
420.869; 1709.075;  197.475;    0.000
420.922; 1653.075;  212.475;    0.000
420.975; 1774.075;  274.475;    0.000
421.028; 1710.075;  228.475;    0.000
421.081; 1645.075;  243.475;    0.000
421.134; 1688.075;  227.475;    0.000
421.187; 1656.075;  245.475;    0.000
421.239; 1618.075;  210.475;    0.000
421.292; 1698.075;  193.475;    0.000
421.345; 1646.075;  226.475;    0.000
421.398; 1605.075;  226.475;    0.000
421.451; 1737.075;  259.475;    0.000
421.504; 1678.075;  204.475;    0.000
421.557; 1680.075;  215.475;    0.000
421.609; 1638.075;  194.475;    0.000
421.662; 1662.075;  216.475;    0.000
421.715; 1674.075;  226.475;    0.000
421.768; 1678.075;  177.475;    0.000
421.821; 1657.075;  210.475;    0.000
421.873; 1660.075;  208.475;    0.000
421.926; 1728.075;  223.475;    0.000
421.979; 1630.075;  230.475;    0.000
422.032; 1658.075;  227.475;    0.000
422.084; 1710.075;  234.475;    0.000
422.137; 1679.075;  207.475;    0.000
422.190; 1637.075;  228.475;    0.000
422.243; 1658.075;  206.475;    0.000
422.295; 1684.075;  236.475;    0.000
422.348; 1652.075;  232.475;    0.000
422.401; 1633.075;  228.475;    0.000
422.453; 1624.075;  239.475;    0.000
422.506; 1636.075;  226.475;    0.000
422.559; 1645.075;  205.475;    0.000
422.611; 1609.075;  235.475;    0.000
422.664; 1630.075;  231.475;    0.000
422.716; 1647.075;  228.475;    0.000
422.769; 1597.075;  204.475;    0.000
422.822; 1658.075;  205.475;    0.000
422.874; 1640.075;  228.475;    0.000
422.927; 1650.075;  266.475;    0.000
422.979; 1605.075;  223.475;    0.000
423.032; 1580.075;  207.475;    0.000
423.084; 1652.075;  211.475;    0.000
423.137; 1657.075;  205.475;    0.000
423.189; 1656.075;  254.475;    0.000
423.242; 1620.075;  208.475;    0.000
423.294; 1611.075;  240.475;    0.000
423.347; 1633.075;  218.475;    0.000
423.399; 1626.075;  237.475;    0.000
423.452; 1561.075;  242.475;    0.000
423.504; 1655.075;  225.475;    0.000
423.557; 1605.075;  195.475;    0.000
423.609; 1570.075;  206.475;    0.000
423.662; 1614.075;  211.475;    0.000
423.714; 1634.075;  252.475;    0.000
423.766; 1635.075;  181.475;    0.000
423.819; 1560.075;  216.475;    0.000
423.871; 1580.075;  216.475;    0.000
423.923; 1538.075;  222.475;    0.000
423.976; 1590.075;  223.475;    0.000
424.028; 1537.075;  229.475;    0.000
424.081; 1589.075;  267.475;    0.000
424.133; 1597.075;  251.475;    0.000
424.185; 1594.075;  238.475;    0.000
424.238; 1652.075;  220.475;    0.000
424.290; 1610.075;  259.475;    0.000
424.342; 1550.075;  248.475;    0.000
424.394; 1626.075;  234.475;    0.000
424.447; 1616.075;  248.475;    0.000
424.499; 1559.075;  233.475;    0.000
424.551; 1652.075;  236.475;    0.000
424.603; 1616.075;  207.475;    0.000
424.656; 1612.075;  210.475;    0.000
424.708; 1597.075;  251.475;    0.000
424.760; 1593.075;  221.475;    0.000
424.812; 1559.075;  275.475;    0.000
424.864; 1637.075;  206.475;    0.000
424.917; 1543.075;  198.475;    0.000
424.969; 1668.075;  246.475;    0.000
425.021; 1568.075;  209.475;    0.000
425.073; 1555.075;  242.475;    0.000
425.125; 1632.075;  254.475;    0.000
425.177; 1555.075;  224.475;    0.000
425.229; 1625.075;  256.475;    0.000
425.282; 1633.075;  265.475;    0.000
425.334; 1561.075;  266.475;    0.000
425.386; 1615.075;  242.475;    0.000
425.438; 1501.075;  205.475;    0.000
425.490; 1526.075;  227.475;    0.000
425.542; 1516.075;  235.475;    0.000
425.594; 1540.075;  210.475;    0.000
425.646; 1603.075;  232.475;    0.000
425.698; 1492.075;  243.475;    0.000
425.750; 1590.075;  230.475;    0.000
425.802; 1605.075;  218.475;    0.000
425.854; 1591.075;  222.475;    0.000
425.906; 1571.075;  235.475;    0.000
425.958; 1609.075;  220.475;    0.000
426.010; 1518.075;  236.475;    0.000
426.062; 1532.075;  230.475;    0.000
426.114; 1493.075;  216.475;    0.000
426.166; 1575.075;  230.475;    0.000
426.218; 1554.075;  237.475;    0.000
426.270; 1570.075;  217.475;    0.000
426.321; 1577.075;  224.475;    0.000
426.373; 1540.075;  207.475;    0.000
426.425; 1567.075;  278.475;    0.000
426.477; 1484.075;  243.475;    0.000
426.529; 1580.075;  247.475;    0.000
426.581; 1554.075;  229.475;    0.000
426.633; 1513.075;  212.475;    0.000
426.684; 1533.075;  244.475;    0.000
426.736; 1471.075;  250.475;    0.000
426.788; 1591.075;  210.475;    0.000
426.840; 1466.075;  201.475;    0.000
426.892; 1588.075;  225.475;    0.000
426.943; 1568.075;  215.475;    0.000
426.995; 1549.075;  216.475;    0.000
427.047; 1587.075;  216.475;    0.000
427.099; 1554.075;  203.475;    0.000
427.150; 1475.075;  195.475;    0.000
427.202; 1453.075;  212.475;    0.000
427.254; 1486.075;  233.475;    0.000
427.306; 1459.075;  211.475;    0.000
427.357; 1584.075;  210.475;    0.000
427.409; 1549.075;  244.475;    0.000
427.461; 1484.075;  187.475;    0.000
427.512; 1520.075;  227.475;    0.000
427.564; 1539.075;  210.475;    0.000
427.616; 1531.075;  202.475;    0.000
427.667; 1530.075;  185.475;    0.000
427.719; 1483.075;  222.475;    0.000
427.770; 1555.075;  230.475;    0.000
427.822; 1555.075;  254.475;    0.000
427.874; 1523.075;  222.475;    0.000
427.925; 1516.075;  199.475;    0.000
427.977; 1501.075;  228.475;    0.000
428.028; 1541.075;  226.475;    0.000
428.080; 1541.075;  236.475;    0.000
428.131; 1529.075;  220.475;    0.000
428.183; 1517.075;  256.475;    0.000
428.234; 1528.075;  217.475;    0.000
428.286; 1544.075;  234.475;    0.000
428.337; 1528.075;  209.475;    0.000
428.389; 1530.075;  219.475;    0.000
428.440; 1530.075;  249.475;    0.000
428.492; 1539.075;  255.475;    0.000
428.543; 1517.075;  224.475;    0.000
428.595; 1509.075;  225.475;    0.000
428.646; 1602.075;  240.475;    0.000
428.697; 1492.075;  211.475;    0.000
428.749; 1501.075;  200.475;    0.000
428.800; 1524.075;  235.475;    0.000
428.852; 1498.075;  265.475;    0.000
428.903; 1474.075;  201.475;    0.000
428.954; 1475.075;  242.475;    0.000
429.006; 1494.075;  245.475;    0.000
429.057; 1457.075;  252.475;    0.000
429.108; 1432.075;  211.475;    0.000
429.160; 1440.075;  217.475;    0.000
429.211; 1575.075;  234.475;    0.000
429.262; 1470.075;  205.475;    0.000
429.314; 1486.075;  211.475;    0.000
429.365; 1479.075;  240.475;    0.000
429.416; 1507.075;  263.475;    0.000
429.467; 1491.075;  244.475;    0.000
429.519; 1504.075;  223.475;    0.000
429.570; 1420.075;  214.475;    0.000
429.621; 1509.075;  235.475;    0.000
429.672; 1429.075;  202.475;    0.000
429.724; 1449.075;  189.475;    0.000
429.775; 1455.075;  214.475;    0.000
429.826; 1415.075;  178.475;    0.000
429.877; 1478.075;  224.475;    0.000
429.928; 1488.075;  230.475;    0.000
429.980; 1432.075;  199.475;    0.000
430.031; 1501.075;  208.475;    0.000
430.082; 1453.075;  224.475;    0.000
430.133; 1466.075;  193.475;    0.000
430.184; 1501.075;  220.475;    0.000
430.235; 1397.075;  184.475;    0.000
430.286; 1488.075;  197.475;    0.000
430.337; 1448.075;  199.475;    0.000
430.388; 1440.075;  207.475;    0.000
430.439; 1492.075;  227.475;    0.000
430.490; 1486.075;  215.475;    0.000
430.542; 1451.075;  211.475;    0.000
430.593; 1451.075;  230.475;    0.000
430.644; 1465.075;  186.475;    0.000
430.695; 1441.075;  232.475;    0.000
430.746; 1464.075;  214.475;    0.000
430.797; 1423.075;  260.475;    0.000
430.848; 1495.075;  214.475;    0.000
430.898; 1332.075;  204.475;    0.000
430.949; 1448.075;  189.475;    0.000
431.000; 1425.075;  240.475;    0.000
431.051; 1453.075;  201.475;    0.000
431.102; 1465.075;  188.475;    0.000
431.153; 1465.075;  209.475;    0.000
431.204; 1423.075;  187.475;    0.000
431.255; 1376.075;  171.475;    0.000
431.306; 1422.075;  181.475;    0.000
431.357; 1406.075;  221.475;    0.000
431.408; 1420.075;  217.475;    0.000
431.458; 1431.075;  206.475;    0.000
431.509; 1451.075;  194.475;    0.000
431.560; 1502.075;  235.475;    0.000
431.611; 1424.075;  213.475;    0.000
431.662; 1493.075;  237.475;    0.000
431.713; 1525.075;  220.475;    0.000
431.763; 1521.075;  212.475;    0.000
431.814; 1516.075;  238.475;    0.000
431.865; 1457.075;  213.475;    0.000
431.916; 1484.075;  191.475;    0.000
431.966; 1420.075;  171.475;    0.000
432.017; 1494.075;  263.475;    0.000
432.068; 1449.075;  240.475;    0.000
432.118; 1484.075;  235.475;    0.000
432.169; 1371.075;  212.475;    0.000
432.220; 1471.075;  188.475;    0.000
432.271; 1462.075;  216.475;    0.000
432.321; 1432.075;  223.475;    0.000
432.372; 1463.075;  254.475;    0.000
432.423; 1417.075;  193.475;    0.000
432.473; 1463.075;  219.475;    0.000
432.524; 1434.075;  215.475;    0.000
432.574; 1467.075;  234.475;    0.000
432.625; 1407.075;  226.475;    0.000
432.676; 1428.075;  219.475;    0.000
432.726; 1537.075;  254.475;    0.000
432.777; 1416.075;  210.475;    0.000
432.827; 1449.075;  234.475;    0.000
432.878; 1463.075;  212.475;    0.000
432.928; 1443.075;  238.475;    0.000
432.979; 1498.075;  252.475;    0.000
433.029; 1455.075;  222.475;    0.000
433.080; 1438.075;  188.475;    0.000
433.130; 1417.075;  223.475;    0.000
433.181; 1535.075;  254.475;    0.000
433.231; 1418.075;  237.475;    0.000
433.282; 1503.075;  242.475;    0.000
433.332; 1440.075;  261.475;    0.000
433.383; 1468.075;  266.475;    0.000
433.433; 1437.075;  286.475;    0.000
433.484; 1466.075;  231.475;    0.000
433.534; 1445.075;  256.475;    0.000
433.585; 1465.075;  253.475;    0.000
433.635; 1487.075;  228.475;    0.000
433.685; 1476.075;  226.475;    0.000
433.736; 1478.075;  276.475;    0.000
433.786; 1452.075;  253.475;    0.000
433.836; 1440.075;  289.475;    0.000
433.887; 1453.075;  241.475;    0.000
433.937; 1499.075;  252.475;    0.000
433.987; 1416.075;  223.475;    0.000
434.038; 1505.075;  241.475;    0.000
434.088; 1417.075;  231.475;    0.000
434.138; 1446.075;  259.475;    0.000
434.189; 1439.075;  263.475;    0.000
434.239; 1493.075;  194.475;    0.000
434.289; 1414.075;  273.475;    0.000
434.339; 1410.075;  212.475;    0.000
434.389; 1508.075;  248.475;    0.000
434.440; 1485.075;  250.475;    0.000
434.490; 1508.075;  278.475;    0.000
434.540; 1484.075;  241.475;    0.000
434.590; 1504.075;  251.475;    0.000
434.640; 1463.075;  207.475;    0.000
434.691; 1478.075;  242.475;    0.000
434.741; 1447.075;  218.475;    0.000
434.791; 1443.075;  267.475;    0.000
434.841; 1465.075;  272.475;    0.000
434.891; 1485.075;  260.475;    0.000
434.941; 1498.075;  258.475;    0.000
434.991; 1453.075;  264.475;    0.000
435.042; 1493.075;  264.475;    0.000
435.092; 1506.075;  271.475;    0.000
435.142; 1482.075;  229.475;    0.000
435.192; 1420.075;  226.475;    0.000
435.242; 1472.075;  253.475;    0.000
435.292; 1412.075;  215.475;    0.000
435.342; 1486.075;  240.475;    0.000
435.392; 1442.075;  235.475;    0.000
435.442; 1423.075;  230.475;    0.000
435.492; 1403.075;  235.475;    0.000
435.542; 1433.075;  230.475;    0.000
435.592; 1380.075;  239.475;    0.000
435.642; 1450.075;  244.475;    0.000
435.692; 1463.075;  236.475;    0.000
435.742; 1461.075;  236.475;    0.000
435.792; 1452.075;  230.475;    0.000
435.842; 1441.075;  248.475;    0.000
435.891; 1458.075;  233.475;    0.000
435.941; 1453.075;  243.475;    0.000
435.991; 1476.075;  279.475;    0.000
436.041; 1459.075;  204.475;    0.000
436.091; 1534.075;  217.475;    0.000
436.141; 1418.075;  205.475;    0.000
436.191; 1414.075;  220.475;    0.000
436.241; 1437.075;  248.475;    0.000
436.290; 1447.075;  255.475;    0.000
436.340; 1428.075;  235.475;    0.000
436.390; 1416.075;  207.475;    0.000
436.440; 1352.075;  207.475;    0.000
436.490; 1392.075;  251.475;    0.000
436.539; 1453.075;  240.475;    0.000
436.589; 1427.075;  198.475;    0.000
436.639; 1417.075;  240.475;    0.000
436.689; 1373.075;  216.475;    0.000
436.738; 1387.075;  246.475;    0.000
436.788; 1340.075;  203.475;    0.000
436.838; 1443.075;  230.475;    0.000
436.887; 1412.075;  235.475;    0.000
436.937; 1396.075;  249.475;    0.000
436.987; 1361.075;  208.475;    0.000
437.036; 1431.075;  232.475;    0.000
437.086; 1415.075;  238.475;    0.000
437.136; 1451.075;  228.475;    0.000
437.185; 1373.075;  219.475;    0.000
437.235; 1460.075;  227.475;    0.000
437.285; 1359.075;  241.475;    0.000
437.334; 1333.075;  216.475;    0.000
437.384; 1387.075;  243.475;    0.000
437.433; 1436.075;  214.475;    0.000
437.483; 1427.075;  246.475;    0.000
437.532; 1381.075;  261.475;    0.000
437.582; 1382.075;  205.475;    0.000
437.631; 1363.075;  218.475;    0.000
437.681; 1361.075;  240.475;    0.000
437.730; 1387.075;  258.475;    0.000
437.780; 1370.075;  237.475;    0.000
437.829; 1350.075;  209.475;    0.000
437.879; 1411.075;  214.475;    0.000
437.928; 1352.075;  223.475;    0.000
437.978; 1357.075;  220.475;    0.000
438.027; 1374.075;  239.475;    0.000
438.077; 1348.075;  231.475;    0.000
438.126; 1357.075;  266.475;    0.000
438.176; 1389.075;  234.475;    0.000
438.225; 1396.075;  237.475;    0.000
438.274; 1376.075;  234.475;    0.000
438.324; 1353.075;  244.475;    0.000
438.373; 1286.075;  232.475;    0.000
438.422; 1346.075;  218.475;    0.000
438.472; 1337.075;  221.475;    0.000
438.521; 1277.075;  190.475;    0.000
438.570; 1376.075;  243.475;    0.000
438.620; 1400.075;  255.475;    0.000
438.669; 1308.075;  210.475;    0.000
438.718; 1394.075;  237.475;    0.000
438.768; 1310.075;  220.475;    0.000
438.817; 1363.075;  218.475;    0.000
438.866; 1355.075;  198.475;    0.000
438.915; 1413.075;  256.475;    0.000
438.965; 1402.075;  221.475;    0.000
439.014; 1368.075;  255.475;    0.000
439.063; 1429.075;  276.475;    0.000
439.112; 1339.075;  220.475;    0.000
439.162; 1382.075;  253.475;    0.000
439.211; 1366.075;  247.475;    0.000
439.260; 1393.075;  220.475;    0.000
439.309; 1346.075;  235.475;    0.000
439.358; 1407.075;  205.475;    0.000
439.407; 1314.075;  207.475;    0.000
439.456; 1392.075;  216.475;    0.000
439.506; 1428.075;  245.475;    0.000
439.555; 1342.075;  264.475;    0.000
439.604; 1385.075;  227.475;    0.000
439.653; 1372.075;  220.475;    0.000
439.702; 1379.075;  223.475;    0.000
439.751; 1315.075;  197.475;    0.000
439.800; 1380.075;  207.475;    0.000
439.849; 1368.075;  238.475;    0.000
439.898; 1425.075;  209.475;    0.000
439.947; 1275.075;  170.475;    0.000
439.996; 1381.075;  233.475;    0.000
440.045; 1387.075;  222.475;    0.000
440.094; 1385.075;  240.475;    0.000
440.143; 1402.075;  249.475;    0.000
440.192; 1431.075;  252.475;    0.000
440.241; 1320.075;  239.475;    0.000
440.290; 1365.075;  234.475;    0.000
440.339; 1328.075;  241.475;    0.000
440.388; 1370.075;  239.475;    0.000
440.437; 1411.075;  231.475;    0.000
440.486; 1333.075;  254.475;    0.000
440.535; 1388.075;  266.475;    0.000
440.583; 1397.075;  205.475;    0.000
440.632; 1410.075;  234.475;    0.000
440.681; 1399.075;  218.475;    0.000
440.730; 1402.075;  248.475;    0.000
440.779; 1427.075;  246.475;    0.000
440.828; 1392.075;  235.475;    0.000
440.876; 1338.075;  218.475;    0.000
440.925; 1401.075;  228.475;    0.000
440.974; 1428.075;  249.475;    0.000
441.023; 1425.075;  192.475;    0.000
441.072; 1407.075;  226.475;    0.000
441.120; 1464.075;  238.475;    0.000
441.169; 1452.075;  255.475;    0.000
441.218; 1421.075;  233.475;    0.000
441.267; 1362.075;  231.475;    0.000
441.315; 1467.075;  214.475;    0.000
441.364; 1425.075;  250.475;    0.000
441.413; 1445.075;  228.475;    0.000
441.461; 1392.075;  209.475;    0.000
441.510; 1392.075;  260.475;    0.000
441.559; 1471.075;  230.475;    0.000
441.607; 1436.075;  220.475;    0.000
441.656; 1452.075;  251.475;    0.000
441.705; 1397.075;  237.475;    0.000
441.753; 1433.075;  257.475;    0.000
441.802; 1485.075;  256.475;    0.000
441.850; 1399.075;  253.475;    0.000
441.899; 1437.075;  212.475;    0.000
441.948; 1450.075;  251.475;    0.000
441.996; 1456.075;  239.475;    0.000
442.045; 1442.075;  223.475;    0.000
442.093; 1393.075;  211.475;    0.000
442.142; 1452.075;  235.475;    0.000
442.190; 1462.075;  254.475;    0.000
442.239; 1367.075;  226.475;    0.000
442.287; 1456.075;  242.475;    0.000
442.336; 1416.075;  256.475;    0.000
442.384; 1405.075;  252.475;    0.000
442.433; 1442.075;  262.475;    0.000
442.481; 1461.075;  246.475;    0.000
442.529; 1429.075;  290.475;    0.000
442.578; 1463.075;  247.475;    0.000
442.626; 1368.075;  247.475;    0.000
442.675; 1418.075;  272.475;    0.000
442.723; 1382.075;  230.475;    0.000
442.771; 1436.075;  234.475;    0.000
442.820; 1455.075;  224.475;    0.000
442.868; 1411.075;  246.475;    0.000
442.917; 1408.075;  249.475;    0.000
442.965; 1398.075;  260.475;    0.000
443.013; 1357.075;  258.475;    0.000
443.062; 1425.075;  259.475;    0.000
443.110; 1385.075;  226.475;    0.000
443.158; 1393.075;  213.475;    0.000
443.206; 1406.075;  201.475;    0.000
443.255; 1414.075;  280.475;    0.000
443.303; 1412.075;  292.475;    0.000
443.351; 1486.075;  256.475;    0.000
443.399; 1424.075;  215.475;    0.000
443.448; 1444.075;  243.475;    0.000
443.496; 1456.075;  249.475;    0.000
443.544; 1451.075;  231.475;    0.000
443.592; 1426.075;  243.475;    0.000
443.640; 1499.075;  252.475;    0.000
443.689; 1435.075;  220.475;    0.000
443.737; 1493.075;  231.475;    0.000
443.785; 1443.075;  256.475;    0.000
443.833; 1506.075;  268.475;    0.000
443.881; 1435.075;  181.475;    0.000
443.929; 1495.075;  245.475;    0.000
443.977; 1438.075;  278.475;    0.000
444.025; 1419.075;  245.475;    0.000
444.074; 1464.075;  233.475;    0.000
444.122; 1471.075;  267.475;    0.000
444.170; 1441.075;  247.475;    0.000
444.218; 1470.075;  246.475;    0.000
444.266; 1477.075;  275.475;    0.000
444.314; 1453.075;  263.475;    0.000
444.362; 1443.075;  240.475;    0.000
444.410; 1462.075;  220.475;    0.000
444.458; 1520.075;  258.475;    0.000
444.506; 1470.075;  258.475;    0.000
444.554; 1396.075;  224.475;    0.000
444.602; 1525.075;  245.475;    0.000
444.650; 1428.075;  261.475;    0.000
444.698; 1445.075;  232.475;    0.000
444.746; 1438.075;  206.475;    0.000
444.793; 1461.075;  249.475;    0.000
444.841; 1542.075;  261.475;    0.000
444.889; 1511.075;  221.475;    0.000
444.937; 1476.075;  215.475;    0.000
444.985; 1486.075;  244.475;    0.000
445.033; 1434.075;  211.475;    0.000
445.081; 1430.075;  225.475;    0.000
445.129; 1457.075;  217.475;    0.000
445.176; 1503.075;  196.475;    0.000
445.224; 1496.075;  211.475;    0.000
445.272; 1480.075;  242.475;    0.000
445.320; 1468.075;  225.475;    0.000
445.368; 1486.075;  249.475;    0.000
445.415; 1491.075;  243.475;    0.000
445.463; 1473.075;  242.475;    0.000
445.511; 1531.075;  248.475;    0.000
445.559; 1475.075;  219.475;    0.000
445.606; 1540.075;  221.475;    0.000
445.654; 1519.075;  202.475;    0.000
445.702; 1456.075;  210.475;    0.000
445.749; 1499.075;  249.475;    0.000
445.797; 1493.075;  206.475;    0.000
445.845; 1511.075;  213.475;    0.000
445.892; 1461.075;  224.475;    0.000
445.940; 1479.075;  214.475;    0.000
445.988; 1539.075;  247.475;    0.000
446.035; 1466.075;  204.475;    0.000
446.083; 1559.075;  235.475;    0.000
446.130; 1488.075;  195.475;    0.000
446.178; 1577.075;  236.475;    0.000
446.226; 1483.075;  218.475;    0.000
446.273; 1528.075;  215.475;    0.000
446.321; 1475.075;  222.475;    0.000
446.368; 1517.075;  228.475;    0.000
446.416; 1512.075;  223.475;    0.000
446.463; 1501.075;  220.475;    0.000
446.511; 1523.075;  198.475;    0.000
446.558; 1507.075;  208.475;    0.000
446.606; 1646.075;  253.475;    0.000
446.653; 1543.075;  198.475;    0.000
446.701; 1534.075;  231.475;    0.000
446.748; 1585.075;  224.475;    0.000
446.796; 1529.075;  201.475;    0.000
446.843; 1588.075;  257.475;    0.000
446.891; 1573.075;  218.475;    0.000
446.938; 1564.075;  232.475;    0.000
446.985; 1524.075;  229.475;    0.000
447.033; 1542.075;  251.475;    0.000
447.080; 1681.075;  257.475;    0.000
447.128; 1618.075;  232.475;    0.000
447.175; 1597.075;  269.475;    0.000
447.222; 1569.075;  185.475;    0.000
447.270; 1670.075;  264.475;    0.000
447.317; 1590.075;  225.475;    0.000
447.364; 1620.075;  243.475;    0.000
447.411; 1676.075;  263.475;    0.000
447.459; 1658.075;  257.475;    0.000
447.506; 1644.075;  175.475;    0.000
447.553; 1680.075;  203.475;    0.000
447.601; 1713.075;  238.475;    0.000
447.648; 1685.075;  244.475;    0.000
447.695; 1766.075;  249.475;    0.000
447.742; 1771.075;  234.475;    0.000
447.789; 1741.075;  228.475;    0.000
447.837; 1824.075;  258.475;    0.000
447.884; 1756.075;  243.475;    0.000
447.931; 1834.075;  235.475;    0.000
447.978; 1787.075;  224.475;    0.000
448.025; 1826.075;  245.475;    0.000
448.072; 1809.075;  212.475;    0.000
448.120; 1783.075;  256.475;    0.000
448.167; 1852.075;  240.475;    0.000
448.214; 1789.075;  247.475;    0.000
448.261; 1786.075;  245.475;    0.000
448.308; 1758.075;  273.475;    0.000
448.355; 1773.075;  257.475;    0.000
448.402; 1695.075;  259.475;    0.000
448.449; 1784.075;  238.475;    0.000
448.496; 1670.075;  245.475;    0.000
448.543; 1698.075;  217.475;    0.000
448.590; 1710.075;  269.475;    0.000
448.637; 1665.075;  250.475;    0.000
448.684; 1695.075;  250.475;    0.000
448.731; 1644.075;  235.475;    0.000
448.778; 1656.075;  265.475;    0.000
448.825; 1586.075;  257.475;    0.000
448.872; 1596.075;  234.475;    0.000
448.919; 1613.075;  216.475;    0.000
448.966; 1653.075;  274.475;    0.000
449.013; 1625.075;  263.475;    0.000
449.060; 1532.075;  247.475;    0.000
449.107; 1577.075;  218.475;    0.000
449.154; 1578.075;  225.475;    0.000
449.200; 1532.075;  212.475;    0.000
449.247; 1638.075;  242.475;    0.000
449.294; 1579.075;  228.475;    0.000
449.341; 1536.075;  232.475;    0.000
449.388; 1554.075;  247.475;    0.000
449.435; 1543.075;  227.475;    0.000
449.481; 1552.075;  270.475;    0.000
449.528; 1529.075;  265.475;    0.000
449.575; 1611.075;  255.475;    0.000
449.622; 1560.075;  210.475;    0.000
449.668; 1541.075;  234.475;    0.000
449.715; 1547.075;  262.475;    0.000
449.762; 1460.075;  247.475;    0.000
449.809; 1531.075;  286.475;    0.000
449.855; 1519.075;  246.475;    0.000
449.902; 1478.075;  224.475;    0.000
449.949; 1503.075;  244.475;    0.000
449.995; 1521.075;  274.475;    0.000
450.042; 1471.075;  272.475;    0.000
450.089; 1467.075;  274.475;    0.000
450.135; 1514.075;  285.475;    0.000
450.182; 1545.075;  251.475;    0.000
450.229; 1462.075;  242.475;    0.000
450.275; 1489.075;  277.475;    0.000
450.322; 1419.075;  260.475;    0.000
450.368; 1494.075;  257.475;    0.000
450.415; 1530.075;  276.475;    0.000
450.462; 1446.075;  298.475;    0.000
450.508; 1418.075;  255.475;    0.000
450.555; 1449.075;  271.475;    0.000
450.601; 1442.075;  281.475;    0.000
450.648; 1498.075;  249.475;    0.000
450.694; 1482.075;  270.475;    0.000
450.741; 1482.075;  256.475;    0.000
450.787; 1490.075;  292.475;    0.000
450.834; 1416.075;  221.475;    0.000
450.880; 1442.075;  265.475;    0.000
450.927; 1424.075;  242.475;    0.000
450.973; 1426.075;  259.475;    0.000
451.019; 1404.075;  221.475;    0.000
451.066; 1419.075;  257.475;    0.000
451.112; 1390.075;  251.475;    0.000
451.159; 1429.075;  278.475;    0.000
451.205; 1444.075;  274.475;    0.000
451.251; 1447.075;  281.475;    0.000
451.298; 1469.075;  273.475;    0.000
451.344; 1432.075;  246.475;    0.000
451.390; 1526.075;  286.475;    0.000
451.437; 1425.075;  268.475;    0.000
451.483; 1447.075;  315.475;    0.000
451.529; 1350.075;  251.475;    0.000
451.576; 1361.075;  306.475;    0.000
451.622; 1358.075;  234.475;    0.000
451.668; 1454.075;  243.475;    0.000
451.714; 1377.075;  256.475;    0.000
451.761; 1390.075;  264.475;    0.000
451.807; 1406.075;  284.475;    0.000
451.853; 1420.075;  282.475;    0.000
451.899; 1390.075;  240.475;    0.000
451.945; 1436.075;  263.475;    0.000
451.992; 1384.075;  255.475;    0.000
452.038; 1364.075;  273.475;    0.000
452.084; 1337.075;  274.475;    0.000
452.130; 1402.075;  261.475;    0.000
452.176; 1359.075;  246.475;    0.000
452.222; 1365.075;  238.475;    0.000
452.268; 1387.075;  267.475;    0.000
452.315; 1382.075;  274.475;    0.000
452.361; 1370.075;  241.475;    0.000
452.407; 1375.075;  274.475;    0.000
452.453; 1434.075;  260.475;    0.000
452.499; 1429.075;  232.475;    0.000
452.545; 1362.075;  252.475;    0.000
452.591; 1378.075;  263.475;    0.000
452.637; 1323.075;  208.475;    0.000
452.683; 1298.075;  237.475;    0.000
452.729; 1374.075;  263.475;    0.000
452.775; 1342.075;  291.475;    0.000
452.821; 1386.075;  238.475;    0.000
452.867; 1327.075;  223.475;    0.000
452.913; 1358.075;  257.475;    0.000
452.959; 1272.075;  238.475;    0.000
453.005; 1354.075;  252.475;    0.000
453.051; 1320.075;  260.475;    0.000
453.097; 1395.075;  268.475;    0.000
453.142; 1364.075;  231.475;    0.000
453.188; 1429.075;  266.475;    0.000
453.234; 1406.075;  233.475;    0.000
453.280; 1363.075;  219.475;    0.000
453.326; 1351.075;  265.475;    0.000
453.372; 1349.075;  238.475;    0.000
453.418; 1342.075;  240.475;    0.000
453.463; 1378.075;  219.475;    0.000
453.509; 1361.075;  264.475;    0.000
453.555; 1315.075;  247.475;    0.000
453.601; 1338.075;  230.475;    0.000
453.647; 1320.075;  285.475;    0.000
453.692; 1270.075;  240.475;    0.000
453.738; 1294.075;  233.475;    0.000
453.784; 1315.075;  230.475;    0.000
453.829; 1326.075;  246.475;    0.000
453.875; 1327.075;  261.475;    0.000
453.921; 1278.075;  203.475;    0.000
453.967; 1360.075;  241.475;    0.000
454.012; 1347.075;  250.475;    0.000
454.058; 1328.075;  252.475;    0.000
454.104; 1345.075;  239.475;    0.000
454.149; 1320.075;  250.475;    0.000
454.195; 1347.075;  243.475;    0.000
454.240; 1387.075;  252.475;    0.000
454.286; 1321.075;  245.475;    0.000
454.332; 1404.075;  286.475;    0.000
454.377; 1309.075;  254.475;    0.000
454.423; 1363.075;  246.475;    0.000
454.468; 1319.075;  235.475;    0.000
454.514; 1322.075;  231.475;    0.000
454.559; 1443.075;  246.475;    0.000
454.605; 1314.075;  204.475;    0.000
454.650; 1327.075;  272.475;    0.000
454.696; 1359.075;  222.475;    0.000
454.741; 1338.075;  290.475;    0.000
454.787; 1301.075;  262.475;    0.000
454.832; 1374.075;  227.475;    0.000
454.878; 1363.075;  241.475;    0.000
454.923; 1319.075;  272.475;    0.000
454.969; 1376.075;  290.475;    0.000
455.014; 1314.075;  278.475;    0.000
455.060; 1316.075;  246.475;    0.000
455.105; 1287.075;  231.475;    0.000
455.150; 1385.075;  265.475;    0.000
455.196; 1341.075;  266.475;    0.000
455.241; 1408.075;  258.475;    0.000
455.286; 1343.075;  266.475;    0.000
455.332; 1305.075;  252.475;    0.000
455.377; 1252.075;  219.475;    0.000
455.422; 1332.075;  262.475;    0.000
455.468; 1321.075;  260.475;    0.000
455.513; 1329.075;  212.475;    0.000
455.558; 1306.075;  197.475;    0.000
455.604; 1379.075;  262.475;    0.000
455.649; 1395.075;  238.475;    0.000
455.694; 1370.075;  221.475;    0.000
455.739; 1330.075;  251.475;    0.000
455.785; 1384.075;  287.475;    0.000
455.830; 1391.075;  284.475;    0.000
455.875; 1323.075;  234.475;    0.000
455.920; 1308.075;  215.475;    0.000
455.965; 1272.075;  256.475;    0.000
456.010; 1399.075;  266.475;    0.000
456.056; 1333.075;  263.475;    0.000
456.101; 1349.075;  240.475;    0.000
456.146; 1325.075;  258.475;    0.000
456.191; 1383.075;  241.475;    0.000
456.236; 1373.075;  252.475;    0.000
456.281; 1264.075;  218.475;    0.000
456.326; 1298.075;  251.475;    0.000
456.371; 1386.075;  256.475;    0.000
456.416; 1341.075;  301.475;    0.000
456.461; 1354.075;  233.475;    0.000
456.507; 1315.075;  218.475;    0.000
456.552; 1376.075;  278.475;    0.000
456.597; 1336.075;  223.475;    0.000
456.642; 1332.075;  203.475;    0.000
456.687; 1346.075;  245.475;    0.000
456.732; 1359.075;  256.475;    0.000
456.776; 1341.075;  244.475;    0.000
456.821; 1367.075;  276.475;    0.000
456.866; 1311.075;  232.475;    0.000
456.911; 1338.075;  225.475;    0.000
456.956; 1357.075;  237.475;    0.000
457.001; 1306.075;  261.475;    0.000
457.046; 1379.075;  205.475;    0.000
457.091; 1335.075;  241.475;    0.000
457.136; 1296.075;  217.475;    0.000
457.181; 1288.075;  251.475;    0.000
457.225; 1390.075;  241.475;    0.000
457.270; 1351.075;  237.475;    0.000
457.315; 1359.075;  279.475;    0.000
457.360; 1253.075;  245.475;    0.000
457.405; 1347.075;  202.475;    0.000
457.450; 1342.075;  247.475;    0.000
457.494; 1291.075;  243.475;    0.000
457.539; 1299.075;  222.475;    0.000
457.584; 1372.075;  239.475;    0.000
457.629; 1265.075;  236.475;    0.000
457.673; 1320.075;  234.475;    0.000
457.718; 1333.075;  202.475;    0.000
457.763; 1287.075;  274.475;    0.000
457.807; 1351.075;  236.475;    0.000
457.852; 1286.075;  265.475;    0.000
457.897; 1369.075;  252.475;    0.000
457.941; 1368.075;  264.475;    0.000
457.986; 1391.075;  280.475;    0.000
458.031; 1351.075;  217.475;    0.000
458.075; 1312.075;  249.475;    0.000
458.120; 1344.075;  257.475;    0.000
458.165; 1401.075;  183.475;    0.000
458.209; 1387.075;  245.475;    0.000
458.254; 1365.075;  245.475;    0.000
458.298; 1397.075;  265.475;    0.000
458.343; 1361.075;  241.475;    0.000
458.387; 1430.075;  262.475;    0.000
458.432; 1407.075;  245.475;    0.000
458.476; 1360.075;  255.475;    0.000
458.521; 1362.075;  269.475;    0.000
458.565; 1376.075;  265.475;    0.000
458.610; 1328.075;  222.475;    0.000
458.654; 1413.075;  257.475;    0.000
458.699; 1395.075;  296.475;    0.000
458.743; 1336.075;  203.475;    0.000
458.788; 1453.075;  267.475;    0.000
458.832; 1457.075;  274.475;    0.000
458.877; 1412.075;  251.475;    0.000
458.921; 1397.075;  237.475;    0.000
458.965; 1415.075;  264.475;    0.000
459.010; 1416.075;  256.475;    0.000
459.054; 1382.075;  280.475;    0.000
459.099; 1381.075;  240.475;    0.000
459.143; 1484.075;  287.475;    0.000
459.187; 1453.075;  257.475;    0.000
459.231; 1415.075;  273.475;    0.000
459.276; 1390.075;  231.475;    0.000
459.320; 1456.075;  261.475;    0.000
459.364; 1469.075;  278.475;    0.000
459.409; 1416.075;  249.475;    0.000
459.453; 1383.075;  235.475;    0.000
459.497; 1474.075;  262.475;    0.000
459.541; 1473.075;  269.475;    0.000
459.586; 1410.075;  240.475;    0.000
459.630; 1485.075;  261.475;    0.000
459.674; 1457.075;  276.475;    0.000
459.718; 1426.075;  236.475;    0.000
459.762; 1422.075;  263.475;    0.000
459.807; 1448.075;  263.475;    0.000
459.851; 1462.075;  225.475;    0.000
459.895; 1378.075;  247.475;    0.000
459.939; 1412.075;  231.475;    0.000
459.983; 1418.075;  242.475;    0.000
460.027; 1429.075;  248.475;    0.000
460.071; 1400.075;  273.475;    0.000
460.115; 1450.075;  282.475;    0.000
460.159; 1445.075;  264.475;    0.000
460.204; 1472.075;  288.475;    0.000
460.248; 1412.075;  293.475;    0.000
460.292; 1451.075;  277.475;    0.000
460.336; 1484.075;  250.475;    0.000
460.380; 1452.075;  275.475;    0.000
460.424; 1465.075;  243.475;    0.000
460.468; 1425.075;  277.475;    0.000
460.512; 1471.075;  261.475;    0.000
460.556; 1479.075;  266.475;    0.000
460.599; 1481.075;  246.475;    0.000
460.643; 1486.075;  256.475;    0.000
460.687; 1534.075;  257.475;    0.000
460.731; 1513.075;  235.475;    0.000
460.775; 1463.075;  278.475;    0.000
460.819; 1422.075;  268.475;    0.000
460.863; 1522.075;  257.475;    0.000
460.907; 1442.075;  213.475;    0.000
460.951; 1438.075;  274.475;    0.000
460.995; 1501.075;  258.475;    0.000
461.038; 1510.075;  219.475;    0.000
461.082; 1470.075;  253.475;    0.000
461.126; 1490.075;  281.475;    0.000
461.170; 1458.075;  244.475;    0.000
461.214; 1532.075;  262.475;    0.000
461.257; 1484.075;  284.475;    0.000
461.301; 1486.075;  275.475;    0.000
461.345; 1514.075;  267.475;    0.000
461.389; 1500.075;  255.475;    0.000
461.432; 1419.075;  282.475;    0.000
461.476; 1457.075;  263.475;    0.000
461.520; 1508.075;  260.475;    0.000
461.563; 1462.075;  278.475;    0.000
461.607; 1495.075;  236.475;    0.000
461.651; 1515.075;  262.475;    0.000
461.694; 1458.075;  236.475;    0.000
461.738; 1423.075;  295.475;    0.000
461.782; 1502.075;  252.475;    0.000
461.825; 1493.075;  271.475;    0.000
461.869; 1519.075;  278.475;    0.000
461.913; 1466.075;  255.475;    0.000
461.956; 1521.075;  254.475;    0.000
462.000; 1486.075;  299.475;    0.000
462.043; 1482.075;  282.475;    0.000
462.087; 1485.075;  274.475;    0.000
462.130; 1586.075;  270.475;    0.000
462.174; 1524.075;  274.475;    0.000
462.217; 1524.075;  272.475;    0.000
462.261; 1522.075;  286.475;    0.000
462.304; 1472.075;  236.475;    0.000
462.348; 1526.075;  262.475;    0.000
462.391; 1519.075;  244.475;    0.000
462.435; 1557.075;  321.475;    0.000
462.478; 1522.075;  230.475;    0.000
462.522; 1503.075;  245.475;    0.000
462.565; 1524.075;  278.475;    0.000
462.608; 1625.075;  303.475;    0.000
462.652; 1570.075;  275.475;    0.000
462.695; 1538.075;  314.475;    0.000
462.739; 1563.075;  307.475;    0.000
462.782; 1605.075;  286.475;    0.000
462.825; 1430.075;  312.475;    0.000
462.869; 1594.075;  338.475;    0.000
462.912; 1610.075;  304.475;    0.000
462.955; 1551.075;  288.475;    0.000
462.998; 1578.075;  292.475;    0.000
463.042; 1634.075;  309.475;    0.000
463.085; 1574.075;  292.475;    0.000
463.128; 1584.075;  317.475;    0.000
463.172; 1491.075;  287.475;    0.000
463.215;  350.075;  313.475;    0.000
463.258;  346.075;  295.475;    0.000
463.301;  280.075;  275.475;    0.000
463.344;  363.075;  311.475;    0.000
463.388;  311.075;  296.475;    0.000
463.431;  302.075;  277.475;    0.000
463.474;  334.075;  364.475;    0.000
463.517;  311.075;  306.475;    0.000
463.560;  309.075;  308.475;    0.000
463.603;  347.075;  343.475;    0.000
463.646;  356.075;  309.475;    0.000
463.690;  336.075;  309.475;    0.000
463.733;  313.075;  320.475;    0.000
463.776;  306.075;  299.475;    0.000
463.819;  311.075;  320.475;    0.000
463.862;  317.075;  283.475;    0.000

