
Integration time [ms]:   1.000
Averaging Nr. [scans]: 1
Smoothing Nr. [pixels]: 0
Data measured with spectrometer [name]: UV1
Wave   ;Sample   ;Dark     ;Reference
[nm]   ;[counts] ;[counts] ;[counts] 

236.381;  125.300;  175.825;    0.000
236.451;  176.300;  220.825;    0.000
236.520;  178.300;  178.825;    0.000
236.590;  194.300;  182.825;    0.000
236.660;  187.300;  180.825;    0.000
236.730;  175.300;  201.825;    0.000
236.799;  190.300;  168.825;    0.000
236.869;  161.300;  205.825;    0.000
236.939;  125.300;  175.825;    0.000
237.009;  192.300;  186.825;    0.000
237.078;  170.300;  200.825;    0.000
237.148;  167.300;  156.825;    0.000
237.218;  203.300;  190.825;    0.000
237.287;  195.300;  167.825;    0.000
237.357;  202.300;  213.825;    0.000
237.427;  147.300;  164.825;    0.000
237.496;  564.300;  210.825;    0.000
237.566;  638.300;  193.825;    0.000
237.636;  526.300;  179.825;    0.000
237.705;  607.300;  218.825;    0.000
237.775;  546.300;  160.825;    0.000
237.845;  570.300;  207.825;    0.000
237.914;  533.300;  180.825;    0.000
237.984;  571.300;  207.825;    0.000
238.054;  564.300;  149.825;    0.000
238.123;  571.300;  190.825;    0.000
238.193;  607.300;  167.825;    0.000
238.263;  617.300;  172.825;    0.000
238.332;  524.300;  173.825;    0.000
238.402;  602.300;  214.825;    0.000
238.471;  542.300;  181.825;    0.000
238.541;  578.300;  177.825;    0.000
238.611;  555.300;  138.825;    0.000
238.680;  590.300;  168.825;    0.000
238.750;  563.300;  171.825;    0.000
238.819;  525.300;  156.825;    0.000
238.889;  561.300;  194.825;    0.000
238.958;  580.300;  185.825;    0.000
239.028;  539.300;  170.825;    0.000
239.097;  536.300;  159.825;    0.000
239.167;  613.300;  208.825;    0.000
239.237;  587.300;  167.825;    0.000
239.306;  528.300;  154.825;    0.000
239.376;  516.300;  183.825;    0.000
239.445;  590.300;  221.825;    0.000
239.515;  601.300;  208.825;    0.000
239.584;  550.300;  177.825;    0.000
239.654;  562.300;  133.825;    0.000
239.723;  584.300;  167.825;    0.000
239.793;  577.300;  190.825;    0.000
239.862;  579.300;  192.825;    0.000
239.932;  581.300;  174.825;    0.000
240.001;  571.300;  166.825;    0.000
240.070;  606.300;  179.825;    0.000
240.140;  557.300;  191.825;    0.000
240.209;  540.300;  134.825;    0.000
240.279;  593.300;  185.825;    0.000
240.348;  602.300;  193.825;    0.000
240.418;  527.300;  149.825;    0.000
240.487;  571.300;  197.825;    0.000
240.556;  566.300;  193.825;    0.000
240.626;  585.300;  178.825;    0.000
240.695;  593.300;  194.825;    0.000
240.765;  556.300;  178.825;    0.000
240.834;  576.300;  190.825;    0.000
240.903;  549.300;  212.825;    0.000
240.973;  529.300;  153.825;    0.000
241.042;  529.300;  177.825;    0.000
241.112;  574.300;  193.825;    0.000
241.181;  580.300;  171.825;    0.000
241.250;  517.300;  152.825;    0.000
241.320;  583.300;  176.825;    0.000
241.389;  541.300;  186.825;    0.000
241.458;  533.300;  182.825;    0.000
241.528;  562.300;  175.825;    0.000
241.597;  569.300;  180.825;    0.000
241.666;  560.300;  162.825;    0.000
241.736;  567.300;  187.825;    0.000
241.805;  543.300;  173.825;    0.000
241.874;  611.300;  177.825;    0.000
241.943;  543.300;  208.825;    0.000
242.013;  558.300;  183.825;    0.000
242.082;  580.300;  171.825;    0.000
242.151;  582.300;  208.825;    0.000
242.221;  550.300;  160.825;    0.000
242.290;  586.300;  200.825;    0.000
242.359;  537.300;  167.825;    0.000
242.428;  548.300;  213.825;    0.000
242.498;  501.300;  156.825;    0.000
242.567;  569.300;  200.825;    0.000
242.636;  547.300;  178.825;    0.000
242.705;  573.300;  185.825;    0.000
242.774;  536.300;  190.825;    0.000
242.844;  557.300;  194.825;    0.000
242.913;  577.300;  162.825;    0.000
242.982;  556.300;  189.825;    0.000
243.051;  521.300;  176.825;    0.000
243.120;  564.300;  213.825;    0.000
243.190;  569.300;  155.825;    0.000
243.259;  573.300;  183.825;    0.000
243.328;  526.300;  170.825;    0.000
243.397;  527.300;  224.825;    0.000
243.466;  540.300;  172.825;    0.000
243.535;  537.300;  145.825;    0.000
243.605;  519.300;  157.825;    0.000
243.674;  533.300;  199.825;    0.000
243.743;  584.300;  196.825;    0.000
243.812;  546.300;  152.825;    0.000
243.881;  559.300;  188.825;    0.000
243.950;  570.300;  154.825;    0.000
244.019;  531.300;  195.825;    0.000
244.088;  560.300;  164.825;    0.000
244.158;  599.300;  220.825;    0.000
244.227;  548.300;  150.825;    0.000
244.296;  537.300;  153.825;    0.000
244.365;  522.300;  195.825;    0.000
244.434;  476.300;  136.825;    0.000
244.503;  564.300;  172.825;    0.000
244.572;  572.300;  129.825;    0.000
244.641;  541.300;  132.825;    0.000
244.710;  529.300;  185.825;    0.000
244.779;  512.300;  164.825;    0.000
244.848;  558.300;  132.825;    0.000
244.917;  526.300;  196.825;    0.000
244.986;  473.300;  148.825;    0.000
245.055;  539.300;  192.825;    0.000
245.124;  532.300;  170.825;    0.000
245.193;  533.300;  172.825;    0.000
245.262;  541.300;  146.825;    0.000
245.331;  497.300;  178.825;    0.000
245.400;  490.300;  108.825;    0.000
245.469;  486.300;  173.825;    0.000
245.538;  517.300;  180.825;    0.000
245.607;  559.300;  171.825;    0.000
245.676;  497.300;  149.825;    0.000
245.745;  495.300;  194.825;    0.000
245.814;  493.300;  186.825;    0.000
245.883;  549.300;  192.825;    0.000
245.952;  472.300;  169.825;    0.000
246.021;  481.300;  190.825;    0.000
246.090;  518.300;  181.825;    0.000
246.159;  477.300;  179.825;    0.000
246.227;  485.300;  182.825;    0.000
246.296;  504.300;  182.825;    0.000
246.365;  511.300;  171.825;    0.000
246.434;  519.300;  218.825;    0.000
246.503;  469.300;  147.825;    0.000
246.572;  509.300;  227.825;    0.000
246.641;  474.300;  193.825;    0.000
246.710;  488.300;  207.825;    0.000
246.779;  482.300;  181.825;    0.000
246.847;  469.300;  179.825;    0.000
246.916;  467.300;  155.825;    0.000
246.985;  519.300;  168.825;    0.000
247.054;  464.300;  137.825;    0.000
247.123;  481.300;  128.825;    0.000
247.192;  487.300;  163.825;    0.000
247.260;  466.300;  173.825;    0.000
247.329;  466.300;  174.825;    0.000
247.398;  528.300;  238.825;    0.000
247.467;  475.300;  168.825;    0.000
247.536;  564.300;  203.825;    0.000
247.604;  467.300;  194.825;    0.000
247.673;  473.300;  145.825;    0.000
247.742;  464.300;  167.825;    0.000
247.811;  518.300;  180.825;    0.000
247.879;  490.300;  187.825;    0.000
247.948;  518.300;  187.825;    0.000
248.017;  477.300;  170.825;    0.000
248.086;  546.300;  223.825;    0.000
248.154;  481.300;  160.825;    0.000
248.223;  457.300;  163.825;    0.000
248.292;  499.300;  201.825;    0.000
248.361;  503.300;  205.825;    0.000
248.429;  475.300;  191.825;    0.000
248.498;  485.300;  194.825;    0.000
248.567;  497.300;  217.825;    0.000
248.635;  494.300;  224.825;    0.000
248.704;  496.300;  204.825;    0.000
248.773;  490.300;  175.825;    0.000
248.841;  495.300;  157.825;    0.000
248.910;  519.300;  206.825;    0.000
248.979;  453.300;  170.825;    0.000
249.047;  494.300;  178.825;    0.000
249.116;  491.300;  183.825;    0.000
249.185;  494.300;  202.825;    0.000
249.253;  500.300;  159.825;    0.000
249.322;  493.300;  177.825;    0.000
249.390;  467.300;  157.825;    0.000
249.459;  486.300;  211.825;    0.000
249.528;  487.300;  181.825;    0.000
249.596;  500.300;  179.825;    0.000
249.665;  455.300;  176.825;    0.000
249.733;  460.300;  186.825;    0.000
249.802;  449.300;  185.825;    0.000
249.871;  474.300;  166.825;    0.000
249.939;  434.300;  163.825;    0.000
250.008;  494.300;  212.825;    0.000
250.076;  474.300;  227.825;    0.000
250.145;  477.300;  172.825;    0.000
250.213;  449.300;  173.825;    0.000
250.282;  435.300;  189.825;    0.000
250.350;  477.300;  166.825;    0.000
250.419;  515.300;  161.825;    0.000
250.487;  475.300;  178.825;    0.000
250.556;  501.300;  208.825;    0.000
250.624;  468.300;  190.825;    0.000
250.693;  403.300;  163.825;    0.000
250.761;  474.300;  194.825;    0.000
250.830;  470.300;  225.825;    0.000
250.898;  441.300;  140.825;    0.000
250.967;  454.300;  167.825;    0.000
251.035;  414.300;  155.825;    0.000
251.104;  427.300;  189.825;    0.000
251.172;  445.300;  136.825;    0.000
251.241;  415.300;  148.825;    0.000
251.309;  501.300;  201.825;    0.000
251.378;  433.300;  169.825;    0.000
251.446;  438.300;  178.825;    0.000
251.514;  467.300;  206.825;    0.000
251.583;  436.300;  178.825;    0.000
251.651;  439.300;  168.825;    0.000
251.720;  463.300;  190.825;    0.000
251.788;  481.300;  209.825;    0.000
251.856;  392.300;  173.825;    0.000
251.925;  338.300;  171.825;    0.000
251.993;  388.300;  188.825;    0.000
252.062;  444.300;  169.825;    0.000
252.130;  443.300;  196.825;    0.000
252.198;  456.300;  210.825;    0.000
252.267;  435.300;  181.825;    0.000
252.335;  430.300;  164.825;    0.000
252.403;  414.300;  152.825;    0.000
252.472;  408.300;  166.825;    0.000
252.540;  420.300;  189.825;    0.000
252.608;  406.300;  198.825;    0.000
252.677;  395.300;  156.825;    0.000
252.745;  453.300;  184.825;    0.000
252.813;  402.300;  163.825;    0.000
252.881;  380.300;  130.825;    0.000
252.950;  413.300;  189.825;    0.000
253.018;  394.300;  164.825;    0.000
253.086;  401.300;  172.825;    0.000
253.155;  389.300;  205.825;    0.000
253.223;  376.300;  175.825;    0.000
253.291;  369.300;  176.825;    0.000
253.359;  387.300;  182.825;    0.000
253.428;  429.300;  222.825;    0.000
253.496;  401.300;  166.825;    0.000
253.564;  340.300;  135.825;    0.000
253.632;  329.300;  184.825;    0.000
253.700;  348.300;  173.825;    0.000
253.769;  335.300;  163.825;    0.000
253.837;  373.300;  179.825;    0.000
253.905;  366.300;  157.825;    0.000
253.973;  359.300;  164.825;    0.000
254.041;  378.300;  170.825;    0.000
254.110;  380.300;  169.825;    0.000
254.178;  363.300;  165.825;    0.000
254.246;  345.300;  126.825;    0.000
254.314;  360.300;  166.825;    0.000
254.382;  371.300;  169.825;    0.000
254.450;  332.300;  170.825;    0.000
254.518;  400.300;  196.825;    0.000
254.587;  325.300;  161.825;    0.000
254.655;  380.300;  187.825;    0.000
254.723;  358.300;  144.825;    0.000
254.791;  356.300;  175.825;    0.000
254.859;  350.300;  168.825;    0.000
254.927;  409.300;  198.825;    0.000
254.995;  356.300;  165.825;    0.000
255.063;  363.300;  150.825;    0.000
255.131;  312.300;  181.825;    0.000
255.199;  329.300;  160.825;    0.000
255.267;  339.300;  131.825;    0.000
255.336;  368.300;  188.825;    0.000
255.404;  310.300;  163.825;    0.000
255.472;  380.300;  192.825;    0.000
255.540;  315.300;  158.825;    0.000
255.608;  430.300;  147.825;    0.000
255.676;  348.300;  166.825;    0.000
255.744;  339.300;  159.825;    0.000
255.812;  380.300;  164.825;    0.000
255.880;  400.300;  195.825;    0.000
255.948;  405.300;  167.825;    0.000
256.016;  396.300;  185.825;    0.000
256.084;  406.300;  191.825;    0.000
256.152;  412.300;  214.825;    0.000
256.220;  350.300;  195.825;    0.000
256.288;  365.300;  185.825;    0.000
256.356;  378.300;  168.825;    0.000
256.424;  363.300;  161.825;    0.000
256.491;  352.300;  161.825;    0.000
256.559;  365.300;  157.825;    0.000
256.627;  409.300;  164.825;    0.000
256.695;  345.300;  146.825;    0.000
256.763;  396.300;  194.825;    0.000
256.831;  412.300;  182.825;    0.000
256.899;  367.300;  192.825;    0.000
256.967;  359.300;  172.825;    0.000
257.035;  383.300;  169.825;    0.000
257.103;  408.300;  223.825;    0.000
257.171;  372.300;  141.825;    0.000
257.238;  344.300;  146.825;    0.000
257.306;  402.300;  180.825;    0.000
257.374;  420.300;  138.825;    0.000
257.442;  378.300;  135.825;    0.000
257.510;  444.300;  130.825;    0.000
257.578;  374.300;  123.825;    0.000
257.646;  417.300;  162.825;    0.000
257.713;  434.300;  149.825;    0.000
257.781;  419.300;  125.825;    0.000
257.849;  478.300;  149.825;    0.000
257.917;  409.300;  177.825;    0.000
257.985;  405.300;  143.825;    0.000
258.052;  427.300;  154.825;    0.000
258.120;  426.300;  162.825;    0.000
258.188;  421.300;  172.825;    0.000
258.256;  477.300;  160.825;    0.000
258.324;  445.300;  209.825;    0.000
258.391;  474.300;  153.825;    0.000
258.459;  475.300;  133.825;    0.000
258.527;  443.300;  160.825;    0.000
258.595;  431.300;  128.825;    0.000
258.662;  431.300;  114.825;    0.000
258.730;  431.300;  192.825;    0.000
258.798;  454.300;  144.825;    0.000
258.865;  500.300;  140.825;    0.000
258.933;  470.300;  150.825;    0.000
259.001;  486.300;  149.825;    0.000
259.069;  434.300;  110.825;    0.000
259.136;  499.300;  150.825;    0.000
259.204;  498.300;  156.825;    0.000
259.272;  533.300;  185.825;    0.000
259.339;  471.300;  148.825;    0.000
259.407;  515.300;  163.825;    0.000
259.475;  490.300;  129.825;    0.000
259.542;  537.300;  144.825;    0.000
259.610;  551.300;  164.825;    0.000
259.677;  476.300;  188.825;    0.000
259.745;  478.300;  113.825;    0.000
259.813;  527.300;  188.825;    0.000
259.880;  583.300;  174.825;    0.000
259.948;  566.300;  166.825;    0.000
260.016;  566.300;  150.825;    0.000
260.083;  581.300;  178.825;    0.000
260.151;  552.300;  120.825;    0.000
260.218;  584.300;  175.825;    0.000
260.286;  549.300;  155.825;    0.000
260.353;  655.300;  165.825;    0.000
260.421;  545.300;  169.825;    0.000
260.489;  596.300;  194.825;    0.000
260.556;  530.300;  161.825;    0.000
260.624;  621.300;  179.825;    0.000
260.691;  616.300;  174.825;    0.000
260.759;  675.300;  164.825;    0.000
260.826;  608.300;  125.825;    0.000
260.894;  617.300;  164.825;    0.000
260.961;  595.300;  147.825;    0.000
261.029;  642.300;  167.825;    0.000
261.096;  656.300;  136.825;    0.000
261.164;  666.300;  146.825;    0.000
261.231;  651.300;  190.825;    0.000
261.299;  636.300;  171.825;    0.000
261.366;  615.300;  165.825;    0.000
261.434;  664.300;  160.825;    0.000
261.501;  681.300;  149.825;    0.000
261.568;  662.300;  155.825;    0.000
261.636;  594.300;  137.825;    0.000
261.703;  678.300;  186.825;    0.000
261.771;  684.300;  162.825;    0.000
261.838;  803.300;  190.825;    0.000
261.906;  661.300;  133.825;    0.000
261.973;  753.300;  202.825;    0.000
262.040;  713.300;  179.825;    0.000
262.108;  724.300;  161.825;    0.000
262.175;  688.300;  155.825;    0.000
262.243;  737.300;  158.825;    0.000
262.310;  737.300;  129.825;    0.000
262.377;  693.300;  157.825;    0.000
262.445;  724.300;  132.825;    0.000
262.512;  690.300;  161.825;    0.000
262.579;  741.300;  151.825;    0.000
262.647;  761.300;  174.825;    0.000
262.714;  777.300;  174.825;    0.000
262.781;  700.300;  164.825;    0.000
262.849;  709.300;  168.825;    0.000
262.916;  819.300;  153.825;    0.000
262.983;  785.300;  201.825;    0.000
263.051;  789.300;  117.825;    0.000
263.118;  754.300;  150.825;    0.000
263.185;  779.300;  172.825;    0.000
263.252;  774.300;  154.825;    0.000
263.320;  789.300;  152.825;    0.000
263.387;  839.300;  136.825;    0.000
263.454;  817.300;  167.825;    0.000
263.522;  794.300;  122.825;    0.000
263.589;  825.300;  147.825;    0.000
263.656;  833.300;  130.825;    0.000
263.723;  792.300;  182.825;    0.000
263.790;  829.300;  163.825;    0.000
263.858;  805.300;  161.825;    0.000
263.925;  845.300;  153.825;    0.000
263.992;  807.300;  139.825;    0.000
264.059;  760.300;  141.825;    0.000
264.126;  833.300;  153.825;    0.000
264.194;  827.300;  144.825;    0.000
264.261;  945.300;  188.825;    0.000
264.328;  864.300;  161.825;    0.000
264.395;  846.300;  184.825;    0.000
264.462;  893.300;  162.825;    0.000
264.529;  808.300;  178.825;    0.000
264.597;  869.300;  160.825;    0.000
264.664;  866.300;  158.825;    0.000
264.731;  911.300;  176.825;    0.000
264.798;  875.300;  137.825;    0.000
264.865;  936.300;  175.825;    0.000
264.932;  927.300;  162.825;    0.000
264.999;  871.300;  153.825;    0.000
265.066;  862.300;  168.825;    0.000
265.133;  848.300;  142.825;    0.000
265.201;  902.300;  163.825;    0.000
265.268;  928.300;  143.825;    0.000
265.335;  968.300;  156.825;    0.000
265.402;  945.300;  136.825;    0.000
265.469;  850.300;  127.825;    0.000
265.536;  909.300;  159.825;    0.000
265.603;  944.300;  191.825;    0.000
265.670;  964.300;  136.825;    0.000
265.737;  945.300;  186.825;    0.000
265.804;  917.300;  147.825;    0.000
265.871;  905.300;  147.825;    0.000
265.938;  980.300;  153.825;    0.000
266.005; 1012.300;  172.825;    0.000
266.072;  919.300;  151.825;    0.000
266.139;  991.300;  175.825;    0.000
266.206;  987.300;  165.825;    0.000
266.273;  998.300;  162.825;    0.000
266.340;  970.300;  150.825;    0.000
266.407;  992.300;  169.825;    0.000
266.474;  956.300;  151.825;    0.000
266.541;  990.300;  164.825;    0.000
266.608;  991.300;  111.825;    0.000
266.675;  989.300;  173.825;    0.000
266.742;  994.300;  148.825;    0.000
266.808;  996.300;  185.825;    0.000
266.875; 1039.300;  188.825;    0.000
266.942; 1058.300;  131.825;    0.000
267.009; 1013.300;  184.825;    0.000
267.076; 1021.300;  200.825;    0.000
267.143; 1130.300;  216.825;    0.000
267.210; 1004.300;  138.825;    0.000
267.277; 1005.300;  143.825;    0.000
267.344; 1037.300;  172.825;    0.000
267.410; 1057.300;  172.825;    0.000
267.477; 1069.300;  160.825;    0.000
267.544; 1074.300;  175.825;    0.000
267.611; 1131.300;  189.825;    0.000
267.678;  999.300;  162.825;    0.000
267.745; 1049.300;  206.825;    0.000
267.811;  981.300;  146.825;    0.000
267.878; 1095.300;  147.825;    0.000
267.945; 1074.300;  170.825;    0.000
268.012; 1068.300;  153.825;    0.000
268.079; 1031.300;  185.825;    0.000
268.145; 1037.300;  197.825;    0.000
268.212;  988.300;  167.825;    0.000
268.279; 1035.300;  145.825;    0.000
268.346; 1066.300;  182.825;    0.000
268.412; 1068.300;  144.825;    0.000
268.479; 1089.300;  186.825;    0.000
268.546; 1070.300;  147.825;    0.000
268.613; 1072.300;  188.825;    0.000
268.679; 1045.300;  173.825;    0.000
268.746; 1124.300;  204.825;    0.000
268.813; 1079.300;  199.825;    0.000
268.879; 1081.300;  157.825;    0.000
268.946; 1132.300;  192.825;    0.000
269.013; 1099.300;  136.825;    0.000
269.079; 1042.300;  166.825;    0.000
269.146; 1102.300;  129.825;    0.000
269.213; 1067.300;  178.825;    0.000
269.280; 1090.300;  148.825;    0.000
269.346; 1112.300;  194.825;    0.000
269.413; 1035.300;  135.825;    0.000
269.479; 1105.300;  180.825;    0.000
269.546; 1096.300;  169.825;    0.000
269.613; 1019.300;  160.825;    0.000
269.679; 1040.300;  161.825;    0.000
269.746; 1068.300;  143.825;    0.000
269.813; 1079.300;  172.825;    0.000
269.879; 1052.300;  152.825;    0.000
269.946; 1118.300;  156.825;    0.000
270.012; 1144.300;  190.825;    0.000
270.079; 1044.300;  143.825;    0.000
270.145; 1084.300;  148.825;    0.000
270.212; 1130.300;  176.825;    0.000
270.279; 1147.300;  168.825;    0.000
270.345; 1020.300;  143.825;    0.000
270.412; 1116.300;  155.825;    0.000
270.478; 1052.300;  176.825;    0.000
270.545;  995.300;  112.825;    0.000
270.611; 1130.300;  186.825;    0.000
270.678; 1028.300;  141.825;    0.000
270.744; 1052.300;  145.825;    0.000
270.811; 1054.300;  120.825;    0.000
270.877; 1060.300;  118.825;    0.000
270.944; 1059.300;  135.825;    0.000
271.010; 1048.300;  128.825;    0.000
271.077; 1052.300;  176.825;    0.000
271.143; 1089.300;  162.825;    0.000
271.210; 1032.300;  133.825;    0.000
271.276; 1060.300;  107.825;    0.000
271.342; 1080.300;  202.825;    0.000
271.409; 1070.300;  160.825;    0.000
271.475; 1083.300;  165.825;    0.000
271.542; 1016.300;  152.825;    0.000
271.608; 1062.300;  163.825;    0.000
271.675; 1030.300;  149.825;    0.000
271.741; 1079.300;  164.825;    0.000
271.807;  996.300;  128.825;    0.000
271.874; 1062.300;  148.825;    0.000
271.940; 1031.300;  179.825;    0.000
272.007; 1055.300;  148.825;    0.000
272.073; 1022.300;  146.825;    0.000
272.139; 1064.300;  166.825;    0.000
272.206; 1083.300;  198.825;    0.000
272.272; 1080.300;  201.825;    0.000
272.338; 1048.300;  208.825;    0.000
272.405; 1147.300;  181.825;    0.000
272.471; 1070.300;  167.825;    0.000
272.537; 1100.300;  189.825;    0.000
272.604; 1110.300;  162.825;    0.000
272.670; 1104.300;  194.825;    0.000
272.736; 1068.300;  176.825;    0.000
272.802; 1129.300;  163.825;    0.000
272.869; 1118.300;  170.825;    0.000
272.935; 1075.300;  145.825;    0.000
273.001; 1180.300;  149.825;    0.000
273.068; 1096.300;  172.825;    0.000
273.134; 1073.300;  155.825;    0.000
273.200; 1107.300;  183.825;    0.000
273.266; 1098.300;  160.825;    0.000
273.333; 1096.300;  190.825;    0.000
273.399; 1132.300;  132.825;    0.000
273.465; 1151.300;  179.825;    0.000
273.531; 1156.300;  161.825;    0.000
273.597; 1079.300;  194.825;    0.000
273.664; 1068.300;  193.825;    0.000
273.730; 1074.300;  180.825;    0.000
273.796; 1108.300;  145.825;    0.000
273.862; 1116.300;  176.825;    0.000
273.928; 1126.300;  169.825;    0.000
273.995; 1184.300;  202.825;    0.000
274.061; 1189.300;  176.825;    0.000
274.127; 1142.300;  178.825;    0.000
274.193; 1156.300;  106.825;    0.000
274.259; 1127.300;  186.825;    0.000
274.325; 1198.300;  163.825;    0.000
274.391; 1131.300;  162.825;    0.000
274.457; 1229.300;  145.825;    0.000
274.524; 1202.300;  189.825;    0.000
274.590; 1226.300;  161.825;    0.000
274.656; 1223.300;  157.825;    0.000
274.722; 1222.300;  143.825;    0.000
274.788; 1237.300;  166.825;    0.000
274.854; 1219.300;  200.825;    0.000
274.920; 1209.300;  132.825;    0.000
274.986; 1252.300;  184.825;    0.000
275.052; 1307.300;  169.825;    0.000
275.118; 1255.300;  153.825;    0.000
275.184; 1258.300;  182.825;    0.000
275.250; 1307.300;  124.825;    0.000
275.316; 1276.300;  154.825;    0.000
275.382; 1264.300;  150.825;    0.000
275.448; 1288.300;  180.825;    0.000
275.514; 1333.300;  143.825;    0.000
275.580; 1268.300;  120.825;    0.000
275.646; 1344.300;  127.825;    0.000
275.712; 1326.300;  109.825;    0.000
275.778; 1380.300;  126.825;    0.000
275.844; 1299.300;  155.825;    0.000
275.910; 1422.300;  164.825;    0.000
275.976; 1460.300;  161.825;    0.000
276.042; 1517.300;  152.825;    0.000
276.108; 1446.300;  159.825;    0.000
276.174; 1452.300;  149.825;    0.000
276.240; 1427.300;  112.825;    0.000
276.306; 1544.300;  142.825;    0.000
276.372; 1551.300;  136.825;    0.000
276.437; 1537.300;  141.825;    0.000
276.503; 1576.300;  150.825;    0.000
276.569; 1710.300;  178.825;    0.000
276.635; 1738.300;  117.825;    0.000
276.701; 1664.300;  174.825;    0.000
276.767; 1775.300;  136.825;    0.000
276.833; 1750.300;  119.825;    0.000
276.899; 1759.300;  171.825;    0.000
276.964; 1849.300;  146.825;    0.000
277.030; 1860.300;  157.825;    0.000
277.096; 1936.300;  124.825;    0.000
277.162; 1907.300;  185.825;    0.000
277.228; 2060.300;  125.825;    0.000
277.293; 2139.300;  159.825;    0.000
277.359; 2192.300;  186.825;    0.000
277.425; 2344.300;  176.825;    0.000
277.491; 2422.300;  140.825;    0.000
277.557; 2780.300;  172.825;    0.000
277.622; 3616.300;  187.825;    0.000
277.688; 3602.300;  203.825;    0.000
277.754; 3770.300;  170.825;    0.000
277.820; 4131.300;  142.825;    0.000
277.885; 4838.300;  182.825;    0.000
277.951; 5956.300;  171.825;    0.000
278.017; 5141.300;  173.825;    0.000
278.083; 4583.300;  151.825;    0.000
278.148; 4480.300;  159.825;    0.000
278.214; 4533.300;  173.825;    0.000
278.280; 4668.300;  137.825;    0.000
278.345; 4471.300;  190.825;    0.000
278.411; 4194.300;  149.825;    0.000
278.477; 4310.300;  157.825;    0.000
278.542; 4559.300;  136.825;    0.000
278.608; 5034.300;  144.825;    0.000
278.674; 5512.300;  215.825;    0.000
278.739; 6007.300;  148.825;    0.000
278.805; 6775.300;  152.825;    0.000
278.871; 7896.300;  170.825;    0.000
278.936; 9693.300;  180.825;    0.000
279.002;13536.300;  177.825;    0.000
279.067;17292.301;  172.825;    0.000
279.133;17112.301;  160.825;    0.000
279.199;16138.300;  165.825;    0.000
279.264;16707.301;  130.825;    0.000
279.330;19592.301;  154.825;    0.000
279.395;24186.301;  170.825;    0.000
279.461;28522.301;  136.825;    0.000
279.527;30505.301;  174.825;    0.000
279.592;29828.301;  179.825;    0.000
279.658;26636.301;  187.825;    0.000
279.723;26359.301;  201.825;    0.000
279.789;26879.301;  194.825;    0.000
279.854;24179.301;  171.825;    0.000
279.920;21062.301;  183.825;    0.000
279.985;19424.301;  173.825;    0.000
280.051;19812.301;  194.825;    0.000
280.116;22382.301;  197.825;    0.000
280.182;27668.301;  171.825;    0.000
280.247;29941.301;  131.825;    0.000
280.313;26824.301;  166.825;    0.000
280.378;20846.301;  159.825;    0.000
280.444;16155.300;  190.825;    0.000
280.509;13116.300;  189.825;    0.000
280.574;11025.300;  171.825;    0.000
280.640; 9590.300;  167.825;    0.000
280.705; 8651.300;  129.825;    0.000
280.771; 7524.300;  193.825;    0.000
280.836; 6964.300;  172.825;    0.000
280.902; 6533.300;  189.825;    0.000
280.967; 6061.300;  143.825;    0.000
281.032; 5838.300;  182.825;    0.000
281.098; 5538.300;  172.825;    0.000
281.163; 5202.300;  184.825;    0.000
281.229; 4951.300;  210.825;    0.000
281.294; 4739.300;  223.825;    0.000
281.359; 4521.300;  197.825;    0.000
281.425; 4371.300;  192.825;    0.000
281.490; 4143.300;  162.825;    0.000
281.555; 3876.300;  193.825;    0.000
281.621; 3808.300;  141.825;    0.000
281.686; 3657.300;  166.825;    0.000
281.751; 3562.300;  204.825;    0.000
281.816; 3502.300;  159.825;    0.000
281.882; 3290.300;  146.825;    0.000
281.947; 3260.300;  176.825;    0.000
282.012; 3191.300;  139.825;    0.000
282.078; 3057.300;  186.825;    0.000
282.143; 2963.300;  151.825;    0.000
282.208; 3009.300;  213.825;    0.000
282.273; 2922.300;  160.825;    0.000
282.339; 2870.300;  175.825;    0.000
282.404; 2749.300;  157.825;    0.000
282.469; 2614.300;  185.825;    0.000
282.534; 2767.300;  166.825;    0.000
282.600; 2559.300;  168.825;    0.000
282.665; 2581.300;  167.825;    0.000
282.730; 2565.300;  148.825;    0.000
282.795; 2515.300;  186.825;    0.000
282.860; 2440.300;  161.825;    0.000
282.926; 2488.300;  178.825;    0.000
282.991; 2385.300;  139.825;    0.000
283.056; 2291.300;  158.825;    0.000
283.121; 2418.300;  191.825;    0.000
283.186; 2366.300;  182.825;    0.000
283.251; 2226.300;  181.825;    0.000
283.316; 2195.300;  187.825;    0.000
283.382; 2286.300;  175.825;    0.000
283.447; 2257.300;  183.825;    0.000
283.512; 2147.300;  175.825;    0.000
283.577; 2159.300;  180.825;    0.000
283.642; 2134.300;  193.825;    0.000
283.707; 2147.300;  145.825;    0.000
283.772; 2125.300;  143.825;    0.000
283.837; 2172.300;  143.825;    0.000
283.902; 2096.300;  150.825;    0.000
283.967; 2077.300;  166.825;    0.000
284.032; 2094.300;  126.825;    0.000
284.097; 2135.300;  201.825;    0.000
284.163; 2098.300;  133.825;    0.000
284.228; 2060.300;  193.825;    0.000
284.293; 2153.300;  157.825;    0.000
284.358; 2041.300;  185.825;    0.000
284.423; 2118.300;  142.825;    0.000
284.488; 2127.300;  192.825;    0.000
284.553; 2138.300;  146.825;    0.000
284.618; 2183.300;  154.825;    0.000
284.683; 2293.300;  172.825;    0.000
284.748; 2345.300;  195.825;    0.000
284.812; 2428.300;  190.825;    0.000
284.877; 2663.300;  169.825;    0.000
284.942; 3120.300;  195.825;    0.000
285.007; 3613.300;  204.825;    0.000
285.072; 5139.300;  189.825;    0.000
285.137; 8232.300;  149.825;    0.000
285.202;10998.300;  164.825;    0.000
285.267; 9618.300;  161.825;    0.000
285.332; 6255.300;  140.825;    0.000
285.397; 4544.300;  142.825;    0.000
285.462; 3858.300;  146.825;    0.000
285.527; 3191.300;  132.825;    0.000
285.591; 2951.300;  160.825;    0.000
285.656; 2638.300;  136.825;    0.000
285.721; 2470.300;  135.825;    0.000
285.786; 2351.300;  171.825;    0.000
285.851; 2306.300;  168.825;    0.000
285.916; 2282.300;  178.825;    0.000
285.981; 2207.300;  152.825;    0.000
286.045; 2097.300;  167.825;    0.000
286.110; 2030.300;  187.825;    0.000
286.175; 1987.300;  162.825;    0.000
286.240; 1883.300;  163.825;    0.000
286.305; 1934.300;  190.825;    0.000
286.369; 2041.300;  143.825;    0.000
286.434; 1949.300;  185.825;    0.000
286.499; 1892.300;  195.825;    0.000
286.564; 1904.300;  173.825;    0.000
286.628; 1871.300;  159.825;    0.000
286.693; 1813.300;  175.825;    0.000
286.758; 1831.300;  170.825;    0.000
286.823; 1778.300;  129.825;    0.000
286.887; 1796.300;  172.825;    0.000
286.952; 1816.300;  163.825;    0.000
287.017; 1843.300;  217.825;    0.000
287.082; 1892.300;  165.825;    0.000
287.146; 1745.300;  176.825;    0.000
287.211; 1824.300;  192.825;    0.000
287.276; 1676.300;  147.825;    0.000
287.340; 1816.300;  162.825;    0.000
287.405; 1756.300;  196.825;    0.000
287.470; 1659.300;  148.825;    0.000
287.534; 1784.300;  166.825;    0.000
287.599; 1768.300;  193.825;    0.000
287.663; 1722.300;  191.825;    0.000
287.728; 1724.300;  146.825;    0.000
287.793; 1810.300;  234.825;    0.000
287.857; 1666.300;  177.825;    0.000
287.922; 1642.300;  166.825;    0.000
287.987; 1721.300;  169.825;    0.000
288.051; 1678.300;  169.825;    0.000
288.116; 1721.300;  187.825;    0.000
288.180; 1751.300;  200.825;    0.000
288.245; 1709.300;  201.825;    0.000
288.309; 1697.300;  176.825;    0.000
288.374; 1743.300;  162.825;    0.000
288.439; 1741.300;  195.825;    0.000
288.503; 1708.300;  162.825;    0.000
288.568; 1721.300;  228.825;    0.000
288.632; 1683.300;  194.825;    0.000
288.697; 1624.300;  173.825;    0.000
288.761; 1753.300;  153.825;    0.000
288.826; 1600.300;  151.825;    0.000
288.890; 1659.300;  208.825;    0.000
288.955; 1648.300;  159.825;    0.000
289.019; 1692.300;  198.825;    0.000
289.084; 1645.300;  152.825;    0.000
289.148; 1612.300;  171.825;    0.000
289.212; 1738.300;  184.825;    0.000
289.277; 1716.300;  165.825;    0.000
289.341; 1694.300;  207.825;    0.000
289.406; 1687.300;  156.825;    0.000
289.470; 1620.300;  191.825;    0.000
289.535; 1623.300;  222.825;    0.000
289.599; 1590.300;  214.825;    0.000
289.663; 1619.300;  183.825;    0.000
289.728; 1652.300;  192.825;    0.000
289.792; 1632.300;  197.825;    0.000
289.857; 1604.300;  221.825;    0.000
289.921; 1713.300;  177.825;    0.000
289.985; 1594.300;  177.825;    0.000
290.050; 1662.300;  178.825;    0.000
290.114; 1564.300;  112.825;    0.000
290.178; 1556.300;  170.825;    0.000
290.243; 1627.300;  162.825;    0.000
290.307; 1647.300;  178.825;    0.000
290.371; 1677.300;  141.825;    0.000
290.436; 1632.300;  178.825;    0.000
290.500; 1666.300;  135.825;    0.000
290.564; 1744.300;  199.825;    0.000
290.629; 1678.300;  165.825;    0.000
290.693; 1621.300;  154.825;    0.000
290.757; 1654.300;  159.825;    0.000
290.821; 1729.300;  179.825;    0.000
290.886; 1700.300;  141.825;    0.000
290.950; 1741.300;  166.825;    0.000
291.014; 1669.300;  169.825;    0.000
291.078; 1619.300;  191.825;    0.000
291.143; 1683.300;  169.825;    0.000
291.207; 1726.300;  164.825;    0.000
291.271; 1703.300;  193.825;    0.000
291.335; 1725.300;  150.825;    0.000
291.399; 1742.300;  175.825;    0.000
291.464; 1846.300;  128.825;    0.000
291.528; 2013.300;  162.825;    0.000
291.592; 1906.300;  152.825;    0.000
291.656; 1861.300;  175.825;    0.000
291.720; 1863.300;  173.825;    0.000
291.784; 1749.300;  192.825;    0.000
291.849; 1819.300;  159.825;    0.000
291.913; 1821.300;  174.825;    0.000
291.977; 1857.300;  177.825;    0.000
292.041; 1894.300;  188.825;    0.000
292.105; 1807.300;  174.825;    0.000
292.169; 1790.300;  143.825;    0.000
292.233; 1747.300;  149.825;    0.000
292.297; 1853.300;  176.825;    0.000
292.361; 1871.300;  178.825;    0.000
292.425; 1900.300;  153.825;    0.000
292.490; 2071.300;  185.825;    0.000
292.554; 2058.300;  144.825;    0.000
292.618; 2199.300;  166.825;    0.000
292.682; 2432.300;  181.825;    0.000
292.746; 2726.300;  152.825;    0.000
292.810; 3584.300;  208.825;    0.000
292.874; 4309.300;  142.825;    0.000
292.938; 4452.300;  195.825;    0.000
293.002; 3936.300;  156.825;    0.000
293.066; 3727.300;  108.825;    0.000
293.130; 3406.300;  136.825;    0.000
293.194; 3307.300;  135.825;    0.000
293.258; 3026.300;  187.825;    0.000
293.322; 3154.300;  148.825;    0.000
293.386; 3236.300;  186.825;    0.000
293.450; 3217.300;  196.825;    0.000
293.514; 3774.300;  175.825;    0.000
293.577; 4911.300;  137.825;    0.000
293.641; 6353.300;  142.825;    0.000
293.705; 6814.300;  201.825;    0.000
293.769; 6077.300;  150.825;    0.000
293.833; 5367.300;  147.825;    0.000
293.897; 4814.300;  170.825;    0.000
293.961; 4249.300;  121.825;    0.000
294.025; 3963.300;  172.825;    0.000
294.089; 3699.300;  167.825;    0.000
294.152; 3500.300;  167.825;    0.000
294.216; 3231.300;  165.825;    0.000
294.280; 3065.300;  168.825;    0.000
294.344; 2806.300;  160.825;    0.000
294.408; 2748.300;  187.825;    0.000
294.472; 2606.300;  141.825;    0.000
294.536; 2554.300;  184.825;    0.000
294.599; 2411.300;  176.825;    0.000
294.663; 2397.300;  120.825;    0.000
294.727; 2356.300;  159.825;    0.000
294.791; 2215.300;  190.825;    0.000
294.855; 2251.300;  148.825;    0.000
294.918; 2164.300;  160.825;    0.000
294.982; 2111.300;  156.825;    0.000
295.046; 2028.300;  177.825;    0.000
295.110; 2076.300;  149.825;    0.000
295.173; 2002.300;  156.825;    0.000
295.237; 1986.300;  174.825;    0.000
295.301; 1932.300;  152.825;    0.000
295.364; 1884.300;  204.825;    0.000
295.428; 1824.300;  196.825;    0.000
295.492; 1893.300;  178.825;    0.000
295.556; 1917.300;  161.825;    0.000
295.619; 1784.300;  178.825;    0.000
295.683; 1806.300;  152.825;    0.000
295.747; 1846.300;  148.825;    0.000
295.810; 1823.300;  177.825;    0.000
295.874; 1763.300;  146.825;    0.000
295.938; 1716.300;  115.825;    0.000
296.001; 1771.300;  172.825;    0.000
296.065; 1775.300;  146.825;    0.000
296.128; 1654.300;  164.825;    0.000
296.192; 1712.300;  137.825;    0.000
296.256; 1662.300;  143.825;    0.000
296.319; 1676.300;  156.825;    0.000
296.383; 1600.300;  165.825;    0.000
296.447; 1639.300;  170.825;    0.000
296.510; 1668.300;  174.825;    0.000
296.574; 1633.300;  127.825;    0.000
296.637; 1550.300;  132.825;    0.000
296.701; 1656.300;  206.825;    0.000
296.764; 1578.300;  179.825;    0.000
296.828; 1638.300;  213.825;    0.000
296.891; 1557.300;  149.825;    0.000
296.955; 1605.300;  170.825;    0.000
297.018; 1644.300;  185.825;    0.000
297.082; 1559.300;  205.825;    0.000
297.145; 1547.300;  154.825;    0.000
297.209; 1603.300;  200.825;    0.000
297.272; 1541.300;  157.825;    0.000
297.336; 1522.300;  164.825;    0.000
297.399; 1548.300;  166.825;    0.000
297.463; 1532.300;  195.825;    0.000
297.526; 1522.300;  176.825;    0.000
297.590; 1587.300;  198.825;    0.000
297.653; 1541.300;  146.825;    0.000
297.717; 1542.300;  175.825;    0.000
297.780; 1528.300;  139.825;    0.000
297.843; 1561.300;  174.825;    0.000
297.907; 1512.300;  149.825;    0.000
297.970; 1569.300;  161.825;    0.000
298.034; 1417.300;  185.825;    0.000
298.097; 1468.300;  167.825;    0.000
298.160; 1499.300;  195.825;    0.000
298.224; 1504.300;  178.825;    0.000
298.287; 1517.300;  164.825;    0.000
298.350; 1443.300;  194.825;    0.000
298.414; 1478.300;  191.825;    0.000
298.477; 1426.300;  155.825;    0.000
298.540; 1430.300;  139.825;    0.000
298.604; 1439.300;  198.825;    0.000
298.667; 1474.300;  183.825;    0.000
298.730; 1397.300;  185.825;    0.000
298.794; 1363.300;  153.825;    0.000
298.857; 1453.300;  169.825;    0.000
298.920; 1460.300;  159.825;    0.000
298.984; 1447.300;  179.825;    0.000
299.047; 1413.300;  174.825;    0.000
299.110; 1412.300;  144.825;    0.000
299.173; 1467.300;  190.825;    0.000
299.237; 1388.300;  163.825;    0.000
299.300; 1418.300;  153.825;    0.000
299.363; 1421.300;  145.825;    0.000
299.426; 1336.300;  160.825;    0.000
299.489; 1356.300;  173.825;    0.000
299.553; 1346.300;  209.825;    0.000
299.616; 1453.300;  172.825;    0.000
299.679; 1457.300;  204.825;    0.000
299.742; 1420.300;  162.825;    0.000
299.805; 1422.300;  198.825;    0.000
299.868; 1391.300;  176.825;    0.000
299.932; 1365.300;  166.825;    0.000
299.995; 1469.300;  162.825;    0.000
300.058; 1416.300;  175.825;    0.000
300.121; 1343.300;  197.825;    0.000
300.184; 1376.300;  188.825;    0.000
300.247; 1363.300;  181.825;    0.000
300.310; 1409.300;  161.825;    0.000
300.374; 1356.300;  201.825;    0.000
300.437; 1332.300;  156.825;    0.000
300.500; 1304.300;  180.825;    0.000
300.563; 1416.300;  174.825;    0.000
300.626; 1389.300;  206.825;    0.000
300.689; 1358.300;  218.825;    0.000
300.752; 1326.300;  192.825;    0.000
300.815; 1372.300;  172.825;    0.000
300.878; 1370.300;  207.825;    0.000
300.941; 1371.300;  163.825;    0.000
301.004; 1333.300;  171.825;    0.000
301.067; 1325.300;  198.825;    0.000
301.130; 1374.300;  156.825;    0.000
301.193; 1427.300;  173.825;    0.000
301.256; 1362.300;  167.825;    0.000
301.319; 1341.300;  211.825;    0.000
301.382; 1327.300;  167.825;    0.000
301.445; 1343.300;  224.825;    0.000
301.508; 1318.300;  168.825;    0.000
301.571; 1345.300;  161.825;    0.000
301.634; 1331.300;  177.825;    0.000
301.697; 1358.300;  203.825;    0.000
301.760; 1404.300;  190.825;    0.000
301.823; 1331.300;  182.825;    0.000
301.885; 1333.300;  202.825;    0.000
301.948; 1352.300;  200.825;    0.000
302.011; 1333.300;  157.825;    0.000
302.074; 1374.300;  205.825;    0.000
302.137; 1290.300;  149.825;    0.000
302.200; 1373.300;  201.825;    0.000
302.263; 1316.300;  178.825;    0.000
302.326; 1317.300;  184.825;    0.000
302.388; 1369.300;  176.825;    0.000
302.451; 1391.300;  146.825;    0.000
302.514; 1365.300;  192.825;    0.000
302.577; 1298.300;  181.825;    0.000
302.640; 1431.300;  186.825;    0.000
302.703; 1307.300;  164.825;    0.000
302.765; 1312.300;  197.825;    0.000
302.828; 1397.300;  208.825;    0.000
302.891; 1339.300;  168.825;    0.000
302.954; 1290.300;  177.825;    0.000
303.016; 1376.300;  190.825;    0.000
303.079; 1328.300;  216.825;    0.000
303.142; 1321.300;  228.825;    0.000
303.205; 1424.300;  192.825;    0.000
303.267; 1255.300;  182.825;    0.000
303.330; 1340.300;  201.825;    0.000
303.393; 1338.300;  196.825;    0.000
303.456; 1371.300;  184.825;    0.000
303.518; 1326.300;  194.825;    0.000
303.581; 1340.300;  195.825;    0.000
303.644; 1326.300;  184.825;    0.000
303.706; 1347.300;  150.825;    0.000
303.769; 1352.300;  182.825;    0.000
303.832; 1315.300;  143.825;    0.000
303.894; 1324.300;  207.825;    0.000
303.957; 1327.300;  178.825;    0.000
304.020; 1344.300;  203.825;    0.000
304.082; 1326.300;  175.825;    0.000
304.145; 1262.300;  171.825;    0.000
304.207; 1322.300;  157.825;    0.000
304.270; 1356.300;  195.825;    0.000
304.333; 1370.300;  195.825;    0.000
304.395; 1393.300;  197.825;    0.000
304.458; 1343.300;  231.825;    0.000
304.520; 1291.300;  218.825;    0.000
304.583; 1360.300;  177.825;    0.000
304.646; 1307.300;  177.825;    0.000
304.708; 1369.300;  178.825;    0.000
304.771; 1298.300;  143.825;    0.000
304.833; 1352.300;  241.825;    0.000
304.896; 1330.300;  200.825;    0.000
304.958; 1378.300;  176.825;    0.000
305.021; 1309.300;  159.825;    0.000
305.083; 1393.300;  159.825;    0.000
305.146; 1356.300;  190.825;    0.000
305.208; 1333.300;  152.825;    0.000
305.271; 1247.300;  162.825;    0.000
305.333; 1371.300;  219.825;    0.000
305.396; 1407.300;  163.825;    0.000
305.458; 1302.300;  215.825;    0.000
305.520; 1337.300;  174.825;    0.000
305.583; 1382.300;  161.825;    0.000
305.645; 1330.300;  203.825;    0.000
305.708; 1328.300;  163.825;    0.000
305.770; 1383.300;  215.825;    0.000
305.833; 1295.300;  207.825;    0.000
305.895; 1289.300;  166.825;    0.000
305.957; 1353.300;  175.825;    0.000
306.020; 1296.300;  169.825;    0.000
306.082; 1350.300;  203.825;    0.000
306.144; 1406.300;  181.825;    0.000
306.207; 1331.300;  199.825;    0.000
306.269; 1299.300;  177.825;    0.000
306.331; 1320.300;  160.825;    0.000
306.394; 1377.300;  193.825;    0.000
306.456; 1307.300;  136.825;    0.000
306.518; 1414.300;  189.825;    0.000
306.581; 1264.300;  156.825;    0.000
306.643; 1346.300;  190.825;    0.000
306.705; 1471.300;  190.825;    0.000
306.768; 1270.300;  172.825;    0.000
306.830; 1353.300;  214.825;    0.000
306.892; 1330.300;  198.825;    0.000
306.954; 1333.300;  177.825;    0.000
307.017; 1340.300;  183.825;    0.000
307.079; 1401.300;  170.825;    0.000
307.141; 1437.300;  173.825;    0.000
307.203; 1449.300;  171.825;    0.000
307.266; 1353.300;  166.825;    0.000
307.328; 1370.300;  207.825;    0.000
307.390; 1383.300;  201.825;    0.000
307.452; 1383.300;  182.825;    0.000
307.514; 1383.300;  213.825;    0.000
307.577; 1435.300;  213.825;    0.000
307.639; 1409.300;  197.825;    0.000
307.701; 1410.300;  174.825;    0.000
307.763; 1430.300;  181.825;    0.000
307.825; 1408.300;  186.825;    0.000
307.887; 1478.300;  198.825;    0.000
307.949; 1401.300;  158.825;    0.000
308.012; 1433.300;  209.825;    0.000
308.074; 1473.300;  176.825;    0.000
308.136; 1454.300;  227.825;    0.000
308.198; 1343.300;  187.825;    0.000
308.260; 1449.300;  211.825;    0.000
308.322; 1459.300;  206.825;    0.000
308.384; 1417.300;  186.825;    0.000
308.446; 1403.300;  175.825;    0.000
308.508; 1424.300;  211.825;    0.000
308.570; 1497.300;  191.825;    0.000
308.632; 1448.300;  195.825;    0.000
308.694; 1475.300;  173.825;    0.000
308.756; 1486.300;  185.825;    0.000
308.818; 1546.300;  195.825;    0.000
308.880; 1489.300;  189.825;    0.000
308.942; 1556.300;  231.825;    0.000
309.004; 1566.300;  188.825;    0.000
309.066; 1501.300;  196.825;    0.000
309.128; 1605.300;  155.825;    0.000
309.190; 1565.300;  176.825;    0.000
309.252; 1700.300;  191.825;    0.000
309.314; 1723.300;  236.825;    0.000
309.376; 1745.300;  212.825;    0.000
309.438; 1559.300;  201.825;    0.000
309.500; 1623.300;  206.825;    0.000
309.562; 1654.300;  213.825;    0.000
309.624; 1692.300;  196.825;    0.000
309.686; 1753.300;  198.825;    0.000
309.747; 1758.300;  186.825;    0.000
309.809; 1722.300;  215.825;    0.000
309.871; 1603.300;  242.825;    0.000
309.933; 1604.300;  162.825;    0.000
309.995; 1579.300;  163.825;    0.000
310.057; 1595.300;  145.825;    0.000
310.119; 1623.300;  205.825;    0.000
310.180; 1630.300;  195.825;    0.000
310.242; 1574.300;  167.825;    0.000
310.304; 1582.300;  213.825;    0.000
310.366; 1676.300;  224.825;    0.000
310.428; 1544.300;  170.825;    0.000
310.489; 1541.300;  195.825;    0.000
310.551; 1635.300;  207.825;    0.000
310.613; 1517.300;  168.825;    0.000
310.675; 1554.300;  188.825;    0.000
310.737; 1552.300;  211.825;    0.000
310.798; 1543.300;  221.825;    0.000
310.860; 1520.300;  201.825;    0.000
310.922; 1555.300;  206.825;    0.000
310.983; 1523.300;  222.825;    0.000
311.045; 1574.300;  235.825;    0.000
311.107; 1436.300;  184.825;    0.000
311.169; 1514.300;  148.825;    0.000
311.230; 1450.300;  211.825;    0.000
311.292; 1534.300;  235.825;    0.000
311.354; 1545.300;  183.825;    0.000
311.415; 1500.300;  196.825;    0.000
311.477; 1487.300;  200.825;    0.000
311.539; 1529.300;  171.825;    0.000
311.600; 1553.300;  169.825;    0.000
311.662; 1537.300;  231.825;    0.000
311.724; 1542.300;  204.825;    0.000
311.785; 1574.300;  214.825;    0.000
311.847; 1539.300;  193.825;    0.000
311.908; 1511.300;  180.825;    0.000
311.970; 1577.300;  233.825;    0.000
312.032; 1527.300;  192.825;    0.000
312.093; 1515.300;  195.825;    0.000
312.155; 1510.300;  194.825;    0.000
312.216; 1522.300;  238.825;    0.000
312.278; 1483.300;  146.825;    0.000
312.339; 1584.300;  184.825;    0.000
312.401; 1558.300;  201.825;    0.000
312.462; 1483.300;  173.825;    0.000
312.524; 1517.300;  205.825;    0.000
312.585; 1468.300;  199.825;    0.000
312.647; 1510.300;  168.825;    0.000
312.708; 1495.300;  180.825;    0.000
312.770; 1550.300;  180.825;    0.000
312.831; 1521.300;  176.825;    0.000
312.893; 1512.300;  211.825;    0.000
312.954; 1573.300;  178.825;    0.000
313.016; 1526.300;  204.825;    0.000
313.077; 1559.300;  216.825;    0.000
313.139; 1459.300;  172.825;    0.000
313.200; 1482.300;  197.825;    0.000
313.261; 1549.300;  227.825;    0.000
313.323; 1611.300;  204.825;    0.000
313.384; 1508.300;  182.825;    0.000
313.446; 1520.300;  204.825;    0.000
313.507; 1555.300;  164.825;    0.000
313.568; 1537.300;  197.825;    0.000
313.630; 1540.300;  190.825;    0.000
313.691; 1554.300;  185.825;    0.000
313.752; 1468.300;  192.825;    0.000
313.814; 1528.300;  176.825;    0.000
313.875; 1557.300;  210.825;    0.000
313.936; 1574.300;  165.825;    0.000
313.998; 1541.300;  162.825;    0.000
314.059; 1570.300;  178.825;    0.000
314.120; 1566.300;  176.825;    0.000
314.182; 1551.300;  167.825;    0.000
314.243; 1543.300;  204.825;    0.000
314.304; 1587.300;  197.825;    0.000
314.365; 1619.300;  183.825;    0.000
314.427; 1531.300;  176.825;    0.000
314.488; 1518.300;  149.825;    0.000
314.549; 1604.300;  218.825;    0.000
314.610; 1590.300;  160.825;    0.000
314.672; 1536.300;  187.825;    0.000
314.733; 1518.300;  184.825;    0.000
314.794; 1489.300;  164.825;    0.000
314.855; 1528.300;  191.825;    0.000
314.917; 1553.300;  172.825;    0.000
314.978; 1428.300;  185.825;    0.000
315.039; 1489.300;  194.825;    0.000
315.100; 1525.300;  190.825;    0.000
315.161; 1476.300;  185.825;    0.000
315.222; 1563.300;  204.825;    0.000
315.283; 1550.300;  166.825;    0.000
315.345; 1505.300;  133.825;    0.000
315.406; 1579.300;  191.825;    0.000
315.467; 1540.300;  166.825;    0.000
315.528; 1554.300;  194.825;    0.000
315.589; 1497.300;  193.825;    0.000
315.650; 1521.300;  190.825;    0.000
315.711; 1504.300;  219.825;    0.000
315.772; 1456.300;  159.825;    0.000
315.833; 1557.300;  191.825;    0.000
315.894; 1487.300;  202.825;    0.000
315.955; 1553.300;  167.825;    0.000
316.016; 1558.300;  177.825;    0.000
316.078; 1526.300;  185.825;    0.000
316.139; 1563.300;  219.825;    0.000
316.200; 1544.300;  163.825;    0.000
316.261; 1547.300;  183.825;    0.000
316.322; 1525.300;  230.825;    0.000
316.383; 1545.300;  198.825;    0.000
316.444; 1552.300;  209.825;    0.000
316.504; 1496.300;  179.825;    0.000
316.565; 1514.300;  185.825;    0.000
316.626; 1595.300;  155.825;    0.000
316.687; 1569.300;  211.825;    0.000
316.748; 1508.300;  192.825;    0.000
316.809; 1594.300;  183.825;    0.000
316.870; 1519.300;  196.825;    0.000
316.931; 1550.300;  173.825;    0.000
316.992; 1545.300;  179.825;    0.000
317.053; 1502.300;  186.825;    0.000
317.114; 1513.300;  189.825;    0.000
317.175; 1588.300;  226.825;    0.000
317.235; 1619.300;  206.825;    0.000
317.296; 1505.300;  191.825;    0.000
317.357; 1515.300;  173.825;    0.000
317.418; 1597.300;  212.825;    0.000
317.479; 1554.300;  247.825;    0.000
317.540; 1562.300;  205.825;    0.000
317.601; 1525.300;  205.825;    0.000
317.661; 1526.300;  150.825;    0.000
317.722; 1585.300;  198.825;    0.000
317.783; 1555.300;  153.825;    0.000
317.844; 1557.300;  202.825;    0.000
317.904; 1523.300;  180.825;    0.000
317.965; 1543.300;  205.825;    0.000
318.026; 1541.300;  223.825;    0.000
318.087; 1610.300;  218.825;    0.000
318.148; 1565.300;  207.825;    0.000
318.208; 1618.300;  212.825;    0.000
318.269; 1522.300;  174.825;    0.000
318.330; 1539.300;  191.825;    0.000
318.390; 1493.300;  197.825;    0.000
318.451; 1499.300;  167.825;    0.000
318.512; 1533.300;  174.825;    0.000
318.572; 1457.300;  199.825;    0.000
318.633; 1644.300;  233.825;    0.000
318.694; 1591.300;  232.825;    0.000
318.754; 1570.300;  181.825;    0.000
318.815; 1527.300;  199.825;    0.000
318.876; 1525.300;  207.825;    0.000
318.936; 1508.300;  202.825;    0.000
318.997; 1556.300;  182.825;    0.000
319.058; 1523.300;  180.825;    0.000
319.118; 1614.300;  199.825;    0.000
319.179; 1575.300;  199.825;    0.000
319.239; 1578.300;  229.825;    0.000
319.300; 1572.300;  223.825;    0.000
319.361; 1548.300;  210.825;    0.000
319.421; 1533.300;  205.825;    0.000
319.482; 1494.300;  205.825;    0.000
319.542; 1543.300;  176.825;    0.000
319.603; 1520.300;  191.825;    0.000
319.663; 1574.300;  183.825;    0.000
319.724; 1511.300;  174.825;    0.000
319.784; 1585.300;  198.825;    0.000
319.845; 1578.300;  218.825;    0.000
319.905; 1532.300;  217.825;    0.000
319.966; 1475.300;  197.825;    0.000
320.026; 1582.300;  209.825;    0.000
320.087; 1527.300;  225.825;    0.000
320.147; 1551.300;  201.825;    0.000
320.208; 1566.300;  176.825;    0.000
320.268; 1494.300;  168.825;    0.000
320.329; 1587.300;  238.825;    0.000
320.389; 1566.300;  220.825;    0.000
320.449; 1558.300;  230.825;    0.000
320.510; 1511.300;  234.825;    0.000
320.570; 1581.300;  210.825;    0.000
320.631; 1538.300;  207.825;    0.000
320.691; 1539.300;  222.825;    0.000
320.751; 1519.300;  195.825;    0.000
320.812; 1562.300;  193.825;    0.000
320.872; 1571.300;  237.825;    0.000
320.932; 1569.300;  213.825;    0.000
320.993; 1604.300;  185.825;    0.000
321.053; 1604.300;  245.825;    0.000
321.113; 1625.300;  206.825;    0.000
321.174; 1572.300;  202.825;    0.000
321.234; 1527.300;  244.825;    0.000
321.294; 1602.300;  228.825;    0.000
321.355; 1536.300;  208.825;    0.000
321.415; 1583.300;  223.825;    0.000
321.475; 1476.300;  203.825;    0.000
321.535; 1528.300;  230.825;    0.000
321.596; 1625.300;  186.825;    0.000
321.656; 1616.300;  216.825;    0.000
321.716; 1488.300;  207.825;    0.000
321.776; 1568.300;  181.825;    0.000
321.837; 1532.300;  207.825;    0.000
321.897; 1579.300;  225.825;    0.000
321.957; 1576.300;  222.825;    0.000
322.017; 1532.300;  215.825;    0.000
322.077; 1690.300;  250.825;    0.000
322.138; 1544.300;  189.825;    0.000
322.198; 1616.300;  200.825;    0.000
322.258; 1610.300;  217.825;    0.000
322.318; 1542.300;  183.825;    0.000
322.378; 1547.300;  231.825;    0.000
322.438; 1616.300;  228.825;    0.000
322.499; 1628.300;  248.825;    0.000
322.559; 1591.300;  198.825;    0.000
322.619; 1503.300;  221.825;    0.000
322.679; 1516.300;  217.825;    0.000
322.739; 1492.300;  204.825;    0.000
322.799; 1530.300;  236.825;    0.000
322.859; 1632.300;  213.825;    0.000
322.919; 1538.300;  210.825;    0.000
322.979; 1588.300;  244.825;    0.000
323.039; 1580.300;  218.825;    0.000
323.099; 1573.300;  232.825;    0.000
323.159; 1544.300;  216.825;    0.000
323.219; 1503.300;  169.825;    0.000
323.279; 1592.300;  236.825;    0.000
323.339; 1560.300;  243.825;    0.000
323.399; 1561.300;  208.825;    0.000
323.459; 1536.300;  220.825;    0.000
323.519; 1644.300;  228.825;    0.000
323.579; 1580.300;  164.825;    0.000
323.639; 1614.300;  209.825;    0.000
323.699; 1559.300;  188.825;    0.000
323.759; 1626.300;  206.825;    0.000
323.819; 1610.300;  204.825;    0.000
323.879; 1588.300;  222.825;    0.000
323.939; 1551.300;  206.825;    0.000
323.999; 1660.300;  202.825;    0.000
324.059; 1643.300;  245.825;    0.000
324.119; 1657.300;  214.825;    0.000
324.178; 1572.300;  183.825;    0.000
324.238; 1558.300;  193.825;    0.000
324.298; 1582.300;  207.825;    0.000
324.358; 1580.300;  196.825;    0.000
324.418; 1567.300;  193.825;    0.000
324.478; 1564.300;  191.825;    0.000
324.538; 1607.300;  224.825;    0.000
324.597; 1629.300;  187.825;    0.000
324.657; 1548.300;  208.825;    0.000
324.717; 1590.300;  198.825;    0.000
324.777; 1532.300;  159.825;    0.000
324.837; 1572.300;  180.825;    0.000
324.896; 1593.300;  215.825;    0.000
324.956; 1558.300;  210.825;    0.000
325.016; 1547.300;  187.825;    0.000
325.076; 1526.300;  197.825;    0.000
325.135; 1648.300;  226.825;    0.000
325.195; 1631.300;  201.825;    0.000
325.255; 1577.300;  167.825;    0.000
325.315; 1654.300;  217.825;    0.000
325.374; 1551.300;  196.825;    0.000
325.434; 1570.300;  167.825;    0.000
325.494; 1612.300;  214.825;    0.000
325.553; 1573.300;  203.825;    0.000
325.613; 1591.300;  206.825;    0.000
325.673; 1516.300;  148.825;    0.000
325.732; 1541.300;  207.825;    0.000
325.792; 1478.300;  151.825;    0.000
325.852; 1511.300;  195.825;    0.000
325.911; 1502.300;  201.825;    0.000
325.971; 1544.300;  224.825;    0.000
326.031; 1513.300;  201.825;    0.000
326.090; 1557.300;  203.825;    0.000
326.150; 1564.300;  183.825;    0.000
326.209; 1615.300;  226.825;    0.000
326.269; 1490.300;  194.825;    0.000
326.328; 1539.300;  200.825;    0.000
326.388; 1491.300;  177.825;    0.000
326.448; 1566.300;  239.825;    0.000
326.507; 1504.300;  197.825;    0.000
326.567; 1607.300;  161.825;    0.000
326.626; 1542.300;  220.825;    0.000
326.686; 1432.300;  178.825;    0.000
326.745; 1491.300;  167.825;    0.000
326.805; 1530.300;  176.825;    0.000
326.864; 1558.300;  204.825;    0.000
326.924; 1537.300;  218.825;    0.000
326.983; 1484.300;  201.825;    0.000
327.043; 1568.300;  219.825;    0.000
327.102; 1501.300;  202.825;    0.000
327.161; 1567.300;  228.825;    0.000
327.221; 1487.300;  217.825;    0.000
327.280; 1502.300;  188.825;    0.000
327.340; 1478.300;  209.825;    0.000
327.399; 1495.300;  189.825;    0.000
327.459; 1540.300;  216.825;    0.000
327.518; 1522.300;  200.825;    0.000
327.577; 1559.300;  194.825;    0.000
327.637; 1527.300;  180.825;    0.000
327.696; 1496.300;  208.825;    0.000
327.755; 1508.300;  218.825;    0.000
327.815; 1455.300;  234.825;    0.000
327.874; 1588.300;  259.825;    0.000
327.933; 1500.300;  192.825;    0.000
327.993; 1548.300;  208.825;    0.000
328.052; 1588.300;  221.825;    0.000
328.111; 1508.300;  203.825;    0.000
328.171; 1486.300;  221.825;    0.000
328.230; 1486.300;  222.825;    0.000
328.289; 1442.300;  254.825;    0.000
328.349; 1550.300;  232.825;    0.000
328.408; 1488.300;  223.825;    0.000
328.467; 1519.300;  198.825;    0.000
328.526; 1487.300;  217.825;    0.000
328.586; 1495.300;  185.825;    0.000
328.645; 1517.300;  210.825;    0.000
328.704; 1488.300;  211.825;    0.000
328.763; 1510.300;  231.825;    0.000
328.822; 1524.300;  254.825;    0.000
328.882; 1556.300;  216.825;    0.000
328.941; 1411.300;  239.825;    0.000
329.000; 1514.300;  251.825;    0.000
329.059; 1535.300;  227.825;    0.000
329.118; 1516.300;  233.825;    0.000
329.177; 1480.300;  188.825;    0.000
329.237; 1552.300;  257.825;    0.000
329.296; 1495.300;  265.825;    0.000
329.355; 1596.300;  245.825;    0.000
329.414; 1556.300;  236.825;    0.000
329.473; 1534.300;  242.825;    0.000
329.532; 1570.300;  228.825;    0.000
329.591; 1570.300;  206.825;    0.000
329.650; 1576.300;  250.825;    0.000
329.709; 1614.300;  278.825;    0.000
329.768; 1561.300;  219.825;    0.000
329.827; 1641.300;  254.825;    0.000
329.886; 1607.300;  221.825;    0.000
329.945; 1562.300;  239.825;    0.000
330.004; 1671.300;  245.825;    0.000
330.063; 1569.300;  201.825;    0.000
330.122; 1549.300;  227.825;    0.000
330.181; 1672.300;  196.825;    0.000
330.240; 1569.300;  203.825;    0.000
330.299; 1606.300;  214.825;    0.000
330.358; 1579.300;  196.825;    0.000
330.417; 1563.300;  201.825;    0.000
330.476; 1562.300;  248.825;    0.000
330.535; 1595.300;  253.825;    0.000
330.594; 1547.300;  231.825;    0.000
330.653; 1520.300;  210.825;    0.000
330.712; 1488.300;  242.825;    0.000
330.771; 1557.300;  240.825;    0.000
330.830; 1546.300;  230.825;    0.000
330.889; 1598.300;  217.825;    0.000
330.948; 1586.300;  211.825;    0.000
331.006; 1540.300;  217.825;    0.000
331.065; 1479.300;  170.825;    0.000
331.124; 1489.300;  211.825;    0.000
331.183; 1513.300;  192.825;    0.000
331.242; 1447.300;  227.825;    0.000
331.301; 1498.300;  240.825;    0.000
331.359; 1494.300;  223.825;    0.000
331.418; 1515.300;  215.825;    0.000
331.477; 1479.300;  230.825;    0.000
331.536; 1584.300;  221.825;    0.000
331.595; 1471.300;  198.825;    0.000
331.653; 1483.300;  207.825;    0.000
331.712; 1522.300;  217.825;    0.000
331.771; 1448.300;  221.825;    0.000
331.830; 1456.300;  222.825;    0.000
331.888; 1408.300;  213.825;    0.000
331.947; 1494.300;  233.825;    0.000
332.006; 1459.300;  212.825;    0.000
332.065; 1518.300;  200.825;    0.000
332.123; 1438.300;  223.825;    0.000
332.182; 1438.300;  180.825;    0.000
332.241; 1479.300;  192.825;    0.000
332.299; 1470.300;  172.825;    0.000
332.358; 1513.300;  216.825;    0.000
332.417; 1459.300;  211.825;    0.000
332.475; 1521.300;  222.825;    0.000
332.534; 1480.300;  238.825;    0.000
332.592; 1471.300;  216.825;    0.000
332.651; 1535.300;  196.825;    0.000
332.710; 1480.300;  215.825;    0.000
332.768; 1477.300;  193.825;    0.000
332.827; 1490.300;  201.825;    0.000
332.885; 1520.300;  226.825;    0.000
332.944; 1452.300;  174.825;    0.000
333.003; 1426.300;  187.825;    0.000
333.061; 1471.300;  208.825;    0.000
333.120; 1535.300;  202.825;    0.000
333.178; 1566.300;  227.825;    0.000
333.237; 1570.300;  215.825;    0.000
333.295; 1595.300;  245.825;    0.000
333.354; 1570.300;  194.825;    0.000
333.412; 1540.300;  165.825;    0.000
333.471; 1589.300;  219.825;    0.000
333.529; 1673.300;  255.825;    0.000
333.588; 1664.300;  264.825;    0.000
333.646; 1691.300;  231.825;    0.000
333.705; 1684.300;  232.825;    0.000
333.763; 1635.300;  233.825;    0.000
333.822; 1677.300;  221.825;    0.000
333.880; 1700.300;  180.825;    0.000
333.938; 1574.300;  229.825;    0.000
333.997; 1548.300;  194.825;    0.000
334.055; 1554.300;  230.825;    0.000
334.114; 1549.300;  230.825;    0.000
334.172; 1552.300;  170.825;    0.000
334.230; 1581.300;  192.825;    0.000
334.289; 1524.300;  225.825;    0.000
334.347; 1615.300;  233.825;    0.000
334.405; 1567.300;  207.825;    0.000
334.464; 1556.300;  175.825;    0.000
334.522; 1525.300;  180.825;    0.000
334.580; 1560.300;  172.825;    0.000
334.639; 1564.300;  230.825;    0.000
334.697; 1538.300;  217.825;    0.000
334.755; 1498.300;  217.825;    0.000
334.814; 1523.300;  210.825;    0.000
334.872; 1552.300;  170.825;    0.000
334.930; 1550.300;  167.825;    0.000
334.988; 1605.300;  244.825;    0.000
335.047; 1543.300;  202.825;    0.000
335.105; 1622.300;  181.825;    0.000
335.163; 1664.300;  195.825;    0.000
335.221; 1625.300;  203.825;    0.000
335.280; 1573.300;  216.825;    0.000
335.338; 1598.300;  197.825;    0.000
335.396; 1547.300;  232.825;    0.000
335.454; 1536.300;  211.825;    0.000
335.512; 1547.300;  221.825;    0.000
335.570; 1621.300;  216.825;    0.000
335.629; 1607.300;  244.825;    0.000
335.687; 1666.300;  244.825;    0.000
335.745; 1580.300;  189.825;    0.000
335.803; 1658.300;  198.825;    0.000
335.861; 1659.300;  236.825;    0.000
335.919; 1744.300;  234.825;    0.000
335.977; 1623.300;  214.825;    0.000
336.035; 1642.300;  242.825;    0.000
336.094; 1627.300;  219.825;    0.000
336.152; 1618.300;  196.825;    0.000
336.210; 1596.300;  221.825;    0.000
336.268; 1582.300;  257.825;    0.000
336.326; 1663.300;  211.825;    0.000
336.384; 1640.300;  217.825;    0.000
336.442; 1609.300;  176.825;    0.000
336.500; 1554.300;  242.825;    0.000
336.558; 1635.300;  238.825;    0.000
336.616; 1570.300;  261.825;    0.000
336.674; 1530.300;  200.825;    0.000
336.732; 1601.300;  208.825;    0.000
336.790; 1565.300;  183.825;    0.000
336.848; 1602.300;  199.825;    0.000
336.906; 1611.300;  240.825;    0.000
336.964; 1481.300;  234.825;    0.000
337.022; 1641.300;  282.825;    0.000
337.080; 1573.300;  265.825;    0.000
337.138; 1577.300;  255.825;    0.000
337.195; 1552.300;  200.825;    0.000
337.253; 1541.300;  199.825;    0.000
337.311; 1549.300;  233.825;    0.000
337.369; 1579.300;  250.825;    0.000
337.427; 1541.300;  201.825;    0.000
337.485; 1462.300;  228.825;    0.000
337.543; 1609.300;  221.825;    0.000
337.601; 1549.300;  232.825;    0.000
337.658; 1500.300;  215.825;    0.000
337.716; 1515.300;  198.825;    0.000
337.774; 1549.300;  262.825;    0.000
337.832; 1527.300;  220.825;    0.000
337.890; 1411.300;  194.825;    0.000
337.947; 1536.300;  205.825;    0.000
338.005; 1522.300;  229.825;    0.000
338.063; 1483.300;  237.825;    0.000
338.121; 1556.300;  220.825;    0.000
338.178; 1574.300;  227.825;    0.000
338.236; 1544.300;  238.825;    0.000
338.294; 1487.300;  242.825;    0.000
338.352; 1566.300;  230.825;    0.000
338.409; 1524.300;  222.825;    0.000
338.467; 1477.300;  233.825;    0.000
338.525; 1524.300;  253.825;    0.000
338.583; 1520.300;  221.825;    0.000
338.640; 1491.300;  225.825;    0.000
338.698; 1456.300;  229.825;    0.000
338.756; 1503.300;  238.825;    0.000
338.813; 1522.300;  260.825;    0.000
338.871; 1608.300;  246.825;    0.000
338.928; 1562.300;  240.825;    0.000
338.986; 1650.300;  228.825;    0.000
339.044; 1604.300;  265.825;    0.000
339.101; 1499.300;  224.825;    0.000
339.159; 1512.300;  235.825;    0.000
339.216; 1525.300;  244.825;    0.000
339.274; 1565.300;  266.825;    0.000
339.332; 1540.300;  248.825;    0.000
339.389; 1596.300;  246.825;    0.000
339.447; 1480.300;  237.825;    0.000
339.504; 1579.300;  244.825;    0.000
339.562; 1563.300;  249.825;    0.000
339.619; 1536.300;  266.825;    0.000
339.677; 1544.300;  263.825;    0.000
339.734; 1554.300;  216.825;    0.000
339.792; 1598.300;  276.825;    0.000
339.849; 1592.300;  240.825;    0.000
339.907; 1614.300;  275.825;    0.000
339.964; 1568.300;  243.825;    0.000
340.022; 1539.300;  224.825;    0.000
340.079; 1533.300;  230.825;    0.000
340.137; 1528.300;  232.825;    0.000
340.194; 1573.300;  261.825;    0.000
340.252; 1568.300;  219.825;    0.000
340.309; 1548.300;  212.825;    0.000
340.366; 1577.300;  231.825;    0.000
340.424; 1598.300;  244.825;    0.000
340.481; 1561.300;  238.825;    0.000
340.538; 1626.300;  217.825;    0.000
340.596; 1484.300;  224.825;    0.000
340.653; 1617.300;  225.825;    0.000
340.711; 1625.300;  276.825;    0.000
340.768; 1615.300;  239.825;    0.000
340.825; 1531.300;  216.825;    0.000
340.883; 1460.300;  264.825;    0.000
340.940; 1607.300;  256.825;    0.000
340.997; 1569.300;  230.825;    0.000
341.054; 1494.300;  229.825;    0.000
341.112; 1628.300;  220.825;    0.000
341.169; 1624.300;  276.825;    0.000
341.226; 1538.300;  224.825;    0.000
341.284; 1663.300;  235.825;    0.000
341.341; 1623.300;  226.825;    0.000
341.398; 1512.300;  200.825;    0.000
341.455; 1598.300;  242.825;    0.000
341.512; 1589.300;  226.825;    0.000
341.570; 1616.300;  299.825;    0.000
341.627; 1688.300;  221.825;    0.000
341.684; 1558.300;  204.825;    0.000
341.741; 1629.300;  285.825;    0.000
341.798; 1599.300;  237.825;    0.000
341.856; 1590.300;  223.825;    0.000
341.913; 1576.300;  232.825;    0.000
341.970; 1595.300;  250.825;    0.000
342.027; 1571.300;  272.825;    0.000
342.084; 1634.300;  242.825;    0.000
342.141; 1641.300;  207.825;    0.000
342.198; 1600.300;  252.825;    0.000
342.255; 1598.300;  189.825;    0.000
342.313; 1586.300;  222.825;    0.000
342.370; 1591.300;  203.825;    0.000
342.427; 1609.300;  261.825;    0.000
342.484; 1616.300;  230.825;    0.000
342.541; 1523.300;  224.825;    0.000
342.598; 1575.300;  245.825;    0.000
342.655; 1518.300;  235.825;    0.000
342.712; 1621.300;  238.825;    0.000
342.769; 1578.300;  235.825;    0.000
342.826; 1552.300;  232.825;    0.000
342.883; 1550.300;  212.825;    0.000
342.940; 1431.300;  189.825;    0.000
342.997; 1537.300;  241.825;    0.000
343.054; 1543.300;  235.825;    0.000
343.111; 1536.300;  216.825;    0.000
343.168; 1573.300;  202.825;    0.000
343.225; 1532.300;  228.825;    0.000
343.282; 1601.300;  208.825;    0.000
343.339; 1614.300;  241.825;    0.000
343.395; 1634.300;  206.825;    0.000
343.452; 1599.300;  227.825;    0.000
343.509; 1596.300;  212.825;    0.000
343.566; 1627.300;  266.825;    0.000
343.623; 1583.300;  240.825;    0.000
343.680; 1511.300;  215.825;    0.000
343.737; 1554.300;  231.825;    0.000
343.794; 1636.300;  256.825;    0.000
343.850; 1622.300;  235.825;    0.000
343.907; 1586.300;  246.825;    0.000
343.964; 1586.300;  241.825;    0.000
344.021; 1629.300;  237.825;    0.000
344.078; 1646.300;  248.825;    0.000
344.134; 1631.300;  225.825;    0.000
344.191; 1621.300;  209.825;    0.000
344.248; 1653.300;  234.825;    0.000
344.305; 1637.300;  224.825;    0.000
344.361; 1627.300;  194.825;    0.000
344.418; 1640.300;  240.825;    0.000
344.475; 1695.300;  252.825;    0.000
344.532; 1665.300;  251.825;    0.000
344.588; 1683.300;  240.825;    0.000
344.645; 1698.300;  253.825;    0.000
344.702; 1666.300;  216.825;    0.000
344.758; 1658.300;  258.825;    0.000
344.815; 1653.300;  239.825;    0.000
344.872; 1576.300;  216.825;    0.000
344.928; 1643.300;  236.825;    0.000
344.985; 1625.300;  238.825;    0.000
345.042; 1611.300;  211.825;    0.000
345.098; 1637.300;  223.825;    0.000
345.155; 1596.300;  266.825;    0.000
345.212; 1606.300;  266.825;    0.000
345.268; 1607.300;  245.825;    0.000
345.325; 1576.300;  225.825;    0.000
345.381; 1669.300;  223.825;    0.000
345.438; 1692.300;  259.825;    0.000
345.495; 1703.300;  233.825;    0.000
345.551; 1706.300;  254.825;    0.000
345.608; 1666.300;  212.825;    0.000
345.664; 1593.300;  225.825;    0.000
345.721; 1602.300;  223.825;    0.000
345.777; 1598.300;  226.825;    0.000
345.834; 1527.300;  215.825;    0.000
345.890; 1585.300;  230.825;    0.000
345.947; 1671.300;  232.825;    0.000
346.003; 1657.300;  241.825;    0.000
346.060; 1595.300;  241.825;    0.000
346.116; 1734.300;  231.825;    0.000
346.173; 1637.300;  229.825;    0.000
346.229; 1596.300;  262.825;    0.000
346.285; 1635.300;  232.825;    0.000
346.342; 1670.300;  228.825;    0.000
346.398; 1693.300;  203.825;    0.000
346.455; 1649.300;  214.825;    0.000
346.511; 1710.300;  245.825;    0.000
346.567; 1708.300;  192.825;    0.000
346.624; 1707.300;  206.825;    0.000
346.680; 1731.300;  209.825;    0.000
346.737; 1755.300;  239.825;    0.000
346.793; 1655.300;  234.825;    0.000
346.849; 1682.300;  252.825;    0.000
346.906; 1754.300;  247.825;    0.000
346.962; 1744.300;  274.825;    0.000
347.018; 1716.300;  225.825;    0.000
347.074; 1786.300;  261.825;    0.000
347.131; 1707.300;  230.825;    0.000
347.187; 1617.300;  269.825;    0.000
347.243; 1746.300;  261.825;    0.000
347.300; 1670.300;  236.825;    0.000
347.356; 1705.300;  284.825;    0.000
347.412; 1628.300;  243.825;    0.000
347.468; 1687.300;  276.825;    0.000
347.524; 1617.300;  232.825;    0.000
347.581; 1731.300;  242.825;    0.000
347.637; 1677.300;  270.825;    0.000
347.693; 1610.300;  269.825;    0.000
347.749; 1652.300;  278.825;    0.000
347.805; 1589.300;  224.825;    0.000
347.862; 1642.300;  207.825;    0.000
347.918; 1681.300;  259.825;    0.000
347.974; 1663.300;  244.825;    0.000
348.030; 1680.300;  219.825;    0.000
348.086; 1657.300;  250.825;    0.000
348.142; 1677.300;  251.825;    0.000
348.198; 1723.300;  267.825;    0.000
348.254; 1718.300;  230.825;    0.000
348.311; 1676.300;  261.825;    0.000
348.367; 1635.300;  259.825;    0.000
348.423; 1625.300;  251.825;    0.000
348.479; 1688.300;  251.825;    0.000
348.535; 1665.300;  269.825;    0.000
348.591; 1612.300;  238.825;    0.000
348.647; 1642.300;  273.825;    0.000
348.703; 1649.300;  291.825;    0.000
348.759; 1648.300;  231.825;    0.000
348.815; 1647.300;  286.825;    0.000
348.871; 1666.300;  265.825;    0.000
348.927; 1603.300;  234.825;    0.000
348.983; 1671.300;  267.825;    0.000
349.039; 1608.300;  233.825;    0.000
349.095; 1612.300;  225.825;    0.000
349.151; 1569.300;  242.825;    0.000
349.207; 1622.300;  223.825;    0.000
349.263; 1654.300;  219.825;    0.000
349.319; 1692.300;  226.825;    0.000
349.374; 1650.300;  232.825;    0.000
349.430; 1683.300;  235.825;    0.000
349.486; 1679.300;  227.825;    0.000
349.542; 1689.300;  253.825;    0.000
349.598; 1672.300;  227.825;    0.000
349.654; 1711.300;  270.825;    0.000
349.710; 1688.300;  233.825;    0.000
349.766; 1690.300;  245.825;    0.000
349.821; 1669.300;  242.825;    0.000
349.877; 1710.300;  229.825;    0.000
349.933; 1668.300;  229.825;    0.000
349.989; 1708.300;  230.825;    0.000
350.045; 1709.300;  236.825;    0.000
350.100; 1675.300;  237.825;    0.000
350.156; 1607.300;  230.825;    0.000
350.212; 1692.300;  254.825;    0.000
350.268; 1646.300;  239.825;    0.000
350.323; 1719.300;  204.825;    0.000
350.379; 1638.300;  246.825;    0.000
350.435; 1666.300;  249.825;    0.000
350.491; 1642.300;  217.825;    0.000
350.546; 1693.300;  231.825;    0.000
350.602; 1640.300;  240.825;    0.000
350.658; 1729.300;  235.825;    0.000
350.713; 1651.300;  234.825;    0.000
350.769; 1643.300;  218.825;    0.000
350.825; 1695.300;  227.825;    0.000
350.880; 1676.300;  226.825;    0.000
350.936; 1617.300;  247.825;    0.000
350.992; 1678.300;  213.825;    0.000
351.047; 1642.300;  207.825;    0.000
351.103; 1718.300;  271.825;    0.000
351.158; 1658.300;  251.825;    0.000
351.214; 1669.300;  199.825;    0.000
351.270; 1651.300;  214.825;    0.000
351.325; 1707.300;  235.825;    0.000
351.381; 1759.300;  223.825;    0.000
351.436; 1769.300;  237.825;    0.000
351.492; 1733.300;  221.825;    0.000
351.547; 1768.300;  237.825;    0.000
351.603; 1750.300;  239.825;    0.000
351.658; 1764.300;  209.825;    0.000
351.714; 1733.300;  226.825;    0.000
351.769; 1771.300;  238.825;    0.000
351.825; 1814.300;  226.825;    0.000
351.880; 1723.300;  217.825;    0.000
351.936; 1726.300;  246.825;    0.000
351.991; 1703.300;  233.825;    0.000
352.047; 1650.300;  215.825;    0.000
352.102; 1719.300;  243.825;    0.000
352.158; 1646.300;  234.825;    0.000
352.213; 1593.300;  201.825;    0.000
352.268; 1606.300;  234.825;    0.000
352.324; 1647.300;  211.825;    0.000
352.379; 1780.300;  221.825;    0.000
352.434; 1627.300;  259.825;    0.000
352.490; 1657.300;  250.825;    0.000
352.545; 1689.300;  251.825;    0.000
352.601; 1630.300;  283.825;    0.000
352.656; 1630.300;  236.825;    0.000
352.711; 1606.300;  237.825;    0.000
352.767; 1687.300;  201.825;    0.000
352.822; 1679.300;  209.825;    0.000
352.877; 1661.300;  239.825;    0.000
352.932; 1609.300;  228.825;    0.000
352.988; 1733.300;  202.825;    0.000
353.043; 1738.300;  268.825;    0.000
353.098; 1682.300;  208.825;    0.000
353.153; 1677.300;  219.825;    0.000
353.209; 1617.300;  252.825;    0.000
353.264; 1653.300;  225.825;    0.000
353.319; 1589.300;  234.825;    0.000
353.374; 1633.300;  236.825;    0.000
353.430; 1627.300;  245.825;    0.000
353.485; 1725.300;  238.825;    0.000
353.540; 1665.300;  238.825;    0.000
353.595; 1657.300;  215.825;    0.000
353.650; 1601.300;  238.825;    0.000
353.705; 1714.300;  274.825;    0.000
353.761; 1649.300;  229.825;    0.000
353.816; 1597.300;  275.825;    0.000
353.871; 1663.300;  245.825;    0.000
353.926; 1683.300;  253.825;    0.000
353.981; 1725.300;  269.825;    0.000
354.036; 1669.300;  246.825;    0.000
354.091; 1719.300;  257.825;    0.000
354.146; 1714.300;  278.825;    0.000
354.201; 1694.300;  276.825;    0.000
354.256; 1667.300;  224.825;    0.000
354.311; 1723.300;  287.825;    0.000
354.367; 1672.300;  210.825;    0.000
354.422; 1691.300;  231.825;    0.000
354.477; 1679.300;  226.825;    0.000
354.532; 1684.300;  262.825;    0.000
354.587; 1728.300;  275.825;    0.000
354.642; 1606.300;  247.825;    0.000
354.697; 1688.300;  251.825;    0.000
354.751; 1736.300;  249.825;    0.000
354.806; 1654.300;  217.825;    0.000
354.861; 1736.300;  247.825;    0.000
354.916; 1659.300;  259.825;    0.000
354.971; 1656.300;  241.825;    0.000
355.026; 1656.300;  250.825;    0.000
355.081; 1649.300;  244.825;    0.000
355.136; 1638.300;  203.825;    0.000
355.191; 1648.300;  241.825;    0.000
355.246; 1670.300;  248.825;    0.000
355.301; 1664.300;  259.825;    0.000
355.355; 1711.300;  236.825;    0.000
355.410; 1723.300;  221.825;    0.000
355.465; 1656.300;  206.825;    0.000
355.520; 1705.300;  258.825;    0.000
355.575; 1658.300;  273.825;    0.000
355.630; 1672.300;  252.825;    0.000
355.684; 1616.300;  246.825;    0.000
355.739; 1664.300;  251.825;    0.000
355.794; 1659.300;  247.825;    0.000
355.849; 1661.300;  246.825;    0.000
355.904; 1608.300;  262.825;    0.000
355.958; 1740.300;  249.825;    0.000
356.013; 1588.300;  213.825;    0.000
356.068; 1660.300;  255.825;    0.000
356.123; 1695.300;  205.825;    0.000
356.177; 1670.300;  239.825;    0.000
356.232; 1736.300;  258.825;    0.000
356.287; 1630.300;  248.825;    0.000
356.341; 1694.300;  221.825;    0.000
356.396; 1672.300;  220.825;    0.000
356.451; 1655.300;  231.825;    0.000
356.505; 1686.300;  231.825;    0.000
356.560; 1667.300;  254.825;    0.000
356.615; 1605.300;  234.825;    0.000
356.669; 1744.300;  250.825;    0.000
356.724; 1722.300;  261.825;    0.000
356.778; 1693.300;  207.825;    0.000
356.833; 1604.300;  205.825;    0.000
356.888; 1673.300;  235.825;    0.000
356.942; 1686.300;  205.825;    0.000
356.997; 1751.300;  276.825;    0.000
357.051; 1625.300;  243.825;    0.000
357.106; 1612.300;  242.825;    0.000
357.160; 1615.300;  241.825;    0.000
357.215; 1553.300;  212.825;    0.000
357.269; 1696.300;  238.825;    0.000
357.324; 1631.300;  223.825;    0.000
357.378; 1622.300;  221.825;    0.000
357.433; 1652.300;  262.825;    0.000
357.487; 1629.300;  246.825;    0.000
357.542; 1648.300;  221.825;    0.000
357.596; 1636.300;  225.825;    0.000
357.651; 1693.300;  244.825;    0.000
357.705; 1592.300;  269.825;    0.000
357.760; 1659.300;  209.825;    0.000
357.814; 1654.300;  250.825;    0.000
357.868; 1654.300;  266.825;    0.000
357.923; 1681.300;  248.825;    0.000
357.977; 1616.300;  262.825;    0.000
358.032; 1656.300;  228.825;    0.000
358.086; 1579.300;  257.825;    0.000
358.140; 1627.300;  217.825;    0.000
358.195; 1647.300;  246.825;    0.000
358.249; 1632.300;  255.825;    0.000
358.303; 1686.300;  252.825;    0.000
358.358; 1644.300;  278.825;    0.000
358.412; 1668.300;  276.825;    0.000
358.466; 1608.300;  275.825;    0.000
358.521; 1576.300;  229.825;    0.000
358.575; 1607.300;  270.825;    0.000
358.629; 1576.300;  239.825;    0.000
358.683; 1602.300;  254.825;    0.000
358.738; 1690.300;  239.825;    0.000
358.792; 1592.300;  272.825;    0.000
358.846; 1604.300;  289.825;    0.000
358.900; 1644.300;  299.825;    0.000
358.954; 1627.300;  247.825;    0.000
359.009; 1695.300;  245.825;    0.000
359.063; 1562.300;  272.825;    0.000
359.117; 1586.300;  242.825;    0.000
359.171; 1638.300;  279.825;    0.000
359.225; 1630.300;  221.825;    0.000
359.280; 1638.300;  238.825;    0.000
359.334; 1603.300;  264.825;    0.000
359.388; 1687.300;  273.825;    0.000
359.442; 1627.300;  233.825;    0.000
359.496; 1585.300;  226.825;    0.000
359.550; 1695.300;  271.825;    0.000
359.604; 1668.300;  296.825;    0.000
359.658; 1574.300;  252.825;    0.000
359.712; 1640.300;  256.825;    0.000
359.766; 1663.300;  257.825;    0.000
359.820; 1620.300;  239.825;    0.000
359.875; 1614.300;  252.825;    0.000
359.929; 1661.300;  258.825;    0.000
359.983; 1548.300;  232.825;    0.000
360.037; 1538.300;  268.825;    0.000
360.091; 1582.300;  303.825;    0.000
360.145; 1571.300;  232.825;    0.000
360.199; 1655.300;  255.825;    0.000
360.253; 1642.300;  252.825;    0.000
360.306; 1553.300;  278.825;    0.000
360.360; 1613.300;  249.825;    0.000
360.414; 1536.300;  274.825;    0.000
360.468; 1616.300;  247.825;    0.000
360.522; 1573.300;  268.825;    0.000
360.576; 1637.300;  263.825;    0.000
360.630; 1669.300;  296.825;    0.000
360.684; 1638.300;  253.825;    0.000
360.738; 1656.300;  301.825;    0.000
360.792; 1679.300;  282.825;    0.000
360.846; 1599.300;  277.825;    0.000
360.899; 1647.300;  292.825;    0.000
360.953; 1603.300;  266.825;    0.000
361.007; 1610.300;  240.825;    0.000
361.061; 1598.300;  247.825;    0.000
361.115; 1614.300;  276.825;    0.000
361.168; 1568.300;  288.825;    0.000
361.222; 1560.300;  271.825;    0.000
361.276; 1603.300;  270.825;    0.000
361.330; 1655.300;  295.825;    0.000
361.384; 1577.300;  276.825;    0.000
361.437; 1568.300;  280.825;    0.000
361.491; 1614.300;  261.825;    0.000
361.545; 1590.300;  273.825;    0.000
361.599; 1598.300;  269.825;    0.000
361.652; 1621.300;  258.825;    0.000
361.706; 1612.300;  270.825;    0.000
361.760; 1609.300;  294.825;    0.000
361.813; 1557.300;  244.825;    0.000
361.867; 1595.300;  294.825;    0.000
361.921; 1593.300;  285.825;    0.000
361.974; 1602.300;  269.825;    0.000
362.028; 1561.300;  275.825;    0.000
362.082; 1559.300;  270.825;    0.000
362.135; 1556.300;  259.825;    0.000
362.189; 1509.300;  302.825;    0.000
362.242; 1649.300;  296.825;    0.000
362.296; 1609.300;  285.825;    0.000
362.350; 1550.300;  303.825;    0.000
362.403; 1570.300;  271.825;    0.000
362.457; 1585.300;  285.825;    0.000
362.510; 1507.300;  288.825;    0.000
362.564; 1497.300;  268.825;    0.000
362.617; 1591.300;  285.825;    0.000
362.671; 1549.300;  277.825;    0.000
362.724; 1535.300;  242.825;    0.000
362.778; 1558.300;  274.825;    0.000
362.831; 1599.300;  280.825;    0.000
362.885; 1578.300;  284.825;    0.000
362.938; 1519.300;  276.825;    0.000
362.992;  336.300;  289.825;    0.000
363.045;  283.300;  247.825;    0.000
363.099;  260.300;  260.825;    0.000
363.152;  275.300;  258.825;    0.000
363.205;  286.300;  286.825;    0.000
363.259;  310.300;  236.825;    0.000
363.312;  326.300;  297.825;    0.000
363.366;  296.300;  266.825;    0.000
363.419;  306.300;  309.825;    0.000
363.472;  297.300;  293.825;    0.000
363.526;  283.300;  270.825;    0.000
363.579;  299.300;  276.825;    0.000
363.632;  324.300;  279.825;    0.000
363.686;  277.300;  292.825;    0.000
363.739;  283.300;  248.825;    0.000
363.792;  294.300;  287.825;    0.000

