
Integration time [ms]:   1.000
Averaging Nr. [scans]: 1
Smoothing Nr. [pixels]: 0
Data measured with spectrometer [name]: UV2
Wave   ;Sample   ;Dark     ;Reference
[nm]   ;[counts] ;[counts] ;[counts] 

353.533;  201.750;  216.475;    0.000
353.597;  207.750;  244.475;    0.000
353.660;  181.750;  181.475;    0.000
353.723;  217.750;  203.475;    0.000
353.786;  205.750;  180.475;    0.000
353.850;  185.750;  213.475;    0.000
353.913;  168.750;  191.475;    0.000
353.976;  205.750;  195.475;    0.000
354.039;  201.750;  158.475;    0.000
354.102;  229.750;  199.475;    0.000
354.166;  221.750;  185.475;    0.000
354.229;  190.750;  188.475;    0.000
354.292;  199.750;  188.475;    0.000
354.355;  219.750;  226.475;    0.000
354.418;  205.750;  158.475;    0.000
354.481;  199.750;  185.475;    0.000
354.545;  451.750;  191.475;    0.000
354.608;  486.750;  247.475;    0.000
354.671;  482.750;  176.475;    0.000
354.734;  465.750;  198.475;    0.000
354.797;  496.750;  195.475;    0.000
354.860;  452.750;  212.475;    0.000
354.923;  507.750;  184.475;    0.000
354.986;  477.750;  169.475;    0.000
355.050;  503.750;  206.475;    0.000
355.113;  448.750;  210.475;    0.000
355.176;  510.750;  217.475;    0.000
355.239;  520.750;  201.475;    0.000
355.302;  521.750;  193.475;    0.000
355.365;  516.750;  234.475;    0.000
355.428;  512.750;  182.475;    0.000
355.491;  601.750;  233.475;    0.000
355.554;  512.750;  167.475;    0.000
355.617;  519.750;  195.475;    0.000
355.680;  530.750;  198.475;    0.000
355.743;  490.750;  186.475;    0.000
355.806;  507.750;  171.475;    0.000
355.869;  552.750;  244.475;    0.000
355.932;  528.750;  164.475;    0.000
355.995;  583.750;  220.475;    0.000
356.058;  541.750;  172.475;    0.000
356.121;  522.750;  228.475;    0.000
356.184;  574.750;  225.475;    0.000
356.247;  582.750;  161.475;    0.000
356.310;  514.750;  195.475;    0.000
356.373;  621.750;  191.475;    0.000
356.436;  575.750;  147.475;    0.000
356.498;  587.750;  183.475;    0.000
356.561;  571.750;  137.475;    0.000
356.624;  575.750;  186.475;    0.000
356.687;  525.750;  158.475;    0.000
356.750;  542.750;  194.475;    0.000
356.813;  576.750;  186.475;    0.000
356.876;  596.750;  161.475;    0.000
356.939;  588.750;  188.475;    0.000
357.001;  567.750;  200.475;    0.000
357.064;  563.750;  182.475;    0.000
357.127;  562.750;  168.475;    0.000
357.190;  596.750;  157.475;    0.000
357.253;  606.750;  199.475;    0.000
357.316;  598.750;  187.475;    0.000
357.378;  588.750;  174.475;    0.000
357.441;  593.750;  165.475;    0.000
357.504;  586.750;  189.475;    0.000
357.567;  581.750;  116.475;    0.000
357.629;  623.750;  176.475;    0.000
357.692;  556.750;  134.475;    0.000
357.755;  591.750;  175.475;    0.000
357.818;  613.750;  159.475;    0.000
357.880;  625.750;  185.475;    0.000
357.943;  598.750;  159.475;    0.000
358.006;  560.750;  176.475;    0.000
358.069;  590.750;  156.475;    0.000
358.131;  593.750;  170.475;    0.000
358.194;  599.750;  125.475;    0.000
358.257;  617.750;  186.475;    0.000
358.319;  666.750;  139.475;    0.000
358.382;  631.750;  175.475;    0.000
358.445;  603.750;  170.475;    0.000
358.507;  626.750;  129.475;    0.000
358.570;  603.750;  168.475;    0.000
358.633;  605.750;  152.475;    0.000
358.695;  592.750;  194.475;    0.000
358.758;  632.750;  154.475;    0.000
358.821;  559.750;  147.475;    0.000
358.883;  592.750;  163.475;    0.000
358.946;  613.750;  155.475;    0.000
359.008;  614.750;  208.475;    0.000
359.071;  622.750;  182.475;    0.000
359.134;  562.750;  126.475;    0.000
359.196;  586.750;  142.475;    0.000
359.259;  649.750;  138.475;    0.000
359.321;  569.750;  153.475;    0.000
359.384;  593.750;  186.475;    0.000
359.446;  639.750;  152.475;    0.000
359.509;  639.750;  144.475;    0.000
359.571;  591.750;  164.475;    0.000
359.634;  659.750;  171.475;    0.000
359.696;  623.750;  144.475;    0.000
359.759;  676.750;  171.475;    0.000
359.821;  578.750;  161.475;    0.000
359.884;  648.750;  159.475;    0.000
359.946;  624.750;  186.475;    0.000
360.009;  646.750;  171.475;    0.000
360.071;  646.750;  166.475;    0.000
360.134;  647.750;  215.475;    0.000
360.196;  670.750;  138.475;    0.000
360.259;  660.750;  196.475;    0.000
360.321;  629.750;  148.475;    0.000
360.384;  637.750;  150.475;    0.000
360.446;  634.750;  148.475;    0.000
360.508;  631.750;  172.475;    0.000
360.571;  652.750;  155.475;    0.000
360.633;  631.750;  153.475;    0.000
360.696;  595.750;  142.475;    0.000
360.758;  635.750;  165.475;    0.000
360.820;  614.750;  155.475;    0.000
360.883;  630.750;  156.475;    0.000
360.945;  642.750;  171.475;    0.000
361.007;  632.750;  138.475;    0.000
361.070;  628.750;  129.475;    0.000
361.132;  659.750;  166.475;    0.000
361.194;  701.750;  143.475;    0.000
361.257;  619.750;  154.475;    0.000
361.319;  620.750;  176.475;    0.000
361.381;  684.750;  143.475;    0.000
361.443;  634.750;  136.475;    0.000
361.506;  715.750;  160.475;    0.000
361.568;  616.750;  140.475;    0.000
361.630;  654.750;  159.475;    0.000
361.693;  662.750;  162.475;    0.000
361.755;  675.750;  185.475;    0.000
361.817;  654.750;  209.475;    0.000
361.879;  742.750;  161.475;    0.000
361.941;  609.750;  152.475;    0.000
362.004;  625.750;  132.475;    0.000
362.066;  668.750;  159.475;    0.000
362.128;  695.750;  143.475;    0.000
362.190;  649.750;  131.475;    0.000
362.252;  701.750;  131.475;    0.000
362.315;  649.750;  175.475;    0.000
362.377;  686.750;  140.475;    0.000
362.439;  662.750;  140.475;    0.000
362.501;  669.750;  140.475;    0.000
362.563;  689.750;  152.475;    0.000
362.625;  659.750;  174.475;    0.000
362.688;  679.750;  195.475;    0.000
362.750;  709.750;  221.475;    0.000
362.812;  701.750;  171.475;    0.000
362.874;  671.750;  117.475;    0.000
362.936;  728.750;  162.475;    0.000
362.998;  644.750;  142.475;    0.000
363.060;  697.750;  143.475;    0.000
363.122;  671.750;  148.475;    0.000
363.184;  732.750;  179.475;    0.000
363.246;  704.750;  186.475;    0.000
363.308;  650.750;  180.475;    0.000
363.370;  711.750;  200.475;    0.000
363.432;  670.750;  139.475;    0.000
363.494;  674.750;  138.475;    0.000
363.556;  632.750;  114.475;    0.000
363.618;  677.750;  153.475;    0.000
363.680;  650.750;  153.475;    0.000
363.742;  707.750;  178.475;    0.000
363.804;  735.750;  214.475;    0.000
363.866;  728.750;  170.475;    0.000
363.928;  655.750;  145.475;    0.000
363.990;  729.750;  215.475;    0.000
364.052;  682.750;  166.475;    0.000
364.114;  660.750;  168.475;    0.000
364.176;  682.750;  176.475;    0.000
364.238;  716.750;  203.475;    0.000
364.300;  677.750;  158.475;    0.000
364.362;  705.750;  152.475;    0.000
364.424;  678.750;  119.475;    0.000
364.486;  695.750;  187.475;    0.000
364.548;  700.750;  180.475;    0.000
364.609;  709.750;  212.475;    0.000
364.671;  673.750;  165.475;    0.000
364.733;  667.750;  190.475;    0.000
364.795;  738.750;  148.475;    0.000
364.857;  724.750;  159.475;    0.000
364.919;  803.750;  159.475;    0.000
364.981;  687.750;  191.475;    0.000
365.042;  704.750;  170.475;    0.000
365.104;  739.750;  145.475;    0.000
365.166;  666.750;  134.475;    0.000
365.228;  674.750;  150.475;    0.000
365.290;  708.750;  158.475;    0.000
365.351;  706.750;  168.475;    0.000
365.413;  726.750;  173.475;    0.000
365.475;  687.750;  172.475;    0.000
365.537;  719.750;  126.475;    0.000
365.598;  718.750;  160.475;    0.000
365.660;  689.750;  127.475;    0.000
365.722;  731.750;  189.475;    0.000
365.784;  734.750;  161.475;    0.000
365.845;  706.750;  152.475;    0.000
365.907;  657.750;  117.475;    0.000
365.969;  739.750;  146.475;    0.000
366.030;  670.750;  171.475;    0.000
366.092;  683.750;  155.475;    0.000
366.154;  743.750;  137.475;    0.000
366.215;  741.750;  147.475;    0.000
366.277;  784.750;  148.475;    0.000
366.339;  729.750;  158.475;    0.000
366.400;  704.750;  140.475;    0.000
366.462;  732.750;  159.475;    0.000
366.524;  725.750;  160.475;    0.000
366.585;  730.750;  157.475;    0.000
366.647;  751.750;  170.475;    0.000
366.708;  700.750;  123.475;    0.000
366.770;  756.750;  194.475;    0.000
366.832;  715.750;  191.475;    0.000
366.893;  725.750;  155.475;    0.000
366.955;  724.750;  132.475;    0.000
367.016;  714.750;  126.475;    0.000
367.078;  712.750;  202.475;    0.000
367.139;  740.750;  116.475;    0.000
367.201;  671.750;  134.475;    0.000
367.262;  694.750;  157.475;    0.000
367.324;  777.750;  202.475;    0.000
367.385;  688.750;  118.475;    0.000
367.447;  766.750;  155.475;    0.000
367.508;  724.750;  134.475;    0.000
367.570;  739.750;  165.475;    0.000
367.631;  699.750;  118.475;    0.000
367.693;  718.750;  170.475;    0.000
367.754;  733.750;  154.475;    0.000
367.816;  696.750;  146.475;    0.000
367.877;  740.750;  175.475;    0.000
367.939;  758.750;  200.475;    0.000
368.000;  739.750;  168.475;    0.000
368.062;  741.750;  138.475;    0.000
368.123;  678.750;  170.475;    0.000
368.184;  732.750;  188.475;    0.000
368.246;  737.750;  145.475;    0.000
368.307;  736.750;  163.475;    0.000
368.369;  693.750;  144.475;    0.000
368.430;  753.750;  140.475;    0.000
368.491;  740.750;  133.475;    0.000
368.553;  737.750;  145.475;    0.000
368.614;  718.750;  158.475;    0.000
368.675;  669.750;  147.475;    0.000
368.737;  659.750;  157.475;    0.000
368.798;  756.750;  163.475;    0.000
368.859;  757.750;  173.475;    0.000
368.921;  771.750;  122.475;    0.000
368.982;  733.750;  184.475;    0.000
369.043;  742.750;  169.475;    0.000
369.104;  750.750;  142.475;    0.000
369.166;  767.750;  169.475;    0.000
369.227;  714.750;  156.475;    0.000
369.288;  747.750;  151.475;    0.000
369.349;  747.750;  191.475;    0.000
369.411;  801.750;  168.475;    0.000
369.472;  760.750;  155.475;    0.000
369.533;  743.750;  149.475;    0.000
369.594;  728.750;  174.475;    0.000
369.656;  806.750;  188.475;    0.000
369.717;  653.750;  113.475;    0.000
369.778;  728.750;  184.475;    0.000
369.839;  728.750;  151.475;    0.000
369.900;  812.750;  180.475;    0.000
369.961;  747.750;  171.475;    0.000
370.023;  773.750;  143.475;    0.000
370.084;  754.750;  137.475;    0.000
370.145;  742.750;  152.475;    0.000
370.206;  784.750;  151.475;    0.000
370.267;  764.750;  134.475;    0.000
370.328;  785.750;  178.475;    0.000
370.389;  775.750;  181.475;    0.000
370.451;  809.750;  169.475;    0.000
370.512;  750.750;  172.475;    0.000
370.573;  776.750;  148.475;    0.000
370.634;  785.750;  156.475;    0.000
370.695;  776.750;  151.475;    0.000
370.756;  815.750;  185.475;    0.000
370.817;  763.750;  185.475;    0.000
370.878;  788.750;  191.475;    0.000
370.939;  765.750;  147.475;    0.000
371.000;  762.750;  162.475;    0.000
371.061;  798.750;  145.475;    0.000
371.122;  764.750;  179.475;    0.000
371.183;  718.750;  114.475;    0.000
371.244;  753.750;  180.475;    0.000
371.305;  819.750;  138.475;    0.000
371.366;  809.750;  157.475;    0.000
371.427;  758.750;  148.475;    0.000
371.488;  797.750;  138.475;    0.000
371.549;  777.750;  193.475;    0.000
371.610;  754.750;  158.475;    0.000
371.671;  795.750;  119.475;    0.000
371.732;  763.750;  159.475;    0.000
371.793;  825.750;  178.475;    0.000
371.853;  791.750;  155.475;    0.000
371.914;  779.750;  148.475;    0.000
371.975;  740.750;  124.475;    0.000
372.036;  758.750;  158.475;    0.000
372.097;  719.750;  136.475;    0.000
372.158;  774.750;  116.475;    0.000
372.219;  800.750;  157.475;    0.000
372.280;  774.750;  151.475;    0.000
372.340;  805.750;  190.475;    0.000
372.401;  802.750;  151.475;    0.000
372.462;  801.750;  129.475;    0.000
372.523;  784.750;  121.475;    0.000
372.584;  787.750;  152.475;    0.000
372.645;  795.750;  132.475;    0.000
372.705;  843.750;  190.475;    0.000
372.766;  827.750;  153.475;    0.000
372.827;  834.750;  133.475;    0.000
372.888;  776.750;  161.475;    0.000
372.948;  780.750;  159.475;    0.000
373.009;  798.750;  164.475;    0.000
373.070;  810.750;  139.475;    0.000
373.131;  791.750;  137.475;    0.000
373.191;  856.750;  181.475;    0.000
373.252;  796.750;  154.475;    0.000
373.313;  841.750;  179.475;    0.000
373.373;  781.750;  136.475;    0.000
373.434;  812.750;  169.475;    0.000
373.495;  786.750;   97.475;    0.000
373.555;  818.750;  142.475;    0.000
373.616;  793.750;  178.475;    0.000
373.677;  779.750;  167.475;    0.000
373.737;  806.750;  139.475;    0.000
373.798;  815.750;  155.475;    0.000
373.859;  789.750;  162.475;    0.000
373.919;  829.750;  174.475;    0.000
373.980;  818.750;  172.475;    0.000
374.041;  819.750;  166.475;    0.000
374.101;  816.750;  172.475;    0.000
374.162;  829.750;  188.475;    0.000
374.222;  851.750;  186.475;    0.000
374.283;  835.750;  195.475;    0.000
374.343;  872.750;  204.475;    0.000
374.404;  878.750;  187.475;    0.000
374.465;  855.750;  183.475;    0.000
374.525;  790.750;  136.475;    0.000
374.586;  818.750;  140.475;    0.000
374.646;  862.750;  191.475;    0.000
374.707;  893.750;  208.475;    0.000
374.767;  864.750;  178.475;    0.000
374.828;  871.750;  159.475;    0.000
374.888;  883.750;  143.475;    0.000
374.949;  833.750;  202.475;    0.000
375.009;  861.750;  151.475;    0.000
375.070;  856.750;  160.475;    0.000
375.130;  838.750;  160.475;    0.000
375.190;  838.750;  164.475;    0.000
375.251;  867.750;  196.475;    0.000
375.311;  813.750;  154.475;    0.000
375.372;  814.750;  197.475;    0.000
375.432;  873.750;  159.475;    0.000
375.493;  839.750;  197.475;    0.000
375.553;  852.750;  165.475;    0.000
375.613;  815.750;  174.475;    0.000
375.674;  885.750;  165.475;    0.000
375.734;  881.750;  128.475;    0.000
375.794;  792.750;  169.475;    0.000
375.855;  802.750;  193.475;    0.000
375.915;  904.750;  162.475;    0.000
375.975;  869.750;  181.475;    0.000
376.036;  823.750;  161.475;    0.000
376.096;  822.750;  131.475;    0.000
376.156;  905.750;  165.475;    0.000
376.217;  862.750;  182.475;    0.000
376.277;  889.750;  185.475;    0.000
376.337;  850.750;  177.475;    0.000
376.398;  919.750;  162.475;    0.000
376.458;  819.750;  179.475;    0.000
376.518;  843.750;  150.475;    0.000
376.578;  855.750;  165.475;    0.000
376.639;  859.750;  159.475;    0.000
376.699;  836.750;  180.475;    0.000
376.759;  838.750;  206.475;    0.000
376.819;  818.750;  146.475;    0.000
376.880;  850.750;  177.475;    0.000
376.940;  870.750;  160.475;    0.000
377.000;  842.750;  149.475;    0.000
377.060;  849.750;  180.475;    0.000
377.120;  907.750;  146.475;    0.000
377.180;  835.750;  137.475;    0.000
377.241;  885.750;  163.475;    0.000
377.301;  905.750;  169.475;    0.000
377.361;  901.750;  137.475;    0.000
377.421;  878.750;  184.475;    0.000
377.481;  836.750;  185.475;    0.000
377.541;  833.750;  146.475;    0.000
377.601;  875.750;  179.475;    0.000
377.661;  887.750;  181.475;    0.000
377.722;  881.750;  185.475;    0.000
377.782;  898.750;  147.475;    0.000
377.842;  889.750;  190.475;    0.000
377.902;  876.750;  166.475;    0.000
377.962;  856.750;  153.475;    0.000
378.022;  943.750;  163.475;    0.000
378.082;  881.750;  146.475;    0.000
378.142;  921.750;  152.475;    0.000
378.202;  922.750;  164.475;    0.000
378.262;  912.750;  195.475;    0.000
378.322;  968.750;  190.475;    0.000
378.382;  903.750;  152.475;    0.000
378.442;  973.750;  175.475;    0.000
378.502;  921.750;  153.475;    0.000
378.562;  984.750;  142.475;    0.000
378.622;  954.750;  166.475;    0.000
378.682;  966.750;  173.475;    0.000
378.742;  895.750;  182.475;    0.000
378.802;  925.750;  145.475;    0.000
378.862;  964.750;  210.475;    0.000
378.921;  897.750;  182.475;    0.000
378.981;  911.750;  185.475;    0.000
379.041;  976.750;  130.475;    0.000
379.101;  989.750;  177.475;    0.000
379.161;  934.750;  166.475;    0.000
379.221;  961.750;  162.475;    0.000
379.281;  966.750;  167.475;    0.000
379.341;  954.750;  136.475;    0.000
379.401;  977.750;  145.475;    0.000
379.460; 1009.750;  176.475;    0.000
379.520; 1009.750;  162.475;    0.000
379.580;  977.750;  144.475;    0.000
379.640;  941.750;  163.475;    0.000
379.700;  969.750;  157.475;    0.000
379.759; 1041.750;  165.475;    0.000
379.819; 1009.750;  190.475;    0.000
379.879;  971.750;  143.475;    0.000
379.939; 1011.750;  188.475;    0.000
379.999;  999.750;  141.475;    0.000
380.058;  975.750;  169.475;    0.000
380.118;  987.750;  158.475;    0.000
380.178; 1070.750;  114.475;    0.000
380.237; 1066.750;  157.475;    0.000
380.297; 1058.750;  177.475;    0.000
380.357; 1004.750;  189.475;    0.000
380.417; 1040.750;  182.475;    0.000
380.476; 1061.750;  178.475;    0.000
380.536; 1017.750;  189.475;    0.000
380.596; 1047.750;  183.475;    0.000
380.655; 1000.750;  195.475;    0.000
380.715;  960.750;  170.475;    0.000
380.775; 1079.750;  170.475;    0.000
380.834; 1079.750;  179.475;    0.000
380.894; 1088.750;  188.475;    0.000
380.954; 1004.750;  142.475;    0.000
381.013; 1084.750;  178.475;    0.000
381.073; 1104.750;  164.475;    0.000
381.132; 1096.750;  192.475;    0.000
381.192; 1074.750;  187.475;    0.000
381.252; 1058.750;  176.475;    0.000
381.311; 1050.750;  206.475;    0.000
381.371; 1064.750;  167.475;    0.000
381.430; 1084.750;  131.475;    0.000
381.490; 1065.750;  150.475;    0.000
381.549; 1121.750;  129.475;    0.000
381.609; 1173.750;  178.475;    0.000
381.668; 1114.750;  194.475;    0.000
381.728; 1134.750;  210.475;    0.000
381.787; 1131.750;  190.475;    0.000
381.847; 1161.750;  181.475;    0.000
381.906; 1227.750;  156.475;    0.000
381.966; 1133.750;  176.475;    0.000
382.025; 1137.750;  186.475;    0.000
382.085; 1168.750;  192.475;    0.000
382.144; 1215.750;  173.475;    0.000
382.204; 1260.750;  207.475;    0.000
382.263; 1227.750;  193.475;    0.000
382.323; 1223.750;  164.475;    0.000
382.382; 1260.750;  161.475;    0.000
382.441; 1216.750;  199.475;    0.000
382.501; 1306.750;  208.475;    0.000
382.560; 1366.750;  173.475;    0.000
382.619; 1350.750;  179.475;    0.000
382.679; 1410.750;  177.475;    0.000
382.738; 1570.750;  190.475;    0.000
382.798; 1627.750;  213.475;    0.000
382.857; 1733.750;  195.475;    0.000
382.916; 2069.750;  184.475;    0.000
382.976; 2027.750;  169.475;    0.000
383.035; 1779.750;  194.475;    0.000
383.094; 1926.750;  185.475;    0.000
383.154; 2219.750;  198.475;    0.000
383.213; 2605.750;  147.475;    0.000
383.272; 2494.750;  175.475;    0.000
383.331; 2024.750;  122.475;    0.000
383.391; 1767.750;  185.475;    0.000
383.450; 1734.750;  160.475;    0.000
383.509; 1741.750;  168.475;    0.000
383.568; 1787.750;  196.475;    0.000
383.628; 1916.750;  156.475;    0.000
383.687; 2120.750;  171.475;    0.000
383.746; 2335.750;  155.475;    0.000
383.805; 2821.750;  201.475;    0.000
383.864; 2886.750;  125.475;    0.000
383.924; 2242.750;  213.475;    0.000
383.983; 1716.750;  188.475;    0.000
384.042; 1660.750;  162.475;    0.000
384.101; 1537.750;  183.475;    0.000
384.160; 1439.750;  155.475;    0.000
384.219; 1367.750;  155.475;    0.000
384.279; 1384.750;  189.475;    0.000
384.338; 1346.750;  156.475;    0.000
384.397; 1283.750;  148.475;    0.000
384.456; 1328.750;  154.475;    0.000
384.515; 1258.750;  160.475;    0.000
384.574; 1296.750;  223.475;    0.000
384.633; 1223.750;  133.475;    0.000
384.692; 1230.750;  163.475;    0.000
384.751; 1212.750;  186.475;    0.000
384.810; 1253.750;  187.475;    0.000
384.869; 1140.750;  172.475;    0.000
384.929; 1214.750;  153.475;    0.000
384.988; 1201.750;  174.475;    0.000
385.047; 1224.750;  154.475;    0.000
385.106; 1197.750;  164.475;    0.000
385.165; 1162.750;  151.475;    0.000
385.224; 1153.750;  147.475;    0.000
385.283; 1197.750;  176.475;    0.000
385.342; 1174.750;  142.475;    0.000
385.401; 1243.750;  175.475;    0.000
385.459; 1179.750;  150.475;    0.000
385.518; 1171.750;  124.475;    0.000
385.577; 1121.750;  115.475;    0.000
385.636; 1189.750;  174.475;    0.000
385.695; 1156.750;  158.475;    0.000
385.754; 1156.750;  150.475;    0.000
385.813; 1104.750;  129.475;    0.000
385.872; 1115.750;  146.475;    0.000
385.931; 1215.750;  194.475;    0.000
385.990; 1216.750;  174.475;    0.000
386.049; 1172.750;  176.475;    0.000
386.107; 1162.750;  151.475;    0.000
386.166; 1202.750;  178.475;    0.000
386.225; 1162.750;  162.475;    0.000
386.284; 1156.750;  180.475;    0.000
386.343; 1196.750;  171.475;    0.000
386.402; 1167.750;  176.475;    0.000
386.460; 1115.750;  144.475;    0.000
386.519; 1093.750;  140.475;    0.000
386.578; 1144.750;  145.475;    0.000
386.637; 1160.750;  164.475;    0.000
386.696; 1226.750;  189.475;    0.000
386.754; 1134.750;  135.475;    0.000
386.813; 1133.750;  139.475;    0.000
386.872; 1114.750;  121.475;    0.000
386.931; 1126.750;  153.475;    0.000
386.989; 1183.750;  211.475;    0.000
387.048; 1057.750;  156.475;    0.000
387.107; 1209.750;  210.475;    0.000
387.165; 1103.750;  129.475;    0.000
387.224; 1135.750;  205.475;    0.000
387.283; 1136.750;  130.475;    0.000
387.342; 1143.750;  171.475;    0.000
387.400; 1121.750;  156.475;    0.000
387.459; 1086.750;  141.475;    0.000
387.517; 1118.750;  219.475;    0.000
387.576; 1162.750;  166.475;    0.000
387.635; 1146.750;  136.475;    0.000
387.693; 1169.750;  191.475;    0.000
387.752; 1207.750;  165.475;    0.000
387.811; 1149.750;  158.475;    0.000
387.869; 1139.750;  204.475;    0.000
387.928; 1099.750;  149.475;    0.000
387.986; 1139.750;  156.475;    0.000
388.045; 1078.750;  123.475;    0.000
388.103; 1073.750;  150.475;    0.000
388.162; 1080.750;  173.475;    0.000
388.221; 1192.750;  143.475;    0.000
388.279; 1086.750;  129.475;    0.000
388.338; 1239.750;  212.475;    0.000
388.396; 1127.750;  150.475;    0.000
388.455; 1168.750;  167.475;    0.000
388.513; 1034.750;  116.475;    0.000
388.572; 1129.750;  181.475;    0.000
388.630; 1112.750;  187.475;    0.000
388.689; 1034.750;  180.475;    0.000
388.747; 1174.750;  154.475;    0.000
388.806; 1097.750;  161.475;    0.000
388.864; 1099.750;  167.475;    0.000
388.922; 1152.750;  184.475;    0.000
388.981; 1079.750;  169.475;    0.000
389.039; 1145.750;  102.475;    0.000
389.098; 1135.750;  183.475;    0.000
389.156; 1146.750;  182.475;    0.000
389.214; 1104.750;  173.475;    0.000
389.273; 1114.750;  167.475;    0.000
389.331; 1121.750;  170.475;    0.000
389.390; 1186.750;  150.475;    0.000
389.448; 1103.750;  156.475;    0.000
389.506; 1138.750;  149.475;    0.000
389.565; 1071.750;  162.475;    0.000
389.623; 1151.750;  188.475;    0.000
389.681; 1159.750;  204.475;    0.000
389.740; 1162.750;  187.475;    0.000
389.798; 1157.750;  153.475;    0.000
389.856; 1150.750;  214.475;    0.000
389.914; 1080.750;  177.475;    0.000
389.973; 1048.750;  189.475;    0.000
390.031; 1111.750;  178.475;    0.000
390.089; 1157.750;  163.475;    0.000
390.147; 1093.750;  170.475;    0.000
390.206; 1122.750;  183.475;    0.000
390.264; 1118.750;  161.475;    0.000
390.322; 1154.750;  148.475;    0.000
390.380; 1055.750;  138.475;    0.000
390.439; 1089.750;  194.475;    0.000
390.497; 1105.750;  170.475;    0.000
390.555; 1117.750;  165.475;    0.000
390.613; 1075.750;  177.475;    0.000
390.671; 1166.750;  170.475;    0.000
390.729; 1141.750;  158.475;    0.000
390.788; 1147.750;  162.475;    0.000
390.846; 1109.750;  161.475;    0.000
390.904; 1124.750;  197.475;    0.000
390.962; 1145.750;  212.475;    0.000
391.020; 1133.750;  224.475;    0.000
391.078; 1158.750;  184.475;    0.000
391.136; 1137.750;  191.475;    0.000
391.194; 1086.750;  187.475;    0.000
391.253; 1105.750;  197.475;    0.000
391.311; 1141.750;  185.475;    0.000
391.369; 1141.750;  207.475;    0.000
391.427; 1181.750;  222.475;    0.000
391.485; 1129.750;  184.475;    0.000
391.543; 1167.750;  203.475;    0.000
391.601; 1107.750;  151.475;    0.000
391.659; 1065.750;  176.475;    0.000
391.717; 1143.750;  190.475;    0.000
391.775; 1099.750;  159.475;    0.000
391.833; 1150.750;  186.475;    0.000
391.891; 1102.750;  154.475;    0.000
391.949; 1099.750;  181.475;    0.000
392.007; 1164.750;  190.475;    0.000
392.065; 1032.750;  182.475;    0.000
392.123; 1063.750;  158.475;    0.000
392.180; 1189.750;  198.475;    0.000
392.238; 1154.750;  191.475;    0.000
392.296; 1200.750;  164.475;    0.000
392.354; 1154.750;  172.475;    0.000
392.412; 1152.750;  194.475;    0.000
392.470; 1099.750;  154.475;    0.000
392.528; 1155.750;  172.475;    0.000
392.586; 1136.750;  179.475;    0.000
392.644; 1203.750;  173.475;    0.000
392.701; 1108.750;  202.475;    0.000
392.759; 1152.750;  180.475;    0.000
392.817; 1130.750;  181.475;    0.000
392.875; 1150.750;  168.475;    0.000
392.933; 1112.750;  161.475;    0.000
392.991; 1212.750;  216.475;    0.000
393.048; 1136.750;  197.475;    0.000
393.106; 1143.750;  199.475;    0.000
393.164; 1173.750;  173.475;    0.000
393.222; 1144.750;  179.475;    0.000
393.279; 1170.750;  209.475;    0.000
393.337; 1206.750;  185.475;    0.000
393.395; 1184.750;  174.475;    0.000
393.453; 1193.750;  181.475;    0.000
393.510; 1246.750;  188.475;    0.000
393.568; 1139.750;  191.475;    0.000
393.626; 1135.750;  151.475;    0.000
393.684; 1142.750;  208.475;    0.000
393.741; 1139.750;  179.475;    0.000
393.799; 1153.750;  149.475;    0.000
393.857; 1112.750;  136.475;    0.000
393.914; 1168.750;  190.475;    0.000
393.972; 1151.750;  155.475;    0.000
394.030; 1128.750;  170.475;    0.000
394.087; 1197.750;  213.475;    0.000
394.145; 1166.750;  191.475;    0.000
394.202; 1136.750;  188.475;    0.000
394.260; 1146.750;  168.475;    0.000
394.318; 1146.750;  176.475;    0.000
394.375; 1159.750;  159.475;    0.000
394.433; 1141.750;  168.475;    0.000
394.490; 1176.750;  163.475;    0.000
394.548; 1169.750;  163.475;    0.000
394.605; 1215.750;  181.475;    0.000
394.663; 1176.750;  180.475;    0.000
394.720; 1179.750;  193.475;    0.000
394.778; 1200.750;  168.475;    0.000
394.836; 1187.750;  128.475;    0.000
394.893; 1154.750;  151.475;    0.000
394.951; 1176.750;  173.475;    0.000
395.008; 1216.750;  201.475;    0.000
395.065; 1170.750;  139.475;    0.000
395.123; 1238.750;  173.475;    0.000
395.180; 1171.750;  144.475;    0.000
395.238; 1146.750;  135.475;    0.000
395.295; 1144.750;  167.475;    0.000
395.353; 1193.750;  150.475;    0.000
395.410; 1177.750;  165.475;    0.000
395.468; 1208.750;  223.475;    0.000
395.525; 1191.750;  156.475;    0.000
395.582; 1200.750;  178.475;    0.000
395.640; 1223.750;  178.475;    0.000
395.697; 1219.750;  173.475;    0.000
395.754; 1282.750;  154.475;    0.000
395.812; 1258.750;  169.475;    0.000
395.869; 1254.750;  196.475;    0.000
395.927; 1208.750;  190.475;    0.000
395.984; 1202.750;  195.475;    0.000
396.041; 1187.750;  160.475;    0.000
396.098; 1219.750;  161.475;    0.000
396.156; 1205.750;  187.475;    0.000
396.213; 1236.750;  200.475;    0.000
396.270; 1291.750;  160.475;    0.000
396.328; 1208.750;  113.475;    0.000
396.385; 1174.750;  165.475;    0.000
396.442; 1199.750;  168.475;    0.000
396.499; 1224.750;  117.475;    0.000
396.557; 1242.750;  203.475;    0.000
396.614; 1230.750;  155.475;    0.000
396.671; 1207.750;  187.475;    0.000
396.728; 1204.750;  169.475;    0.000
396.785; 1178.750;  167.475;    0.000
396.843; 1241.750;  154.475;    0.000
396.900; 1247.750;  172.475;    0.000
396.957; 1240.750;  176.475;    0.000
397.014; 1250.750;  193.475;    0.000
397.071; 1285.750;  170.475;    0.000
397.128; 1221.750;  172.475;    0.000
397.186; 1238.750;  205.475;    0.000
397.243; 1280.750;  163.475;    0.000
397.300; 1313.750;  193.475;    0.000
397.357; 1247.750;  166.475;    0.000
397.414; 1275.750;  149.475;    0.000
397.471; 1235.750;  157.475;    0.000
397.528; 1256.750;  180.475;    0.000
397.585; 1313.750;  203.475;    0.000
397.642; 1286.750;  156.475;    0.000
397.699; 1284.750;  229.475;    0.000
397.756; 1204.750;  185.475;    0.000
397.814; 1264.750;  191.475;    0.000
397.871; 1257.750;  170.475;    0.000
397.928; 1275.750;  191.475;    0.000
397.985; 1310.750;  183.475;    0.000
398.042; 1324.750;  161.475;    0.000
398.099; 1346.750;  192.475;    0.000
398.156; 1267.750;  176.475;    0.000
398.212; 1310.750;  170.475;    0.000
398.269; 1271.750;  158.475;    0.000
398.326; 1334.750;  175.475;    0.000
398.383; 1317.750;  177.475;    0.000
398.440; 1340.750;  169.475;    0.000
398.497; 1305.750;  184.475;    0.000
398.554; 1312.750;  196.475;    0.000
398.611; 1329.750;  198.475;    0.000
398.668; 1331.750;  135.475;    0.000
398.725; 1266.750;  181.475;    0.000
398.782; 1355.750;  195.475;    0.000
398.839; 1370.750;  179.475;    0.000
398.895; 1273.750;  188.475;    0.000
398.952; 1328.750;  176.475;    0.000
399.009; 1337.750;  183.475;    0.000
399.066; 1350.750;  190.475;    0.000
399.123; 1393.750;  174.475;    0.000
399.180; 1375.750;  191.475;    0.000
399.236; 1410.750;  217.475;    0.000
399.293; 1413.750;  154.475;    0.000
399.350; 1365.750;  210.475;    0.000
399.407; 1377.750;  202.475;    0.000
399.463; 1450.750;  162.475;    0.000
399.520; 1433.750;  207.475;    0.000
399.577; 1365.750;  174.475;    0.000
399.634; 1383.750;  170.475;    0.000
399.690; 1383.750;  186.475;    0.000
399.747; 1483.750;  218.475;    0.000
399.804; 1449.750;  200.475;    0.000
399.861; 1429.750;  190.475;    0.000
399.917; 1406.750;  218.475;    0.000
399.974; 1410.750;  200.475;    0.000
400.031; 1514.750;  200.475;    0.000
400.087; 1389.750;  153.475;    0.000
400.144; 1379.750;  188.475;    0.000
400.201; 1407.750;  198.475;    0.000
400.257; 1387.750;  205.475;    0.000
400.314; 1383.750;  183.475;    0.000
400.370; 1397.750;  227.475;    0.000
400.427; 1414.750;  177.475;    0.000
400.484; 1424.750;  202.475;    0.000
400.540; 1392.750;  173.475;    0.000
400.597; 1458.750;  212.475;    0.000
400.653; 1423.750;  182.475;    0.000
400.710; 1455.750;  201.475;    0.000
400.766; 1432.750;  188.475;    0.000
400.823; 1432.750;  205.475;    0.000
400.879; 1381.750;  165.475;    0.000
400.936; 1358.750;  180.475;    0.000
400.993; 1374.750;  181.475;    0.000
401.049; 1406.750;  147.475;    0.000
401.105; 1474.750;  205.475;    0.000
401.162; 1385.750;  197.475;    0.000
401.218; 1407.750;  177.475;    0.000
401.275; 1407.750;  183.475;    0.000
401.331; 1367.750;  198.475;    0.000
401.388; 1413.750;  209.475;    0.000
401.444; 1385.750;  211.475;    0.000
401.501; 1402.750;  185.475;    0.000
401.557; 1420.750;  190.475;    0.000
401.614; 1302.750;  172.475;    0.000
401.670; 1369.750;  185.475;    0.000
401.726; 1379.750;  196.475;    0.000
401.783; 1369.750;  187.475;    0.000
401.839; 1368.750;  192.475;    0.000
401.895; 1367.750;  173.475;    0.000
401.952; 1395.750;  145.475;    0.000
402.008; 1382.750;  197.475;    0.000
402.064; 1371.750;  146.475;    0.000
402.121; 1406.750;  197.475;    0.000
402.177; 1358.750;  173.475;    0.000
402.233; 1418.750;  185.475;    0.000
402.290; 1327.750;  175.475;    0.000
402.346; 1368.750;  164.475;    0.000
402.402; 1439.750;  173.475;    0.000
402.458; 1449.750;  183.475;    0.000
402.515; 1421.750;  147.475;    0.000
402.571; 1398.750;  210.475;    0.000
402.627; 1382.750;  181.475;    0.000
402.683; 1418.750;  177.475;    0.000
402.740; 1373.750;  162.475;    0.000
402.796; 1445.750;  178.475;    0.000
402.852; 1411.750;  138.475;    0.000
402.908; 1411.750;  181.475;    0.000
402.964; 1459.750;  151.475;    0.000
403.021; 1431.750;  170.475;    0.000
403.077; 1401.750;  204.475;    0.000
403.133; 1408.750;  144.475;    0.000
403.189; 1486.750;  207.475;    0.000
403.245; 1482.750;  184.475;    0.000
403.301; 1464.750;  170.475;    0.000
403.357; 1469.750;  201.475;    0.000
403.414; 1440.750;  205.475;    0.000
403.470; 1405.750;  170.475;    0.000
403.526; 1477.750;  135.475;    0.000
403.582; 1470.750;  180.475;    0.000
403.638; 1417.750;  185.475;    0.000
403.694; 1450.750;  169.475;    0.000
403.750; 1453.750;  210.475;    0.000
403.806; 1485.750;  210.475;    0.000
403.862; 1431.750;  219.475;    0.000
403.918; 1531.750;  191.475;    0.000
403.974; 1439.750;  193.475;    0.000
404.030; 1547.750;  154.475;    0.000
404.086; 1369.750;  170.475;    0.000
404.142; 1482.750;  194.475;    0.000
404.198; 1490.750;  224.475;    0.000
404.254; 1536.750;  177.475;    0.000
404.310; 1442.750;  204.475;    0.000
404.366; 1479.750;  170.475;    0.000
404.422; 1421.750;  172.475;    0.000
404.478; 1507.750;  153.475;    0.000
404.534; 1512.750;  159.475;    0.000
404.590; 1427.750;  203.475;    0.000
404.646; 1450.750;  164.475;    0.000
404.701; 1457.750;  141.475;    0.000
404.757; 1528.750;  195.475;    0.000
404.813; 1394.750;  152.475;    0.000
404.869; 1500.750;  174.475;    0.000
404.925; 1491.750;  167.475;    0.000
404.981; 1491.750;  175.475;    0.000
405.037; 1496.750;  170.475;    0.000
405.092; 1489.750;  155.475;    0.000
405.148; 1458.750;  160.475;    0.000
405.204; 1510.750;  158.475;    0.000
405.260; 1500.750;  128.475;    0.000
405.316; 1454.750;  168.475;    0.000
405.371; 1501.750;  162.475;    0.000
405.427; 1557.750;  187.475;    0.000
405.483; 1557.750;  214.475;    0.000
405.539; 1568.750;  163.475;    0.000
405.594; 1461.750;  191.475;    0.000
405.650; 1429.750;  124.475;    0.000
405.706; 1469.750;  188.475;    0.000
405.761; 1539.750;  204.475;    0.000
405.817; 1510.750;  150.475;    0.000
405.873; 1533.750;  152.475;    0.000
405.928; 1485.750;  135.475;    0.000
405.984; 1539.750;  209.475;    0.000
406.040; 1524.750;  165.475;    0.000
406.095; 1513.750;  146.475;    0.000
406.151; 1579.750;  169.475;    0.000
406.207; 1537.750;  174.475;    0.000
406.262; 1556.750;  189.475;    0.000
406.318; 1534.750;  141.475;    0.000
406.374; 1521.750;  178.475;    0.000
406.429; 1546.750;  197.475;    0.000
406.485; 1589.750;  194.475;    0.000
406.540; 1512.750;  149.475;    0.000
406.596; 1575.750;  173.475;    0.000
406.651; 1585.750;  154.475;    0.000
406.707; 1599.750;  183.475;    0.000
406.763; 1541.750;  156.475;    0.000
406.818; 1556.750;  181.475;    0.000
406.874; 1564.750;  135.475;    0.000
406.929; 1621.750;  194.475;    0.000
406.985; 1506.750;  166.475;    0.000
407.040; 1643.750;  207.475;    0.000
407.095; 1596.750;  213.475;    0.000
407.151; 1614.750;  198.475;    0.000
407.206; 1621.750;  186.475;    0.000
407.262; 1589.750;  148.475;    0.000
407.317; 1728.750;  212.475;    0.000
407.373; 1724.750;  209.475;    0.000
407.428; 1673.750;  218.475;    0.000
407.484; 1581.750;  158.475;    0.000
407.539; 1625.750;  165.475;    0.000
407.594; 1732.750;  197.475;    0.000
407.650; 1650.750;  177.475;    0.000
407.705; 1655.750;  154.475;    0.000
407.760; 1673.750;  198.475;    0.000
407.816; 1645.750;  181.475;    0.000
407.871; 1684.750;  185.475;    0.000
407.926; 1719.750;  167.475;    0.000
407.982; 1618.750;  172.475;    0.000
408.037; 1693.750;  202.475;    0.000
408.092; 1651.750;  201.475;    0.000
408.148; 1636.750;  199.475;    0.000
408.203; 1674.750;  174.475;    0.000
408.258; 1615.750;  157.475;    0.000
408.314; 1649.750;  194.475;    0.000
408.369; 1664.750;  189.475;    0.000
408.424; 1718.750;  204.475;    0.000
408.479; 1701.750;  192.475;    0.000
408.534; 1762.750;  215.475;    0.000
408.590; 1717.750;  190.475;    0.000
408.645; 1652.750;  159.475;    0.000
408.700; 1669.750;  191.475;    0.000
408.755; 1657.750;  217.475;    0.000
408.810; 1617.750;  158.475;    0.000
408.866; 1691.750;  166.475;    0.000
408.921; 1638.750;  214.475;    0.000
408.976; 1749.750;  158.475;    0.000
409.031; 1643.750;  185.475;    0.000
409.086; 1711.750;  158.475;    0.000
409.141; 1610.750;  180.475;    0.000
409.196; 1635.750;  188.475;    0.000
409.252; 1605.750;  186.475;    0.000
409.307; 1616.750;  135.475;    0.000
409.362; 1586.750;  162.475;    0.000
409.417; 1667.750;  149.475;    0.000
409.472; 1664.750;  205.475;    0.000
409.527; 1693.750;  184.475;    0.000
409.582; 1630.750;  174.475;    0.000
409.637; 1609.750;  188.475;    0.000
409.692; 1620.750;  211.475;    0.000
409.747; 1658.750;  159.475;    0.000
409.802; 1643.750;  199.475;    0.000
409.857; 1681.750;  118.475;    0.000
409.912; 1699.750;  177.475;    0.000
409.967; 1644.750;  182.475;    0.000
410.022; 1701.750;  188.475;    0.000
410.077; 1634.750;  204.475;    0.000
410.132; 1607.750;  174.475;    0.000
410.187; 1584.750;  169.475;    0.000
410.242; 1652.750;  178.475;    0.000
410.297; 1677.750;  185.475;    0.000
410.351; 1623.750;  203.475;    0.000
410.406; 1664.750;  180.475;    0.000
410.461; 1626.750;  213.475;    0.000
410.516; 1650.750;  198.475;    0.000
410.571; 1597.750;  171.475;    0.000
410.626; 1702.750;  186.475;    0.000
410.681; 1692.750;  187.475;    0.000
410.736; 1683.750;  147.475;    0.000
410.790; 1693.750;  186.475;    0.000
410.845; 1693.750;  152.475;    0.000
410.900; 1645.750;  202.475;    0.000
410.955; 1692.750;  196.475;    0.000
411.010; 1650.750;  150.475;    0.000
411.064; 1609.750;  200.475;    0.000
411.119; 1665.750;  203.475;    0.000
411.174; 1751.750;  176.475;    0.000
411.229; 1708.750;  203.475;    0.000
411.283; 1645.750;  176.475;    0.000
411.338; 1639.750;  153.475;    0.000
411.393; 1549.750;  168.475;    0.000
411.447; 1638.750;  223.475;    0.000
411.502; 1694.750;  238.475;    0.000
411.557; 1687.750;  179.475;    0.000
411.612; 1696.750;  159.475;    0.000
411.666; 1703.750;  189.475;    0.000
411.721; 1649.750;  212.475;    0.000
411.776; 1713.750;  242.475;    0.000
411.830; 1736.750;  194.475;    0.000
411.885; 1654.750;  188.475;    0.000
411.939; 1674.750;  245.475;    0.000
411.994; 1639.750;  177.475;    0.000
412.049; 1681.750;  170.475;    0.000
412.103; 1706.750;  196.475;    0.000
412.158; 1665.750;  215.475;    0.000
412.212; 1695.750;  199.475;    0.000
412.267; 1680.750;  191.475;    0.000
412.322; 1773.750;  238.475;    0.000
412.376; 1701.750;  243.475;    0.000
412.431; 1749.750;  214.475;    0.000
412.485; 1684.750;  210.475;    0.000
412.540; 1652.750;  200.475;    0.000
412.594; 1681.750;  174.475;    0.000
412.649; 1703.750;  246.475;    0.000
412.703; 1693.750;  182.475;    0.000
412.758; 1682.750;  222.475;    0.000
412.812; 1734.750;  201.475;    0.000
412.866; 1753.750;  162.475;    0.000
412.921; 1706.750;  202.475;    0.000
412.975; 1673.750;  212.475;    0.000
413.030; 1675.750;  238.475;    0.000
413.084; 1683.750;  201.475;    0.000
413.139; 1751.750;  210.475;    0.000
413.193; 1655.750;  218.475;    0.000
413.247; 1699.750;  203.475;    0.000
413.302; 1668.750;  176.475;    0.000
413.356; 1702.750;  215.475;    0.000
413.410; 1666.750;  204.475;    0.000
413.465; 1686.750;  186.475;    0.000
413.519; 1600.750;  196.475;    0.000
413.573; 1710.750;  181.475;    0.000
413.628; 1737.750;  200.475;    0.000
413.682; 1725.750;  157.475;    0.000
413.736; 1649.750;  194.475;    0.000
413.791; 1648.750;  193.475;    0.000
413.845; 1639.750;  225.475;    0.000
413.899; 1653.750;  195.475;    0.000
413.953; 1667.750;  173.475;    0.000
414.008; 1665.750;  186.475;    0.000
414.062; 1720.750;  217.475;    0.000
414.116; 1656.750;  169.475;    0.000
414.170; 1731.750;  228.475;    0.000
414.225; 1610.750;  177.475;    0.000
414.279; 1725.750;  210.475;    0.000
414.333; 1698.750;  207.475;    0.000
414.387; 1712.750;  217.475;    0.000
414.441; 1760.750;  187.475;    0.000
414.496; 1699.750;  215.475;    0.000
414.550; 1677.750;  204.475;    0.000
414.604; 1713.750;  206.475;    0.000
414.658; 1750.750;  139.475;    0.000
414.712; 1718.750;  198.475;    0.000
414.766; 1688.750;  208.475;    0.000
414.820; 1707.750;  199.475;    0.000
414.874; 1729.750;  216.475;    0.000
414.928; 1663.750;  186.475;    0.000
414.982; 1701.750;  176.475;    0.000
415.037; 1722.750;  181.475;    0.000
415.091; 1736.750;  208.475;    0.000
415.145; 1683.750;  209.475;    0.000
415.199; 1714.750;  186.475;    0.000
415.253; 1701.750;  203.475;    0.000
415.307; 1687.750;  197.475;    0.000
415.361; 1686.750;  223.475;    0.000
415.415; 1698.750;  213.475;    0.000
415.469; 1709.750;  226.475;    0.000
415.523; 1685.750;  222.475;    0.000
415.577; 1654.750;  205.475;    0.000
415.631; 1681.750;  224.475;    0.000
415.684; 1781.750;  193.475;    0.000
415.738; 1729.750;  224.475;    0.000
415.792; 1677.750;  204.475;    0.000
415.846; 1765.750;  189.475;    0.000
415.900; 1687.750;  223.475;    0.000
415.954; 1737.750;  187.475;    0.000
416.008; 1753.750;  237.475;    0.000
416.062; 1611.750;  195.475;    0.000
416.116; 1703.750;  223.475;    0.000
416.169; 1734.750;  210.475;    0.000
416.223; 1679.750;  232.475;    0.000
416.277; 1715.750;  227.475;    0.000
416.331; 1662.750;  216.475;    0.000
416.385; 1676.750;  186.475;    0.000
416.439; 1725.750;  226.475;    0.000
416.492; 1640.750;  229.475;    0.000
416.546; 1676.750;  216.475;    0.000
416.600; 1691.750;  211.475;    0.000
416.654; 1694.750;  226.475;    0.000
416.707; 1635.750;  248.475;    0.000
416.761; 1628.750;  217.475;    0.000
416.815; 1632.750;  207.475;    0.000
416.869; 1696.750;  226.475;    0.000
416.922; 1647.750;  192.475;    0.000
416.976; 1692.750;  205.475;    0.000
417.030; 1684.750;  233.475;    0.000
417.083; 1606.750;  226.475;    0.000
417.137; 1720.750;  222.475;    0.000
417.191; 1708.750;  217.475;    0.000
417.244; 1732.750;  221.475;    0.000
417.298; 1690.750;  201.475;    0.000
417.352; 1663.750;  170.475;    0.000
417.405; 1728.750;  234.475;    0.000
417.459; 1660.750;  241.475;    0.000
417.512; 1652.750;  247.475;    0.000
417.566; 1647.750;  219.475;    0.000
417.620; 1706.750;  228.475;    0.000
417.673; 1678.750;  192.475;    0.000
417.727; 1676.750;  203.475;    0.000
417.780; 1738.750;  204.475;    0.000
417.834; 1670.750;  234.475;    0.000
417.887; 1711.750;  245.475;    0.000
417.941; 1695.750;  211.475;    0.000
417.994; 1662.750;  244.475;    0.000
418.048; 1687.750;  203.475;    0.000
418.101; 1695.750;  212.475;    0.000
418.155; 1660.750;  251.475;    0.000
418.208; 1708.750;  286.475;    0.000
418.262; 1717.750;  243.475;    0.000
418.315; 1704.750;  214.475;    0.000
418.369; 1612.750;  269.475;    0.000
418.422; 1698.750;  222.475;    0.000
418.476; 1730.750;  226.475;    0.000
418.529; 1687.750;  238.475;    0.000
418.582; 1724.750;  210.475;    0.000
418.636; 1694.750;  221.475;    0.000
418.689; 1751.750;  224.475;    0.000
418.743; 1691.750;  228.475;    0.000
418.796; 1650.750;  192.475;    0.000
418.849; 1750.750;  230.475;    0.000
418.903; 1691.750;  257.475;    0.000
418.956; 1664.750;  241.475;    0.000
419.009; 1728.750;  247.475;    0.000
419.063; 1731.750;  235.475;    0.000
419.116; 1681.750;  218.475;    0.000
419.169; 1704.750;  219.475;    0.000
419.222; 1652.750;  215.475;    0.000
419.276; 1704.750;  202.475;    0.000
419.329; 1674.750;  210.475;    0.000
419.382; 1655.750;  188.475;    0.000
419.435; 1658.750;  222.475;    0.000
419.489; 1720.750;  232.475;    0.000
419.542; 1680.750;  250.475;    0.000
419.595; 1727.750;  240.475;    0.000
419.648; 1698.750;  261.475;    0.000
419.701; 1651.750;  222.475;    0.000
419.755; 1622.750;  233.475;    0.000
419.808; 1744.750;  178.475;    0.000
419.861; 1648.750;  207.475;    0.000
419.914; 1643.750;  223.475;    0.000
419.967; 1668.750;  216.475;    0.000
420.020; 1625.750;  211.475;    0.000
420.073; 1684.750;  200.475;    0.000
420.127; 1630.750;  248.475;    0.000
420.180; 1658.750;  220.475;    0.000
420.233; 1632.750;  215.475;    0.000
420.286; 1649.750;  222.475;    0.000
420.339; 1620.750;  229.475;    0.000
420.392; 1691.750;  245.475;    0.000
420.445; 1649.750;  221.475;    0.000
420.498; 1670.750;  224.475;    0.000
420.551; 1575.750;  170.475;    0.000
420.604; 1630.750;  237.475;    0.000
420.657; 1686.750;  235.475;    0.000
420.710; 1575.750;  223.475;    0.000
420.763; 1669.750;  219.475;    0.000
420.816; 1606.750;  200.475;    0.000
420.869; 1579.750;  197.475;    0.000
420.922; 1709.750;  212.475;    0.000
420.975; 1610.750;  274.475;    0.000
421.028; 1607.750;  228.475;    0.000
421.081; 1645.750;  243.475;    0.000
421.134; 1628.750;  227.475;    0.000
421.187; 1609.750;  245.475;    0.000
421.239; 1599.750;  210.475;    0.000
421.292; 1634.750;  193.475;    0.000
421.345; 1623.750;  226.475;    0.000
421.398; 1624.750;  226.475;    0.000
421.451; 1635.750;  259.475;    0.000
421.504; 1530.750;  204.475;    0.000
421.557; 1583.750;  215.475;    0.000
421.609; 1608.750;  194.475;    0.000
421.662; 1594.750;  216.475;    0.000
421.715; 1584.750;  226.475;    0.000
421.768; 1679.750;  177.475;    0.000
421.821; 1556.750;  210.475;    0.000
421.873; 1576.750;  208.475;    0.000
421.926; 1643.750;  223.475;    0.000
421.979; 1652.750;  230.475;    0.000
422.032; 1632.750;  227.475;    0.000
422.084; 1548.750;  234.475;    0.000
422.137; 1540.750;  207.475;    0.000
422.190; 1604.750;  228.475;    0.000
422.243; 1680.750;  206.475;    0.000
422.295; 1570.750;  236.475;    0.000
422.348; 1662.750;  232.475;    0.000
422.401; 1646.750;  228.475;    0.000
422.453; 1622.750;  239.475;    0.000
422.506; 1630.750;  226.475;    0.000
422.559; 1591.750;  205.475;    0.000
422.611; 1577.750;  235.475;    0.000
422.664; 1605.750;  231.475;    0.000
422.716; 1583.750;  228.475;    0.000
422.769; 1519.750;  204.475;    0.000
422.822; 1660.750;  205.475;    0.000
422.874; 1535.750;  228.475;    0.000
422.927; 1663.750;  266.475;    0.000
422.979; 1622.750;  223.475;    0.000
423.032; 1576.750;  207.475;    0.000
423.084; 1556.750;  211.475;    0.000
423.137; 1516.750;  205.475;    0.000
423.189; 1540.750;  254.475;    0.000
423.242; 1519.750;  208.475;    0.000
423.294; 1616.750;  240.475;    0.000
423.347; 1568.750;  218.475;    0.000
423.399; 1576.750;  237.475;    0.000
423.452; 1610.750;  242.475;    0.000
423.504; 1602.750;  225.475;    0.000
423.557; 1550.750;  195.475;    0.000
423.609; 1524.750;  206.475;    0.000
423.662; 1656.750;  211.475;    0.000
423.714; 1633.750;  252.475;    0.000
423.766; 1547.750;  181.475;    0.000
423.819; 1611.750;  216.475;    0.000
423.871; 1580.750;  216.475;    0.000
423.923; 1522.750;  222.475;    0.000
423.976; 1517.750;  223.475;    0.000
424.028; 1484.750;  229.475;    0.000
424.081; 1564.750;  267.475;    0.000
424.133; 1626.750;  251.475;    0.000
424.185; 1527.750;  238.475;    0.000
424.238; 1659.750;  220.475;    0.000
424.290; 1542.750;  259.475;    0.000
424.342; 1580.750;  248.475;    0.000
424.394; 1535.750;  234.475;    0.000
424.447; 1564.750;  248.475;    0.000
424.499; 1572.750;  233.475;    0.000
424.551; 1615.750;  236.475;    0.000
424.603; 1562.750;  207.475;    0.000
424.656; 1566.750;  210.475;    0.000
424.708; 1518.750;  251.475;    0.000
424.760; 1506.750;  221.475;    0.000
424.812; 1682.750;  275.475;    0.000
424.864; 1603.750;  206.475;    0.000
424.917; 1467.750;  198.475;    0.000
424.969; 1583.750;  246.475;    0.000
425.021; 1557.750;  209.475;    0.000
425.073; 1573.750;  242.475;    0.000
425.125; 1562.750;  254.475;    0.000
425.177; 1576.750;  224.475;    0.000
425.229; 1618.750;  256.475;    0.000
425.282; 1595.750;  265.475;    0.000
425.334; 1579.750;  266.475;    0.000
425.386; 1583.750;  242.475;    0.000
425.438; 1500.750;  205.475;    0.000
425.490; 1507.750;  227.475;    0.000
425.542; 1560.750;  235.475;    0.000
425.594; 1550.750;  210.475;    0.000
425.646; 1544.750;  232.475;    0.000
425.698; 1512.750;  243.475;    0.000
425.750; 1518.750;  230.475;    0.000
425.802; 1558.750;  218.475;    0.000
425.854; 1537.750;  222.475;    0.000
425.906; 1512.750;  235.475;    0.000
425.958; 1496.750;  220.475;    0.000
426.010; 1537.750;  236.475;    0.000
426.062; 1589.750;  230.475;    0.000
426.114; 1493.750;  216.475;    0.000
426.166; 1474.750;  230.475;    0.000
426.218; 1542.750;  237.475;    0.000
426.270; 1501.750;  217.475;    0.000
426.321; 1461.750;  224.475;    0.000
426.373; 1551.750;  207.475;    0.000
426.425; 1505.750;  278.475;    0.000
426.477; 1495.750;  243.475;    0.000
426.529; 1601.750;  247.475;    0.000
426.581; 1475.750;  229.475;    0.000
426.633; 1532.750;  212.475;    0.000
426.684; 1491.750;  244.475;    0.000
426.736; 1458.750;  250.475;    0.000
426.788; 1483.750;  210.475;    0.000
426.840; 1476.750;  201.475;    0.000
426.892; 1508.750;  225.475;    0.000
426.943; 1458.750;  215.475;    0.000
426.995; 1445.750;  216.475;    0.000
427.047; 1494.750;  216.475;    0.000
427.099; 1514.750;  203.475;    0.000
427.150; 1532.750;  195.475;    0.000
427.202; 1501.750;  212.475;    0.000
427.254; 1517.750;  233.475;    0.000
427.306; 1507.750;  211.475;    0.000
427.357; 1519.750;  210.475;    0.000
427.409; 1556.750;  244.475;    0.000
427.461; 1455.750;  187.475;    0.000
427.512; 1489.750;  227.475;    0.000
427.564; 1512.750;  210.475;    0.000
427.616; 1462.750;  202.475;    0.000
427.667; 1454.750;  185.475;    0.000
427.719; 1478.750;  222.475;    0.000
427.770; 1471.750;  230.475;    0.000
427.822; 1542.750;  254.475;    0.000
427.874; 1433.750;  222.475;    0.000
427.925; 1427.750;  199.475;    0.000
427.977; 1451.750;  228.475;    0.000
428.028; 1486.750;  226.475;    0.000
428.080; 1473.750;  236.475;    0.000
428.131; 1485.750;  220.475;    0.000
428.183; 1502.750;  256.475;    0.000
428.234; 1468.750;  217.475;    0.000
428.286; 1525.750;  234.475;    0.000
428.337; 1491.750;  209.475;    0.000
428.389; 1475.750;  219.475;    0.000
428.440; 1527.750;  249.475;    0.000
428.492; 1482.750;  255.475;    0.000
428.543; 1413.750;  224.475;    0.000
428.595; 1400.750;  225.475;    0.000
428.646; 1486.750;  240.475;    0.000
428.697; 1404.750;  211.475;    0.000
428.749; 1477.750;  200.475;    0.000
428.800; 1479.750;  235.475;    0.000
428.852; 1514.750;  265.475;    0.000
428.903; 1441.750;  201.475;    0.000
428.954; 1432.750;  242.475;    0.000
429.006; 1471.750;  245.475;    0.000
429.057; 1488.750;  252.475;    0.000
429.108; 1473.750;  211.475;    0.000
429.160; 1411.750;  217.475;    0.000
429.211; 1450.750;  234.475;    0.000
429.262; 1422.750;  205.475;    0.000
429.314; 1440.750;  211.475;    0.000
429.365; 1509.750;  240.475;    0.000
429.416; 1440.750;  263.475;    0.000
429.467; 1505.750;  244.475;    0.000
429.519; 1435.750;  223.475;    0.000
429.570; 1390.750;  214.475;    0.000
429.621; 1445.750;  235.475;    0.000
429.672; 1430.750;  202.475;    0.000
429.724; 1367.750;  189.475;    0.000
429.775; 1520.750;  214.475;    0.000
429.826; 1425.750;  178.475;    0.000
429.877; 1389.750;  224.475;    0.000
429.928; 1457.750;  230.475;    0.000
429.980; 1418.750;  199.475;    0.000
430.031; 1452.750;  208.475;    0.000
430.082; 1419.750;  224.475;    0.000
430.133; 1465.750;  193.475;    0.000
430.184; 1493.750;  220.475;    0.000
430.235; 1417.750;  184.475;    0.000
430.286; 1384.750;  197.475;    0.000
430.337; 1450.750;  199.475;    0.000
430.388; 1403.750;  207.475;    0.000
430.439; 1431.750;  227.475;    0.000
430.490; 1415.750;  215.475;    0.000
430.542; 1422.750;  211.475;    0.000
430.593; 1397.750;  230.475;    0.000
430.644; 1478.750;  186.475;    0.000
430.695; 1434.750;  232.475;    0.000
430.746; 1372.750;  214.475;    0.000
430.797; 1449.750;  260.475;    0.000
430.848; 1453.750;  214.475;    0.000
430.898; 1405.750;  204.475;    0.000
430.949; 1419.750;  189.475;    0.000
431.000; 1486.750;  240.475;    0.000
431.051; 1489.750;  201.475;    0.000
431.102; 1439.750;  188.475;    0.000
431.153; 1477.750;  209.475;    0.000
431.204; 1370.750;  187.475;    0.000
431.255; 1391.750;  171.475;    0.000
431.306; 1453.750;  181.475;    0.000
431.357; 1426.750;  221.475;    0.000
431.408; 1453.750;  217.475;    0.000
431.458; 1435.750;  206.475;    0.000
431.509; 1402.750;  194.475;    0.000
431.560; 1455.750;  235.475;    0.000
431.611; 1329.750;  213.475;    0.000
431.662; 1389.750;  237.475;    0.000
431.713; 1450.750;  220.475;    0.000
431.763; 1405.750;  212.475;    0.000
431.814; 1416.750;  238.475;    0.000
431.865; 1357.750;  213.475;    0.000
431.916; 1443.750;  191.475;    0.000
431.966; 1419.750;  171.475;    0.000
432.017; 1449.750;  263.475;    0.000
432.068; 1450.750;  240.475;    0.000
432.118; 1439.750;  235.475;    0.000
432.169; 1416.750;  212.475;    0.000
432.220; 1468.750;  188.475;    0.000
432.271; 1387.750;  216.475;    0.000
432.321; 1387.750;  223.475;    0.000
432.372; 1436.750;  254.475;    0.000
432.423; 1396.750;  193.475;    0.000
432.473; 1456.750;  219.475;    0.000
432.524; 1430.750;  215.475;    0.000
432.574; 1454.750;  234.475;    0.000
432.625; 1328.750;  226.475;    0.000
432.676; 1426.750;  219.475;    0.000
432.726; 1462.750;  254.475;    0.000
432.777; 1399.750;  210.475;    0.000
432.827; 1429.750;  234.475;    0.000
432.878; 1444.750;  212.475;    0.000
432.928; 1429.750;  238.475;    0.000
432.979; 1479.750;  252.475;    0.000
433.029; 1394.750;  222.475;    0.000
433.080; 1407.750;  188.475;    0.000
433.130; 1388.750;  223.475;    0.000
433.181; 1453.750;  254.475;    0.000
433.231; 1452.750;  237.475;    0.000
433.282; 1405.750;  242.475;    0.000
433.332; 1466.750;  261.475;    0.000
433.383; 1528.750;  266.475;    0.000
433.433; 1475.750;  286.475;    0.000
433.484; 1408.750;  231.475;    0.000
433.534; 1391.750;  256.475;    0.000
433.585; 1399.750;  253.475;    0.000
433.635; 1446.750;  228.475;    0.000
433.685; 1458.750;  226.475;    0.000
433.736; 1448.750;  276.475;    0.000
433.786; 1428.750;  253.475;    0.000
433.836; 1428.750;  289.475;    0.000
433.887; 1427.750;  241.475;    0.000
433.937; 1439.750;  252.475;    0.000
433.987; 1398.750;  223.475;    0.000
434.038; 1458.750;  241.475;    0.000
434.088; 1430.750;  231.475;    0.000
434.138; 1366.750;  259.475;    0.000
434.189; 1442.750;  263.475;    0.000
434.239; 1407.750;  194.475;    0.000
434.289; 1479.750;  273.475;    0.000
434.339; 1507.750;  212.475;    0.000
434.389; 1453.750;  248.475;    0.000
434.440; 1463.750;  250.475;    0.000
434.490; 1428.750;  278.475;    0.000
434.540; 1470.750;  241.475;    0.000
434.590; 1430.750;  251.475;    0.000
434.640; 1459.750;  207.475;    0.000
434.691; 1500.750;  242.475;    0.000
434.741; 1422.750;  218.475;    0.000
434.791; 1441.750;  267.475;    0.000
434.841; 1471.750;  272.475;    0.000
434.891; 1502.750;  260.475;    0.000
434.941; 1542.750;  258.475;    0.000
434.991; 1399.750;  264.475;    0.000
435.042; 1467.750;  264.475;    0.000
435.092; 1466.750;  271.475;    0.000
435.142; 1449.750;  229.475;    0.000
435.192; 1365.750;  226.475;    0.000
435.242; 1440.750;  253.475;    0.000
435.292; 1480.750;  215.475;    0.000
435.342; 1461.750;  240.475;    0.000
435.392; 1429.750;  235.475;    0.000
435.442; 1409.750;  230.475;    0.000
435.492; 1454.750;  235.475;    0.000
435.542; 1304.750;  230.475;    0.000
435.592; 1391.750;  239.475;    0.000
435.642; 1423.750;  244.475;    0.000
435.692; 1469.750;  236.475;    0.000
435.742; 1411.750;  236.475;    0.000
435.792; 1474.750;  230.475;    0.000
435.842; 1444.750;  248.475;    0.000
435.891; 1418.750;  233.475;    0.000
435.941; 1427.750;  243.475;    0.000
435.991; 1464.750;  279.475;    0.000
436.041; 1347.750;  204.475;    0.000
436.091; 1480.750;  217.475;    0.000
436.141; 1361.750;  205.475;    0.000
436.191; 1388.750;  220.475;    0.000
436.241; 1326.750;  248.475;    0.000
436.290; 1386.750;  255.475;    0.000
436.340; 1410.750;  235.475;    0.000
436.390; 1401.750;  207.475;    0.000
436.440; 1388.750;  207.475;    0.000
436.490; 1365.750;  251.475;    0.000
436.539; 1321.750;  240.475;    0.000
436.589; 1351.750;  198.475;    0.000
436.639; 1377.750;  240.475;    0.000
436.689; 1418.750;  216.475;    0.000
436.738; 1393.750;  246.475;    0.000
436.788; 1349.750;  203.475;    0.000
436.838; 1388.750;  230.475;    0.000
436.887; 1357.750;  235.475;    0.000
436.937; 1417.750;  249.475;    0.000
436.987; 1373.750;  208.475;    0.000
437.036; 1421.750;  232.475;    0.000
437.086; 1316.750;  238.475;    0.000
437.136; 1381.750;  228.475;    0.000
437.185; 1371.750;  219.475;    0.000
437.235; 1401.750;  227.475;    0.000
437.285; 1363.750;  241.475;    0.000
437.334; 1354.750;  216.475;    0.000
437.384; 1391.750;  243.475;    0.000
437.433; 1354.750;  214.475;    0.000
437.483; 1383.750;  246.475;    0.000
437.532; 1374.750;  261.475;    0.000
437.582; 1411.750;  205.475;    0.000
437.631; 1440.750;  218.475;    0.000
437.681; 1379.750;  240.475;    0.000
437.730; 1360.750;  258.475;    0.000
437.780; 1367.750;  237.475;    0.000
437.829; 1394.750;  209.475;    0.000
437.879; 1332.750;  214.475;    0.000
437.928; 1290.750;  223.475;    0.000
437.978; 1388.750;  220.475;    0.000
438.027; 1364.750;  239.475;    0.000
438.077; 1385.750;  231.475;    0.000
438.126; 1416.750;  266.475;    0.000
438.176; 1405.750;  234.475;    0.000
438.225; 1364.750;  237.475;    0.000
438.274; 1366.750;  234.475;    0.000
438.324; 1405.750;  244.475;    0.000
438.373; 1398.750;  232.475;    0.000
438.422; 1337.750;  218.475;    0.000
438.472; 1338.750;  221.475;    0.000
438.521; 1293.750;  190.475;    0.000
438.570; 1417.750;  243.475;    0.000
438.620; 1449.750;  255.475;    0.000
438.669; 1341.750;  210.475;    0.000
438.718; 1339.750;  237.475;    0.000
438.768; 1293.750;  220.475;    0.000
438.817; 1363.750;  218.475;    0.000
438.866; 1323.750;  198.475;    0.000
438.915; 1425.750;  256.475;    0.000
438.965; 1368.750;  221.475;    0.000
439.014; 1373.750;  255.475;    0.000
439.063; 1418.750;  276.475;    0.000
439.112; 1296.750;  220.475;    0.000
439.162; 1359.750;  253.475;    0.000
439.211; 1360.750;  247.475;    0.000
439.260; 1361.750;  220.475;    0.000
439.309; 1293.750;  235.475;    0.000
439.358; 1382.750;  205.475;    0.000
439.407; 1312.750;  207.475;    0.000
439.456; 1326.750;  216.475;    0.000
439.506; 1371.750;  245.475;    0.000
439.555; 1355.750;  264.475;    0.000
439.604; 1335.750;  227.475;    0.000
439.653; 1400.750;  220.475;    0.000
439.702; 1375.750;  223.475;    0.000
439.751; 1324.750;  197.475;    0.000
439.800; 1382.750;  207.475;    0.000
439.849; 1336.750;  238.475;    0.000
439.898; 1366.750;  209.475;    0.000
439.947; 1380.750;  170.475;    0.000
439.996; 1400.750;  233.475;    0.000
440.045; 1343.750;  222.475;    0.000
440.094; 1378.750;  240.475;    0.000
440.143; 1335.750;  249.475;    0.000
440.192; 1336.750;  252.475;    0.000
440.241; 1370.750;  239.475;    0.000
440.290; 1410.750;  234.475;    0.000
440.339; 1305.750;  241.475;    0.000
440.388; 1402.750;  239.475;    0.000
440.437; 1346.750;  231.475;    0.000
440.486; 1301.750;  254.475;    0.000
440.535; 1383.750;  266.475;    0.000
440.583; 1405.750;  205.475;    0.000
440.632; 1403.750;  234.475;    0.000
440.681; 1361.750;  218.475;    0.000
440.730; 1439.750;  248.475;    0.000
440.779; 1376.750;  246.475;    0.000
440.828; 1339.750;  235.475;    0.000
440.876; 1334.750;  218.475;    0.000
440.925; 1371.750;  228.475;    0.000
440.974; 1406.750;  249.475;    0.000
441.023; 1382.750;  192.475;    0.000
441.072; 1360.750;  226.475;    0.000
441.120; 1517.750;  238.475;    0.000
441.169; 1434.750;  255.475;    0.000
441.218; 1379.750;  233.475;    0.000
441.267; 1423.750;  231.475;    0.000
441.315; 1372.750;  214.475;    0.000
441.364; 1385.750;  250.475;    0.000
441.413; 1393.750;  228.475;    0.000
441.461; 1404.750;  209.475;    0.000
441.510; 1388.750;  260.475;    0.000
441.559; 1456.750;  230.475;    0.000
441.607; 1469.750;  220.475;    0.000
441.656; 1331.750;  251.475;    0.000
441.705; 1458.750;  237.475;    0.000
441.753; 1462.750;  257.475;    0.000
441.802; 1410.750;  256.475;    0.000
441.850; 1411.750;  253.475;    0.000
441.899; 1442.750;  212.475;    0.000
441.948; 1413.750;  251.475;    0.000
441.996; 1387.750;  239.475;    0.000
442.045; 1461.750;  223.475;    0.000
442.093; 1408.750;  211.475;    0.000
442.142; 1431.750;  235.475;    0.000
442.190; 1487.750;  254.475;    0.000
442.239; 1400.750;  226.475;    0.000
442.287; 1463.750;  242.475;    0.000
442.336; 1410.750;  256.475;    0.000
442.384; 1410.750;  252.475;    0.000
442.433; 1510.750;  262.475;    0.000
442.481; 1434.750;  246.475;    0.000
442.529; 1408.750;  290.475;    0.000
442.578; 1397.750;  247.475;    0.000
442.626; 1441.750;  247.475;    0.000
442.675; 1489.750;  272.475;    0.000
442.723; 1407.750;  230.475;    0.000
442.771; 1446.750;  234.475;    0.000
442.820; 1467.750;  224.475;    0.000
442.868; 1421.750;  246.475;    0.000
442.917; 1433.750;  249.475;    0.000
442.965; 1412.750;  260.475;    0.000
443.013; 1395.750;  258.475;    0.000
443.062; 1480.750;  259.475;    0.000
443.110; 1395.750;  226.475;    0.000
443.158; 1445.750;  213.475;    0.000
443.206; 1392.750;  201.475;    0.000
443.255; 1458.750;  280.475;    0.000
443.303; 1460.750;  292.475;    0.000
443.351; 1400.750;  256.475;    0.000
443.399; 1357.750;  215.475;    0.000
443.448; 1414.750;  243.475;    0.000
443.496; 1453.750;  249.475;    0.000
443.544; 1400.750;  231.475;    0.000
443.592; 1454.750;  243.475;    0.000
443.640; 1415.750;  252.475;    0.000
443.689; 1439.750;  220.475;    0.000
443.737; 1517.750;  231.475;    0.000
443.785; 1474.750;  256.475;    0.000
443.833; 1423.750;  268.475;    0.000
443.881; 1374.750;  181.475;    0.000
443.929; 1454.750;  245.475;    0.000
443.977; 1483.750;  278.475;    0.000
444.025; 1443.750;  245.475;    0.000
444.074; 1486.750;  233.475;    0.000
444.122; 1469.750;  267.475;    0.000
444.170; 1419.750;  247.475;    0.000
444.218; 1514.750;  246.475;    0.000
444.266; 1488.750;  275.475;    0.000
444.314; 1485.750;  263.475;    0.000
444.362; 1449.750;  240.475;    0.000
444.410; 1508.750;  220.475;    0.000
444.458; 1475.750;  258.475;    0.000
444.506; 1570.750;  258.475;    0.000
444.554; 1521.750;  224.475;    0.000
444.602; 1529.750;  245.475;    0.000
444.650; 1512.750;  261.475;    0.000
444.698; 1434.750;  232.475;    0.000
444.746; 1527.750;  206.475;    0.000
444.793; 1487.750;  249.475;    0.000
444.841; 1537.750;  261.475;    0.000
444.889; 1504.750;  221.475;    0.000
444.937; 1467.750;  215.475;    0.000
444.985; 1508.750;  244.475;    0.000
445.033; 1492.750;  211.475;    0.000
445.081; 1529.750;  225.475;    0.000
445.129; 1428.750;  217.475;    0.000
445.176; 1482.750;  196.475;    0.000
445.224; 1468.750;  211.475;    0.000
445.272; 1548.750;  242.475;    0.000
445.320; 1517.750;  225.475;    0.000
445.368; 1478.750;  249.475;    0.000
445.415; 1511.750;  243.475;    0.000
445.463; 1480.750;  242.475;    0.000
445.511; 1482.750;  248.475;    0.000
445.559; 1451.750;  219.475;    0.000
445.606; 1437.750;  221.475;    0.000
445.654; 1538.750;  202.475;    0.000
445.702; 1494.750;  210.475;    0.000
445.749; 1515.750;  249.475;    0.000
445.797; 1470.750;  206.475;    0.000
445.845; 1551.750;  213.475;    0.000
445.892; 1495.750;  224.475;    0.000
445.940; 1507.750;  214.475;    0.000
445.988; 1520.750;  247.475;    0.000
446.035; 1505.750;  204.475;    0.000
446.083; 1504.750;  235.475;    0.000
446.130; 1558.750;  195.475;    0.000
446.178; 1588.750;  236.475;    0.000
446.226; 1534.750;  218.475;    0.000
446.273; 1509.750;  215.475;    0.000
446.321; 1504.750;  222.475;    0.000
446.368; 1539.750;  228.475;    0.000
446.416; 1538.750;  223.475;    0.000
446.463; 1527.750;  220.475;    0.000
446.511; 1549.750;  198.475;    0.000
446.558; 1556.750;  208.475;    0.000
446.606; 1584.750;  253.475;    0.000
446.653; 1577.750;  198.475;    0.000
446.701; 1636.750;  231.475;    0.000
446.748; 1637.750;  224.475;    0.000
446.796; 1594.750;  201.475;    0.000
446.843; 1584.750;  257.475;    0.000
446.891; 1641.750;  218.475;    0.000
446.938; 1660.750;  232.475;    0.000
446.985; 1677.750;  229.475;    0.000
447.033; 1703.750;  251.475;    0.000
447.080; 1662.750;  257.475;    0.000
447.128; 1611.750;  232.475;    0.000
447.175; 1666.750;  269.475;    0.000
447.222; 1637.750;  185.475;    0.000
447.270; 1794.750;  264.475;    0.000
447.317; 1643.750;  225.475;    0.000
447.364; 1692.750;  243.475;    0.000
447.411; 1697.750;  263.475;    0.000
447.459; 1687.750;  257.475;    0.000
447.506; 1675.750;  175.475;    0.000
447.553; 1794.750;  203.475;    0.000
447.601; 1738.750;  238.475;    0.000
447.648; 1783.750;  244.475;    0.000
447.695; 1860.750;  249.475;    0.000
447.742; 1844.750;  234.475;    0.000
447.789; 1861.750;  228.475;    0.000
447.837; 1799.750;  258.475;    0.000
447.884; 1832.750;  243.475;    0.000
447.931; 1940.750;  235.475;    0.000
447.978; 1886.750;  224.475;    0.000
448.025; 1929.750;  245.475;    0.000
448.072; 1946.750;  212.475;    0.000
448.120; 1914.750;  256.475;    0.000
448.167; 2030.750;  240.475;    0.000
448.214; 1877.750;  247.475;    0.000
448.261; 1907.750;  245.475;    0.000
448.308; 1869.750;  273.475;    0.000
448.355; 1869.750;  257.475;    0.000
448.402; 1825.750;  259.475;    0.000
448.449; 1827.750;  238.475;    0.000
448.496; 1824.750;  245.475;    0.000
448.543; 1715.750;  217.475;    0.000
448.590; 1795.750;  269.475;    0.000
448.637; 1793.750;  250.475;    0.000
448.684; 1668.750;  250.475;    0.000
448.731; 1670.750;  235.475;    0.000
448.778; 1714.750;  265.475;    0.000
448.825; 1642.750;  257.475;    0.000
448.872; 1599.750;  234.475;    0.000
448.919; 1656.750;  216.475;    0.000
448.966; 1669.750;  274.475;    0.000
449.013; 1689.750;  263.475;    0.000
449.060; 1641.750;  247.475;    0.000
449.107; 1606.750;  218.475;    0.000
449.154; 1608.750;  225.475;    0.000
449.200; 1559.750;  212.475;    0.000
449.247; 1603.750;  242.475;    0.000
449.294; 1561.750;  228.475;    0.000
449.341; 1547.750;  232.475;    0.000
449.388; 1536.750;  247.475;    0.000
449.435; 1562.750;  227.475;    0.000
449.481; 1530.750;  270.475;    0.000
449.528; 1537.750;  265.475;    0.000
449.575; 1602.750;  255.475;    0.000
449.622; 1524.750;  210.475;    0.000
449.668; 1553.750;  234.475;    0.000
449.715; 1523.750;  262.475;    0.000
449.762; 1513.750;  247.475;    0.000
449.809; 1595.750;  286.475;    0.000
449.855; 1582.750;  246.475;    0.000
449.902; 1513.750;  224.475;    0.000
449.949; 1470.750;  244.475;    0.000
449.995; 1575.750;  274.475;    0.000
450.042; 1514.750;  272.475;    0.000
450.089; 1493.750;  274.475;    0.000
450.135; 1527.750;  285.475;    0.000
450.182; 1453.750;  251.475;    0.000
450.229; 1458.750;  242.475;    0.000
450.275; 1497.750;  277.475;    0.000
450.322; 1433.750;  260.475;    0.000
450.368; 1460.750;  257.475;    0.000
450.415; 1523.750;  276.475;    0.000
450.462; 1519.750;  298.475;    0.000
450.508; 1441.750;  255.475;    0.000
450.555; 1465.750;  271.475;    0.000
450.601; 1492.750;  281.475;    0.000
450.648; 1486.750;  249.475;    0.000
450.694; 1404.750;  270.475;    0.000
450.741; 1485.750;  256.475;    0.000
450.787; 1465.750;  292.475;    0.000
450.834; 1450.750;  221.475;    0.000
450.880; 1457.750;  265.475;    0.000
450.927; 1432.750;  242.475;    0.000
450.973; 1469.750;  259.475;    0.000
451.019; 1505.750;  221.475;    0.000
451.066; 1419.750;  257.475;    0.000
451.112; 1411.750;  251.475;    0.000
451.159; 1392.750;  278.475;    0.000
451.205; 1387.750;  274.475;    0.000
451.251; 1367.750;  281.475;    0.000
451.298; 1458.750;  273.475;    0.000
451.344; 1400.750;  246.475;    0.000
451.390; 1470.750;  286.475;    0.000
451.437; 1402.750;  268.475;    0.000
451.483; 1430.750;  315.475;    0.000
451.529; 1357.750;  251.475;    0.000
451.576; 1462.750;  306.475;    0.000
451.622; 1387.750;  234.475;    0.000
451.668; 1403.750;  243.475;    0.000
451.714; 1445.750;  256.475;    0.000
451.761; 1345.750;  264.475;    0.000
451.807; 1423.750;  284.475;    0.000
451.853; 1430.750;  282.475;    0.000
451.899; 1404.750;  240.475;    0.000
451.945; 1477.750;  263.475;    0.000
451.992; 1387.750;  255.475;    0.000
452.038; 1336.750;  273.475;    0.000
452.084; 1395.750;  274.475;    0.000
452.130; 1374.750;  261.475;    0.000
452.176; 1381.750;  246.475;    0.000
452.222; 1292.750;  238.475;    0.000
452.268; 1436.750;  267.475;    0.000
452.315; 1382.750;  274.475;    0.000
452.361; 1403.750;  241.475;    0.000
452.407; 1405.750;  274.475;    0.000
452.453; 1384.750;  260.475;    0.000
452.499; 1382.750;  232.475;    0.000
452.545; 1395.750;  252.475;    0.000
452.591; 1408.750;  263.475;    0.000
452.637; 1337.750;  208.475;    0.000
452.683; 1366.750;  237.475;    0.000
452.729; 1399.750;  263.475;    0.000
452.775; 1334.750;  291.475;    0.000
452.821; 1396.750;  238.475;    0.000
452.867; 1359.750;  223.475;    0.000
452.913; 1341.750;  257.475;    0.000
452.959; 1374.750;  238.475;    0.000
453.005; 1373.750;  252.475;    0.000
453.051; 1384.750;  260.475;    0.000
453.097; 1342.750;  268.475;    0.000
453.142; 1377.750;  231.475;    0.000
453.188; 1425.750;  266.475;    0.000
453.234; 1323.750;  233.475;    0.000
453.280; 1394.750;  219.475;    0.000
453.326; 1359.750;  265.475;    0.000
453.372; 1319.750;  238.475;    0.000
453.418; 1337.750;  240.475;    0.000
453.463; 1394.750;  219.475;    0.000
453.509; 1369.750;  264.475;    0.000
453.555; 1370.750;  247.475;    0.000
453.601; 1408.750;  230.475;    0.000
453.647; 1415.750;  285.475;    0.000
453.692; 1357.750;  240.475;    0.000
453.738; 1335.750;  233.475;    0.000
453.784; 1359.750;  230.475;    0.000
453.829; 1350.750;  246.475;    0.000
453.875; 1336.750;  261.475;    0.000
453.921; 1335.750;  203.475;    0.000
453.967; 1378.750;  241.475;    0.000
454.012; 1390.750;  250.475;    0.000
454.058; 1305.750;  252.475;    0.000
454.104; 1328.750;  239.475;    0.000
454.149; 1348.750;  250.475;    0.000
454.195; 1269.750;  243.475;    0.000
454.240; 1389.750;  252.475;    0.000
454.286; 1363.750;  245.475;    0.000
454.332; 1330.750;  286.475;    0.000
454.377; 1332.750;  254.475;    0.000
454.423; 1323.750;  246.475;    0.000
454.468; 1353.750;  235.475;    0.000
454.514; 1378.750;  231.475;    0.000
454.559; 1343.750;  246.475;    0.000
454.605; 1314.750;  204.475;    0.000
454.650; 1274.750;  272.475;    0.000
454.696; 1415.750;  222.475;    0.000
454.741; 1371.750;  290.475;    0.000
454.787; 1348.750;  262.475;    0.000
454.832; 1311.750;  227.475;    0.000
454.878; 1359.750;  241.475;    0.000
454.923; 1292.750;  272.475;    0.000
454.969; 1364.750;  290.475;    0.000
455.014; 1334.750;  278.475;    0.000
455.060; 1334.750;  246.475;    0.000
455.105; 1302.750;  231.475;    0.000
455.150; 1342.750;  265.475;    0.000
455.196; 1260.750;  266.475;    0.000
455.241; 1361.750;  258.475;    0.000
455.286; 1307.750;  266.475;    0.000
455.332; 1267.750;  252.475;    0.000
455.377; 1357.750;  219.475;    0.000
455.422; 1320.750;  262.475;    0.000
455.468; 1343.750;  260.475;    0.000
455.513; 1346.750;  212.475;    0.000
455.558; 1320.750;  197.475;    0.000
455.604; 1315.750;  262.475;    0.000
455.649; 1368.750;  238.475;    0.000
455.694; 1288.750;  221.475;    0.000
455.739; 1349.750;  251.475;    0.000
455.785; 1374.750;  287.475;    0.000
455.830; 1424.750;  284.475;    0.000
455.875; 1316.750;  234.475;    0.000
455.920; 1320.750;  215.475;    0.000
455.965; 1343.750;  256.475;    0.000
456.010; 1377.750;  266.475;    0.000
456.056; 1326.750;  263.475;    0.000
456.101; 1290.750;  240.475;    0.000
456.146; 1312.750;  258.475;    0.000
456.191; 1382.750;  241.475;    0.000
456.236; 1355.750;  252.475;    0.000
456.281; 1249.750;  218.475;    0.000
456.326; 1351.750;  251.475;    0.000
456.371; 1336.750;  256.475;    0.000
456.416; 1379.750;  301.475;    0.000
456.461; 1284.750;  233.475;    0.000
456.507; 1291.750;  218.475;    0.000
456.552; 1360.750;  278.475;    0.000
456.597; 1352.750;  223.475;    0.000
456.642; 1314.750;  203.475;    0.000
456.687; 1388.750;  245.475;    0.000
456.732; 1406.750;  256.475;    0.000
456.776; 1310.750;  244.475;    0.000
456.821; 1368.750;  276.475;    0.000
456.866; 1289.750;  232.475;    0.000
456.911; 1346.750;  225.475;    0.000
456.956; 1351.750;  237.475;    0.000
457.001; 1337.750;  261.475;    0.000
457.046; 1350.750;  205.475;    0.000
457.091; 1329.750;  241.475;    0.000
457.136; 1349.750;  217.475;    0.000
457.181; 1268.750;  251.475;    0.000
457.225; 1309.750;  241.475;    0.000
457.270; 1353.750;  237.475;    0.000
457.315; 1405.750;  279.475;    0.000
457.360; 1311.750;  245.475;    0.000
457.405; 1314.750;  202.475;    0.000
457.450; 1271.750;  247.475;    0.000
457.494; 1367.750;  243.475;    0.000
457.539; 1307.750;  222.475;    0.000
457.584; 1308.750;  239.475;    0.000
457.629; 1285.750;  236.475;    0.000
457.673; 1408.750;  234.475;    0.000
457.718; 1346.750;  202.475;    0.000
457.763; 1268.750;  274.475;    0.000
457.807; 1352.750;  236.475;    0.000
457.852; 1351.750;  265.475;    0.000
457.897; 1356.750;  252.475;    0.000
457.941; 1299.750;  264.475;    0.000
457.986; 1424.750;  280.475;    0.000
458.031; 1328.750;  217.475;    0.000
458.075; 1326.750;  249.475;    0.000
458.120; 1348.750;  257.475;    0.000
458.165; 1282.750;  183.475;    0.000
458.209; 1300.750;  245.475;    0.000
458.254; 1324.750;  245.475;    0.000
458.298; 1369.750;  265.475;    0.000
458.343; 1346.750;  241.475;    0.000
458.387; 1355.750;  262.475;    0.000
458.432; 1366.750;  245.475;    0.000
458.476; 1408.750;  255.475;    0.000
458.521; 1349.750;  269.475;    0.000
458.565; 1399.750;  265.475;    0.000
458.610; 1362.750;  222.475;    0.000
458.654; 1375.750;  257.475;    0.000
458.699; 1402.750;  296.475;    0.000
458.743; 1381.750;  203.475;    0.000
458.788; 1404.750;  267.475;    0.000
458.832; 1365.750;  274.475;    0.000
458.877; 1372.750;  251.475;    0.000
458.921; 1343.750;  237.475;    0.000
458.965; 1335.750;  264.475;    0.000
459.010; 1392.750;  256.475;    0.000
459.054; 1353.750;  280.475;    0.000
459.099; 1420.750;  240.475;    0.000
459.143; 1394.750;  287.475;    0.000
459.187; 1386.750;  257.475;    0.000
459.231; 1424.750;  273.475;    0.000
459.276; 1415.750;  231.475;    0.000
459.320; 1422.750;  261.475;    0.000
459.364; 1383.750;  278.475;    0.000
459.409; 1415.750;  249.475;    0.000
459.453; 1414.750;  235.475;    0.000
459.497; 1410.750;  262.475;    0.000
459.541; 1497.750;  269.475;    0.000
459.586; 1386.750;  240.475;    0.000
459.630; 1506.750;  261.475;    0.000
459.674; 1433.750;  276.475;    0.000
459.718; 1487.750;  236.475;    0.000
459.762; 1427.750;  263.475;    0.000
459.807; 1471.750;  263.475;    0.000
459.851; 1405.750;  225.475;    0.000
459.895; 1395.750;  247.475;    0.000
459.939; 1434.750;  231.475;    0.000
459.983; 1352.750;  242.475;    0.000
460.027; 1430.750;  248.475;    0.000
460.071; 1423.750;  273.475;    0.000
460.115; 1414.750;  282.475;    0.000
460.159; 1435.750;  264.475;    0.000
460.204; 1472.750;  288.475;    0.000
460.248; 1405.750;  293.475;    0.000
460.292; 1480.750;  277.475;    0.000
460.336; 1403.750;  250.475;    0.000
460.380; 1492.750;  275.475;    0.000
460.424; 1460.750;  243.475;    0.000
460.468; 1445.750;  277.475;    0.000
460.512; 1506.750;  261.475;    0.000
460.556; 1420.750;  266.475;    0.000
460.599; 1440.750;  246.475;    0.000
460.643; 1444.750;  256.475;    0.000
460.687; 1485.750;  257.475;    0.000
460.731; 1477.750;  235.475;    0.000
460.775; 1430.750;  278.475;    0.000
460.819; 1478.750;  268.475;    0.000
460.863; 1488.750;  257.475;    0.000
460.907; 1337.750;  213.475;    0.000
460.951; 1513.750;  274.475;    0.000
460.995; 1473.750;  258.475;    0.000
461.038; 1413.750;  219.475;    0.000
461.082; 1398.750;  253.475;    0.000
461.126; 1449.750;  281.475;    0.000
461.170; 1431.750;  244.475;    0.000
461.214; 1475.750;  262.475;    0.000
461.257; 1551.750;  284.475;    0.000
461.301; 1439.750;  275.475;    0.000
461.345; 1517.750;  267.475;    0.000
461.389; 1504.750;  255.475;    0.000
461.432; 1482.750;  282.475;    0.000
461.476; 1446.750;  263.475;    0.000
461.520; 1428.750;  260.475;    0.000
461.563; 1397.750;  278.475;    0.000
461.607; 1442.750;  236.475;    0.000
461.651; 1453.750;  262.475;    0.000
461.694; 1445.750;  236.475;    0.000
461.738; 1466.750;  295.475;    0.000
461.782; 1495.750;  252.475;    0.000
461.825; 1489.750;  271.475;    0.000
461.869; 1523.750;  278.475;    0.000
461.913; 1543.750;  255.475;    0.000
461.956; 1465.750;  254.475;    0.000
462.000; 1468.750;  299.475;    0.000
462.043; 1591.750;  282.475;    0.000
462.087; 1480.750;  274.475;    0.000
462.130; 1510.750;  270.475;    0.000
462.174; 1573.750;  274.475;    0.000
462.217; 1530.750;  272.475;    0.000
462.261; 1556.750;  286.475;    0.000
462.304; 1534.750;  236.475;    0.000
462.348; 1415.750;  262.475;    0.000
462.391; 1529.750;  244.475;    0.000
462.435; 1567.750;  321.475;    0.000
462.478; 1472.750;  230.475;    0.000
462.522; 1439.750;  245.475;    0.000
462.565; 1564.750;  278.475;    0.000
462.608; 1557.750;  303.475;    0.000
462.652; 1556.750;  275.475;    0.000
462.695; 1580.750;  314.475;    0.000
462.739; 1562.750;  307.475;    0.000
462.782; 1564.750;  286.475;    0.000
462.825; 1593.750;  312.475;    0.000
462.869; 1640.750;  338.475;    0.000
462.912; 1600.750;  304.475;    0.000
462.955; 1539.750;  288.475;    0.000
462.998; 1608.750;  292.475;    0.000
463.042; 1573.750;  309.475;    0.000
463.085; 1546.750;  292.475;    0.000
463.128; 1550.750;  317.475;    0.000
463.172; 1486.750;  287.475;    0.000
463.215;  366.750;  313.475;    0.000
463.258;  303.750;  295.475;    0.000
463.301;  305.750;  275.475;    0.000
463.344;  333.750;  311.475;    0.000
463.388;  325.750;  296.475;    0.000
463.431;  299.750;  277.475;    0.000
463.474;  362.750;  364.475;    0.000
463.517;  339.750;  306.475;    0.000
463.560;  321.750;  308.475;    0.000
463.603;  335.750;  343.475;    0.000
463.646;  336.750;  309.475;    0.000
463.690;  323.750;  309.475;    0.000
463.733;  328.750;  320.475;    0.000
463.776;  277.750;  299.475;    0.000
463.819;  290.750;  320.475;    0.000
463.862;  320.750;  283.475;    0.000

