
Integration time [ms]:   1.000
Averaging Nr. [scans]: 1
Smoothing Nr. [pixels]: 0
Data measured with spectrometer [name]: NIR
Wave   ;Sample   ;Dark     ;Reference
[nm]   ;[counts] ;[counts] ;[counts] 

691.496;  -99.275;  163.125;    0.000
691.696;  -60.275;  208.125;    0.000
691.896; -108.275;  111.125;    0.000
692.096;  -69.275;  178.125;    0.000
692.296; -125.275;   93.125;    0.000
692.496;  -43.275;  161.125;    0.000
692.695;  -83.275;  135.125;    0.000
692.895;  -89.275;  179.125;    0.000
693.095; -108.275;  158.125;    0.000
693.295;  -68.275;  168.125;    0.000
693.495;  -43.275;  170.125;    0.000
693.695;  -91.275;  155.125;    0.000
693.894;  -84.275;  151.125;    0.000
694.094;  -73.275;  164.125;    0.000
694.294;  -93.275;  129.125;    0.000
694.494;   70.725;  170.125;    0.000
694.693; 1560.725;  137.125;    0.000
694.893; 1756.725;  163.125;    0.000
695.093; 1803.725;  121.125;    0.000
695.293; 1831.725;  144.125;    0.000
695.492; 1843.725;   88.125;    0.000
695.692; 1762.725;  148.125;    0.000
695.891; 1782.725;  125.125;    0.000
696.091; 1832.725;  184.125;    0.000
696.291; 1788.725;  153.125;    0.000
696.490; 1910.725;  131.125;    0.000
696.690; 1881.725;  123.125;    0.000
696.889; 1891.725;  180.125;    0.000
697.089; 1830.725;  147.125;    0.000
697.288; 1860.725;  164.125;    0.000
697.488; 1855.725;  133.125;    0.000
697.687; 1875.725;  153.125;    0.000
697.887; 1842.725;  119.125;    0.000
698.086; 1939.725;  143.125;    0.000
698.286; 1800.725;  125.125;    0.000
698.485; 1946.725;  120.125;    0.000
698.684; 1858.725;  116.125;    0.000
698.884; 1913.725;  131.125;    0.000
699.083; 1866.725;  115.125;    0.000
699.282; 1854.725;  144.125;    0.000
699.482; 1893.725;  109.125;    0.000
699.681; 1935.725;  115.125;    0.000
699.880; 1935.725;  125.125;    0.000
700.080; 1993.725;  139.125;    0.000
700.279; 1929.725;  111.125;    0.000
700.478; 1955.725;  146.125;    0.000
700.677; 1906.725;  131.125;    0.000
700.877; 1868.725;  156.125;    0.000
701.076; 1973.725;  153.125;    0.000
701.275; 1927.725;  123.125;    0.000
701.474; 1876.725;  150.125;    0.000
701.673; 1909.725;   97.125;    0.000
701.872; 1964.725;  139.125;    0.000
702.071; 1893.725;  108.125;    0.000
702.271; 1850.725;  125.125;    0.000
702.470; 1972.725;  108.125;    0.000
702.669; 1943.725;  102.125;    0.000
702.868; 2032.725;  153.125;    0.000
703.067; 1953.725;  145.125;    0.000
703.266; 1937.725;   96.125;    0.000
703.465; 1996.725;  165.125;    0.000
703.664; 1992.725;  106.125;    0.000
703.863; 2040.725;  144.125;    0.000
704.062; 2009.725;   86.125;    0.000
704.260; 1909.725;   99.125;    0.000
704.459; 2012.725;  112.125;    0.000
704.658; 1970.725;  106.125;    0.000
704.857; 1972.725;  129.125;    0.000
705.056; 1963.725;   98.125;    0.000
705.255; 2049.725;   97.125;    0.000
705.454; 1974.725;  101.125;    0.000
705.652; 2013.725;  142.125;    0.000
705.851; 2024.725;  100.125;    0.000
706.050; 1992.725;  162.125;    0.000
706.249; 2079.725;  146.125;    0.000
706.447; 2021.725;  120.125;    0.000
706.646; 1935.725;  114.125;    0.000
706.845; 2072.725;  117.125;    0.000
707.043; 1914.725;  136.125;    0.000
707.242; 1934.725;   90.125;    0.000
707.441; 2017.725;  131.125;    0.000
707.639; 2050.725;  120.125;    0.000
707.838; 2016.725;  122.125;    0.000
708.037; 2017.725;  109.125;    0.000
708.235; 2021.725;  122.125;    0.000
708.434; 2025.725;  109.125;    0.000
708.632; 2009.725;   47.125;    0.000
708.831; 2076.725;  122.125;    0.000
709.029; 2095.725;  130.125;    0.000
709.228; 2045.725;  112.125;    0.000
709.426; 2071.725;  128.125;    0.000
709.625; 1991.725;  129.125;    0.000
709.823; 2030.725;  130.125;    0.000
710.022; 2106.725;   90.125;    0.000
710.220; 2133.725;  131.125;    0.000
710.418; 2158.725;  133.125;    0.000
710.617; 2090.725;   82.125;    0.000
710.815; 2061.725;   90.125;    0.000
711.013; 2079.725;   86.125;    0.000
711.212; 2107.725;  117.125;    0.000
711.410; 2115.725;  106.125;    0.000
711.608; 2125.725;  138.125;    0.000
711.807; 2097.725;  116.125;    0.000
712.005; 2108.725;   82.125;    0.000
712.203; 2070.725;   90.125;    0.000
712.401; 2176.725;  124.125;    0.000
712.599; 2143.725;   64.125;    0.000
712.798; 2133.725;  113.125;    0.000
712.996; 2024.725;  100.125;    0.000
713.194; 2113.725;  130.125;    0.000
713.392; 2206.725;   89.125;    0.000
713.590; 2184.725;  105.125;    0.000
713.788; 2211.725;  100.125;    0.000
713.986; 2224.725;  117.125;    0.000
714.184; 2151.725;   72.125;    0.000
714.382; 2221.725;   88.125;    0.000
714.580; 2214.725;   88.125;    0.000
714.778; 2296.725;  129.125;    0.000
714.976; 2304.725;   90.125;    0.000
715.174; 2304.725;  119.125;    0.000
715.372; 2369.725;  117.125;    0.000
715.570; 2401.725;  101.125;    0.000
715.768; 2430.725;  122.125;    0.000
715.966; 2442.725;  114.125;    0.000
716.164; 2538.725;  135.125;    0.000
716.362; 2547.725;  126.125;    0.000
716.560; 2435.725;  126.125;    0.000
716.758; 2449.725;   98.125;    0.000
716.955; 2463.725;   76.125;    0.000
717.153; 2339.725;   45.125;    0.000
717.351; 2452.725;  106.125;    0.000
717.549; 2346.725;  108.125;    0.000
717.746; 2359.725;   66.125;    0.000
717.944; 2380.725;  127.125;    0.000
718.142; 2342.725;  148.125;    0.000
718.340; 2370.725;   94.125;    0.000
718.537; 2395.725;  107.125;    0.000
718.735; 2414.725;  130.125;    0.000
718.933; 2370.725;  111.125;    0.000
719.130; 2403.725;  107.125;    0.000
719.328; 2385.725;  128.125;    0.000
719.525; 2398.725;  141.125;    0.000
719.723; 2369.725;  122.125;    0.000
719.920; 2293.725;   85.125;    0.000
720.118; 2422.725;  115.125;    0.000
720.316; 2351.725;  153.125;    0.000
720.513; 2323.725;  120.125;    0.000
720.711; 2353.725;  134.125;    0.000
720.908; 2357.725;  126.125;    0.000
721.105; 2311.725;  119.125;    0.000
721.303; 2380.725;  112.125;    0.000
721.500; 2440.725;  125.125;    0.000
721.698; 2369.725;   94.125;    0.000
721.895; 2301.725;  118.125;    0.000
722.092; 2336.725;   77.125;    0.000
722.290; 2432.725;  135.125;    0.000
722.487; 2376.725;  154.125;    0.000
722.684; 2357.725;  122.125;    0.000
722.882; 2383.725;   90.125;    0.000
723.079; 2376.725;  132.125;    0.000
723.276; 2328.725;   95.125;    0.000
723.473; 2428.725;  106.125;    0.000
723.671; 2371.725;   80.125;    0.000
723.868; 2340.725;  112.125;    0.000
724.065; 2474.725;  107.125;    0.000
724.262; 2348.725;  119.125;    0.000
724.459; 2400.725;   80.125;    0.000
724.656; 2458.725;  109.125;    0.000
724.854; 2426.725;  107.125;    0.000
725.051; 2391.725;  103.125;    0.000
725.248; 2306.725;  101.125;    0.000
725.445; 2404.725;   93.125;    0.000
725.642; 2361.725;   92.125;    0.000
725.839; 2365.725;  157.125;    0.000
726.036; 2370.725;   71.125;    0.000
726.233; 2381.725;   80.125;    0.000
726.430; 2392.725;  146.125;    0.000
726.627; 2501.725;  103.125;    0.000
726.824; 2393.725;   46.125;    0.000
727.021; 2405.725;  149.125;    0.000
727.218; 2363.725;   87.125;    0.000
727.414; 2412.725;  112.125;    0.000
727.611; 2337.725;  111.125;    0.000
727.808; 2431.725;  122.125;    0.000
728.005; 2367.725;   58.125;    0.000
728.202; 2460.725;  129.125;    0.000
728.399; 2398.725;  111.125;    0.000
728.595; 2467.725;   93.125;    0.000
728.792; 2404.725;   78.125;    0.000
728.989; 2584.725;  104.125;    0.000
729.186; 2470.725;  110.125;    0.000
729.382; 2459.725;   93.125;    0.000
729.579; 2516.725;  102.125;    0.000
729.776; 2538.725;  112.125;    0.000
729.972; 2522.725;  101.125;    0.000
730.169; 2579.725;  150.125;    0.000
730.366; 2390.725;   92.125;    0.000
730.562; 2516.725;   74.125;    0.000
730.759; 2573.725;   97.125;    0.000
730.955; 2487.725;   86.125;    0.000
731.152; 2408.725;   88.125;    0.000
731.348; 2521.725;  117.125;    0.000
731.545; 2418.725;   62.125;    0.000
731.741; 2537.725;   84.125;    0.000
731.938; 2520.725;  108.125;    0.000
732.134; 2536.725;  115.125;    0.000
732.331; 2479.725;   88.125;    0.000
732.527; 2497.725;   96.125;    0.000
732.724; 2565.725;  103.125;    0.000
732.920; 2500.725;   93.125;    0.000
733.116; 2508.725;  109.125;    0.000
733.313; 2458.725;   77.125;    0.000
733.509; 2509.725;   81.125;    0.000
733.705; 2523.725;  141.125;    0.000
733.902; 2464.725;   88.125;    0.000
734.098; 2508.725;   56.125;    0.000
734.294; 2525.725;  122.125;    0.000
734.490; 2559.725;  102.125;    0.000
734.687; 2496.725;   70.125;    0.000
734.883; 2558.725;   73.125;    0.000
735.079; 2538.725;   65.125;    0.000
735.275; 2485.725;  112.125;    0.000
735.471; 2456.725;  124.125;    0.000
735.667; 2556.725;   94.125;    0.000
735.863; 2533.725;  106.125;    0.000
736.060; 2541.725;  106.125;    0.000
736.256; 2557.725;   95.125;    0.000
736.452; 2542.725;  103.125;    0.000
736.648; 2526.725;  106.125;    0.000
736.844; 2633.725;   98.125;    0.000
737.040; 2645.725;  118.125;    0.000
737.236; 2631.725;   95.125;    0.000
737.432; 2525.725;   59.125;    0.000
737.628; 2687.725;  120.125;    0.000
737.824; 2653.725;   78.125;    0.000
738.019; 2647.725;   98.125;    0.000
738.215; 2638.725;  127.125;    0.000
738.411; 2613.725;  111.125;    0.000
738.607; 2654.725;   69.125;    0.000
738.803; 2631.725;   40.125;    0.000
738.999; 2676.725;  128.125;    0.000
739.195; 2631.725;   81.125;    0.000
739.390; 2665.725;   97.125;    0.000
739.586; 2593.725;  100.125;    0.000
739.782; 2650.725;  135.125;    0.000
739.978; 2670.725;  121.125;    0.000
740.173; 2624.725;   92.125;    0.000
740.369; 2649.725;   92.125;    0.000
740.565; 2685.725;  119.125;    0.000
740.760; 2675.725;  139.125;    0.000
740.956; 2591.725;  134.125;    0.000
741.152; 2756.725;  107.125;    0.000
741.347; 2747.725;   63.125;    0.000
741.543; 2821.725;   99.125;    0.000
741.738; 2836.725;  119.125;    0.000
741.934; 2886.725;  156.125;    0.000
742.129; 2990.725;   87.125;    0.000
742.325; 3066.725;  143.125;    0.000
742.520; 3397.725;  109.125;    0.000
742.716; 3220.725;  135.125;    0.000
742.911; 3121.725;   77.125;    0.000
743.107; 3169.725;  117.125;    0.000
743.302; 3141.725;   93.125;    0.000
743.498; 3229.725;  118.125;    0.000
743.693; 3262.725;   95.125;    0.000
743.888; 3289.725;  122.125;    0.000
744.084; 3557.725;  104.125;    0.000
744.279; 3963.725;   94.125;    0.000
744.474; 4057.725;  138.125;    0.000
744.670; 3919.725;  113.125;    0.000
744.865; 3743.725;  116.125;    0.000
745.060; 3435.725;   89.125;    0.000
745.255; 3518.725;  144.125;    0.000
745.451; 3469.725;   98.125;    0.000
745.646; 3424.725;  110.125;    0.000
745.841; 3346.725;   87.125;    0.000
746.036; 3360.725;   98.125;    0.000
746.231; 3441.725;  153.125;    0.000
746.426; 3643.725;   90.125;    0.000
746.622; 3862.725;  154.125;    0.000
746.817; 4567.725;  111.125;    0.000
747.012; 4986.725;  110.125;    0.000
747.207; 4735.725;   76.125;    0.000
747.402; 4380.725;   94.125;    0.000
747.597; 4141.725;   68.125;    0.000
747.792; 4132.725;  125.125;    0.000
747.987; 3795.725;   92.125;    0.000
748.182; 3788.725;  113.125;    0.000
748.377; 3748.725;   72.125;    0.000
748.572; 3653.725;  135.125;    0.000
748.767; 3440.725;   98.125;    0.000
748.961; 3406.725;  123.125;    0.000
749.156; 3404.725;   96.125;    0.000
749.351; 3362.725;  121.125;    0.000
749.546; 3325.725;   95.125;    0.000
749.741; 3246.725;  144.125;    0.000
749.936; 3267.725;  105.125;    0.000
750.130; 3220.725;  101.125;    0.000
750.325; 3181.725;  126.125;    0.000
750.520; 3177.725;  113.125;    0.000
750.715; 3097.725;  135.125;    0.000
750.909; 3162.725;  138.125;    0.000
751.104; 3078.725;   96.125;    0.000
751.299; 3017.725;  118.125;    0.000
751.493; 3081.725;  124.125;    0.000
751.688; 2979.725;  131.125;    0.000
751.882; 2931.725;   96.125;    0.000
752.077; 2983.725;  123.125;    0.000
752.272; 2859.725;  112.125;    0.000
752.466; 3001.725;  143.125;    0.000
752.661; 2976.725;  107.125;    0.000
752.855; 3002.725;   97.125;    0.000
753.050; 2924.725;  125.125;    0.000
753.244; 2842.725;  161.125;    0.000
753.439; 2869.725;  101.125;    0.000
753.633; 2898.725;  129.125;    0.000
753.828; 2883.725;  114.125;    0.000
754.022; 2958.725;  118.125;    0.000
754.216; 2977.725;  126.125;    0.000
754.411; 2945.725;  148.125;    0.000
754.605; 2827.725;  100.125;    0.000
754.799; 2918.725;  146.125;    0.000
754.994; 2865.725;  116.125;    0.000
755.188; 2875.725;  146.125;    0.000
755.382; 2847.725;  103.125;    0.000
755.576; 2856.725;  119.125;    0.000
755.771; 2835.725;  100.125;    0.000
755.965; 2833.725;  129.125;    0.000
756.159; 2834.725;  100.125;    0.000
756.353; 2858.725;  153.125;    0.000
756.547; 2900.725;  113.125;    0.000
756.742; 2850.725;  129.125;    0.000
756.936; 2771.725;   70.125;    0.000
757.130; 2809.725;   91.125;    0.000
757.324; 2845.725;   92.125;    0.000
757.518; 2862.725;  128.125;    0.000
757.712; 2875.725;  146.125;    0.000
757.906; 2902.725;  114.125;    0.000
758.100; 2825.725;  153.125;    0.000
758.294; 2899.725;  133.125;    0.000
758.488; 2831.725;  149.125;    0.000
758.682; 2830.725;  132.125;    0.000
758.876; 2789.725;  128.125;    0.000
759.070; 2843.725;  178.125;    0.000
759.264; 2808.725;   98.125;    0.000
759.458; 2792.725;  168.125;    0.000
759.651; 2761.725;  131.125;    0.000
759.845; 2897.725;  133.125;    0.000
760.039; 2796.725;  120.125;    0.000
760.233; 2878.725;  116.125;    0.000
760.427; 2802.725;  121.125;    0.000
760.620; 2857.725;  163.125;    0.000
760.814; 2769.725;  106.125;    0.000
761.008; 2804.725;  119.125;    0.000
761.202; 2889.725;  121.125;    0.000
761.395; 2845.725;  136.125;    0.000
761.589; 2927.725;  111.125;    0.000
761.783; 2793.725;  116.125;    0.000
761.976; 2842.725;  139.125;    0.000
762.170; 2811.725;  140.125;    0.000
762.363; 2855.725;  115.125;    0.000
762.557; 2808.725;  129.125;    0.000
762.750; 2841.725;   85.125;    0.000
762.944; 2819.725;  107.125;    0.000
763.138; 2910.725;   99.125;    0.000
763.331; 2840.725;   97.125;    0.000
763.524; 2926.725;  100.125;    0.000
763.718; 2929.725;  130.125;    0.000
763.911; 2914.725;  127.125;    0.000
764.105; 2997.725;   69.125;    0.000
764.298; 2864.725;   94.125;    0.000
764.492; 2839.725;  129.125;    0.000
764.685; 2843.725;  114.125;    0.000
764.878; 2857.725;  145.125;    0.000
765.072; 2971.725;  124.125;    0.000
765.265; 2850.725;  124.125;    0.000
765.458; 2812.725;  108.125;    0.000
765.651; 3036.725;  132.125;    0.000
765.845; 2899.725;  106.125;    0.000
766.038; 2964.725;  155.125;    0.000
766.231; 3315.725;  153.125;    0.000
766.424; 4708.725;  165.125;    0.000
766.617; 4838.725;   85.125;    0.000
766.811; 3306.725;  140.125;    0.000
767.004; 2906.725;  151.125;    0.000
767.197; 3012.725;  178.125;    0.000
767.390; 2994.725;  112.125;    0.000
767.583; 2961.725;  134.125;    0.000
767.776; 2949.725;  101.125;    0.000
767.969; 2987.725;   99.125;    0.000
768.162; 3018.725;  152.125;    0.000
768.355; 2939.725;  115.125;    0.000
768.548; 2913.725;  154.125;    0.000
768.741; 3005.725;  124.125;    0.000
768.934; 3058.725;  129.125;    0.000
769.127; 3021.725;  137.125;    0.000
769.320; 3020.725;  115.125;    0.000
769.513; 3217.725;  144.125;    0.000
769.706; 3509.725;  107.125;    0.000
769.898; 4711.725;  134.125;    0.000
770.091; 3857.725;  128.125;    0.000
770.284; 3208.725;   97.125;    0.000
770.477; 3151.725;  135.125;    0.000
770.670; 3207.725;  137.125;    0.000
770.862; 3142.725;  112.125;    0.000
771.055; 3253.725;  127.125;    0.000
771.248; 3134.725;  116.125;    0.000
771.441; 3222.725;  101.125;    0.000
771.633; 3284.725;  130.125;    0.000
771.826; 3299.725;  147.125;    0.000
772.018; 3249.725;  117.125;    0.000
772.211; 3305.725;  141.125;    0.000
772.404; 3319.725;  104.125;    0.000
772.596; 3378.725;  128.125;    0.000
772.789; 3398.725;  131.125;    0.000
772.981; 3527.725;  134.125;    0.000
773.174; 3421.725;  108.125;    0.000
773.366; 3572.725;  153.125;    0.000
773.559; 3465.725;  137.125;    0.000
773.751; 3563.725;  119.125;    0.000
773.944; 3712.725;  148.125;    0.000
774.136; 3607.725;  155.125;    0.000
774.329; 3800.725;  126.125;    0.000
774.521; 3877.725;  116.125;    0.000
774.713; 4068.725;  119.125;    0.000
774.906; 4090.725;  179.125;    0.000
775.098; 4242.725;  127.125;    0.000
775.290; 4298.725;  146.125;    0.000
775.483; 4513.725;  123.125;    0.000
775.675; 4784.725;  119.125;    0.000
775.867; 5181.725;  119.125;    0.000
776.059; 5497.725;  137.125;    0.000
776.251; 5963.725;  154.125;    0.000
776.444; 6537.725;  101.125;    0.000
776.636; 7348.725;  153.125;    0.000
776.828; 8823.725;  127.125;    0.000
777.020;11511.725;  140.125;    0.000
777.212;16028.725;  160.125;    0.000
777.404;17675.725;  170.125;    0.000
777.596;16846.725;  136.125;    0.000
777.788;13366.725;  137.125;    0.000
777.980;10842.725;  129.125;    0.000
778.172; 9248.725;  139.125;    0.000
778.364; 7902.725;  124.125;    0.000
778.556; 7375.725;  163.125;    0.000
778.748; 6805.725;  142.125;    0.000
778.940; 6235.725;  178.125;    0.000
779.132; 5802.725;  159.125;    0.000
779.324; 5423.725;  109.125;    0.000
779.516; 5114.725;  143.125;    0.000
779.708; 4895.725;  158.125;    0.000
779.900; 4658.725;  142.125;    0.000
780.091; 4415.725;  131.125;    0.000
780.283; 4368.725;  176.125;    0.000
780.475; 4063.725;  151.125;    0.000
780.667; 4128.725;  120.125;    0.000
780.859; 3925.725;  134.125;    0.000
781.050; 3756.725;  183.125;    0.000
781.242; 3786.725;   95.125;    0.000
781.434; 3660.725;  127.125;    0.000
781.625; 3552.725;  163.125;    0.000
781.817; 3621.725;  170.125;    0.000
782.008; 3502.725;  123.125;    0.000
782.200; 3417.725;  141.125;    0.000
782.392; 3446.725;  149.125;    0.000
782.583; 3352.725;  155.125;    0.000
782.775; 3453.725;  140.125;    0.000
782.966; 3285.725;  167.125;    0.000
783.158; 3305.725;  164.125;    0.000
783.349; 3237.725;  174.125;    0.000
783.541; 3302.725;  141.125;    0.000
783.732; 3169.725;  115.125;    0.000
783.924; 3157.725;  135.125;    0.000
784.115; 3161.725;  157.125;    0.000
784.306; 3109.725;  102.125;    0.000
784.498; 3095.725;  124.125;    0.000
784.689; 3093.725;  171.125;    0.000
784.880; 3067.725;  165.125;    0.000
785.072; 2997.725;  152.125;    0.000
785.263; 3027.725;  146.125;    0.000
785.454; 3122.725;  145.125;    0.000
785.645; 2985.725;  127.125;    0.000
785.837; 3044.725;  138.125;    0.000
786.028; 2983.725;  151.125;    0.000
786.219; 2938.725;  142.125;    0.000
786.410; 2973.725;  140.125;    0.000
786.601; 2975.725;  137.125;    0.000
786.792; 2998.725;  158.125;    0.000
786.984; 2940.725;  139.125;    0.000
787.175; 2919.725;  140.125;    0.000
787.366; 2857.725;  145.125;    0.000
787.557; 2896.725;  156.125;    0.000
787.748; 2959.725;  148.125;    0.000
787.939; 2924.725;  157.125;    0.000
788.130; 2988.725;  179.125;    0.000
788.321; 2899.725;  142.125;    0.000
788.512; 2916.725;  167.125;    0.000
788.703; 2966.725;  145.125;    0.000
788.894; 2980.725;  132.125;    0.000
789.084; 2954.725;  113.125;    0.000
789.275; 3018.725;  134.125;    0.000
789.466; 2938.725;  151.125;    0.000
789.657; 2973.725;  138.125;    0.000
789.848; 3012.725;  145.125;    0.000
790.039; 2943.725;  130.125;    0.000
790.229; 3005.725;  140.125;    0.000
790.420; 2967.725;  135.125;    0.000
790.611; 2949.725;  156.125;    0.000
790.801; 3004.725;   64.125;    0.000
790.992; 2948.725;  150.125;    0.000
791.183; 2937.725;  177.125;    0.000
791.373; 2916.725;   91.125;    0.000
791.564; 2955.725;   85.125;    0.000
791.755; 2896.725;  125.125;    0.000
791.945; 2884.725;   94.125;    0.000
792.136; 2913.725;   98.125;    0.000
792.326; 2872.725;  105.125;    0.000
792.517; 2844.725;  136.125;    0.000
792.707; 3000.725;  140.125;    0.000
792.898; 2986.725;  164.125;    0.000
793.088; 2931.725;  116.125;    0.000
793.279; 3002.725;  112.125;    0.000
793.469; 3008.725;  105.125;    0.000
793.660; 3102.725;  161.125;    0.000
793.850; 3151.725;  133.125;    0.000
794.040; 3074.725;  121.125;    0.000
794.231; 3373.725;  115.125;    0.000
794.421; 3420.725;  152.125;    0.000
794.611; 3783.725;  132.125;    0.000
794.802; 4074.725;  144.125;    0.000
794.992; 4245.725;  142.125;    0.000
795.182; 4323.725;  179.125;    0.000
795.372; 4208.725;  167.125;    0.000
795.563; 3852.725;  149.125;    0.000
795.753; 3767.725;  117.125;    0.000
795.943; 3609.725;  146.125;    0.000
796.133; 3412.725;  119.125;    0.000
796.323; 3330.725;  141.125;    0.000
796.513; 3212.725;  134.125;    0.000
796.703; 3224.725;  116.125;    0.000
796.893; 3221.725;  120.125;    0.000
797.083; 3062.725;  131.125;    0.000
797.273; 3075.725;  118.125;    0.000
797.463; 3034.725;  130.125;    0.000
797.653; 2910.725;   87.125;    0.000
797.843; 3005.725;  123.125;    0.000
798.033; 2853.725;  115.125;    0.000
798.223; 2910.725;  142.125;    0.000
798.413; 2739.725;  148.125;    0.000
798.603; 2691.725;  147.125;    0.000
798.793; 2577.725;  107.125;    0.000
798.983; 2707.725;  121.125;    0.000
799.172; 2605.725;  120.125;    0.000
799.362; 2744.725;  145.125;    0.000
799.552; 2662.725;  101.125;    0.000
799.742; 2693.725;  149.125;    0.000
799.932; 2648.725;  104.125;    0.000
800.121; 2629.725;  175.125;    0.000
800.311; 2500.725;  132.125;    0.000
800.501; 2553.725;  118.125;    0.000
800.690; 2565.725;  162.125;    0.000
800.880; 2544.725;  141.125;    0.000
801.070; 2599.725;  151.125;    0.000
801.259; 2514.725;  167.125;    0.000
801.449; 2535.725;  108.125;    0.000
801.638; 2527.725;  176.125;    0.000
801.828; 2500.725;  118.125;    0.000
802.017; 2462.725;  179.125;    0.000
802.207; 2511.725;  127.125;    0.000
802.396; 2508.725;  167.125;    0.000
802.586; 2454.725;  129.125;    0.000
802.775; 2454.725;  142.125;    0.000
802.965; 2467.725;  147.125;    0.000
803.154; 2468.725;  179.125;    0.000
803.343; 2398.725;  117.125;    0.000
803.533; 2477.725;  120.125;    0.000
803.722; 2401.725;  122.125;    0.000
803.911; 2384.725;  155.125;    0.000
804.101; 2436.725;  147.125;    0.000
804.290; 2407.725;  160.125;    0.000
804.479; 2385.725;  139.125;    0.000
804.668; 2405.725;  180.125;    0.000
804.857; 2396.725;  131.125;    0.000
805.047; 2336.725;  119.125;    0.000
805.236; 2382.725;  139.125;    0.000
805.425; 2471.725;  163.125;    0.000
805.614; 2363.725;  103.125;    0.000
805.803; 2388.725;  133.125;    0.000
805.992; 2338.725;  147.125;    0.000
806.181; 2373.725;  109.125;    0.000
806.370; 2352.725;  133.125;    0.000
806.559; 2348.725;  119.125;    0.000
806.748; 2420.725;  144.125;    0.000
806.937; 2381.725;  147.125;    0.000
807.126; 2387.725;  134.125;    0.000
807.315; 2358.725;  132.125;    0.000
807.504; 2284.725;  141.125;    0.000
807.693; 2354.725;  145.125;    0.000
807.882; 2305.725;   91.125;    0.000
808.071; 2318.725;  116.125;    0.000
808.260; 2281.725;  105.125;    0.000
808.448; 2350.725;  184.125;    0.000
808.637; 2433.725;  146.125;    0.000
808.826; 2301.725;  153.125;    0.000
809.015; 2291.725;  113.125;    0.000
809.203; 2369.725;  166.125;    0.000
809.392; 2279.725;  117.125;    0.000
809.581; 2391.725;  186.125;    0.000
809.770; 2195.725;  122.125;    0.000
809.958; 2326.725;  140.125;    0.000
810.147; 2261.725;  130.125;    0.000
810.335; 2306.725;  112.125;    0.000
810.524; 2264.725;  106.125;    0.000
810.713; 2282.725;  154.125;    0.000
810.901; 2337.725;  131.125;    0.000
811.090; 2305.725;  164.125;    0.000
811.278; 2367.725;  159.125;    0.000
811.467; 2370.725;  194.125;    0.000
811.655; 2429.725;  164.125;    0.000
811.844; 2469.725;  149.125;    0.000
812.032; 2395.725;  169.125;    0.000
812.220; 2366.725;  163.125;    0.000
812.409; 2319.725;  134.125;    0.000
812.597; 2343.725;  165.125;    0.000
812.785; 2367.725;  180.125;    0.000
812.974; 2428.725;  166.125;    0.000
813.162; 2373.725;  171.125;    0.000
813.350; 2356.725;  142.125;    0.000
813.539; 2246.725;  126.125;    0.000
813.727; 2396.725;  153.125;    0.000
813.915; 2366.725;  138.125;    0.000
814.103; 2365.725;  191.125;    0.000
814.291; 2446.725;  142.125;    0.000
814.479; 2401.725;  156.125;    0.000
814.668; 2378.725;  152.125;    0.000
814.856; 2371.725;  150.125;    0.000
815.044; 2531.725;  165.125;    0.000
815.232; 2465.725;  172.125;    0.000
815.420; 2425.725;  147.125;    0.000
815.608; 2475.725;  143.125;    0.000
815.796; 2424.725;  126.125;    0.000
815.984; 2538.725;  152.125;    0.000
816.172; 2433.725;  129.125;    0.000
816.360; 2527.725;  177.125;    0.000
816.548; 2598.725;  141.125;    0.000
816.736; 2576.725;  142.125;    0.000
816.924; 2705.725;  161.125;    0.000
817.111; 2667.725;  138.125;    0.000
817.299; 2782.725;  112.125;    0.000
817.487; 2843.725;  180.125;    0.000
817.675; 2934.725;  138.125;    0.000
817.863; 3113.725;  172.125;    0.000
818.050; 3494.725;  142.125;    0.000
818.238; 4947.725;  151.125;    0.000
818.426; 6514.725;  129.125;    0.000
818.613; 5135.725;  124.125;    0.000
818.801; 4939.725;  209.125;    0.000
818.989; 4785.725;  178.125;    0.000
819.176; 4794.725;  155.125;    0.000
819.364; 6111.725;  174.125;    0.000
819.552; 8234.725;  131.125;    0.000
819.739; 5784.725;  184.125;    0.000
819.927; 4733.725;  132.125;    0.000
820.114; 4327.725;  173.125;    0.000
820.302; 4098.725;  140.125;    0.000
820.489; 4071.725;  133.125;    0.000
820.677; 3880.725;  167.125;    0.000
820.864; 3969.725;  161.125;    0.000
821.052; 4138.725;  134.125;    0.000
821.239; 4449.725;  149.125;    0.000
821.426; 4758.725;  160.125;    0.000
821.614; 5570.725;  143.125;    0.000
821.801; 6145.725;  118.125;    0.000
821.988; 5555.725;  154.125;    0.000
822.176; 5477.725;  112.125;    0.000
822.363; 5613.725;  131.125;    0.000
822.550; 5231.725;  131.125;    0.000
822.737; 4749.725;  104.125;    0.000
822.924; 4696.725;  160.125;    0.000
823.112; 4431.725;  161.125;    0.000
823.299; 4245.725;  169.125;    0.000
823.486; 3996.725;  129.125;    0.000
823.673; 3895.725;  135.125;    0.000
823.860; 3738.725;  169.125;    0.000
824.047; 3810.725;  124.125;    0.000
824.234; 4005.725;  160.125;    0.000
824.421; 4050.725;  114.125;    0.000
824.608; 3878.725;  191.125;    0.000
824.795; 3515.725;  160.125;    0.000
824.982; 3443.725;  139.125;    0.000
825.169; 3141.725;  121.125;    0.000
825.356; 3049.725;  148.125;    0.000
825.543; 3007.725;  167.125;    0.000
825.730; 2908.725;  103.125;    0.000
825.917; 2796.725;  113.125;    0.000
826.104; 2797.725;  188.125;    0.000
826.290; 2731.725;  193.125;    0.000
826.477; 2584.725;  175.125;    0.000
826.664; 2588.725;  151.125;    0.000
826.851; 2544.725;  122.125;    0.000
827.038; 2421.725;  121.125;    0.000
827.224; 2440.725;  124.125;    0.000
827.411; 2460.725;  155.125;    0.000
827.598; 2408.725;  127.125;    0.000
827.784; 2416.725;  140.125;    0.000
827.971; 2399.725;  114.125;    0.000
828.157; 2290.725;  135.125;    0.000
828.344; 2306.725;  173.125;    0.000
828.531; 2348.725;  113.125;    0.000
828.717; 2248.725;  137.125;    0.000
828.904; 2190.725;  158.125;    0.000
829.090; 2293.725;  199.125;    0.000
829.277; 2243.725;  156.125;    0.000
829.463; 2182.725;  154.125;    0.000
829.650; 2188.725;  174.125;    0.000
829.836; 2201.725;  136.125;    0.000
830.022; 2113.725;  143.125;    0.000
830.209; 2206.725;  157.125;    0.000
830.395; 2195.725;  156.125;    0.000
830.581; 2080.725;  148.125;    0.000
830.768; 1969.725;  169.125;    0.000
830.954; 2127.725;  169.125;    0.000
831.140; 2077.725;  124.125;    0.000
831.327; 2144.725;  157.125;    0.000
831.513; 2132.725;  163.125;    0.000
831.699; 2061.725;  176.125;    0.000
831.885; 2052.725;  154.125;    0.000
832.071; 2003.725;  159.125;    0.000
832.257; 2162.725;  142.125;    0.000
832.444; 2058.725;  159.125;    0.000
832.630; 2075.725;  129.125;    0.000
832.816; 1998.725;  132.125;    0.000
833.002; 1992.725;  125.125;    0.000
833.188; 1997.725;  144.125;    0.000
833.374; 1967.725;  131.125;    0.000
833.560; 1976.725;  154.125;    0.000
833.746; 1929.725;  171.125;    0.000
833.932; 1910.725;  162.125;    0.000
834.118; 1987.725;  131.125;    0.000
834.303; 1958.725;  113.125;    0.000
834.489; 2002.725;  170.125;    0.000
834.675; 1961.725;  177.125;    0.000
834.861; 1947.725;  154.125;    0.000
835.047; 2036.725;  171.125;    0.000
835.233; 1893.725;   98.125;    0.000
835.418; 1989.725;  138.125;    0.000
835.604; 1943.725;  140.125;    0.000
835.790; 1900.725;  130.125;    0.000
835.976; 1924.725;  129.125;    0.000
836.161; 1923.725;  142.125;    0.000
836.347; 1899.725;  128.125;    0.000
836.533; 1802.725;  143.125;    0.000
836.718; 1964.725;  164.125;    0.000
836.904; 1892.725;  172.125;    0.000
837.089; 1970.725;  152.125;    0.000
837.275; 1906.725;  143.125;    0.000
837.460; 1877.725;  125.125;    0.000
837.646; 1936.725;  137.125;    0.000
837.831; 1888.725;  153.125;    0.000
838.017; 1945.725;  171.125;    0.000
838.202; 1943.725;  111.125;    0.000
838.388; 1943.725;  140.125;    0.000
838.573; 1920.725;  158.125;    0.000
838.759; 1858.725;  188.125;    0.000
838.944; 1841.725;  125.125;    0.000
839.129; 1818.725;  123.125;    0.000
839.315; 1904.725;  181.125;    0.000
839.500; 1930.725;  150.125;    0.000
839.685; 1863.725;  109.125;    0.000
839.870; 2021.725;  202.125;    0.000
840.056; 1893.725;  101.125;    0.000
840.241; 1916.725;  184.125;    0.000
840.426; 1979.725;  192.125;    0.000
840.611; 1998.725;  180.125;    0.000
840.796; 1967.725;  156.125;    0.000
840.981; 1951.725;  142.125;    0.000
841.166; 1968.725;  161.125;    0.000
841.352; 2114.725;  185.125;    0.000
841.537; 2041.725;  139.125;    0.000
841.722; 2022.725;  143.125;    0.000
841.907; 2090.725;  140.125;    0.000
842.092; 2076.725;  176.125;    0.000
842.277; 2103.725;  136.125;    0.000
842.461; 2127.725;  155.125;    0.000
842.646; 2133.725;  163.125;    0.000
842.831; 2225.725;  153.125;    0.000
843.016; 2238.725;  187.125;    0.000
843.201; 2342.725;  179.125;    0.000
843.386; 2350.725;  167.125;    0.000
843.571; 2435.725;  129.125;    0.000
843.755; 2525.725;  136.125;    0.000
843.940; 2609.725;  121.125;    0.000
844.125; 2879.725;  157.125;    0.000
844.310; 3259.725;  175.125;    0.000
844.494; 3982.725;  164.125;    0.000
844.679; 4999.725;  167.125;    0.000
844.864; 4963.725;  166.125;    0.000
845.048; 4336.725;  132.125;    0.000
845.233; 3870.725;  175.125;    0.000
845.418; 3493.725;  159.125;    0.000
845.602; 3198.725;  147.125;    0.000
845.787; 2954.725;  132.125;    0.000
845.971; 2844.725;  187.125;    0.000
846.156; 2681.725;  141.125;    0.000
846.340; 2537.725;  153.125;    0.000
846.525; 2549.725;  157.125;    0.000
846.709; 2349.725;  117.125;    0.000
846.893; 2290.725;  147.125;    0.000
847.078; 2261.725;  170.125;    0.000
847.262; 2215.725;  150.125;    0.000
847.447; 2231.725;  132.125;    0.000
847.631; 2177.725;  144.125;    0.000
847.815; 2075.725;  157.125;    0.000
848.000; 2067.725;  164.125;    0.000
848.184; 2104.725;  174.125;    0.000
848.368; 2014.725;  149.125;    0.000
848.552; 1935.725;  143.125;    0.000
848.736; 1948.725;  132.125;    0.000
848.921; 2012.725;  147.125;    0.000
849.105; 1890.725;  150.125;    0.000
849.289; 1857.725;  146.125;    0.000
849.473; 1886.725;  167.125;    0.000
849.657; 1886.725;  149.125;    0.000
849.841; 1824.725;  181.125;    0.000
850.025; 1901.725;  154.125;    0.000
850.209; 1791.725;  152.125;    0.000
850.393; 1815.725;  139.125;    0.000
850.577; 1813.725;  128.125;    0.000
850.761; 1804.725;  194.125;    0.000
850.945; 1811.725;  152.125;    0.000
851.129; 1824.725;  157.125;    0.000
851.313; 1834.725;  181.125;    0.000
851.497; 1813.725;  145.125;    0.000
851.680; 1748.725;  168.125;    0.000
851.864; 1816.725;  185.125;    0.000
852.048; 1820.725;  170.125;    0.000
852.232; 1837.725;  192.125;    0.000
852.416; 1829.725;  182.125;    0.000
852.599; 1728.725;  169.125;    0.000
852.783; 1780.725;  168.125;    0.000
852.967; 1754.725;  184.125;    0.000
853.150; 1709.725;  163.125;    0.000
853.334; 1813.725;  164.125;    0.000
853.518; 1782.725;  190.125;    0.000
853.701; 1708.725;  137.125;    0.000
853.885; 1745.725;  177.125;    0.000
854.068; 1751.725;  163.125;    0.000
854.252; 1697.725;  139.125;    0.000
854.435; 1767.725;  152.125;    0.000
854.619; 1736.725;  148.125;    0.000
854.802; 1711.725;  168.125;    0.000
854.986; 1780.725;  157.125;    0.000
855.169; 1749.725;  147.125;    0.000
855.353; 1734.725;  173.125;    0.000
855.536; 1774.725;  127.125;    0.000
855.719; 1744.725;  191.125;    0.000
855.903; 1738.725;  186.125;    0.000
856.086; 1717.725;  145.125;    0.000
856.269; 1701.725;  130.125;    0.000
856.452; 1729.725;  153.125;    0.000
856.636; 1764.725;  129.125;    0.000
856.819; 1833.725;  134.125;    0.000
857.002; 1907.725;  152.125;    0.000
857.185; 1853.725;  140.125;    0.000
857.368; 1789.725;  170.125;    0.000
857.552; 1796.725;  132.125;    0.000
857.735; 1797.725;  160.125;    0.000
857.918; 1688.725;  139.125;    0.000
858.101; 1805.725;  159.125;    0.000
858.284; 1785.725;  136.125;    0.000
858.467; 1842.725;  147.125;    0.000
858.650; 1795.725;  153.125;    0.000
858.833; 1822.725;  113.125;    0.000
859.016; 1775.725;  167.125;    0.000
859.199; 1941.725;  141.125;    0.000
859.382; 1985.725;  155.125;    0.000
859.564; 2094.725;  136.125;    0.000
859.747; 2005.725;  142.125;    0.000
859.930; 1940.725;  141.125;    0.000
860.113; 1951.725;  156.125;    0.000
860.296; 1993.725;  167.125;    0.000
860.478; 1987.725;  121.125;    0.000
860.661; 1989.725;  230.125;    0.000
860.844; 1932.725;  186.125;    0.000
861.027; 1898.725;  155.125;    0.000
861.209; 1941.725;  151.125;    0.000
861.392; 1988.725;  162.125;    0.000
861.575; 1975.725;  150.125;    0.000
861.757; 1980.725;  162.125;    0.000
861.940; 2049.725;  207.125;    0.000
862.122; 1985.725;  113.125;    0.000
862.305; 2064.725;  114.125;    0.000
862.487; 2118.725;  162.125;    0.000
862.670; 2122.725;  148.125;    0.000
862.852; 2351.725;  131.125;    0.000
863.035; 2505.725;  174.125;    0.000
863.217; 2646.725;  170.125;    0.000
863.400; 2467.725;  148.125;    0.000
863.582; 2401.725;  129.125;    0.000
863.764; 2344.725;  181.125;    0.000
863.947; 2233.725;  152.125;    0.000
864.129; 2317.725;  178.125;    0.000
864.311; 2180.725;  139.125;    0.000
864.493; 2215.725;  166.125;    0.000
864.676; 2198.725;  148.125;    0.000
864.858; 2225.725;  123.125;    0.000
865.040; 2177.725;  180.125;    0.000
865.222; 2144.725;  131.125;    0.000
865.404; 2248.725;  146.125;    0.000
865.587; 2205.725;  175.125;    0.000
865.769; 2273.725;  183.125;    0.000
865.951; 2385.725;  171.125;    0.000
866.133; 2342.725;  165.125;    0.000
866.315; 2392.725;  138.125;    0.000
866.497; 2407.725;  139.125;    0.000
866.679; 2443.725;  167.125;    0.000
866.861; 2471.725;  151.125;    0.000
867.043; 2655.725;  190.125;    0.000
867.225; 2648.725;  140.125;    0.000
867.407; 2828.725;  125.125;    0.000
867.589; 3072.725;  141.125;    0.000
867.770; 3562.725;  149.125;    0.000
867.952; 4414.725;  138.125;    0.000
868.134; 5260.725;  153.125;    0.000
868.316; 5548.725;  148.125;    0.000
868.498; 5282.725;  180.125;    0.000
868.679; 4767.725;  152.125;    0.000
868.861; 4253.725;  174.125;    0.000
869.043; 3858.725;  152.125;    0.000
869.224; 3398.725;  177.125;    0.000
869.406; 3253.725;  171.125;    0.000
869.588; 3144.725;  177.125;    0.000
869.769; 2977.725;  174.125;    0.000
869.951; 2925.725;  167.125;    0.000
870.132; 2839.725;  144.125;    0.000
870.314; 3033.725;  143.125;    0.000
870.495; 3070.725;  162.125;    0.000
870.677; 2949.725;  136.125;    0.000
870.858; 2923.725;  155.125;    0.000
871.040; 3028.725;  179.125;    0.000
871.221; 3063.725;  177.125;    0.000
871.403; 2975.725;  180.125;    0.000
871.584; 2987.725;  157.125;    0.000
871.765; 3250.725;  183.125;    0.000
871.947; 3234.725;  169.125;    0.000
872.128; 2840.725;  162.125;    0.000
872.309; 2638.725;  159.125;    0.000
872.491; 2524.725;  148.125;    0.000
872.672; 2503.725;  163.125;    0.000
872.853; 2413.725;  152.125;    0.000
873.034; 2336.725;  166.125;    0.000
873.215; 2305.725;  155.125;    0.000
873.396; 2136.725;  147.125;    0.000
873.578; 2198.725;  147.125;    0.000
873.759; 2107.725;  153.125;    0.000
873.940; 1956.725;  194.125;    0.000
874.121; 1967.725;  179.125;    0.000
874.302; 1900.725;  155.125;    0.000
874.483; 1887.725;  131.125;    0.000
874.664; 1914.725;  106.125;    0.000
874.845; 1870.725;  122.125;    0.000
875.026; 1918.725;  127.125;    0.000
875.207; 1786.725;  151.125;    0.000
875.388; 1876.725;  149.125;    0.000
875.568; 1819.725;  164.125;    0.000
875.749; 1737.725;  176.125;    0.000
875.930; 1785.725;  207.125;    0.000
876.111; 1799.725;  177.125;    0.000
876.292; 1788.725;  178.125;    0.000
876.472; 1738.725;  163.125;    0.000
876.653; 1671.725;  159.125;    0.000
876.834; 1747.725;  177.125;    0.000
877.015; 1764.725;  212.125;    0.000
877.195; 1746.725;  166.125;    0.000
877.376; 1693.725;  157.125;    0.000
877.556; 1726.725;  175.125;    0.000
877.737; 1742.725;  220.125;    0.000
877.918; 1596.725;  163.125;    0.000
878.098; 1637.725;  166.125;    0.000
878.279; 1663.725;  136.125;    0.000
878.459; 1651.725;  167.125;    0.000
878.640; 1669.725;  167.125;    0.000
878.820; 1582.725;  155.125;    0.000
879.000; 1657.725;  158.125;    0.000
879.181; 1628.725;  155.125;    0.000
879.361; 1642.725;  181.125;    0.000
879.542; 1593.725;  181.125;    0.000
879.722; 1571.725;  117.125;    0.000
879.902; 1657.725;  180.125;    0.000
880.083; 1676.725;  139.125;    0.000
880.263; 1701.725;  168.125;    0.000
880.443; 1743.725;  206.125;    0.000
880.623; 1928.725;  132.125;    0.000
880.803; 2147.725;  149.125;    0.000
880.984; 1982.725;  189.125;    0.000
881.164; 1777.725;  171.125;    0.000
881.344; 1850.725;  150.125;    0.000
881.524; 1714.725;  185.125;    0.000
881.704; 1724.725;  152.125;    0.000
881.884; 1773.725;  188.125;    0.000
882.064; 1771.725;  155.125;    0.000
882.244; 1777.725;  182.125;    0.000
882.424; 1747.725;  154.125;    0.000
882.604; 1732.725;  175.125;    0.000
882.784; 1685.725;  137.125;    0.000
882.964; 1662.725;  135.125;    0.000
883.144; 1733.725;  142.125;    0.000
883.324; 1624.725;  192.125;    0.000
883.504; 1692.725;  193.125;    0.000
883.683; 1619.725;  208.125;    0.000
883.863; 1667.725;  127.125;    0.000
884.043; 1565.725;  140.125;    0.000
884.223; 1694.725;  167.125;    0.000
884.402; 1618.725;  156.125;    0.000
884.582; 1596.725;  185.125;    0.000
884.762; 1590.725;  187.125;    0.000
884.941; 1565.725;  201.125;    0.000
885.121; 1641.725;  157.125;    0.000
885.301; 1613.725;  173.125;    0.000
885.480; 1600.725;  158.125;    0.000
885.660; 1537.725;  153.125;    0.000
885.839; 1547.725;  144.125;    0.000
886.019; 1533.725;  184.125;    0.000
886.198; 1541.725;  132.125;    0.000
886.378; 1530.725;  124.125;    0.000
886.557; 1563.725;  146.125;    0.000
886.737; 1528.725;  157.125;    0.000
886.916; 1593.725;  203.125;    0.000
887.095; 1497.725;  151.125;    0.000
887.275; 1521.725;  143.125;    0.000
887.454; 1558.725;  140.125;    0.000
887.633; 1502.725;  196.125;    0.000
887.813; 1539.725;  161.125;    0.000
887.992; 1489.725;  183.125;    0.000
888.171; 1549.725;  153.125;    0.000
888.350; 1585.725;  185.125;    0.000
888.530; 1557.725;  163.125;    0.000
888.709; 1464.725;  174.125;    0.000
888.888; 1515.725;  179.125;    0.000
889.067; 1545.725;  178.125;    0.000
889.246; 1535.725;  184.125;    0.000
889.425; 1525.725;  169.125;    0.000
889.604; 1568.725;  210.125;    0.000
889.783; 1574.725;  183.125;    0.000
889.962; 1417.725;  116.125;    0.000
890.141; 1552.725;  179.125;    0.000
890.320; 1469.725;  182.125;    0.000
890.499; 1546.725;  188.125;    0.000
890.678; 1557.725;  167.125;    0.000
890.857; 1507.725;  141.125;    0.000
891.036; 1538.725;  179.125;    0.000
891.214; 1465.725;  156.125;    0.000
891.393; 1603.725;  209.125;    0.000
891.572; 1519.725;  181.125;    0.000
891.751; 1590.725;  172.125;    0.000
891.930; 1535.725;  169.125;    0.000
892.108; 1503.725;  131.125;    0.000
892.287; 1558.725;  162.125;    0.000
892.466; 1456.725;  178.125;    0.000
892.644; 1509.725;  161.125;    0.000
892.823; 1506.725;  180.125;    0.000
893.001; 1508.725;  179.125;    0.000
893.180; 1483.725;  152.125;    0.000
893.359; 1534.725;  184.125;    0.000
893.537; 1521.725;  178.125;    0.000
893.716; 1489.725;  169.125;    0.000
893.894; 1444.725;  159.125;    0.000
894.073; 1568.725;  179.125;    0.000
894.251; 1447.725;  167.125;    0.000
894.429; 1427.725;  142.125;    0.000
894.608; 1445.725;  166.125;    0.000
894.786; 1490.725;  153.125;    0.000
894.964; 1420.725;  181.125;    0.000
895.143; 1500.725;  161.125;    0.000
895.321; 1556.725;  198.125;    0.000
895.499; 1557.725;  184.125;    0.000
895.677; 1499.725;  178.125;    0.000
895.856; 1580.725;  226.125;    0.000
896.034; 1524.725;  180.125;    0.000
896.212; 1604.725;  200.125;    0.000
896.390; 1487.725;  161.125;    0.000
896.568; 1522.725;  204.125;    0.000
896.746; 1568.725;  136.125;    0.000
896.924; 1572.725;  171.125;    0.000
897.102; 1574.725;  203.125;    0.000
897.280; 1484.725;  142.125;    0.000
897.458; 1561.725;  159.125;    0.000
897.636; 1506.725;  163.125;    0.000
897.814; 1534.725;  137.125;    0.000
897.992; 1601.725;  199.125;    0.000
898.170; 1570.725;  176.125;    0.000
898.348; 1539.725;  195.125;    0.000
898.526; 1529.725;  199.125;    0.000
898.704; 1597.725;  260.125;    0.000
898.882; 1559.725;  185.125;    0.000
899.059; 1537.725;  169.125;    0.000
899.237; 1486.725;  197.125;    0.000
899.415; 1617.725;  207.125;    0.000
899.593; 1539.725;  169.125;    0.000
899.770; 1572.725;  182.125;    0.000
899.948; 1617.725;  198.125;    0.000
900.125; 1631.725;  200.125;    0.000
900.303; 1603.725;  165.125;    0.000
900.481; 1622.725;  182.125;    0.000
900.658; 1624.725;  206.125;    0.000
900.836; 1603.725;  188.125;    0.000
901.013; 1596.725;  169.125;    0.000
901.191; 1608.725;  172.125;    0.000
901.368; 1581.725;  170.125;    0.000
901.546; 1600.725;  234.125;    0.000
901.723; 1638.725;  173.125;    0.000
901.901; 1588.725;  190.125;    0.000
902.078; 1664.725;  145.125;    0.000
902.255; 1649.725;  204.125;    0.000
902.433; 1652.725;  198.125;    0.000
902.610; 1715.725;  190.125;    0.000
902.787; 1600.725;  204.125;    0.000
902.964; 1760.725;  208.125;    0.000
903.142; 1711.725;  187.125;    0.000
903.319; 1806.725;  216.125;    0.000
903.496; 1782.725;  186.125;    0.000
903.673; 1858.725;  201.125;    0.000
903.850; 1832.725;  195.125;    0.000
904.027; 1836.725;  211.125;    0.000
904.204; 1959.725;  197.125;    0.000
904.381; 1955.725;  198.125;    0.000
904.558; 2131.725;  188.125;    0.000
904.735; 2220.725;  207.125;    0.000
904.912; 2238.725;  217.125;    0.000
905.089; 2276.725;  188.125;    0.000
905.266; 2130.725;  160.125;    0.000
905.443; 2148.725;  221.125;    0.000
905.620; 2018.725;  163.125;    0.000
905.797; 1889.725;  186.125;    0.000
905.974; 1964.725;  205.125;    0.000
906.151; 1951.725;  159.125;    0.000
906.327; 1916.725;  206.125;    0.000
906.504; 1875.725;  201.125;    0.000
906.681; 1845.725;  202.125;    0.000
906.858; 1868.725;  188.125;    0.000
907.034; 1840.725;  207.125;    0.000
907.211; 1814.725;  182.125;    0.000
907.388; 1758.725;  184.125;    0.000
907.564; 1809.725;  148.125;    0.000
907.741; 1790.725;  181.125;    0.000
907.917; 1778.725;  191.125;    0.000
908.094; 1765.725;  210.125;    0.000
908.271; 1663.725;  171.125;    0.000
908.447; 1711.725;  241.125;    0.000
908.623; 1639.725;  188.125;    0.000
908.800; 1717.725;  205.125;    0.000
908.976; 1707.725;  210.125;    0.000
909.153; 1586.725;  193.125;    0.000
909.329; 1670.725;  206.125;    0.000
909.505; 1718.725;  181.125;    0.000
909.682; 1687.725;  192.125;    0.000
909.858; 1584.725;  134.125;    0.000
910.034; 1597.725;  214.125;    0.000
910.211; 1597.725;  182.125;    0.000
910.387; 1671.725;  194.125;    0.000
910.563; 1650.725;  199.125;    0.000
910.739; 1688.725;  188.125;    0.000
910.915; 1615.725;  192.125;    0.000
911.091; 1683.725;  198.125;    0.000
911.268; 1698.725;  178.125;    0.000
911.444; 1593.725;  201.125;    0.000
911.620; 1584.725;  181.125;    0.000
911.796; 1624.725;  185.125;    0.000
911.972; 1672.725;  176.125;    0.000
912.148; 1641.725;  196.125;    0.000
912.324; 1621.725;  192.125;    0.000
912.500; 1630.725;  204.125;    0.000
912.676; 1610.725;  164.125;    0.000
912.851; 1640.725;  193.125;    0.000
913.027; 1629.725;  175.125;    0.000
913.203; 1607.725;  193.125;    0.000
913.379; 1525.725;  213.125;    0.000
913.555; 1581.725;  211.125;    0.000
913.730; 1550.725;  194.125;    0.000
913.906; 1667.725;  153.125;    0.000
914.082; 1646.725;  212.125;    0.000
914.258; 1647.725;  194.125;    0.000
914.433; 1611.725;  191.125;    0.000
914.609; 1589.725;  208.125;    0.000
914.784; 1564.725;  176.125;    0.000
914.960; 1653.725;  227.125;    0.000
915.136; 1586.725;  152.125;    0.000
915.311; 1690.725;  171.125;    0.000
915.487; 1611.725;  173.125;    0.000
915.662; 1626.725;  189.125;    0.000
915.838; 1557.725;  179.125;    0.000
916.013; 1645.725;  191.125;    0.000
916.189; 1673.725;  207.125;    0.000
916.364; 1630.725;  194.125;    0.000
916.539; 1703.725;  174.125;    0.000
916.715; 1653.725;  207.125;    0.000
916.890; 1603.725;  193.125;    0.000
917.065; 1589.725;  199.125;    0.000
917.240; 1613.725;  214.125;    0.000
917.416; 1664.725;  194.125;    0.000
917.591; 1661.725;  213.125;    0.000
917.766; 1630.725;  194.125;    0.000
917.941; 1587.725;  201.125;    0.000
918.116; 1657.725;  198.125;    0.000
918.292; 1600.725;  176.125;    0.000
918.467; 1671.725;  190.125;    0.000
918.642; 1723.725;  200.125;    0.000
918.817; 1714.725;  186.125;    0.000
918.992; 1591.725;  174.125;    0.000
919.167; 1642.725;  197.125;    0.000
919.342; 1634.725;  188.125;    0.000
919.517; 1656.725;  179.125;    0.000
919.692; 1675.725;  182.125;    0.000
919.867; 1686.725;  216.125;    0.000
920.041; 1655.725;  208.125;    0.000
920.216; 1731.725;  223.125;    0.000
920.391; 1690.725;  203.125;    0.000
920.566; 1792.725;  202.125;    0.000
920.741; 1785.725;  197.125;    0.000
920.915; 1778.725;  223.125;    0.000
921.090; 1892.725;  183.125;    0.000
921.265; 1903.725;  169.125;    0.000
921.439; 2100.725;  212.125;    0.000
921.614; 1991.725;  190.125;    0.000
921.789; 1935.725;  177.125;    0.000
921.963; 1968.725;  233.125;    0.000
922.138; 1882.725;  156.125;    0.000
922.312; 1840.725;  193.125;    0.000
922.487; 1830.725;  208.125;    0.000
922.661; 1842.725;  212.125;    0.000
922.836; 1928.725;  210.125;    0.000
923.010; 1893.725;  183.125;    0.000
923.185; 1860.725;  228.125;    0.000
923.359; 1811.725;  227.125;    0.000
923.534; 1889.725;  189.125;    0.000
923.708; 1936.725;  210.125;    0.000
923.882; 1967.725;  217.125;    0.000
924.057; 1928.725;  195.125;    0.000
924.231; 1908.725;  201.125;    0.000
924.405; 1839.725;  188.125;    0.000
924.579; 1874.725;  188.125;    0.000
924.753; 1820.725;  174.125;    0.000
924.928; 1808.725;  179.125;    0.000
925.102; 1830.725;  186.125;    0.000
925.276; 1782.725;  201.125;    0.000
925.450; 1819.725;  211.125;    0.000
925.624; 1788.725;  238.125;    0.000
925.798; 1852.725;  191.125;    0.000
925.972; 1857.725;  192.125;    0.000
926.146; 1883.725;  198.125;    0.000
926.320; 1978.725;  151.125;    0.000
926.494; 2096.725;  202.125;    0.000
926.668; 2148.725;  197.125;    0.000
926.842; 2191.725;  177.125;    0.000
927.016; 2206.725;  202.125;    0.000
927.190; 2123.725;  207.125;    0.000
927.363; 2092.725;  180.125;    0.000
927.537; 2120.725;  212.125;    0.000
927.711; 2024.725;  148.125;    0.000
927.885; 2121.725;  196.125;    0.000
928.058; 1944.725;  173.125;    0.000
928.232; 2052.725;  219.125;    0.000
928.406; 2030.725;  141.125;    0.000
928.579; 2000.725;  157.125;    0.000
928.753; 1979.725;  205.125;    0.000
928.927; 2000.725;  196.125;    0.000
929.100; 1930.725;  237.125;    0.000
929.274; 1871.725;  166.125;    0.000
929.447; 1826.725;  150.125;    0.000
929.621; 1954.725;  188.125;    0.000
929.794; 1910.725;  169.125;    0.000
929.968; 1923.725;  194.125;    0.000
930.141; 1834.725;  226.125;    0.000
930.315; 1789.725;  196.125;    0.000
930.488; 1815.725;  233.125;    0.000
930.661; 1789.725;  188.125;    0.000
930.835; 1850.725;  170.125;    0.000
931.008; 1851.725;  176.125;    0.000
931.181; 1839.725;  175.125;    0.000
931.354; 1746.725;  212.125;    0.000
931.528; 1731.725;  177.125;    0.000
931.701; 1753.725;  218.125;    0.000
931.874; 1728.725;  175.125;    0.000
932.047; 1756.725;  157.125;    0.000
932.220; 1731.725;  187.125;    0.000
932.393; 1764.725;  166.125;    0.000
932.566; 1731.725;  168.125;    0.000
932.739; 1802.725;  203.125;    0.000
932.912; 1658.725;  202.125;    0.000
933.085; 1744.725;  209.125;    0.000
933.258; 1670.725;  196.125;    0.000
933.431; 1656.725;  207.125;    0.000
933.604; 1749.725;  201.125;    0.000
933.777; 1749.725;  202.125;    0.000
933.950; 1708.725;  184.125;    0.000
934.123; 1671.725;  167.125;    0.000
934.296; 1716.725;  209.125;    0.000
934.468; 1731.725;  216.125;    0.000
934.641; 1659.725;  156.125;    0.000
934.814; 1720.725;  215.125;    0.000
934.987; 1674.725;  201.125;    0.000
935.159; 1688.725;  176.125;    0.000
935.332; 1660.725;  203.125;    0.000
935.505; 1746.725;  163.125;    0.000
935.677; 1722.725;  169.125;    0.000
935.850; 1695.725;  178.125;    0.000
936.022; 1738.725;  187.125;    0.000
936.195; 1648.725;  207.125;    0.000
936.367; 1651.725;  191.125;    0.000
936.540; 1709.725;  214.125;    0.000
936.712; 1694.725;  202.125;    0.000
936.885; 1703.725;  195.125;    0.000
937.057; 1672.725;  173.125;    0.000
937.229; 1698.725;  179.125;    0.000
937.402; 1753.725;  174.125;    0.000
937.574; 1659.725;  140.125;    0.000
937.746; 1748.725;  153.125;    0.000
937.919; 1766.725;  196.125;    0.000
938.091; 1837.725;  173.125;    0.000
938.263; 1827.725;  206.125;    0.000
938.435; 1932.725;  213.125;    0.000
938.608; 2096.725;  204.125;    0.000
938.780; 2129.725;  199.125;    0.000
938.952; 2307.725;  190.125;    0.000
939.124; 2224.725;  182.125;    0.000
939.296; 2436.725;  188.125;    0.000
939.468; 2438.725;  119.125;    0.000
939.640; 2363.725;  171.125;    0.000
939.812; 2240.725;  222.125;    0.000
939.984; 2134.725;  172.125;    0.000
940.156; 2196.725;  171.125;    0.000
940.328; 1975.725;  215.125;    0.000
940.500; 1886.725;  179.125;    0.000
940.672; 2048.725;  178.125;    0.000
940.843; 1909.725;  193.125;    0.000
941.015; 1924.725;  207.125;    0.000
941.187; 1838.725;  179.125;    0.000
941.359; 1791.725;  191.125;    0.000
941.531; 1862.725;  160.125;    0.000
941.702; 1839.725;  208.125;    0.000
941.874; 1806.725;  143.125;    0.000
942.046; 1811.725;  189.125;    0.000
942.217; 1670.725;  167.125;    0.000
942.389; 1757.725;  199.125;    0.000
942.560; 1746.725;  179.125;    0.000
942.732; 1787.725;  209.125;    0.000
942.904; 1668.725;  180.125;    0.000
943.075; 1677.725;  197.125;    0.000
943.247; 1673.725;  207.125;    0.000
943.418; 1643.725;  183.125;    0.000
943.589; 1672.725;  176.125;    0.000
943.761; 1652.725;  165.125;    0.000
943.932; 1663.725;  170.125;    0.000
944.104; 1735.725;  147.125;    0.000
944.275; 1688.725;  149.125;    0.000
944.446; 1736.725;  191.125;    0.000
944.617; 1658.725;  128.125;    0.000
944.789; 1586.725;  166.125;    0.000
944.960; 1614.725;  195.125;    0.000
945.131; 1618.725;  164.125;    0.000
945.302; 1682.725;  229.125;    0.000
945.473; 1553.725;  153.125;    0.000
945.645; 1669.725;  166.125;    0.000
945.816; 1689.725;  187.125;    0.000
945.987; 1665.725;  193.125;    0.000
946.158; 1647.725;  166.125;    0.000
946.329; 1677.725;  196.125;    0.000
946.500; 1645.725;  152.125;    0.000
946.671; 1637.725;  161.125;    0.000
946.842; 1631.725;  176.125;    0.000
947.013; 1602.725;  188.125;    0.000
947.183; 1683.725;  213.125;    0.000
947.354; 1593.725;  163.125;    0.000
947.525; 1601.725;  204.125;    0.000
947.696; 1536.725;  159.125;    0.000
947.867; 1635.725;  197.125;    0.000
948.037; 1564.725;  174.125;    0.000
948.208; 1575.725;  163.125;    0.000
948.379; 1609.725;  189.125;    0.000
948.550; 1550.725;  173.125;    0.000
948.720; 1570.725;  186.125;    0.000
948.891; 1604.725;  166.125;    0.000
949.061; 1548.725;  197.125;    0.000
949.232; 1551.725;  168.125;    0.000
949.403; 1531.725;  188.125;    0.000
949.573; 1523.725;  164.125;    0.000
949.744; 1548.725;  194.125;    0.000
949.914; 1590.725;  154.125;    0.000
950.085; 1536.725;  197.125;    0.000
950.255; 1468.725;  187.125;    0.000
950.425; 1578.725;  193.125;    0.000
950.596; 1566.725;  182.125;    0.000
950.766; 1599.725;  202.125;    0.000
950.936; 1522.725;  230.125;    0.000
951.107; 1554.725;  133.125;    0.000
951.277; 1511.725;  234.125;    0.000
951.447; 1555.725;  200.125;    0.000
951.617; 1594.725;  212.125;    0.000
951.788; 1569.725;  176.125;    0.000
951.958; 1619.725;  218.125;    0.000
952.128; 1622.725;  198.125;    0.000
952.298; 1662.725;  185.125;    0.000
952.468; 1517.725;  231.125;    0.000
952.638; 1589.725;  213.125;    0.000
952.808; 1498.725;  218.125;    0.000
952.978; 1569.725;  252.125;    0.000
953.148; 1595.725;  200.125;    0.000
953.318; 1567.725;  243.125;    0.000
953.488; 1503.725;  140.125;    0.000
953.658; 1545.725;  208.125;    0.000
953.828; 1515.725;  179.125;    0.000
953.998; 1592.725;  211.125;    0.000
954.167; 1500.725;  197.125;    0.000
954.337; 1514.725;  217.125;    0.000
954.507; 1603.725;  219.125;    0.000
954.677; 1548.725;  201.125;    0.000
954.846; 1536.725;  241.125;    0.000
955.016; 1556.725;  222.125;    0.000
955.186; 1457.725;  200.125;    0.000
955.355; 1576.725;  247.125;    0.000
955.525; 1546.725;  212.125;    0.000
955.695; 1500.725;  200.125;    0.000
955.864; 1592.725;  196.125;    0.000
956.034; 1551.725;  195.125;    0.000
956.203; 1574.725;  243.125;    0.000
956.373; 1583.725;  197.125;    0.000
956.542; 1476.725;  237.125;    0.000
956.711; 1552.725;  249.125;    0.000
956.881; 1582.725;  235.125;    0.000
957.050; 1609.725;  259.125;    0.000
957.220; 1566.725;  234.125;    0.000
957.389; 1530.725;  250.125;    0.000
957.558; 1536.725;  214.125;    0.000
957.727; 1495.725;  225.125;    0.000
957.897; 1573.725;  211.125;    0.000
958.066; 1497.725;  200.125;    0.000
958.235; 1507.725;  202.125;    0.000
958.404; 1488.725;  242.125;    0.000
958.573; 1454.725;  222.125;    0.000
958.743; 1447.725;  191.125;    0.000
958.912; 1561.725;  183.125;    0.000
959.081; 1520.725;  212.125;    0.000
959.250; 1518.725;  192.125;    0.000
959.419; 1529.725;  238.125;    0.000
959.588; 1524.725;  205.125;    0.000
959.757; 1513.725;  213.125;    0.000
959.926; 1546.725;  217.125;    0.000
960.094; 1535.725;  215.125;    0.000
960.263; 1499.725;  220.125;    0.000
960.432; 1434.725;  164.125;    0.000
960.601; 1453.725;  228.125;    0.000
960.770; 1445.725;  176.125;    0.000
960.939; 1502.725;  201.125;    0.000
961.107; 1452.725;  183.125;    0.000
961.276; 1449.725;  199.125;    0.000
961.445; 1457.725;  205.125;    0.000
961.613; 1495.725;  183.125;    0.000
961.782; 1505.725;  216.125;    0.000
961.951; 1472.725;  169.125;    0.000
962.119; 1485.725;  211.125;    0.000
962.288; 1459.725;  204.125;    0.000
962.456; 1496.725;  187.125;    0.000
962.625; 1553.725;  223.125;    0.000
962.793; 1454.725;  200.125;    0.000
962.962; 1501.725;  185.125;    0.000
963.130; 1420.725;  195.125;    0.000
963.298; 1404.725;  187.125;    0.000
963.467; 1499.725;  247.125;    0.000
963.635; 1487.725;  165.125;    0.000
963.803; 1495.725;  192.125;    0.000
963.972; 1554.725;  191.125;    0.000
964.140; 1460.725;  163.125;    0.000
964.308; 1398.725;  161.125;    0.000
964.477; 1450.725;  182.125;    0.000
964.645; 1532.725;  195.125;    0.000
964.813; 1465.725;  165.125;    0.000
964.981; 1440.725;  193.125;    0.000
965.149; 1467.725;  174.125;    0.000
965.317; 1495.725;  194.125;    0.000
965.485; 1484.725;  209.125;    0.000
965.653; 1453.725;  210.125;    0.000
965.821; 1454.725;  194.125;    0.000
965.989; 1382.725;  182.125;    0.000
966.157; 1484.725;  180.125;    0.000
966.325; 1488.725;  198.125;    0.000
966.493; 1465.725;  182.125;    0.000
966.661; 1453.725;  200.125;    0.000
966.829; 1473.725;  190.125;    0.000
966.996; 1526.725;  221.125;    0.000
967.164; 1426.725;  176.125;    0.000
967.332; 1527.725;  228.125;    0.000
967.500; 1471.725;  177.125;    0.000
967.667; 1485.725;  202.125;    0.000
967.835; 1527.725;  220.125;    0.000
968.003; 1469.725;  183.125;    0.000
968.170; 1508.725;  163.125;    0.000
968.338; 1472.725;  162.125;    0.000
968.505; 1483.725;  198.125;    0.000
968.673; 1438.725;  213.125;    0.000
968.841; 1439.725;  131.125;    0.000
969.008; 1498.725;  225.125;    0.000
969.175; 1424.725;  202.125;    0.000
969.343; 1486.725;  222.125;    0.000
969.510; 1489.725;  230.125;    0.000
969.678; 1426.725;  161.125;    0.000
969.845; 1437.725;  208.125;    0.000
970.012; 1550.725;  186.125;    0.000
970.180; 1535.725;  226.125;    0.000
970.347; 1449.725;  222.125;    0.000
970.514; 1533.725;  206.125;    0.000
970.681; 1571.725;  173.125;    0.000
970.849; 1555.725;  190.125;    0.000
971.016; 1594.725;  220.125;    0.000
971.183; 1537.725;  202.125;    0.000
971.350; 1491.725;  196.125;    0.000
971.517; 1488.725;  218.125;    0.000
971.684; 1566.725;  228.125;    0.000
971.851; 1573.725;  235.125;    0.000
972.018; 1659.725;  200.125;    0.000
972.185; 1546.725;  183.125;    0.000
972.352; 1554.725;  216.125;    0.000
972.519; 1479.725;  227.125;    0.000
972.686; 1521.725;  209.125;    0.000
972.853; 1530.725;  157.125;    0.000
973.020; 1473.725;  179.125;    0.000
973.186; 1455.725;  173.125;    0.000
973.353; 1518.725;  189.125;    0.000
973.520; 1515.725;  228.125;    0.000
973.687; 1675.725;  190.125;    0.000
973.853; 1557.725;  197.125;    0.000
974.020; 1560.725;  208.125;    0.000
974.187; 1451.725;  158.125;    0.000
974.353; 1588.725;  201.125;    0.000
974.520; 1498.725;  158.125;    0.000
974.687; 1551.725;  192.125;    0.000
974.853; 1494.725;  177.125;    0.000
975.020; 1456.725;  212.125;    0.000
975.186; 1502.725;  200.125;    0.000
975.353; 1515.725;  208.125;    0.000
975.519; 1522.725;  169.125;    0.000
975.685; 1511.725;  176.125;    0.000
975.852; 1504.725;  201.125;    0.000
976.018; 1499.725;  209.125;    0.000
976.184; 1576.725;  197.125;    0.000
976.351; 1511.725;  196.125;    0.000
976.517; 1520.725;  243.125;    0.000
976.683; 1518.725;  210.125;    0.000
976.849; 1602.725;  226.125;    0.000
977.016; 1444.725;  218.125;    0.000
977.182; 1510.725;  213.125;    0.000
977.348; 1468.725;  205.125;    0.000
977.514; 1559.725;  210.125;    0.000
977.680; 1531.725;  226.125;    0.000
977.846; 1448.725;  206.125;    0.000
978.012; 1413.725;  222.125;    0.000
978.178; 1466.725;  216.125;    0.000
978.344; 1476.725;  172.125;    0.000
978.510; 1410.725;  210.125;    0.000
978.676; 1426.725;  184.125;    0.000
978.842; 1525.725;  190.125;    0.000
979.008; 1513.725;  203.125;    0.000
979.174; 1474.725;  211.125;    0.000
979.340; 1469.725;  190.125;    0.000
979.505; 1475.725;  235.125;    0.000
979.671; 1453.725;  182.125;    0.000
979.837; 1455.725;  235.125;    0.000
980.003; 1435.725;  183.125;    0.000
980.168; 1467.725;  220.125;    0.000
980.334; 1366.725;  161.125;    0.000
980.499; 1561.725;  212.125;    0.000
980.665; 1576.725;  219.125;    0.000
980.831; 1472.725;  201.125;    0.000
980.996; 1534.725;  189.125;    0.000
981.162; 1523.725;  222.125;    0.000
981.327; 1533.725;  173.125;    0.000
981.493; 1520.725;  197.125;    0.000
981.658; 1522.725;  178.125;    0.000
981.823; 1557.725;  196.125;    0.000
981.989; 1548.725;  248.125;    0.000
982.154; 1495.725;  222.125;    0.000
982.319; 1520.725;  226.125;    0.000
982.485; 1529.725;  188.125;    0.000
982.650; 1611.725;  203.125;    0.000
982.815; 1496.725;  237.125;    0.000
982.980; 1468.725;  210.125;    0.000
983.146; 1522.725;  202.125;    0.000
983.311; 1491.725;  195.125;    0.000
983.476; 1554.725;  207.125;    0.000
983.641; 1492.725;  198.125;    0.000
983.806; 1494.725;  136.125;    0.000
983.971; 1621.725;  248.125;    0.000
984.136; 1554.725;  213.125;    0.000
984.301; 1419.725;  181.125;    0.000
984.466; 1478.725;  210.125;    0.000
984.631; 1507.725;  219.125;    0.000
984.796; 1551.725;  207.125;    0.000
984.961; 1621.725;  214.125;    0.000
985.126; 1538.725;  218.125;    0.000
985.291; 1505.725;  214.125;    0.000
985.455; 1524.725;  187.125;    0.000
985.620; 1464.725;  191.125;    0.000
985.785; 1457.725;  190.125;    0.000
985.950; 1501.725;  184.125;    0.000
986.114; 1513.725;  242.125;    0.000
986.279; 1524.725;  251.125;    0.000
986.444; 1500.725;  177.125;    0.000
986.608; 1517.725;  216.125;    0.000
986.773; 1565.725;  211.125;    0.000
986.937; 1619.725;  244.125;    0.000
987.102; 1526.725;  187.125;    0.000
987.266; 1490.725;  178.125;    0.000
987.431; 1597.725;  205.125;    0.000
987.595; 1527.725;  221.125;    0.000
987.760; 1522.725;  205.125;    0.000
987.924; 1509.725;  195.125;    0.000
988.088; 1531.725;  184.125;    0.000
988.253; 1501.725;  188.125;    0.000
988.417; 1536.725;  196.125;    0.000
988.581; 1503.725;  218.125;    0.000
988.746; 1453.725;  203.125;    0.000
988.910; 1522.725;  195.125;    0.000
989.074; 1525.725;  187.125;    0.000
989.238; 1470.725;  243.125;    0.000
989.402; 1536.725;  242.125;    0.000
989.566; 1493.725;  205.125;    0.000
989.731; 1521.725;  195.125;    0.000
989.895; 1513.725;  211.125;    0.000
990.059; 1469.725;  175.125;    0.000
990.223; 1500.725;  176.125;    0.000
990.387; 1525.725;  234.125;    0.000
990.551; 1555.725;  231.125;    0.000
990.714; 1527.725;  209.125;    0.000
990.878; 1467.725;  187.125;    0.000
991.042; 1482.725;  183.125;    0.000
991.206; 1553.725;  216.125;    0.000
991.370; 1528.725;  257.125;    0.000
991.534; 1540.725;  188.125;    0.000
991.697; 1600.725;  203.125;    0.000
991.861; 1535.725;  219.125;    0.000
992.025; 1561.725;  221.125;    0.000
992.188; 1540.725;  188.125;    0.000
992.352; 1536.725;  205.125;    0.000
992.516; 1530.725;  189.125;    0.000
992.679; 1502.725;  207.125;    0.000
992.843; 1559.725;  210.125;    0.000
993.006; 1490.725;  191.125;    0.000
993.170; 1596.725;  228.125;    0.000
993.333; 1547.725;  142.125;    0.000
993.497; 1497.725;  175.125;    0.000
993.660; 1604.725;  220.125;    0.000
993.824; 1573.725;  193.125;    0.000
993.987; 1560.725;  219.125;    0.000
994.150; 1602.725;  166.125;    0.000
994.314; 1563.725;  207.125;    0.000
994.477; 1578.725;  227.125;    0.000
994.640; 1521.725;  210.125;    0.000
994.803; 1570.725;  219.125;    0.000
994.967; 1519.725;  192.125;    0.000
995.130; 1622.725;  197.125;    0.000
995.293; 1545.725;  189.125;    0.000
995.456; 1555.725;  180.125;    0.000
995.619; 1517.725;  239.125;    0.000
995.782; 1508.725;  209.125;    0.000
995.945; 1599.725;  216.125;    0.000
996.108; 1519.725;  198.125;    0.000
996.271; 1626.725;  205.125;    0.000
996.434; 1599.725;  205.125;    0.000
996.597; 1496.725;  208.125;    0.000
996.760; 1550.725;  205.125;    0.000
996.923; 1540.725;  174.125;    0.000
997.086; 1491.725;  198.125;    0.000
997.248; 1620.725;  214.125;    0.000
997.411; 1458.725;  237.125;    0.000
997.574; 1549.725;  182.125;    0.000
997.737; 1498.725;  188.125;    0.000
997.899; 1458.725;  216.125;    0.000
998.062; 1598.725;  210.125;    0.000
998.225; 1495.725;  202.125;    0.000
998.387; 1481.725;  202.125;    0.000
998.550; 1513.725;  193.125;    0.000
998.712; 1555.725;  225.125;    0.000
998.875; 1567.725;  228.125;    0.000
999.037; 1520.725;  186.125;    0.000
999.200; 1531.725;  212.125;    0.000
999.362; 1469.725;  234.125;    0.000
999.525; 1488.725;  170.125;    0.000
999.687; 1550.725;  191.125;    0.000
999.849; 1574.725;  218.125;    0.000
1000.012; 1584.725;  187.125;    0.000
1000.174; 1571.725;  216.125;    0.000
1000.336; 1560.725;  194.125;    0.000
1000.499; 1579.725;  209.125;    0.000
1000.661; 1551.725;  208.125;    0.000
1000.823; 1578.725;  197.125;    0.000
1000.985; 1598.725;  201.125;    0.000
1001.147; 1654.725;  234.125;    0.000
1001.309; 1670.725;  180.125;    0.000
1001.471; 1676.725;  223.125;    0.000
1001.633; 1627.725;  198.125;    0.000
1001.796; 1669.725;  200.125;    0.000
1001.958; 1735.725;  204.125;    0.000
1002.119; 1687.725;  193.125;    0.000
1002.281; 1788.725;  205.125;    0.000
1002.443; 1874.725;  236.125;    0.000
1002.605; 2049.725;  197.125;    0.000
1002.767; 2060.725;  223.125;    0.000
1002.929; 2262.725;  220.125;    0.000
1003.091; 2368.725;  214.125;    0.000
1003.252; 2405.725;  233.125;    0.000
1003.414; 2651.725;  230.125;    0.000
1003.576; 2712.725;  203.125;    0.000
1003.738; 2877.725;  201.125;    0.000
1003.899; 3014.725;  222.125;    0.000
1004.061; 3211.725;  208.125;    0.000
1004.222; 3304.725;  194.125;    0.000
1004.384; 3566.725;  205.125;    0.000
1004.546; 3473.725;  162.125;    0.000
1004.707; 3549.725;  232.125;    0.000
1004.869; 3752.725;  223.125;    0.000
1005.030; 3710.725;  204.125;    0.000
1005.191; 3617.725;  214.125;    0.000
1005.353; 3427.725;  226.125;    0.000
1005.514; 3191.725;  201.125;    0.000
1005.675; 3116.725;  205.125;    0.000
1005.837; 3033.725;  235.125;    0.000
1005.998; 2869.725;  210.125;    0.000
1006.159; 2890.725;  214.125;    0.000
1006.321; 2920.725;  236.125;    0.000
1006.482; 3036.725;  214.125;    0.000
1006.643; 3097.725;  213.125;    0.000
1006.804; 3201.725;  204.125;    0.000
1006.965; 3409.725;  212.125;    0.000
1007.126; 3440.725;  251.125;    0.000
1007.287; 3432.725;  238.125;    0.000
1007.448; 3277.725;  198.125;    0.000
1007.609; 3243.725;  241.125;    0.000
1007.770; 3169.725;  213.125;    0.000
1007.931; 3132.725;  225.125;    0.000
1008.092; 3118.725;  204.125;    0.000
1008.253; 3217.725;  220.125;    0.000
1008.414; 3290.725;  180.125;    0.000
1008.575; 3451.725;  224.125;    0.000
1008.736; 3472.725;  164.125;    0.000
1008.896; 3315.725;  247.125;    0.000
1009.057; 3313.725;  263.125;    0.000
1009.218; 3233.725;  233.125;    0.000
1009.379; 3350.725;  207.125;    0.000
1009.539; 3342.725;  221.125;    0.000
1009.700; 3542.725;  209.125;    0.000
1009.860; 3605.725;  217.125;    0.000
1010.021; 3521.725;  182.125;    0.000
1010.182; 3483.725;  233.125;    0.000
1010.342; 3393.725;  210.125;    0.000
1010.503; 3477.725;  232.125;    0.000
1010.663; 3713.725;  228.125;    0.000
1010.823; 3645.725;  212.125;    0.000
1010.984; 3796.725;  244.125;    0.000
1011.144; 3655.725;  200.125;    0.000
1011.305; 3725.725;  237.125;    0.000
1011.465; 3725.725;  225.125;    0.000
1011.625; 3773.725;  215.125;    0.000
1011.785; 3976.725;  235.125;    0.000
1011.946; 3686.725;  231.125;    0.000
1012.106; 3745.725;  206.125;    0.000
1012.266; 3817.725;  218.125;    0.000
1012.426; 3857.725;  249.125;    0.000
1012.586; 3910.725;  217.125;    0.000
1012.746; 3965.725;  231.125;    0.000
1012.906; 3837.725;  230.125;    0.000
1013.066; 3915.725;  260.125;    0.000
1013.226; 3931.725;  206.125;    0.000
1013.386; 3987.725;  220.125;    0.000
1013.546; 3875.725;  233.125;    0.000
1013.706; 3753.725;  194.125;    0.000
1013.866; 3964.725;  209.125;    0.000
1014.026; 3988.725;  204.125;    0.000
1014.186; 4022.725;  203.125;    0.000
1014.346; 3888.725;  244.125;    0.000
1014.505; 4101.725;  206.125;    0.000
1014.665; 4210.725;  210.125;    0.000
1014.825; 4196.725;  235.125;    0.000
1014.985; 3993.725;  227.125;    0.000
1015.144; 4326.725;  237.125;    0.000
1015.304; 4537.725;  196.125;    0.000
1015.464; 4459.725;  228.125;    0.000
1015.623; 4548.725;  235.125;    0.000
1015.783; 4865.725;  187.125;    0.000
1015.942; 5327.725;  184.125;    0.000
1016.102; 5467.725;  245.125;    0.000
1016.261; 5308.725;  203.125;    0.000
1016.420; 5844.725;  209.125;    0.000
1016.580; 6245.725;  235.125;    0.000
1016.739; 6274.725;  175.125;    0.000
1016.899; 6194.725;  220.125;    0.000
1017.058; 6540.725;  219.125;    0.000
1017.217; 6838.725;  238.125;    0.000
1017.376; 6327.725;  235.125;    0.000
1017.536; 5815.725;  195.125;    0.000
1017.695; 5999.725;  215.125;    0.000
1017.854; 5936.725;  231.125;    0.000
1018.013; 5569.725;  184.125;    0.000
1018.172; 5400.725;  179.125;    0.000
1018.331; 5448.725;  205.125;    0.000
1018.490; 6064.725;  203.125;    0.000
1018.649; 6144.725;  261.125;    0.000
1018.808; 6373.725;  253.125;    0.000
1018.967; 6270.725;  201.125;    0.000
1019.126; 6682.725;  216.125;    0.000
1019.285; 6532.725;  169.125;    0.000
1019.444; 6340.725;  226.125;    0.000
1019.603; 6083.725;  252.125;    0.000
1019.762; 6057.725;  206.125;    0.000
1019.921; 6331.725;  235.125;    0.000
1020.079; 6530.725;  192.125;    0.000
1020.238; 6894.725;  226.125;    0.000
1020.397; 6498.725;  231.125;    0.000
1020.555; 6329.725;  218.125;    0.000
1020.714; 6572.725;  235.125;    0.000
1020.873; 6781.725;  229.125;    0.000
1021.031; 6815.725;  234.125;    0.000
1021.190; 6709.725;  223.125;    0.000
1021.348; 6431.725;  186.125;    0.000
1021.507; 7158.725;  201.125;    0.000
1021.665; 7655.725;  222.125;    0.000
1021.824; 7036.725;  208.125;    0.000
1021.982; 6753.725;  209.125;    0.000
1022.141; 6604.725;  224.125;    0.000
1022.299; 7757.725;  214.125;    0.000
1022.457; 8010.725;  176.125;    0.000
1022.616; 7110.725;  211.125;    0.000
1022.774; 6381.725;  218.125;    0.000
1022.932; 6854.725;  205.125;    0.000
1023.090; 8041.725;  246.125;    0.000
1023.249; 7973.725;  249.125;    0.000
1023.407; 7223.725;  235.125;    0.000
1023.565; 6601.725;  202.125;    0.000
1023.723; 7083.725;  210.125;    0.000
1023.881; 8005.725;  206.125;    0.000
1024.039; 8131.725;  240.125;    0.000
1024.197; 7350.725;  275.125;    0.000
1024.355; 6807.725;  228.125;    0.000
1024.513; 7094.725;  234.125;    0.000
1024.671; 8181.725;  222.125;    0.000
1024.829; 8334.725;  241.125;    0.000
1024.987; 7745.725;  209.125;    0.000
1025.145; 6650.725;  227.125;    0.000
1025.302; 7007.725;  208.125;    0.000
1025.460; 7891.725;  210.125;    0.000
1025.618; 8483.725;  192.125;    0.000
1025.776; 8169.725;  220.125;    0.000
1025.933; 7167.725;  223.125;    0.000
1026.091; 7086.725;  189.125;    0.000
1026.249; 7932.725;  210.125;    0.000
1026.406; 8876.725;  231.125;    0.000
1026.564; 8743.725;  247.125;    0.000
1026.721; 7892.725;  213.125;    0.000
1026.879; 7161.725;  208.125;    0.000
1027.036; 7732.725;  222.125;    0.000
1027.194; 8598.725;  253.125;    0.000
1027.351; 9246.725;  239.125;    0.000
1027.509; 8554.725;  232.125;    0.000
1027.666; 7485.725;  251.125;    0.000
1027.823; 7818.725;  212.125;    0.000
1027.981; 8117.725;  260.125;    0.000
1028.138; 9323.725;  263.125;    0.000
1028.295; 8913.725;  251.125;    0.000
1028.452; 8223.725;  249.125;    0.000
1028.609; 7803.725;  259.125;    0.000
1028.767; 8137.725;  255.125;    0.000
1028.924; 8750.725;  201.125;    0.000
1029.081; 8901.725;  217.125;    0.000
1029.238; 9086.725;  230.125;    0.000
1029.395; 8448.725;  263.125;    0.000
1029.552; 8097.725;  207.125;    0.000
1029.709; 8549.725;  220.125;    0.000
1029.866; 8819.725;  214.125;    0.000
1030.023; 8905.725;  224.125;    0.000
1030.180; 8536.725;  209.125;    0.000
1030.337; 8801.725;  269.125;    0.000
1030.494; 8883.725;  207.125;    0.000
1030.650; 8870.725;  230.125;    0.000
1030.807; 9067.725;  217.125;    0.000
1030.964; 8774.725;  212.125;    0.000
1031.121; 8679.725;  220.125;    0.000
1031.277; 8852.725;  233.125;    0.000
1031.434; 9091.725;  266.125;    0.000
1031.591; 9430.725;  270.125;    0.000
1031.747; 9231.725;  229.125;    0.000
1031.904; 9206.725;  227.125;    0.000
1032.060; 9096.725;  210.125;    0.000
1032.217; 9216.725;  218.125;    0.000
1032.373;10721.725;  190.125;    0.000
1032.530;10206.725;  236.125;    0.000
1032.686;10715.725;  199.125;    0.000
1032.843;10338.725;  216.125;    0.000
1032.999; 9876.725;  204.125;    0.000
1033.155;10851.725;  208.125;    0.000
1033.312;11019.725;  231.125;    0.000
1033.468;13012.725;  213.125;    0.000
1033.624;13233.725;  235.125;    0.000
1033.780;13558.725;  233.125;    0.000
1033.937;13150.725;  201.125;    0.000
1034.093;12442.725;  233.125;    0.000
1034.249;13606.725;  214.125;    0.000
1034.405;13329.725;  245.125;    0.000
1034.561;15125.725;  228.125;    0.000
1034.717;14959.725;  234.125;    0.000
1034.873;14777.725;  248.125;    0.000
1035.029;14665.725;  220.125;    0.000
1035.185;13591.725;  294.125;    0.000
1035.341;13377.725;  231.125;    0.000
1035.497;15074.725;  254.125;    0.000
1035.653;14931.725;  225.125;    0.000
1035.809;17003.725;  243.125;    0.000
1035.964;17350.725;  216.125;    0.000
1036.120;16643.725;  199.125;    0.000
1036.276;16351.725;  220.125;    0.000
1036.432;15826.725;  210.125;    0.000
1036.587;15384.725;  225.125;    0.000
1036.743;16389.725;  245.125;    0.000
1036.899;17564.725;  219.125;    0.000
1037.054;17934.725;  157.125;    0.000
1037.210;20149.725;  208.125;    0.000
1037.365;20054.725;  230.125;    0.000
1037.521;18267.725;  236.125;    0.000
1037.676;17692.725;  193.125;    0.000
1037.832;16539.725;  246.125;    0.000
1037.987;17415.725;  231.125;    0.000
1038.143;17677.725;  234.125;    0.000
1038.298;20272.725;  219.125;    0.000
1038.453;19540.725;  230.125;    0.000
1038.609;21732.725;  254.125;    0.000
1038.764;22872.725;  249.125;    0.000
1038.919;20035.725;  224.125;    0.000
1039.074;20084.725;  209.125;    0.000
1039.229;18038.725;  214.125;    0.000
1039.385;18832.725;  268.125;    0.000
1039.540;19456.725;  268.125;    0.000
1039.695;21788.725;  229.125;    0.000
1039.850;23148.725;  252.125;    0.000
1040.005;24951.725;  248.125;    0.000
1040.160;25618.725;  215.125;    0.000
1040.315;24238.725;  239.125;    0.000
1040.470;23654.725;  210.125;    0.000
1040.625;21540.725;  239.125;    0.000
1040.780;21878.725;  251.125;    0.000
1040.935;21641.725;  247.125;    0.000
1041.089;22533.725;  215.125;    0.000
1041.244;25581.725;  210.125;    0.000
1041.399;27196.725;  237.125;    0.000
1041.554;29725.725;  253.125;    0.000
1041.708;31431.725;  227.125;    0.000
1041.863;30983.725;  219.125;    0.000
1042.018;30657.725;  246.125;    0.000
1042.172;30536.725;  236.125;    0.000
1042.327;26803.725;  272.125;    0.000
1042.481;27908.725;  197.125;    0.000
1042.636;27326.725;  213.125;    0.000
1042.791;26603.725;  250.125;    0.000
1042.945;32020.725;  267.125;    0.000
1043.099;36398.727;  257.125;    0.000
1043.254;35084.727;  206.125;    0.000
1043.408;37507.727;  266.125;    0.000
1043.563;38878.727;  232.125;    0.000
1043.717;38350.727;  241.125;    0.000
1043.871;35361.727;  248.125;    0.000
1044.025;33526.727;  234.125;    0.000
1044.180;33244.727;  222.125;    0.000
1044.334;34023.727;  235.125;    0.000
1044.488;35725.727;  270.125;    0.000
1044.642;37443.727;  215.125;    0.000
1044.796;39745.727;  212.125;    0.000
1044.950;46532.727;  228.125;    0.000
1045.104;50710.727;  223.125;    0.000
1045.258;50567.727;  236.125;    0.000
1045.412;49984.727;  225.125;    0.000
1045.566;49743.727;  245.125;    0.000
1045.720;47816.727;  201.125;    0.000
1045.874;43925.727;  229.125;    0.000
1046.028;39498.727;  243.125;    0.000
1046.182;39316.727;  212.125;    0.000
1046.336;40156.727;  256.125;    0.000
1046.489;43420.727;  234.125;    0.000
1046.643;42859.727;  246.125;    0.000
1046.797;49223.727;  219.125;    0.000
1046.951;47956.727;  231.125;    0.000
1047.104;49586.727;  285.125;    0.000
1047.258;52522.727;  256.125;    0.000
1047.411;55724.727;  232.125;    0.000
1047.565;56370.727;  269.125;    0.000
1047.719;54658.727;  213.125;    0.000
1047.872;52843.727;  210.125;    0.000
1048.026;52619.727;  251.125;    0.000
1048.179;50078.727;  213.125;    0.000
1048.332;47981.727;  212.125;    0.000
1048.486;47081.727;  218.125;    0.000
1048.639;48918.727;  218.125;    0.000
1048.792;45944.727;  247.125;    0.000
1048.946;52321.727;  208.125;    0.000
1049.099;56283.727;  247.125;    0.000
1049.252;58473.727;  274.125;    0.000
1049.406;56489.727;  232.125;    0.000
1049.559;56576.727;  251.125;    0.000
1049.712;62269.727;  243.125;    0.000
1049.865;65064.727;  219.125;    0.000
1050.018;65064.727;  216.125;    0.000
1050.171;59611.727;  237.125;    0.000
1050.324;56856.727;  291.125;    0.000
1050.477;60689.727;  241.125;    0.000
1050.630;64833.727;  245.125;    0.000
1050.783;64688.727;  213.125;    0.000
1050.936;60748.727;  246.125;    0.000
1051.089;58200.727;  255.125;    0.000
1051.242;61567.727;  228.125;    0.000
1051.394;65064.727;  276.125;    0.000
1051.547;65064.727;  246.125;    0.000
1051.700;63326.727;  252.125;    0.000
1051.853;61918.727;  267.125;    0.000
1052.005;65064.727;  261.125;    0.000
1052.158;65064.727;  313.125;    0.000
1052.311;65064.727;  264.125;    0.000
1052.463;65064.727;  271.125;    0.000
1052.616;65064.727;  291.125;    0.000
1052.768;61532.727;  298.125;    0.000
1052.921;59699.727;  262.125;    0.000
1053.073;65064.727;  307.125;    0.000
1053.226;65064.727;  301.125;    0.000
1053.378;65064.727;  309.125;    0.000
1053.531;65064.727;  280.125;    0.000
1053.683;65064.727;  258.125;    0.000
1053.835;65064.727;  267.125;    0.000
1053.988;57290.727;  294.125;    0.000
1054.140;10508.725;  292.125;    0.000
1054.292; 2341.725;  249.125;    0.000
1054.444; 1841.725;  288.125;    0.000
1054.596; 1595.725;  275.125;    0.000
1054.749; 1493.725;  284.125;    0.000
1054.901; 1400.725;  291.125;    0.000
1055.053; 1305.725;  274.125;    0.000
1055.205; 1103.725;  313.125;    0.000
1055.357; 1188.725;  309.125;    0.000
1055.509; 1055.725;  283.125;    0.000
1055.661; 1010.725;  341.125;    0.000
1055.813;  949.725;  288.125;    0.000
1055.965;  876.725;  300.125;    0.000
1056.116;  904.725;  296.125;    0.000
1056.268;  930.725;  319.125;    0.000
1056.420;  933.725;  298.125;    0.000

