
Integration time [ms]:   1.000
Averaging Nr. [scans]: 1
Smoothing Nr. [pixels]: 0
Data measured with spectrometer [name]: UV1
Wave   ;Sample   ;Dark     ;Reference
[nm]   ;[counts] ;[counts] ;[counts] 

236.381;  164.150;  175.825;    0.000
236.451;  181.150;  220.825;    0.000
236.520;  159.150;  178.825;    0.000
236.590;  213.150;  182.825;    0.000
236.660;  137.150;  180.825;    0.000
236.730;  152.150;  201.825;    0.000
236.799;  183.150;  168.825;    0.000
236.869;  176.150;  205.825;    0.000
236.939;  169.150;  175.825;    0.000
237.009;  171.150;  186.825;    0.000
237.078;  176.150;  200.825;    0.000
237.148;  150.150;  156.825;    0.000
237.218;  182.150;  190.825;    0.000
237.287;  191.150;  167.825;    0.000
237.357;  180.150;  213.825;    0.000
237.427;  184.150;  164.825;    0.000
237.496;  699.150;  210.825;    0.000
237.566;  697.150;  193.825;    0.000
237.636;  662.150;  179.825;    0.000
237.705;  714.150;  218.825;    0.000
237.775;  678.150;  160.825;    0.000
237.845;  660.150;  207.825;    0.000
237.914;  617.150;  180.825;    0.000
237.984;  679.150;  207.825;    0.000
238.054;  665.150;  149.825;    0.000
238.123;  637.150;  190.825;    0.000
238.193;  660.150;  167.825;    0.000
238.263;  723.150;  172.825;    0.000
238.332;  674.150;  173.825;    0.000
238.402;  669.150;  214.825;    0.000
238.471;  657.150;  181.825;    0.000
238.541;  692.150;  177.825;    0.000
238.611;  668.150;  138.825;    0.000
238.680;  667.150;  168.825;    0.000
238.750;  613.150;  171.825;    0.000
238.819;  655.150;  156.825;    0.000
238.889;  666.150;  194.825;    0.000
238.958;  642.150;  185.825;    0.000
239.028;  704.150;  170.825;    0.000
239.097;  653.150;  159.825;    0.000
239.167;  670.150;  208.825;    0.000
239.237;  685.150;  167.825;    0.000
239.306;  659.150;  154.825;    0.000
239.376;  678.150;  183.825;    0.000
239.445;  707.150;  221.825;    0.000
239.515;  645.150;  208.825;    0.000
239.584;  637.150;  177.825;    0.000
239.654;  624.150;  133.825;    0.000
239.723;  695.150;  167.825;    0.000
239.793;  686.150;  190.825;    0.000
239.862;  599.150;  192.825;    0.000
239.932;  657.150;  174.825;    0.000
240.001;  642.150;  166.825;    0.000
240.070;  650.150;  179.825;    0.000
240.140;  661.150;  191.825;    0.000
240.209;  654.150;  134.825;    0.000
240.279;  665.150;  185.825;    0.000
240.348;  651.150;  193.825;    0.000
240.418;  665.150;  149.825;    0.000
240.487;  655.150;  197.825;    0.000
240.556;  635.150;  193.825;    0.000
240.626;  647.150;  178.825;    0.000
240.695;  628.150;  194.825;    0.000
240.765;  657.150;  178.825;    0.000
240.834;  682.150;  190.825;    0.000
240.903;  644.150;  212.825;    0.000
240.973;  598.150;  153.825;    0.000
241.042;  650.150;  177.825;    0.000
241.112;  619.150;  193.825;    0.000
241.181;  711.150;  171.825;    0.000
241.250;  590.150;  152.825;    0.000
241.320;  643.150;  176.825;    0.000
241.389;  699.150;  186.825;    0.000
241.458;  650.150;  182.825;    0.000
241.528;  652.150;  175.825;    0.000
241.597;  721.150;  180.825;    0.000
241.666;  656.150;  162.825;    0.000
241.736;  632.150;  187.825;    0.000
241.805;  611.150;  173.825;    0.000
241.874;  710.150;  177.825;    0.000
241.943;  643.150;  208.825;    0.000
242.013;  718.150;  183.825;    0.000
242.082;  628.150;  171.825;    0.000
242.151;  662.150;  208.825;    0.000
242.221;  607.150;  160.825;    0.000
242.290;  606.150;  200.825;    0.000
242.359;  629.150;  167.825;    0.000
242.428;  664.150;  213.825;    0.000
242.498;  607.150;  156.825;    0.000
242.567;  624.150;  200.825;    0.000
242.636;  631.150;  178.825;    0.000
242.705;  665.150;  185.825;    0.000
242.774;  612.150;  190.825;    0.000
242.844;  608.150;  194.825;    0.000
242.913;  628.150;  162.825;    0.000
242.982;  632.150;  189.825;    0.000
243.051;  627.150;  176.825;    0.000
243.120;  630.150;  213.825;    0.000
243.190;  614.150;  155.825;    0.000
243.259;  616.150;  183.825;    0.000
243.328;  654.150;  170.825;    0.000
243.397;  622.150;  224.825;    0.000
243.466;  611.150;  172.825;    0.000
243.535;  625.150;  145.825;    0.000
243.605;  646.150;  157.825;    0.000
243.674;  661.150;  199.825;    0.000
243.743;  657.150;  196.825;    0.000
243.812;  646.150;  152.825;    0.000
243.881;  675.150;  188.825;    0.000
243.950;  615.150;  154.825;    0.000
244.019;  629.150;  195.825;    0.000
244.088;  637.150;  164.825;    0.000
244.158;  647.150;  220.825;    0.000
244.227;  578.150;  150.825;    0.000
244.296;  604.150;  153.825;    0.000
244.365;  667.150;  195.825;    0.000
244.434;  569.150;  136.825;    0.000
244.503;  620.150;  172.825;    0.000
244.572;  627.150;  129.825;    0.000
244.641;  606.150;  132.825;    0.000
244.710;  630.150;  185.825;    0.000
244.779;  671.150;  164.825;    0.000
244.848;  628.150;  132.825;    0.000
244.917;  592.150;  196.825;    0.000
244.986;  591.150;  148.825;    0.000
245.055;  659.150;  192.825;    0.000
245.124;  628.150;  170.825;    0.000
245.193;  590.150;  172.825;    0.000
245.262;  560.150;  146.825;    0.000
245.331;  620.150;  178.825;    0.000
245.400;  562.150;  108.825;    0.000
245.469;  574.150;  173.825;    0.000
245.538;  623.150;  180.825;    0.000
245.607;  602.150;  171.825;    0.000
245.676;  560.150;  149.825;    0.000
245.745;  579.150;  194.825;    0.000
245.814;  597.150;  186.825;    0.000
245.883;  596.150;  192.825;    0.000
245.952;  579.150;  169.825;    0.000
246.021;  588.150;  190.825;    0.000
246.090;  572.150;  181.825;    0.000
246.159;  503.150;  179.825;    0.000
246.227;  506.150;  182.825;    0.000
246.296;  588.150;  182.825;    0.000
246.365;  558.150;  171.825;    0.000
246.434;  578.150;  218.825;    0.000
246.503;  556.150;  147.825;    0.000
246.572;  603.150;  227.825;    0.000
246.641;  572.150;  193.825;    0.000
246.710;  569.150;  207.825;    0.000
246.779;  555.150;  181.825;    0.000
246.847;  592.150;  179.825;    0.000
246.916;  600.150;  155.825;    0.000
246.985;  526.150;  168.825;    0.000
247.054;  539.150;  137.825;    0.000
247.123;  560.150;  128.825;    0.000
247.192;  554.150;  163.825;    0.000
247.260;  556.150;  173.825;    0.000
247.329;  579.150;  174.825;    0.000
247.398;  580.150;  238.825;    0.000
247.467;  540.150;  168.825;    0.000
247.536;  613.150;  203.825;    0.000
247.604;  560.150;  194.825;    0.000
247.673;  524.150;  145.825;    0.000
247.742;  522.150;  167.825;    0.000
247.811;  540.150;  180.825;    0.000
247.879;  553.150;  187.825;    0.000
247.948;  564.150;  187.825;    0.000
248.017;  524.150;  170.825;    0.000
248.086;  565.150;  223.825;    0.000
248.154;  510.150;  160.825;    0.000
248.223;  577.150;  163.825;    0.000
248.292;  572.150;  201.825;    0.000
248.361;  564.150;  205.825;    0.000
248.429;  545.150;  191.825;    0.000
248.498;  553.150;  194.825;    0.000
248.567;  555.150;  217.825;    0.000
248.635;  560.150;  224.825;    0.000
248.704;  560.150;  204.825;    0.000
248.773;  539.150;  175.825;    0.000
248.841;  527.150;  157.825;    0.000
248.910;  518.150;  206.825;    0.000
248.979;  524.150;  170.825;    0.000
249.047;  530.150;  178.825;    0.000
249.116;  560.150;  183.825;    0.000
249.185;  516.150;  202.825;    0.000
249.253;  567.150;  159.825;    0.000
249.322;  564.150;  177.825;    0.000
249.390;  541.150;  157.825;    0.000
249.459;  574.150;  211.825;    0.000
249.528;  500.150;  181.825;    0.000
249.596;  600.150;  179.825;    0.000
249.665;  522.150;  176.825;    0.000
249.733;  489.150;  186.825;    0.000
249.802;  517.150;  185.825;    0.000
249.871;  510.150;  166.825;    0.000
249.939;  528.150;  163.825;    0.000
250.008;  525.150;  212.825;    0.000
250.076;  515.150;  227.825;    0.000
250.145;  505.150;  172.825;    0.000
250.213;  481.150;  173.825;    0.000
250.282;  516.150;  189.825;    0.000
250.350;  499.150;  166.825;    0.000
250.419;  538.150;  161.825;    0.000
250.487;  519.150;  178.825;    0.000
250.556;  545.150;  208.825;    0.000
250.624;  538.150;  190.825;    0.000
250.693;  480.150;  163.825;    0.000
250.761;  521.150;  194.825;    0.000
250.830;  512.150;  225.825;    0.000
250.898;  517.150;  140.825;    0.000
250.967;  505.150;  167.825;    0.000
251.035;  472.150;  155.825;    0.000
251.104;  533.150;  189.825;    0.000
251.172;  532.150;  136.825;    0.000
251.241;  485.150;  148.825;    0.000
251.309;  545.150;  201.825;    0.000
251.378;  516.150;  169.825;    0.000
251.446;  497.150;  178.825;    0.000
251.514;  540.150;  206.825;    0.000
251.583;  477.150;  178.825;    0.000
251.651;  521.150;  168.825;    0.000
251.720;  488.150;  190.825;    0.000
251.788;  523.150;  209.825;    0.000
251.856;  474.150;  173.825;    0.000
251.925;  447.150;  171.825;    0.000
251.993;  523.150;  188.825;    0.000
252.062;  502.150;  169.825;    0.000
252.130;  532.150;  196.825;    0.000
252.198;  487.150;  210.825;    0.000
252.267;  504.150;  181.825;    0.000
252.335;  462.150;  164.825;    0.000
252.403;  461.150;  152.825;    0.000
252.472;  456.150;  166.825;    0.000
252.540;  512.150;  189.825;    0.000
252.608;  484.150;  198.825;    0.000
252.677;  505.150;  156.825;    0.000
252.745;  505.150;  184.825;    0.000
252.813;  456.150;  163.825;    0.000
252.881;  424.150;  130.825;    0.000
252.950;  480.150;  189.825;    0.000
253.018;  425.150;  164.825;    0.000
253.086;  433.150;  172.825;    0.000
253.155;  464.150;  205.825;    0.000
253.223;  404.150;  175.825;    0.000
253.291;  390.150;  176.825;    0.000
253.359;  403.150;  182.825;    0.000
253.428;  451.150;  222.825;    0.000
253.496;  392.150;  166.825;    0.000
253.564;  372.150;  135.825;    0.000
253.632;  415.150;  184.825;    0.000
253.700;  436.150;  173.825;    0.000
253.769;  366.150;  163.825;    0.000
253.837;  402.150;  179.825;    0.000
253.905;  394.150;  157.825;    0.000
253.973;  372.150;  164.825;    0.000
254.041;  386.150;  170.825;    0.000
254.110;  373.150;  169.825;    0.000
254.178;  393.150;  165.825;    0.000
254.246;  377.150;  126.825;    0.000
254.314;  360.150;  166.825;    0.000
254.382;  389.150;  169.825;    0.000
254.450;  405.150;  170.825;    0.000
254.518;  401.150;  196.825;    0.000
254.587;  361.150;  161.825;    0.000
254.655;  400.150;  187.825;    0.000
254.723;  385.150;  144.825;    0.000
254.791;  375.150;  175.825;    0.000
254.859;  427.150;  168.825;    0.000
254.927;  423.150;  198.825;    0.000
254.995;  398.150;  165.825;    0.000
255.063;  383.150;  150.825;    0.000
255.131;  388.150;  181.825;    0.000
255.199;  384.150;  160.825;    0.000
255.267;  362.150;  131.825;    0.000
255.336;  413.150;  188.825;    0.000
255.404;  394.150;  163.825;    0.000
255.472;  422.150;  192.825;    0.000
255.540;  432.150;  158.825;    0.000
255.608;  403.150;  147.825;    0.000
255.676;  405.150;  166.825;    0.000
255.744;  387.150;  159.825;    0.000
255.812;  405.150;  164.825;    0.000
255.880;  468.150;  195.825;    0.000
255.948;  392.150;  167.825;    0.000
256.016;  465.150;  185.825;    0.000
256.084;  464.150;  191.825;    0.000
256.152;  445.150;  214.825;    0.000
256.220;  412.150;  195.825;    0.000
256.288;  446.150;  185.825;    0.000
256.356;  407.150;  168.825;    0.000
256.424;  430.150;  161.825;    0.000
256.491;  417.150;  161.825;    0.000
256.559;  476.150;  157.825;    0.000
256.627;  423.150;  164.825;    0.000
256.695;  426.150;  146.825;    0.000
256.763;  469.150;  194.825;    0.000
256.831;  409.150;  182.825;    0.000
256.899;  490.150;  192.825;    0.000
256.967;  424.150;  172.825;    0.000
257.035;  449.150;  169.825;    0.000
257.103;  445.150;  223.825;    0.000
257.171;  427.150;  141.825;    0.000
257.238;  411.150;  146.825;    0.000
257.306;  442.150;  180.825;    0.000
257.374;  469.150;  138.825;    0.000
257.442;  463.150;  135.825;    0.000
257.510;  484.150;  130.825;    0.000
257.578;  468.150;  123.825;    0.000
257.646;  453.150;  162.825;    0.000
257.713;  477.150;  149.825;    0.000
257.781;  470.150;  125.825;    0.000
257.849;  478.150;  149.825;    0.000
257.917;  506.150;  177.825;    0.000
257.985;  455.150;  143.825;    0.000
258.052;  515.150;  154.825;    0.000
258.120;  541.150;  162.825;    0.000
258.188;  515.150;  172.825;    0.000
258.256;  541.150;  160.825;    0.000
258.324;  538.150;  209.825;    0.000
258.391;  528.150;  153.825;    0.000
258.459;  561.150;  133.825;    0.000
258.527;  532.150;  160.825;    0.000
258.595;  491.150;  128.825;    0.000
258.662;  519.150;  114.825;    0.000
258.730;  538.150;  192.825;    0.000
258.798;  499.150;  144.825;    0.000
258.865;  546.150;  140.825;    0.000
258.933;  604.150;  150.825;    0.000
259.001;  558.150;  149.825;    0.000
259.069;  513.150;  110.825;    0.000
259.136;  570.150;  150.825;    0.000
259.204;  585.150;  156.825;    0.000
259.272;  646.150;  185.825;    0.000
259.339;  519.150;  148.825;    0.000
259.407;  607.150;  163.825;    0.000
259.475;  557.150;  129.825;    0.000
259.542;  589.150;  144.825;    0.000
259.610;  607.150;  164.825;    0.000
259.677;  648.150;  188.825;    0.000
259.745;  622.150;  113.825;    0.000
259.813;  687.150;  188.825;    0.000
259.880;  687.150;  174.825;    0.000
259.948;  700.150;  166.825;    0.000
260.016;  642.150;  150.825;    0.000
260.083;  651.150;  178.825;    0.000
260.151;  618.150;  120.825;    0.000
260.218;  682.150;  175.825;    0.000
260.286;  652.150;  155.825;    0.000
260.353;  673.150;  165.825;    0.000
260.421;  650.150;  169.825;    0.000
260.489;  689.150;  194.825;    0.000
260.556;  731.150;  161.825;    0.000
260.624;  738.150;  179.825;    0.000
260.691;  731.150;  174.825;    0.000
260.759;  747.150;  164.825;    0.000
260.826;  693.150;  125.825;    0.000
260.894;  738.150;  164.825;    0.000
260.961;  731.150;  147.825;    0.000
261.029;  746.150;  167.825;    0.000
261.096;  696.150;  136.825;    0.000
261.164;  681.150;  146.825;    0.000
261.231;  779.150;  190.825;    0.000
261.299;  772.150;  171.825;    0.000
261.366;  739.150;  165.825;    0.000
261.434;  778.150;  160.825;    0.000
261.501;  769.150;  149.825;    0.000
261.568;  828.150;  155.825;    0.000
261.636;  850.150;  137.825;    0.000
261.703;  880.150;  186.825;    0.000
261.771;  815.150;  162.825;    0.000
261.838;  811.150;  190.825;    0.000
261.906;  852.150;  133.825;    0.000
261.973;  793.150;  202.825;    0.000
262.040;  866.150;  179.825;    0.000
262.108;  832.150;  161.825;    0.000
262.175;  806.150;  155.825;    0.000
262.243;  864.150;  158.825;    0.000
262.310;  879.150;  129.825;    0.000
262.377;  905.150;  157.825;    0.000
262.445;  832.150;  132.825;    0.000
262.512;  843.150;  161.825;    0.000
262.579;  914.150;  151.825;    0.000
262.647;  914.150;  174.825;    0.000
262.714;  929.150;  174.825;    0.000
262.781;  960.150;  164.825;    0.000
262.849;  862.150;  168.825;    0.000
262.916;  929.150;  153.825;    0.000
262.983;  981.150;  201.825;    0.000
263.051;  875.150;  117.825;    0.000
263.118;  940.150;  150.825;    0.000
263.185;  917.150;  172.825;    0.000
263.252;  911.150;  154.825;    0.000
263.320;  965.150;  152.825;    0.000
263.387; 1000.150;  136.825;    0.000
263.454;  962.150;  167.825;    0.000
263.522;  949.150;  122.825;    0.000
263.589;  964.150;  147.825;    0.000
263.656; 1011.150;  130.825;    0.000
263.723;  930.150;  182.825;    0.000
263.790;  939.150;  163.825;    0.000
263.858; 1027.150;  161.825;    0.000
263.925; 1000.150;  153.825;    0.000
263.992; 1032.150;  139.825;    0.000
264.059; 1039.150;  141.825;    0.000
264.126; 1042.150;  153.825;    0.000
264.194; 1042.150;  144.825;    0.000
264.261; 1042.150;  188.825;    0.000
264.328; 1096.150;  161.825;    0.000
264.395; 1060.150;  184.825;    0.000
264.462; 1077.150;  162.825;    0.000
264.529; 1001.150;  178.825;    0.000
264.597; 1009.150;  160.825;    0.000
264.664; 1068.150;  158.825;    0.000
264.731; 1020.150;  176.825;    0.000
264.798; 1109.150;  137.825;    0.000
264.865; 1089.150;  175.825;    0.000
264.932; 1061.150;  162.825;    0.000
264.999; 1088.150;  153.825;    0.000
265.066; 1136.150;  168.825;    0.000
265.133; 1153.150;  142.825;    0.000
265.201; 1139.150;  163.825;    0.000
265.268; 1023.150;  143.825;    0.000
265.335; 1084.150;  156.825;    0.000
265.402; 1126.150;  136.825;    0.000
265.469; 1091.150;  127.825;    0.000
265.536; 1088.150;  159.825;    0.000
265.603; 1166.150;  191.825;    0.000
265.670; 1182.150;  136.825;    0.000
265.737; 1133.150;  186.825;    0.000
265.804; 1078.150;  147.825;    0.000
265.871; 1242.150;  147.825;    0.000
265.938; 1175.150;  153.825;    0.000
266.005; 1193.150;  172.825;    0.000
266.072; 1213.150;  151.825;    0.000
266.139; 1317.150;  175.825;    0.000
266.206; 1205.150;  165.825;    0.000
266.273; 1228.150;  162.825;    0.000
266.340; 1193.150;  150.825;    0.000
266.407; 1185.150;  169.825;    0.000
266.474; 1193.150;  151.825;    0.000
266.541; 1253.150;  164.825;    0.000
266.608; 1152.150;  111.825;    0.000
266.675; 1259.150;  173.825;    0.000
266.742; 1223.150;  148.825;    0.000
266.808; 1317.150;  185.825;    0.000
266.875; 1333.150;  188.825;    0.000
266.942; 1248.150;  131.825;    0.000
267.009; 1240.150;  184.825;    0.000
267.076; 1312.150;  200.825;    0.000
267.143; 1261.150;  216.825;    0.000
267.210; 1241.150;  138.825;    0.000
267.277; 1280.150;  143.825;    0.000
267.344; 1248.150;  172.825;    0.000
267.410; 1274.150;  172.825;    0.000
267.477; 1287.150;  160.825;    0.000
267.544; 1279.150;  175.825;    0.000
267.611; 1278.150;  189.825;    0.000
267.678; 1272.150;  162.825;    0.000
267.745; 1321.150;  206.825;    0.000
267.811; 1320.150;  146.825;    0.000
267.878; 1264.150;  147.825;    0.000
267.945; 1277.150;  170.825;    0.000
268.012; 1280.150;  153.825;    0.000
268.079; 1405.150;  185.825;    0.000
268.145; 1322.150;  197.825;    0.000
268.212; 1322.150;  167.825;    0.000
268.279; 1273.150;  145.825;    0.000
268.346; 1302.150;  182.825;    0.000
268.412; 1283.150;  144.825;    0.000
268.479; 1277.150;  186.825;    0.000
268.546; 1273.150;  147.825;    0.000
268.613; 1293.150;  188.825;    0.000
268.679; 1325.150;  173.825;    0.000
268.746; 1344.150;  204.825;    0.000
268.813; 1329.150;  199.825;    0.000
268.879; 1339.150;  157.825;    0.000
268.946; 1343.150;  192.825;    0.000
269.013; 1303.150;  136.825;    0.000
269.079; 1308.150;  166.825;    0.000
269.146; 1227.150;  129.825;    0.000
269.213; 1302.150;  178.825;    0.000
269.280; 1262.150;  148.825;    0.000
269.346; 1320.150;  194.825;    0.000
269.413; 1304.150;  135.825;    0.000
269.479; 1272.150;  180.825;    0.000
269.546; 1293.150;  169.825;    0.000
269.613; 1239.150;  160.825;    0.000
269.679; 1354.150;  161.825;    0.000
269.746; 1264.150;  143.825;    0.000
269.813; 1244.150;  172.825;    0.000
269.879; 1269.150;  152.825;    0.000
269.946; 1288.150;  156.825;    0.000
270.012; 1327.150;  190.825;    0.000
270.079; 1266.150;  143.825;    0.000
270.145; 1264.150;  148.825;    0.000
270.212; 1333.150;  176.825;    0.000
270.279; 1316.150;  168.825;    0.000
270.345; 1310.150;  143.825;    0.000
270.412; 1235.150;  155.825;    0.000
270.478; 1314.150;  176.825;    0.000
270.545; 1347.150;  112.825;    0.000
270.611; 1312.150;  186.825;    0.000
270.678; 1285.150;  141.825;    0.000
270.744; 1274.150;  145.825;    0.000
270.811; 1387.150;  120.825;    0.000
270.877; 1330.150;  118.825;    0.000
270.944; 1294.150;  135.825;    0.000
271.010; 1325.150;  128.825;    0.000
271.077; 1311.150;  176.825;    0.000
271.143; 1306.150;  162.825;    0.000
271.210; 1293.150;  133.825;    0.000
271.276; 1287.150;  107.825;    0.000
271.342; 1307.150;  202.825;    0.000
271.409; 1288.150;  160.825;    0.000
271.475; 1291.150;  165.825;    0.000
271.542; 1227.150;  152.825;    0.000
271.608; 1320.150;  163.825;    0.000
271.675; 1242.150;  149.825;    0.000
271.741; 1358.150;  164.825;    0.000
271.807; 1254.150;  128.825;    0.000
271.874; 1310.150;  148.825;    0.000
271.940; 1266.150;  179.825;    0.000
272.007; 1329.150;  148.825;    0.000
272.073; 1323.150;  146.825;    0.000
272.139; 1295.150;  166.825;    0.000
272.206; 1333.150;  198.825;    0.000
272.272; 1263.150;  201.825;    0.000
272.338; 1327.150;  208.825;    0.000
272.405; 1296.150;  181.825;    0.000
272.471; 1238.150;  167.825;    0.000
272.537; 1353.150;  189.825;    0.000
272.604; 1336.150;  162.825;    0.000
272.670; 1268.150;  194.825;    0.000
272.736; 1288.150;  176.825;    0.000
272.802; 1365.150;  163.825;    0.000
272.869; 1253.150;  170.825;    0.000
272.935; 1332.150;  145.825;    0.000
273.001; 1324.150;  149.825;    0.000
273.068; 1368.150;  172.825;    0.000
273.134; 1301.150;  155.825;    0.000
273.200; 1337.150;  183.825;    0.000
273.266; 1326.150;  160.825;    0.000
273.333; 1404.150;  190.825;    0.000
273.399; 1344.150;  132.825;    0.000
273.465; 1371.150;  179.825;    0.000
273.531; 1413.150;  161.825;    0.000
273.597; 1477.150;  194.825;    0.000
273.664; 1416.150;  193.825;    0.000
273.730; 1376.150;  180.825;    0.000
273.796; 1312.150;  145.825;    0.000
273.862; 1413.150;  176.825;    0.000
273.928; 1457.150;  169.825;    0.000
273.995; 1482.150;  202.825;    0.000
274.061; 1476.150;  176.825;    0.000
274.127; 1438.150;  178.825;    0.000
274.193; 1401.150;  106.825;    0.000
274.259; 1429.150;  186.825;    0.000
274.325; 1445.150;  163.825;    0.000
274.391; 1476.150;  162.825;    0.000
274.457; 1457.150;  145.825;    0.000
274.524; 1481.150;  189.825;    0.000
274.590; 1461.150;  161.825;    0.000
274.656; 1445.150;  157.825;    0.000
274.722; 1410.150;  143.825;    0.000
274.788; 1469.150;  166.825;    0.000
274.854; 1477.150;  200.825;    0.000
274.920; 1461.150;  132.825;    0.000
274.986; 1517.150;  184.825;    0.000
275.052; 1521.150;  169.825;    0.000
275.118; 1539.150;  153.825;    0.000
275.184; 1605.150;  182.825;    0.000
275.250; 1633.150;  124.825;    0.000
275.316; 1533.150;  154.825;    0.000
275.382; 1509.150;  150.825;    0.000
275.448; 1622.150;  180.825;    0.000
275.514; 1637.150;  143.825;    0.000
275.580; 1623.150;  120.825;    0.000
275.646; 1623.150;  127.825;    0.000
275.712; 1657.150;  109.825;    0.000
275.778; 1695.150;  126.825;    0.000
275.844; 1681.150;  155.825;    0.000
275.910; 1740.150;  164.825;    0.000
275.976; 1840.150;  161.825;    0.000
276.042; 1745.150;  152.825;    0.000
276.108; 1820.150;  159.825;    0.000
276.174; 1835.150;  149.825;    0.000
276.240; 1832.150;  112.825;    0.000
276.306; 1816.150;  142.825;    0.000
276.372; 1883.150;  136.825;    0.000
276.437; 1972.150;  141.825;    0.000
276.503; 1928.150;  150.825;    0.000
276.569; 2094.150;  178.825;    0.000
276.635; 2012.150;  117.825;    0.000
276.701; 2016.150;  174.825;    0.000
276.767; 2046.150;  136.825;    0.000
276.833; 2120.150;  119.825;    0.000
276.899; 2207.150;  171.825;    0.000
276.964; 2256.150;  146.825;    0.000
277.030; 2366.150;  157.825;    0.000
277.096; 2377.150;  124.825;    0.000
277.162; 2508.150;  185.825;    0.000
277.228; 2560.150;  125.825;    0.000
277.293; 2626.150;  159.825;    0.000
277.359; 2745.150;  186.825;    0.000
277.425; 2931.150;  176.825;    0.000
277.491; 2960.150;  140.825;    0.000
277.557; 3512.150;  172.825;    0.000
277.622; 4539.150;  187.825;    0.000
277.688; 4665.150;  203.825;    0.000
277.754; 4832.150;  170.825;    0.000
277.820; 5212.150;  142.825;    0.000
277.885; 5988.150;  182.825;    0.000
277.951; 7372.150;  171.825;    0.000
278.017; 6613.150;  173.825;    0.000
278.083; 5836.150;  151.825;    0.000
278.148; 5748.150;  159.825;    0.000
278.214; 5760.150;  173.825;    0.000
278.280; 6140.150;  137.825;    0.000
278.345; 5643.150;  190.825;    0.000
278.411; 5362.150;  149.825;    0.000
278.477; 5534.150;  157.825;    0.000
278.542; 5874.150;  136.825;    0.000
278.608; 6300.150;  144.825;    0.000
278.674; 6942.150;  215.825;    0.000
278.739; 7739.150;  148.825;    0.000
278.805; 8765.150;  152.825;    0.000
278.871;10007.150;  170.825;    0.000
278.936;12494.150;  180.825;    0.000
279.002;17401.150;  177.825;    0.000
279.067;22004.150;  172.825;    0.000
279.133;21761.150;  160.825;    0.000
279.199;20188.150;  165.825;    0.000
279.264;21083.150;  130.825;    0.000
279.330;23817.150;  154.825;    0.000
279.395;28924.150;  170.825;    0.000
279.461;33373.148;  136.825;    0.000
279.527;35068.148;  174.825;    0.000
279.592;34812.148;  179.825;    0.000
279.658;31881.150;  187.825;    0.000
279.723;31844.150;  201.825;    0.000
279.789;32875.148;  194.825;    0.000
279.854;29646.150;  171.825;    0.000
279.920;25746.150;  183.825;    0.000
279.985;24201.150;  173.825;    0.000
280.051;24650.150;  194.825;    0.000
280.116;27572.150;  197.825;    0.000
280.182;32401.150;  171.825;    0.000
280.247;35073.148;  131.825;    0.000
280.313;32253.150;  166.825;    0.000
280.378;25737.150;  159.825;    0.000
280.444;20252.150;  190.825;    0.000
280.509;16591.150;  189.825;    0.000
280.574;14087.150;  171.825;    0.000
280.640;12205.150;  167.825;    0.000
280.705;10943.150;  129.825;    0.000
280.771; 9836.150;  193.825;    0.000
280.836; 9072.150;  172.825;    0.000
280.902; 8430.150;  189.825;    0.000
280.967; 7789.150;  143.825;    0.000
281.032; 7340.150;  182.825;    0.000
281.098; 6856.150;  172.825;    0.000
281.163; 6484.150;  184.825;    0.000
281.229; 6183.150;  210.825;    0.000
281.294; 5847.150;  223.825;    0.000
281.359; 5726.150;  197.825;    0.000
281.425; 5362.150;  192.825;    0.000
281.490; 5280.150;  162.825;    0.000
281.555; 5014.150;  193.825;    0.000
281.621; 4844.150;  141.825;    0.000
281.686; 4715.150;  166.825;    0.000
281.751; 4525.150;  204.825;    0.000
281.816; 4308.150;  159.825;    0.000
281.882; 4149.150;  146.825;    0.000
281.947; 3954.150;  176.825;    0.000
282.012; 3878.150;  139.825;    0.000
282.078; 3853.150;  186.825;    0.000
282.143; 3856.150;  151.825;    0.000
282.208; 3683.150;  213.825;    0.000
282.273; 3609.150;  160.825;    0.000
282.339; 3461.150;  175.825;    0.000
282.404; 3473.150;  157.825;    0.000
282.469; 3320.150;  185.825;    0.000
282.534; 3366.150;  166.825;    0.000
282.600; 3261.150;  168.825;    0.000
282.665; 3155.150;  167.825;    0.000
282.730; 3103.150;  148.825;    0.000
282.795; 3066.150;  186.825;    0.000
282.860; 3213.150;  161.825;    0.000
282.926; 3127.150;  178.825;    0.000
282.991; 2964.150;  139.825;    0.000
283.056; 2930.150;  158.825;    0.000
283.121; 2959.150;  191.825;    0.000
283.186; 2867.150;  182.825;    0.000
283.251; 2816.150;  181.825;    0.000
283.316; 2802.150;  187.825;    0.000
283.382; 2831.150;  175.825;    0.000
283.447; 2878.150;  183.825;    0.000
283.512; 2772.150;  175.825;    0.000
283.577; 2734.150;  180.825;    0.000
283.642; 2709.150;  193.825;    0.000
283.707; 2600.150;  145.825;    0.000
283.772; 2629.150;  143.825;    0.000
283.837; 2726.150;  143.825;    0.000
283.902; 2621.150;  150.825;    0.000
283.967; 2603.150;  166.825;    0.000
284.032; 2644.150;  126.825;    0.000
284.097; 2531.150;  201.825;    0.000
284.163; 2557.150;  133.825;    0.000
284.228; 2527.150;  193.825;    0.000
284.293; 2614.150;  157.825;    0.000
284.358; 2628.150;  185.825;    0.000
284.423; 2794.150;  142.825;    0.000
284.488; 2751.150;  192.825;    0.000
284.553; 2796.150;  146.825;    0.000
284.618; 2863.150;  154.825;    0.000
284.683; 2894.150;  172.825;    0.000
284.748; 2913.150;  195.825;    0.000
284.812; 3200.150;  190.825;    0.000
284.877; 3502.150;  169.825;    0.000
284.942; 3886.150;  195.825;    0.000
285.007; 4593.150;  204.825;    0.000
285.072; 6215.150;  189.825;    0.000
285.137; 9720.150;  149.825;    0.000
285.202;12847.150;  164.825;    0.000
285.267;11627.150;  161.825;    0.000
285.332; 8169.150;  140.825;    0.000
285.397; 6086.150;  142.825;    0.000
285.462; 4786.150;  146.825;    0.000
285.527; 4106.150;  132.825;    0.000
285.591; 3682.150;  160.825;    0.000
285.656; 3367.150;  136.825;    0.000
285.721; 3249.150;  135.825;    0.000
285.786; 3041.150;  171.825;    0.000
285.851; 2901.150;  168.825;    0.000
285.916; 2841.150;  178.825;    0.000
285.981; 2732.150;  152.825;    0.000
286.045; 2621.150;  167.825;    0.000
286.110; 2577.150;  187.825;    0.000
286.175; 2497.150;  162.825;    0.000
286.240; 2487.150;  163.825;    0.000
286.305; 2552.150;  190.825;    0.000
286.369; 2499.150;  143.825;    0.000
286.434; 2417.150;  185.825;    0.000
286.499; 2369.150;  195.825;    0.000
286.564; 2470.150;  173.825;    0.000
286.628; 2322.150;  159.825;    0.000
286.693; 2336.150;  175.825;    0.000
286.758; 2325.150;  170.825;    0.000
286.823; 2301.150;  129.825;    0.000
286.887; 2277.150;  172.825;    0.000
286.952; 2251.150;  163.825;    0.000
287.017; 2284.150;  217.825;    0.000
287.082; 2249.150;  165.825;    0.000
287.146; 2307.150;  176.825;    0.000
287.211; 2195.150;  192.825;    0.000
287.276; 2210.150;  147.825;    0.000
287.340; 2212.150;  162.825;    0.000
287.405; 2257.150;  196.825;    0.000
287.470; 2148.150;  148.825;    0.000
287.534; 2148.150;  166.825;    0.000
287.599; 2189.150;  193.825;    0.000
287.663; 2190.150;  191.825;    0.000
287.728; 2101.150;  146.825;    0.000
287.793; 2182.150;  234.825;    0.000
287.857; 2146.150;  177.825;    0.000
287.922; 2229.150;  166.825;    0.000
287.987; 2069.150;  169.825;    0.000
288.051; 2055.150;  169.825;    0.000
288.116; 2101.150;  187.825;    0.000
288.180; 2107.150;  200.825;    0.000
288.245; 2115.150;  201.825;    0.000
288.309; 2105.150;  176.825;    0.000
288.374; 2170.150;  162.825;    0.000
288.439; 2133.150;  195.825;    0.000
288.503; 2116.150;  162.825;    0.000
288.568; 2092.150;  228.825;    0.000
288.632; 2111.150;  194.825;    0.000
288.697; 2195.150;  173.825;    0.000
288.761; 2103.150;  153.825;    0.000
288.826; 2038.150;  151.825;    0.000
288.890; 2166.150;  208.825;    0.000
288.955; 2044.150;  159.825;    0.000
289.019; 2124.150;  198.825;    0.000
289.084; 2038.150;  152.825;    0.000
289.148; 2045.150;  171.825;    0.000
289.212; 2127.150;  184.825;    0.000
289.277; 2100.150;  165.825;    0.000
289.341; 2128.150;  207.825;    0.000
289.406; 2083.150;  156.825;    0.000
289.470; 2101.150;  191.825;    0.000
289.535; 2116.150;  222.825;    0.000
289.599; 2042.150;  214.825;    0.000
289.663; 2012.150;  183.825;    0.000
289.728; 2048.150;  192.825;    0.000
289.792; 2029.150;  197.825;    0.000
289.857; 2078.150;  221.825;    0.000
289.921; 2053.150;  177.825;    0.000
289.985; 2034.150;  177.825;    0.000
290.050; 2058.150;  178.825;    0.000
290.114; 2027.150;  112.825;    0.000
290.178; 2039.150;  170.825;    0.000
290.243; 2001.150;  162.825;    0.000
290.307; 2141.150;  178.825;    0.000
290.371; 2051.150;  141.825;    0.000
290.436; 2050.150;  178.825;    0.000
290.500; 1992.150;  135.825;    0.000
290.564; 2113.150;  199.825;    0.000
290.629; 2023.150;  165.825;    0.000
290.693; 2054.150;  154.825;    0.000
290.757; 2025.150;  159.825;    0.000
290.821; 2016.150;  179.825;    0.000
290.886; 2085.150;  141.825;    0.000
290.950; 2088.150;  166.825;    0.000
291.014; 2085.150;  169.825;    0.000
291.078; 2033.150;  191.825;    0.000
291.143; 2136.150;  169.825;    0.000
291.207; 2075.150;  164.825;    0.000
291.271; 2106.150;  193.825;    0.000
291.335; 2193.150;  150.825;    0.000
291.399; 2211.150;  175.825;    0.000
291.464; 2320.150;  128.825;    0.000
291.528; 2446.150;  162.825;    0.000
291.592; 2349.150;  152.825;    0.000
291.656; 2295.150;  175.825;    0.000
291.720; 2266.150;  173.825;    0.000
291.784; 2296.150;  192.825;    0.000
291.849; 2267.150;  159.825;    0.000
291.913; 2245.150;  174.825;    0.000
291.977; 2266.150;  177.825;    0.000
292.041; 2281.150;  188.825;    0.000
292.105; 2346.150;  174.825;    0.000
292.169; 2236.150;  143.825;    0.000
292.233; 2427.150;  149.825;    0.000
292.297; 2319.150;  176.825;    0.000
292.361; 2345.150;  178.825;    0.000
292.425; 2501.150;  153.825;    0.000
292.490; 2572.150;  185.825;    0.000
292.554; 2592.150;  144.825;    0.000
292.618; 2890.150;  166.825;    0.000
292.682; 3063.150;  181.825;    0.000
292.746; 3497.150;  152.825;    0.000
292.810; 4548.150;  208.825;    0.000
292.874; 5602.150;  142.825;    0.000
292.938; 5819.150;  195.825;    0.000
293.002; 5302.150;  156.825;    0.000
293.066; 4779.150;  108.825;    0.000
293.130; 4456.150;  136.825;    0.000
293.194; 4217.150;  135.825;    0.000
293.258; 4132.150;  187.825;    0.000
293.322; 4111.150;  148.825;    0.000
293.386; 4078.150;  186.825;    0.000
293.450; 4386.150;  196.825;    0.000
293.514; 4967.150;  175.825;    0.000
293.577; 6266.150;  137.825;    0.000
293.641; 8406.150;  142.825;    0.000
293.705; 9161.150;  201.825;    0.000
293.769; 8205.150;  150.825;    0.000
293.833; 7154.150;  147.825;    0.000
293.897; 6475.150;  170.825;    0.000
293.961; 5677.150;  121.825;    0.000
294.025; 5195.150;  172.825;    0.000
294.089; 4847.150;  167.825;    0.000
294.152; 4433.150;  167.825;    0.000
294.216; 4146.150;  165.825;    0.000
294.280; 3829.150;  168.825;    0.000
294.344; 3682.150;  160.825;    0.000
294.408; 3442.150;  187.825;    0.000
294.472; 3393.150;  141.825;    0.000
294.536; 3223.150;  184.825;    0.000
294.599; 3171.150;  176.825;    0.000
294.663; 3091.150;  120.825;    0.000
294.727; 2935.150;  159.825;    0.000
294.791; 2843.150;  190.825;    0.000
294.855; 2846.150;  148.825;    0.000
294.918; 2672.150;  160.825;    0.000
294.982; 2668.150;  156.825;    0.000
295.046; 2648.150;  177.825;    0.000
295.110; 2470.150;  149.825;    0.000
295.173; 2483.150;  156.825;    0.000
295.237; 2372.150;  174.825;    0.000
295.301; 2370.150;  152.825;    0.000
295.364; 2408.150;  204.825;    0.000
295.428; 2373.150;  196.825;    0.000
295.492; 2292.150;  178.825;    0.000
295.556; 2252.150;  161.825;    0.000
295.619; 2249.150;  178.825;    0.000
295.683; 2222.150;  152.825;    0.000
295.747; 2231.150;  148.825;    0.000
295.810; 2144.150;  177.825;    0.000
295.874; 2160.150;  146.825;    0.000
295.938; 2153.150;  115.825;    0.000
296.001; 2137.150;  172.825;    0.000
296.065; 1990.150;  146.825;    0.000
296.128; 2072.150;  164.825;    0.000
296.192; 2016.150;  137.825;    0.000
296.256; 2017.150;  143.825;    0.000
296.319; 2071.150;  156.825;    0.000
296.383; 2031.150;  165.825;    0.000
296.447; 2010.150;  170.825;    0.000
296.510; 1990.150;  174.825;    0.000
296.574; 1983.150;  127.825;    0.000
296.637; 2032.150;  132.825;    0.000
296.701; 2044.150;  206.825;    0.000
296.764; 1991.150;  179.825;    0.000
296.828; 2033.150;  213.825;    0.000
296.891; 1970.150;  149.825;    0.000
296.955; 1860.150;  170.825;    0.000
297.018; 1912.150;  185.825;    0.000
297.082; 1878.150;  205.825;    0.000
297.145; 1923.150;  154.825;    0.000
297.209; 1821.150;  200.825;    0.000
297.272; 1878.150;  157.825;    0.000
297.336; 1802.150;  164.825;    0.000
297.399; 1861.150;  166.825;    0.000
297.463; 1926.150;  195.825;    0.000
297.526; 1905.150;  176.825;    0.000
297.590; 1877.150;  198.825;    0.000
297.653; 1835.150;  146.825;    0.000
297.717; 1891.150;  175.825;    0.000
297.780; 1755.150;  139.825;    0.000
297.843; 1791.150;  174.825;    0.000
297.907; 1877.150;  149.825;    0.000
297.970; 1832.150;  161.825;    0.000
298.034; 1818.150;  185.825;    0.000
298.097; 1858.150;  167.825;    0.000
298.160; 1872.150;  195.825;    0.000
298.224; 1817.150;  178.825;    0.000
298.287; 1750.150;  164.825;    0.000
298.350; 1779.150;  194.825;    0.000
298.414; 1813.150;  191.825;    0.000
298.477; 1728.150;  155.825;    0.000
298.540; 1843.150;  139.825;    0.000
298.604; 1793.150;  198.825;    0.000
298.667; 1824.150;  183.825;    0.000
298.730; 1789.150;  185.825;    0.000
298.794; 1664.150;  153.825;    0.000
298.857; 1732.150;  169.825;    0.000
298.920; 1751.150;  159.825;    0.000
298.984; 1780.150;  179.825;    0.000
299.047; 1797.150;  174.825;    0.000
299.110; 1754.150;  144.825;    0.000
299.173; 1742.150;  190.825;    0.000
299.237; 1704.150;  163.825;    0.000
299.300; 1678.150;  153.825;    0.000
299.363; 1691.150;  145.825;    0.000
299.426; 1705.150;  160.825;    0.000
299.489; 1711.150;  173.825;    0.000
299.553; 1716.150;  209.825;    0.000
299.616; 1779.150;  172.825;    0.000
299.679; 1696.150;  204.825;    0.000
299.742; 1699.150;  162.825;    0.000
299.805; 1652.150;  198.825;    0.000
299.868; 1630.150;  176.825;    0.000
299.932; 1668.150;  166.825;    0.000
299.995; 1624.150;  162.825;    0.000
300.058; 1644.150;  175.825;    0.000
300.121; 1610.150;  197.825;    0.000
300.184; 1657.150;  188.825;    0.000
300.247; 1672.150;  181.825;    0.000
300.310; 1614.150;  161.825;    0.000
300.374; 1660.150;  201.825;    0.000
300.437; 1609.150;  156.825;    0.000
300.500; 1661.150;  180.825;    0.000
300.563; 1614.150;  174.825;    0.000
300.626; 1569.150;  206.825;    0.000
300.689; 1616.150;  218.825;    0.000
300.752; 1649.150;  192.825;    0.000
300.815; 1617.150;  172.825;    0.000
300.878; 1617.150;  207.825;    0.000
300.941; 1643.150;  163.825;    0.000
301.004; 1670.150;  171.825;    0.000
301.067; 1643.150;  198.825;    0.000
301.130; 1635.150;  156.825;    0.000
301.193; 1707.150;  173.825;    0.000
301.256; 1650.150;  167.825;    0.000
301.319; 1687.150;  211.825;    0.000
301.382; 1616.150;  167.825;    0.000
301.445; 1618.150;  224.825;    0.000
301.508; 1606.150;  168.825;    0.000
301.571; 1509.150;  161.825;    0.000
301.634; 1620.150;  177.825;    0.000
301.697; 1584.150;  203.825;    0.000
301.760; 1581.150;  190.825;    0.000
301.823; 1629.150;  182.825;    0.000
301.885; 1611.150;  202.825;    0.000
301.948; 1650.150;  200.825;    0.000
302.011; 1612.150;  157.825;    0.000
302.074; 1649.150;  205.825;    0.000
302.137; 1551.150;  149.825;    0.000
302.200; 1580.150;  201.825;    0.000
302.263; 1565.150;  178.825;    0.000
302.326; 1566.150;  184.825;    0.000
302.388; 1643.150;  176.825;    0.000
302.451; 1550.150;  146.825;    0.000
302.514; 1624.150;  192.825;    0.000
302.577; 1545.150;  181.825;    0.000
302.640; 1581.150;  186.825;    0.000
302.703; 1608.150;  164.825;    0.000
302.765; 1567.150;  197.825;    0.000
302.828; 1664.150;  208.825;    0.000
302.891; 1669.150;  168.825;    0.000
302.954; 1541.150;  177.825;    0.000
303.016; 1582.150;  190.825;    0.000
303.079; 1626.150;  216.825;    0.000
303.142; 1604.150;  228.825;    0.000
303.205; 1541.150;  192.825;    0.000
303.267; 1579.150;  182.825;    0.000
303.330; 1539.150;  201.825;    0.000
303.393; 1493.150;  196.825;    0.000
303.456; 1558.150;  184.825;    0.000
303.518; 1637.150;  194.825;    0.000
303.581; 1580.150;  195.825;    0.000
303.644; 1588.150;  184.825;    0.000
303.706; 1689.150;  150.825;    0.000
303.769; 1551.150;  182.825;    0.000
303.832; 1559.150;  143.825;    0.000
303.894; 1622.150;  207.825;    0.000
303.957; 1578.150;  178.825;    0.000
304.020; 1527.150;  203.825;    0.000
304.082; 1492.150;  175.825;    0.000
304.145; 1626.150;  171.825;    0.000
304.207; 1649.150;  157.825;    0.000
304.270; 1609.150;  195.825;    0.000
304.333; 1554.150;  195.825;    0.000
304.395; 1602.150;  197.825;    0.000
304.458; 1543.150;  231.825;    0.000
304.520; 1569.150;  218.825;    0.000
304.583; 1563.150;  177.825;    0.000
304.646; 1545.150;  177.825;    0.000
304.708; 1539.150;  178.825;    0.000
304.771; 1560.150;  143.825;    0.000
304.833; 1573.150;  241.825;    0.000
304.896; 1618.150;  200.825;    0.000
304.958; 1577.150;  176.825;    0.000
305.021; 1570.150;  159.825;    0.000
305.083; 1532.150;  159.825;    0.000
305.146; 1567.150;  190.825;    0.000
305.208; 1575.150;  152.825;    0.000
305.271; 1563.150;  162.825;    0.000
305.333; 1625.150;  219.825;    0.000
305.396; 1560.150;  163.825;    0.000
305.458; 1538.150;  215.825;    0.000
305.520; 1608.150;  174.825;    0.000
305.583; 1554.150;  161.825;    0.000
305.645; 1629.150;  203.825;    0.000
305.708; 1536.150;  163.825;    0.000
305.770; 1603.150;  215.825;    0.000
305.833; 1626.150;  207.825;    0.000
305.895; 1587.150;  166.825;    0.000
305.957; 1557.150;  175.825;    0.000
306.020; 1554.150;  169.825;    0.000
306.082; 1590.150;  203.825;    0.000
306.144; 1603.150;  181.825;    0.000
306.207; 1600.150;  199.825;    0.000
306.269; 1601.150;  177.825;    0.000
306.331; 1597.150;  160.825;    0.000
306.394; 1555.150;  193.825;    0.000
306.456; 1534.150;  136.825;    0.000
306.518; 1546.150;  189.825;    0.000
306.581; 1533.150;  156.825;    0.000
306.643; 1579.150;  190.825;    0.000
306.705; 1650.150;  190.825;    0.000
306.768; 1615.150;  172.825;    0.000
306.830; 1553.150;  214.825;    0.000
306.892; 1617.150;  198.825;    0.000
306.954; 1634.150;  177.825;    0.000
307.017; 1651.150;  183.825;    0.000
307.079; 1616.150;  170.825;    0.000
307.141; 1649.150;  173.825;    0.000
307.203; 1635.150;  171.825;    0.000
307.266; 1687.150;  166.825;    0.000
307.328; 1650.150;  207.825;    0.000
307.390; 1672.150;  201.825;    0.000
307.452; 1625.150;  182.825;    0.000
307.514; 1682.150;  213.825;    0.000
307.577; 1670.150;  213.825;    0.000
307.639; 1627.150;  197.825;    0.000
307.701; 1678.150;  174.825;    0.000
307.763; 1655.150;  181.825;    0.000
307.825; 1671.150;  186.825;    0.000
307.887; 1735.150;  198.825;    0.000
307.949; 1586.150;  158.825;    0.000
308.012; 1685.150;  209.825;    0.000
308.074; 1664.150;  176.825;    0.000
308.136; 1694.150;  227.825;    0.000
308.198; 1674.150;  187.825;    0.000
308.260; 1659.150;  211.825;    0.000
308.322; 1701.150;  206.825;    0.000
308.384; 1674.150;  186.825;    0.000
308.446; 1665.150;  175.825;    0.000
308.508; 1763.150;  211.825;    0.000
308.570; 1736.150;  191.825;    0.000
308.632; 1723.150;  195.825;    0.000
308.694; 1683.150;  173.825;    0.000
308.756; 1727.150;  185.825;    0.000
308.818; 1886.150;  195.825;    0.000
308.880; 1772.150;  189.825;    0.000
308.942; 1818.150;  231.825;    0.000
309.004; 1738.150;  188.825;    0.000
309.066; 1844.150;  196.825;    0.000
309.128; 1837.150;  155.825;    0.000
309.190; 1764.150;  176.825;    0.000
309.252; 2005.150;  191.825;    0.000
309.314; 1953.150;  236.825;    0.000
309.376; 1914.150;  212.825;    0.000
309.438; 1855.150;  201.825;    0.000
309.500; 1912.150;  206.825;    0.000
309.562; 1927.150;  213.825;    0.000
309.624; 2019.150;  196.825;    0.000
309.686; 2075.150;  198.825;    0.000
309.747; 2028.150;  186.825;    0.000
309.809; 2042.150;  215.825;    0.000
309.871; 1942.150;  242.825;    0.000
309.933; 1794.150;  162.825;    0.000
309.995; 1894.150;  163.825;    0.000
310.057; 1844.150;  145.825;    0.000
310.119; 1803.150;  205.825;    0.000
310.180; 1809.150;  195.825;    0.000
310.242; 1831.150;  167.825;    0.000
310.304; 1841.150;  213.825;    0.000
310.366; 1892.150;  224.825;    0.000
310.428; 1752.150;  170.825;    0.000
310.489; 1791.150;  195.825;    0.000
310.551; 1810.150;  207.825;    0.000
310.613; 1785.150;  168.825;    0.000
310.675; 1800.150;  188.825;    0.000
310.737; 1870.150;  211.825;    0.000
310.798; 1822.150;  221.825;    0.000
310.860; 1881.150;  201.825;    0.000
310.922; 1853.150;  206.825;    0.000
310.983; 1772.150;  222.825;    0.000
311.045; 1775.150;  235.825;    0.000
311.107; 1827.150;  184.825;    0.000
311.169; 1757.150;  148.825;    0.000
311.230; 1841.150;  211.825;    0.000
311.292; 1890.150;  235.825;    0.000
311.354; 1724.150;  183.825;    0.000
311.415; 1778.150;  196.825;    0.000
311.477; 1845.150;  200.825;    0.000
311.539; 1691.150;  171.825;    0.000
311.600; 1883.150;  169.825;    0.000
311.662; 1770.150;  231.825;    0.000
311.724; 1733.150;  204.825;    0.000
311.785; 1791.150;  214.825;    0.000
311.847; 1762.150;  193.825;    0.000
311.908; 1814.150;  180.825;    0.000
311.970; 1861.150;  233.825;    0.000
312.032; 1727.150;  192.825;    0.000
312.093; 1700.150;  195.825;    0.000
312.155; 1747.150;  194.825;    0.000
312.216; 1793.150;  238.825;    0.000
312.278; 1735.150;  146.825;    0.000
312.339; 1722.150;  184.825;    0.000
312.401; 1762.150;  201.825;    0.000
312.462; 1750.150;  173.825;    0.000
312.524; 1729.150;  205.825;    0.000
312.585; 1714.150;  199.825;    0.000
312.647; 1697.150;  168.825;    0.000
312.708; 1789.150;  180.825;    0.000
312.770; 1851.150;  180.825;    0.000
312.831; 1799.150;  176.825;    0.000
312.893; 1823.150;  211.825;    0.000
312.954; 1785.150;  178.825;    0.000
313.016; 1775.150;  204.825;    0.000
313.077; 1786.150;  216.825;    0.000
313.139; 1816.150;  172.825;    0.000
313.200; 1792.150;  197.825;    0.000
313.261; 1783.150;  227.825;    0.000
313.323; 1730.150;  204.825;    0.000
313.384; 1773.150;  182.825;    0.000
313.446; 1798.150;  204.825;    0.000
313.507; 1774.150;  164.825;    0.000
313.568; 1854.150;  197.825;    0.000
313.630; 1767.150;  190.825;    0.000
313.691; 1753.150;  185.825;    0.000
313.752; 1731.150;  192.825;    0.000
313.814; 1661.150;  176.825;    0.000
313.875; 1743.150;  210.825;    0.000
313.936; 1752.150;  165.825;    0.000
313.998; 1723.150;  162.825;    0.000
314.059; 1744.150;  178.825;    0.000
314.120; 1833.150;  176.825;    0.000
314.182; 1806.150;  167.825;    0.000
314.243; 1750.150;  204.825;    0.000
314.304; 1834.150;  197.825;    0.000
314.365; 1808.150;  183.825;    0.000
314.427; 1745.150;  176.825;    0.000
314.488; 1797.150;  149.825;    0.000
314.549; 1743.150;  218.825;    0.000
314.610; 1777.150;  160.825;    0.000
314.672; 1702.150;  187.825;    0.000
314.733; 1733.150;  184.825;    0.000
314.794; 1749.150;  164.825;    0.000
314.855; 1772.150;  191.825;    0.000
314.917; 1707.150;  172.825;    0.000
314.978; 1817.150;  185.825;    0.000
315.039; 1719.150;  194.825;    0.000
315.100; 1729.150;  190.825;    0.000
315.161; 1826.150;  185.825;    0.000
315.222; 1846.150;  204.825;    0.000
315.283; 1767.150;  166.825;    0.000
315.345; 1774.150;  133.825;    0.000
315.406; 1791.150;  191.825;    0.000
315.467; 1717.150;  166.825;    0.000
315.528; 1801.150;  194.825;    0.000
315.589; 1786.150;  193.825;    0.000
315.650; 1739.150;  190.825;    0.000
315.711; 1750.150;  219.825;    0.000
315.772; 1763.150;  159.825;    0.000
315.833; 1739.150;  191.825;    0.000
315.894; 1851.150;  202.825;    0.000
315.955; 1796.150;  167.825;    0.000
316.016; 1759.150;  177.825;    0.000
316.078; 1766.150;  185.825;    0.000
316.139; 1780.150;  219.825;    0.000
316.200; 1706.150;  163.825;    0.000
316.261; 1822.150;  183.825;    0.000
316.322; 1760.150;  230.825;    0.000
316.383; 1743.150;  198.825;    0.000
316.444; 1790.150;  209.825;    0.000
316.504; 1783.150;  179.825;    0.000
316.565; 1733.150;  185.825;    0.000
316.626; 1814.150;  155.825;    0.000
316.687; 1784.150;  211.825;    0.000
316.748; 1753.150;  192.825;    0.000
316.809; 1790.150;  183.825;    0.000
316.870; 1775.150;  196.825;    0.000
316.931; 1789.150;  173.825;    0.000
316.992; 1746.150;  179.825;    0.000
317.053; 1815.150;  186.825;    0.000
317.114; 1733.150;  189.825;    0.000
317.175; 1728.150;  226.825;    0.000
317.235; 1793.150;  206.825;    0.000
317.296; 1819.150;  191.825;    0.000
317.357; 1760.150;  173.825;    0.000
317.418; 1801.150;  212.825;    0.000
317.479; 1724.150;  247.825;    0.000
317.540; 1793.150;  205.825;    0.000
317.601; 1708.150;  205.825;    0.000
317.661; 1704.150;  150.825;    0.000
317.722; 1753.150;  198.825;    0.000
317.783; 1692.150;  153.825;    0.000
317.844; 1823.150;  202.825;    0.000
317.904; 1722.150;  180.825;    0.000
317.965; 1740.150;  205.825;    0.000
318.026; 1751.150;  223.825;    0.000
318.087; 1724.150;  218.825;    0.000
318.148; 1692.150;  207.825;    0.000
318.208; 1747.150;  212.825;    0.000
318.269; 1804.150;  174.825;    0.000
318.330; 1792.150;  191.825;    0.000
318.390; 1772.150;  197.825;    0.000
318.451; 1772.150;  167.825;    0.000
318.512; 1750.150;  174.825;    0.000
318.572; 1714.150;  199.825;    0.000
318.633; 1798.150;  233.825;    0.000
318.694; 1752.150;  232.825;    0.000
318.754; 1764.150;  181.825;    0.000
318.815; 1799.150;  199.825;    0.000
318.876; 1773.150;  207.825;    0.000
318.936; 1789.150;  202.825;    0.000
318.997; 1756.150;  182.825;    0.000
319.058; 1796.150;  180.825;    0.000
319.118; 1824.150;  199.825;    0.000
319.179; 1715.150;  199.825;    0.000
319.239; 1795.150;  229.825;    0.000
319.300; 1752.150;  223.825;    0.000
319.361; 1788.150;  210.825;    0.000
319.421; 1686.150;  205.825;    0.000
319.482; 1772.150;  205.825;    0.000
319.542; 1688.150;  176.825;    0.000
319.603; 1696.150;  191.825;    0.000
319.663; 1748.150;  183.825;    0.000
319.724; 1707.150;  174.825;    0.000
319.784; 1716.150;  198.825;    0.000
319.845; 1754.150;  218.825;    0.000
319.905; 1754.150;  217.825;    0.000
319.966; 1770.150;  197.825;    0.000
320.026; 1734.150;  209.825;    0.000
320.087; 1686.150;  225.825;    0.000
320.147; 1709.150;  201.825;    0.000
320.208; 1701.150;  176.825;    0.000
320.268; 1753.150;  168.825;    0.000
320.329; 1771.150;  238.825;    0.000
320.389; 1753.150;  220.825;    0.000
320.449; 1745.150;  230.825;    0.000
320.510; 1771.150;  234.825;    0.000
320.570; 1779.150;  210.825;    0.000
320.631; 1776.150;  207.825;    0.000
320.691; 1755.150;  222.825;    0.000
320.751; 1697.150;  195.825;    0.000
320.812; 1772.150;  193.825;    0.000
320.872; 1764.150;  237.825;    0.000
320.932; 1694.150;  213.825;    0.000
320.993; 1776.150;  185.825;    0.000
321.053; 1819.150;  245.825;    0.000
321.113; 1732.150;  206.825;    0.000
321.174; 1714.150;  202.825;    0.000
321.234; 1709.150;  244.825;    0.000
321.294; 1714.150;  228.825;    0.000
321.355; 1716.150;  208.825;    0.000
321.415; 1724.150;  223.825;    0.000
321.475; 1691.150;  203.825;    0.000
321.535; 1783.150;  230.825;    0.000
321.596; 1711.150;  186.825;    0.000
321.656; 1790.150;  216.825;    0.000
321.716; 1740.150;  207.825;    0.000
321.776; 1680.150;  181.825;    0.000
321.837; 1700.150;  207.825;    0.000
321.897; 1754.150;  225.825;    0.000
321.957; 1749.150;  222.825;    0.000
322.017; 1768.150;  215.825;    0.000
322.077; 1790.150;  250.825;    0.000
322.138; 1792.150;  189.825;    0.000
322.198; 1711.150;  200.825;    0.000
322.258; 1739.150;  217.825;    0.000
322.318; 1752.150;  183.825;    0.000
322.378; 1795.150;  231.825;    0.000
322.438; 1678.150;  228.825;    0.000
322.499; 1758.150;  248.825;    0.000
322.559; 1674.150;  198.825;    0.000
322.619; 1730.150;  221.825;    0.000
322.679; 1638.150;  217.825;    0.000
322.739; 1697.150;  204.825;    0.000
322.799; 1737.150;  236.825;    0.000
322.859; 1775.150;  213.825;    0.000
322.919; 1687.150;  210.825;    0.000
322.979; 1765.150;  244.825;    0.000
323.039; 1735.150;  218.825;    0.000
323.099; 1747.150;  232.825;    0.000
323.159; 1702.150;  216.825;    0.000
323.219; 1758.150;  169.825;    0.000
323.279; 1765.150;  236.825;    0.000
323.339; 1772.150;  243.825;    0.000
323.399; 1764.150;  208.825;    0.000
323.459; 1717.150;  220.825;    0.000
323.519; 1811.150;  228.825;    0.000
323.579; 1753.150;  164.825;    0.000
323.639; 1736.150;  209.825;    0.000
323.699; 1764.150;  188.825;    0.000
323.759; 1801.150;  206.825;    0.000
323.819; 1794.150;  204.825;    0.000
323.879; 1825.150;  222.825;    0.000
323.939; 1764.150;  206.825;    0.000
323.999; 1756.150;  202.825;    0.000
324.059; 1707.150;  245.825;    0.000
324.119; 1723.150;  214.825;    0.000
324.178; 1749.150;  183.825;    0.000
324.238; 1682.150;  193.825;    0.000
324.298; 1752.150;  207.825;    0.000
324.358; 1720.150;  196.825;    0.000
324.418; 1700.150;  193.825;    0.000
324.478; 1723.150;  191.825;    0.000
324.538; 1717.150;  224.825;    0.000
324.597; 1714.150;  187.825;    0.000
324.657; 1718.150;  208.825;    0.000
324.717; 1706.150;  198.825;    0.000
324.777; 1636.150;  159.825;    0.000
324.837; 1719.150;  180.825;    0.000
324.896; 1753.150;  215.825;    0.000
324.956; 1717.150;  210.825;    0.000
325.016; 1727.150;  187.825;    0.000
325.076; 1760.150;  197.825;    0.000
325.135; 1802.150;  226.825;    0.000
325.195; 1681.150;  201.825;    0.000
325.255; 1761.150;  167.825;    0.000
325.315; 1798.150;  217.825;    0.000
325.374; 1726.150;  196.825;    0.000
325.434; 1715.150;  167.825;    0.000
325.494; 1701.150;  214.825;    0.000
325.553; 1713.150;  203.825;    0.000
325.613; 1695.150;  206.825;    0.000
325.673; 1697.150;  148.825;    0.000
325.732; 1682.150;  207.825;    0.000
325.792; 1675.150;  151.825;    0.000
325.852; 1693.150;  195.825;    0.000
325.911; 1742.150;  201.825;    0.000
325.971; 1813.150;  224.825;    0.000
326.031; 1783.150;  201.825;    0.000
326.090; 1762.150;  203.825;    0.000
326.150; 1689.150;  183.825;    0.000
326.209; 1715.150;  226.825;    0.000
326.269; 1725.150;  194.825;    0.000
326.328; 1712.150;  200.825;    0.000
326.388; 1705.150;  177.825;    0.000
326.448; 1723.150;  239.825;    0.000
326.507; 1754.150;  197.825;    0.000
326.567; 1681.150;  161.825;    0.000
326.626; 1708.150;  220.825;    0.000
326.686; 1699.150;  178.825;    0.000
326.745; 1642.150;  167.825;    0.000
326.805; 1699.150;  176.825;    0.000
326.864; 1747.150;  204.825;    0.000
326.924; 1668.150;  218.825;    0.000
326.983; 1612.150;  201.825;    0.000
327.043; 1711.150;  219.825;    0.000
327.102; 1724.150;  202.825;    0.000
327.161; 1672.150;  228.825;    0.000
327.221; 1624.150;  217.825;    0.000
327.280; 1710.150;  188.825;    0.000
327.340; 1614.150;  209.825;    0.000
327.399; 1712.150;  189.825;    0.000
327.459; 1628.150;  216.825;    0.000
327.518; 1680.150;  200.825;    0.000
327.577; 1667.150;  194.825;    0.000
327.637; 1721.150;  180.825;    0.000
327.696; 1674.150;  208.825;    0.000
327.755; 1726.150;  218.825;    0.000
327.815; 1754.150;  234.825;    0.000
327.874; 1700.150;  259.825;    0.000
327.933; 1691.150;  192.825;    0.000
327.993; 1701.150;  208.825;    0.000
328.052; 1663.150;  221.825;    0.000
328.111; 1667.150;  203.825;    0.000
328.171; 1612.150;  221.825;    0.000
328.230; 1686.150;  222.825;    0.000
328.289; 1671.150;  254.825;    0.000
328.349; 1644.150;  232.825;    0.000
328.408; 1684.150;  223.825;    0.000
328.467; 1684.150;  198.825;    0.000
328.526; 1647.150;  217.825;    0.000
328.586; 1698.150;  185.825;    0.000
328.645; 1670.150;  210.825;    0.000
328.704; 1696.150;  211.825;    0.000
328.763; 1670.150;  231.825;    0.000
328.822; 1626.150;  254.825;    0.000
328.882; 1663.150;  216.825;    0.000
328.941; 1645.150;  239.825;    0.000
329.000; 1618.150;  251.825;    0.000
329.059; 1661.150;  227.825;    0.000
329.118; 1651.150;  233.825;    0.000
329.177; 1722.150;  188.825;    0.000
329.237; 1705.150;  257.825;    0.000
329.296; 1687.150;  265.825;    0.000
329.355; 1671.150;  245.825;    0.000
329.414; 1616.150;  236.825;    0.000
329.473; 1673.150;  242.825;    0.000
329.532; 1661.150;  228.825;    0.000
329.591; 1680.150;  206.825;    0.000
329.650; 1720.150;  250.825;    0.000
329.709; 1670.150;  278.825;    0.000
329.768; 1735.150;  219.825;    0.000
329.827; 1751.150;  254.825;    0.000
329.886; 1650.150;  221.825;    0.000
329.945; 1726.150;  239.825;    0.000
330.004; 1759.150;  245.825;    0.000
330.063; 1672.150;  201.825;    0.000
330.122; 1708.150;  227.825;    0.000
330.181; 1803.150;  196.825;    0.000
330.240; 1723.150;  203.825;    0.000
330.299; 1684.150;  214.825;    0.000
330.358; 1674.150;  196.825;    0.000
330.417; 1674.150;  201.825;    0.000
330.476; 1668.150;  248.825;    0.000
330.535; 1604.150;  253.825;    0.000
330.594; 1604.150;  231.825;    0.000
330.653; 1601.150;  210.825;    0.000
330.712; 1665.150;  242.825;    0.000
330.771; 1646.150;  240.825;    0.000
330.830; 1574.150;  230.825;    0.000
330.889; 1684.150;  217.825;    0.000
330.948; 1573.150;  211.825;    0.000
331.006; 1623.150;  217.825;    0.000
331.065; 1639.150;  170.825;    0.000
331.124; 1659.150;  211.825;    0.000
331.183; 1640.150;  192.825;    0.000
331.242; 1621.150;  227.825;    0.000
331.301; 1624.150;  240.825;    0.000
331.359; 1646.150;  223.825;    0.000
331.418; 1590.150;  215.825;    0.000
331.477; 1648.150;  230.825;    0.000
331.536; 1663.150;  221.825;    0.000
331.595; 1580.150;  198.825;    0.000
331.653; 1605.150;  207.825;    0.000
331.712; 1533.150;  217.825;    0.000
331.771; 1644.150;  221.825;    0.000
331.830; 1562.150;  222.825;    0.000
331.888; 1690.150;  213.825;    0.000
331.947; 1609.150;  233.825;    0.000
332.006; 1625.150;  212.825;    0.000
332.065; 1662.150;  200.825;    0.000
332.123; 1635.150;  223.825;    0.000
332.182; 1641.150;  180.825;    0.000
332.241; 1715.150;  192.825;    0.000
332.299; 1561.150;  172.825;    0.000
332.358; 1583.150;  216.825;    0.000
332.417; 1626.150;  211.825;    0.000
332.475; 1691.150;  222.825;    0.000
332.534; 1646.150;  238.825;    0.000
332.592; 1639.150;  216.825;    0.000
332.651; 1650.150;  196.825;    0.000
332.710; 1627.150;  215.825;    0.000
332.768; 1684.150;  193.825;    0.000
332.827; 1629.150;  201.825;    0.000
332.885; 1630.150;  226.825;    0.000
332.944; 1725.150;  174.825;    0.000
333.003; 1646.150;  187.825;    0.000
333.061; 1648.150;  208.825;    0.000
333.120; 1687.150;  202.825;    0.000
333.178; 1735.150;  227.825;    0.000
333.237; 1781.150;  215.825;    0.000
333.295; 1747.150;  245.825;    0.000
333.354; 1660.150;  194.825;    0.000
333.412; 1666.150;  165.825;    0.000
333.471; 1768.150;  219.825;    0.000
333.529; 1757.150;  255.825;    0.000
333.588; 1726.150;  264.825;    0.000
333.646; 1878.150;  231.825;    0.000
333.705; 1845.150;  232.825;    0.000
333.763; 1810.150;  233.825;    0.000
333.822; 1817.150;  221.825;    0.000
333.880; 1725.150;  180.825;    0.000
333.938; 1705.150;  229.825;    0.000
333.997; 1741.150;  194.825;    0.000
334.055; 1707.150;  230.825;    0.000
334.114; 1767.150;  230.825;    0.000
334.172; 1657.150;  170.825;    0.000
334.230; 1717.150;  192.825;    0.000
334.289; 1695.150;  225.825;    0.000
334.347; 1726.150;  233.825;    0.000
334.405; 1654.150;  207.825;    0.000
334.464; 1701.150;  175.825;    0.000
334.522; 1669.150;  180.825;    0.000
334.580; 1684.150;  172.825;    0.000
334.639; 1655.150;  230.825;    0.000
334.697; 1739.150;  217.825;    0.000
334.755; 1663.150;  217.825;    0.000
334.814; 1681.150;  210.825;    0.000
334.872; 1680.150;  170.825;    0.000
334.930; 1670.150;  167.825;    0.000
334.988; 1692.150;  244.825;    0.000
335.047; 1684.150;  202.825;    0.000
335.105; 1731.150;  181.825;    0.000
335.163; 1712.150;  195.825;    0.000
335.221; 1811.150;  203.825;    0.000
335.280; 1760.150;  216.825;    0.000
335.338; 1690.150;  197.825;    0.000
335.396; 1646.150;  232.825;    0.000
335.454; 1648.150;  211.825;    0.000
335.512; 1734.150;  221.825;    0.000
335.570; 1792.150;  216.825;    0.000
335.629; 1707.150;  244.825;    0.000
335.687; 1791.150;  244.825;    0.000
335.745; 1798.150;  189.825;    0.000
335.803; 1887.150;  198.825;    0.000
335.861; 1858.150;  236.825;    0.000
335.919; 1774.150;  234.825;    0.000
335.977; 1726.150;  214.825;    0.000
336.035; 1671.150;  242.825;    0.000
336.094; 1806.150;  219.825;    0.000
336.152; 1715.150;  196.825;    0.000
336.210; 1729.150;  221.825;    0.000
336.268; 1769.150;  257.825;    0.000
336.326; 1800.150;  211.825;    0.000
336.384; 1741.150;  217.825;    0.000
336.442; 1700.150;  176.825;    0.000
336.500; 1699.150;  242.825;    0.000
336.558; 1715.150;  238.825;    0.000
336.616; 1742.150;  261.825;    0.000
336.674; 1681.150;  200.825;    0.000
336.732; 1628.150;  208.825;    0.000
336.790; 1684.150;  183.825;    0.000
336.848; 1718.150;  199.825;    0.000
336.906; 1719.150;  240.825;    0.000
336.964; 1721.150;  234.825;    0.000
337.022; 1730.150;  282.825;    0.000
337.080; 1780.150;  265.825;    0.000
337.138; 1697.150;  255.825;    0.000
337.195; 1732.150;  200.825;    0.000
337.253; 1689.150;  199.825;    0.000
337.311; 1677.150;  233.825;    0.000
337.369; 1700.150;  250.825;    0.000
337.427; 1661.150;  201.825;    0.000
337.485; 1666.150;  228.825;    0.000
337.543; 1643.150;  221.825;    0.000
337.601; 1663.150;  232.825;    0.000
337.658; 1708.150;  215.825;    0.000
337.716; 1701.150;  198.825;    0.000
337.774; 1735.150;  262.825;    0.000
337.832; 1678.150;  220.825;    0.000
337.890; 1570.150;  194.825;    0.000
337.947; 1622.150;  205.825;    0.000
338.005; 1655.150;  229.825;    0.000
338.063; 1610.150;  237.825;    0.000
338.121; 1687.150;  220.825;    0.000
338.178; 1675.150;  227.825;    0.000
338.236; 1661.150;  238.825;    0.000
338.294; 1672.150;  242.825;    0.000
338.352; 1635.150;  230.825;    0.000
338.409; 1668.150;  222.825;    0.000
338.467; 1566.150;  233.825;    0.000
338.525; 1653.150;  253.825;    0.000
338.583; 1600.150;  221.825;    0.000
338.640; 1576.150;  225.825;    0.000
338.698; 1640.150;  229.825;    0.000
338.756; 1587.150;  238.825;    0.000
338.813; 1631.150;  260.825;    0.000
338.871; 1650.150;  246.825;    0.000
338.928; 1726.150;  240.825;    0.000
338.986; 1630.150;  228.825;    0.000
339.044; 1644.150;  265.825;    0.000
339.101; 1634.150;  224.825;    0.000
339.159; 1579.150;  235.825;    0.000
339.216; 1601.150;  244.825;    0.000
339.274; 1593.150;  266.825;    0.000
339.332; 1596.150;  248.825;    0.000
339.389; 1669.150;  246.825;    0.000
339.447; 1600.150;  237.825;    0.000
339.504; 1587.150;  244.825;    0.000
339.562; 1615.150;  249.825;    0.000
339.619; 1664.150;  266.825;    0.000
339.677; 1633.150;  263.825;    0.000
339.734; 1566.150;  216.825;    0.000
339.792; 1654.150;  276.825;    0.000
339.849; 1608.150;  240.825;    0.000
339.907; 1642.150;  275.825;    0.000
339.964; 1629.150;  243.825;    0.000
340.022; 1631.150;  224.825;    0.000
340.079; 1583.150;  230.825;    0.000
340.137; 1638.150;  232.825;    0.000
340.194; 1621.150;  261.825;    0.000
340.252; 1605.150;  219.825;    0.000
340.309; 1698.150;  212.825;    0.000
340.366; 1616.150;  231.825;    0.000
340.424; 1649.150;  244.825;    0.000
340.481; 1665.150;  238.825;    0.000
340.538; 1651.150;  217.825;    0.000
340.596; 1603.150;  224.825;    0.000
340.653; 1664.150;  225.825;    0.000
340.711; 1661.150;  276.825;    0.000
340.768; 1703.150;  239.825;    0.000
340.825; 1710.150;  216.825;    0.000
340.883; 1600.150;  264.825;    0.000
340.940; 1638.150;  256.825;    0.000
340.997; 1629.150;  230.825;    0.000
341.054; 1666.150;  229.825;    0.000
341.112; 1645.150;  220.825;    0.000
341.169; 1716.150;  276.825;    0.000
341.226; 1599.150;  224.825;    0.000
341.284; 1619.150;  235.825;    0.000
341.341; 1709.150;  226.825;    0.000
341.398; 1691.150;  200.825;    0.000
341.455; 1670.150;  242.825;    0.000
341.512; 1706.150;  226.825;    0.000
341.570; 1660.150;  299.825;    0.000
341.627; 1677.150;  221.825;    0.000
341.684; 1652.150;  204.825;    0.000
341.741; 1703.150;  285.825;    0.000
341.798; 1639.150;  237.825;    0.000
341.856; 1610.150;  223.825;    0.000
341.913; 1657.150;  232.825;    0.000
341.970; 1706.150;  250.825;    0.000
342.027; 1700.150;  272.825;    0.000
342.084; 1690.150;  242.825;    0.000
342.141; 1681.150;  207.825;    0.000
342.198; 1637.150;  252.825;    0.000
342.255; 1679.150;  189.825;    0.000
342.313; 1702.150;  222.825;    0.000
342.370; 1687.150;  203.825;    0.000
342.427; 1645.150;  261.825;    0.000
342.484; 1669.150;  230.825;    0.000
342.541; 1638.150;  224.825;    0.000
342.598; 1705.150;  245.825;    0.000
342.655; 1628.150;  235.825;    0.000
342.712; 1621.150;  238.825;    0.000
342.769; 1671.150;  235.825;    0.000
342.826; 1711.150;  232.825;    0.000
342.883; 1659.150;  212.825;    0.000
342.940; 1618.150;  189.825;    0.000
342.997; 1555.150;  241.825;    0.000
343.054; 1610.150;  235.825;    0.000
343.111; 1606.150;  216.825;    0.000
343.168; 1662.150;  202.825;    0.000
343.225; 1665.150;  228.825;    0.000
343.282; 1762.150;  208.825;    0.000
343.339; 1667.150;  241.825;    0.000
343.395; 1671.150;  206.825;    0.000
343.452; 1709.150;  227.825;    0.000
343.509; 1629.150;  212.825;    0.000
343.566; 1691.150;  266.825;    0.000
343.623; 1690.150;  240.825;    0.000
343.680; 1742.150;  215.825;    0.000
343.737; 1731.150;  231.825;    0.000
343.794; 1697.150;  256.825;    0.000
343.850; 1832.150;  235.825;    0.000
343.907; 1741.150;  246.825;    0.000
343.964; 1763.150;  241.825;    0.000
344.021; 1782.150;  237.825;    0.000
344.078; 1743.150;  248.825;    0.000
344.134; 1778.150;  225.825;    0.000
344.191; 1749.150;  209.825;    0.000
344.248; 1744.150;  234.825;    0.000
344.305; 1781.150;  224.825;    0.000
344.361; 1732.150;  194.825;    0.000
344.418; 1777.150;  240.825;    0.000
344.475; 1783.150;  252.825;    0.000
344.532; 1704.150;  251.825;    0.000
344.588; 1709.150;  240.825;    0.000
344.645; 1746.150;  253.825;    0.000
344.702; 1751.150;  216.825;    0.000
344.758; 1834.150;  258.825;    0.000
344.815; 1748.150;  239.825;    0.000
344.872; 1731.150;  216.825;    0.000
344.928; 1727.150;  236.825;    0.000
344.985; 1784.150;  238.825;    0.000
345.042; 1707.150;  211.825;    0.000
345.098; 1782.150;  223.825;    0.000
345.155; 1790.150;  266.825;    0.000
345.212; 1770.150;  266.825;    0.000
345.268; 1774.150;  245.825;    0.000
345.325; 1702.150;  225.825;    0.000
345.381; 1753.150;  223.825;    0.000
345.438; 1787.150;  259.825;    0.000
345.495; 1735.150;  233.825;    0.000
345.551; 1759.150;  254.825;    0.000
345.608; 1677.150;  212.825;    0.000
345.664; 1693.150;  225.825;    0.000
345.721; 1746.150;  223.825;    0.000
345.777; 1656.150;  226.825;    0.000
345.834; 1704.150;  215.825;    0.000
345.890; 1757.150;  230.825;    0.000
345.947; 1735.150;  232.825;    0.000
346.003; 1715.150;  241.825;    0.000
346.060; 1714.150;  241.825;    0.000
346.116; 1736.150;  231.825;    0.000
346.173; 1773.150;  229.825;    0.000
346.229; 1652.150;  262.825;    0.000
346.285; 1696.150;  232.825;    0.000
346.342; 1825.150;  228.825;    0.000
346.398; 1778.150;  203.825;    0.000
346.455; 1753.150;  214.825;    0.000
346.511; 1876.150;  245.825;    0.000
346.567; 1832.150;  192.825;    0.000
346.624; 1847.150;  206.825;    0.000
346.680; 1765.150;  209.825;    0.000
346.737; 1761.150;  239.825;    0.000
346.793; 1842.150;  234.825;    0.000
346.849; 1818.150;  252.825;    0.000
346.906; 1810.150;  247.825;    0.000
346.962; 1857.150;  274.825;    0.000
347.018; 1841.150;  225.825;    0.000
347.074; 1829.150;  261.825;    0.000
347.131; 1711.150;  230.825;    0.000
347.187; 1775.150;  269.825;    0.000
347.243; 1835.150;  261.825;    0.000
347.300; 1783.150;  236.825;    0.000
347.356; 1815.150;  284.825;    0.000
347.412; 1854.150;  243.825;    0.000
347.468; 1830.150;  276.825;    0.000
347.524; 1816.150;  232.825;    0.000
347.581; 1796.150;  242.825;    0.000
347.637; 1790.150;  270.825;    0.000
347.693; 1697.150;  269.825;    0.000
347.749; 1797.150;  278.825;    0.000
347.805; 1778.150;  224.825;    0.000
347.862; 1766.150;  207.825;    0.000
347.918; 1785.150;  259.825;    0.000
347.974; 1785.150;  244.825;    0.000
348.030; 1757.150;  219.825;    0.000
348.086; 1711.150;  250.825;    0.000
348.142; 1751.150;  251.825;    0.000
348.198; 1767.150;  267.825;    0.000
348.254; 1791.150;  230.825;    0.000
348.311; 1767.150;  261.825;    0.000
348.367; 1782.150;  259.825;    0.000
348.423; 1766.150;  251.825;    0.000
348.479; 1738.150;  251.825;    0.000
348.535; 1816.150;  269.825;    0.000
348.591; 1760.150;  238.825;    0.000
348.647; 1777.150;  273.825;    0.000
348.703; 1813.150;  291.825;    0.000
348.759; 1799.150;  231.825;    0.000
348.815; 1774.150;  286.825;    0.000
348.871; 1784.150;  265.825;    0.000
348.927; 1793.150;  234.825;    0.000
348.983; 1769.150;  267.825;    0.000
349.039; 1676.150;  233.825;    0.000
349.095; 1799.150;  225.825;    0.000
349.151; 1724.150;  242.825;    0.000
349.207; 1755.150;  223.825;    0.000
349.263; 1739.150;  219.825;    0.000
349.319; 1838.150;  226.825;    0.000
349.374; 1758.150;  232.825;    0.000
349.430; 1722.150;  235.825;    0.000
349.486; 1740.150;  227.825;    0.000
349.542; 1836.150;  253.825;    0.000
349.598; 1793.150;  227.825;    0.000
349.654; 1833.150;  270.825;    0.000
349.710; 1777.150;  233.825;    0.000
349.766; 1806.150;  245.825;    0.000
349.821; 1730.150;  242.825;    0.000
349.877; 1795.150;  229.825;    0.000
349.933; 1801.150;  229.825;    0.000
349.989; 1767.150;  230.825;    0.000
350.045; 1775.150;  236.825;    0.000
350.100; 1777.150;  237.825;    0.000
350.156; 1702.150;  230.825;    0.000
350.212; 1803.150;  254.825;    0.000
350.268; 1796.150;  239.825;    0.000
350.323; 1746.150;  204.825;    0.000
350.379; 1765.150;  246.825;    0.000
350.435; 1779.150;  249.825;    0.000
350.491; 1808.150;  217.825;    0.000
350.546; 1794.150;  231.825;    0.000
350.602; 1773.150;  240.825;    0.000
350.658; 1841.150;  235.825;    0.000
350.713; 1794.150;  234.825;    0.000
350.769; 1738.150;  218.825;    0.000
350.825; 1763.150;  227.825;    0.000
350.880; 1805.150;  226.825;    0.000
350.936; 1877.150;  247.825;    0.000
350.992; 1707.150;  213.825;    0.000
351.047; 1847.150;  207.825;    0.000
351.103; 1766.150;  271.825;    0.000
351.158; 1823.150;  251.825;    0.000
351.214; 1725.150;  199.825;    0.000
351.270; 1828.150;  214.825;    0.000
351.325; 1784.150;  235.825;    0.000
351.381; 1769.150;  223.825;    0.000
351.436; 1884.150;  237.825;    0.000
351.492; 1821.150;  221.825;    0.000
351.547; 1816.150;  237.825;    0.000
351.603; 1862.150;  239.825;    0.000
351.658; 1879.150;  209.825;    0.000
351.714; 1834.150;  226.825;    0.000
351.769; 1827.150;  238.825;    0.000
351.825; 1894.150;  226.825;    0.000
351.880; 1853.150;  217.825;    0.000
351.936; 1884.150;  246.825;    0.000
351.991; 1707.150;  233.825;    0.000
352.047; 1786.150;  215.825;    0.000
352.102; 1775.150;  243.825;    0.000
352.158; 1815.150;  234.825;    0.000
352.213; 1816.150;  201.825;    0.000
352.268; 1838.150;  234.825;    0.000
352.324; 1795.150;  211.825;    0.000
352.379; 1764.150;  221.825;    0.000
352.434; 1894.150;  259.825;    0.000
352.490; 1826.150;  250.825;    0.000
352.545; 1871.150;  251.825;    0.000
352.601; 1800.150;  283.825;    0.000
352.656; 1848.150;  236.825;    0.000
352.711; 1793.150;  237.825;    0.000
352.767; 1773.150;  201.825;    0.000
352.822; 1766.150;  209.825;    0.000
352.877; 1774.150;  239.825;    0.000
352.932; 1778.150;  228.825;    0.000
352.988; 1793.150;  202.825;    0.000
353.043; 1769.150;  268.825;    0.000
353.098; 1807.150;  208.825;    0.000
353.153; 1811.150;  219.825;    0.000
353.209; 1777.150;  252.825;    0.000
353.264; 1775.150;  225.825;    0.000
353.319; 1823.150;  234.825;    0.000
353.374; 1812.150;  236.825;    0.000
353.430; 1746.150;  245.825;    0.000
353.485; 1781.150;  238.825;    0.000
353.540; 1820.150;  238.825;    0.000
353.595; 1820.150;  215.825;    0.000
353.650; 1796.150;  238.825;    0.000
353.705; 1753.150;  274.825;    0.000
353.761; 1723.150;  229.825;    0.000
353.816; 1858.150;  275.825;    0.000
353.871; 1722.150;  245.825;    0.000
353.926; 1742.150;  253.825;    0.000
353.981; 1757.150;  269.825;    0.000
354.036; 1790.150;  246.825;    0.000
354.091; 1763.150;  257.825;    0.000
354.146; 1891.150;  278.825;    0.000
354.201; 1879.150;  276.825;    0.000
354.256; 1819.150;  224.825;    0.000
354.311; 1889.150;  287.825;    0.000
354.367; 1794.150;  210.825;    0.000
354.422; 1792.150;  231.825;    0.000
354.477; 1768.150;  226.825;    0.000
354.532; 1816.150;  262.825;    0.000
354.587; 1817.150;  275.825;    0.000
354.642; 1829.150;  247.825;    0.000
354.697; 1782.150;  251.825;    0.000
354.751; 1852.150;  249.825;    0.000
354.806; 1826.150;  217.825;    0.000
354.861; 1797.150;  247.825;    0.000
354.916; 1909.150;  259.825;    0.000
354.971; 1731.150;  241.825;    0.000
355.026; 1838.150;  250.825;    0.000
355.081; 1867.150;  244.825;    0.000
355.136; 1777.150;  203.825;    0.000
355.191; 1727.150;  241.825;    0.000
355.246; 1736.150;  248.825;    0.000
355.301; 1841.150;  259.825;    0.000
355.355; 1754.150;  236.825;    0.000
355.410; 1849.150;  221.825;    0.000
355.465; 1780.150;  206.825;    0.000
355.520; 1862.150;  258.825;    0.000
355.575; 1829.150;  273.825;    0.000
355.630; 1835.150;  252.825;    0.000
355.684; 1773.150;  246.825;    0.000
355.739; 1778.150;  251.825;    0.000
355.794; 1781.150;  247.825;    0.000
355.849; 1797.150;  246.825;    0.000
355.904; 1754.150;  262.825;    0.000
355.958; 1761.150;  249.825;    0.000
356.013; 1791.150;  213.825;    0.000
356.068; 1799.150;  255.825;    0.000
356.123; 1761.150;  205.825;    0.000
356.177; 1841.150;  239.825;    0.000
356.232; 1819.150;  258.825;    0.000
356.287; 1750.150;  248.825;    0.000
356.341; 1906.150;  221.825;    0.000
356.396; 1733.150;  220.825;    0.000
356.451; 1819.150;  231.825;    0.000
356.505; 1756.150;  231.825;    0.000
356.560; 1885.150;  254.825;    0.000
356.615; 1793.150;  234.825;    0.000
356.669; 1761.150;  250.825;    0.000
356.724; 1856.150;  261.825;    0.000
356.778; 1756.150;  207.825;    0.000
356.833; 1839.150;  205.825;    0.000
356.888; 1787.150;  235.825;    0.000
356.942; 1791.150;  205.825;    0.000
356.997; 1834.150;  276.825;    0.000
357.051; 1792.150;  243.825;    0.000
357.106; 1820.150;  242.825;    0.000
357.160; 1764.150;  241.825;    0.000
357.215; 1670.150;  212.825;    0.000
357.269; 1789.150;  238.825;    0.000
357.324; 1880.150;  223.825;    0.000
357.378; 1790.150;  221.825;    0.000
357.433; 1772.150;  262.825;    0.000
357.487; 1819.150;  246.825;    0.000
357.542; 1763.150;  221.825;    0.000
357.596; 1786.150;  225.825;    0.000
357.651; 1857.150;  244.825;    0.000
357.705; 1838.150;  269.825;    0.000
357.760; 1760.150;  209.825;    0.000
357.814; 1738.150;  250.825;    0.000
357.868; 1813.150;  266.825;    0.000
357.923; 1793.150;  248.825;    0.000
357.977; 1737.150;  262.825;    0.000
358.032; 1702.150;  228.825;    0.000
358.086; 1803.150;  257.825;    0.000
358.140; 1715.150;  217.825;    0.000
358.195; 1805.150;  246.825;    0.000
358.249; 1827.150;  255.825;    0.000
358.303; 1851.150;  252.825;    0.000
358.358; 1762.150;  278.825;    0.000
358.412; 1766.150;  276.825;    0.000
358.466; 1821.150;  275.825;    0.000
358.521; 1732.150;  229.825;    0.000
358.575; 1828.150;  270.825;    0.000
358.629; 1713.150;  239.825;    0.000
358.683; 1743.150;  254.825;    0.000
358.738; 1809.150;  239.825;    0.000
358.792; 1762.150;  272.825;    0.000
358.846; 1822.150;  289.825;    0.000
358.900; 1749.150;  299.825;    0.000
358.954; 1674.150;  247.825;    0.000
359.009; 1755.150;  245.825;    0.000
359.063; 1679.150;  272.825;    0.000
359.117; 1837.150;  242.825;    0.000
359.171; 1743.150;  279.825;    0.000
359.225; 1731.150;  221.825;    0.000
359.280; 1778.150;  238.825;    0.000
359.334; 1766.150;  264.825;    0.000
359.388; 1811.150;  273.825;    0.000
359.442; 1720.150;  233.825;    0.000
359.496; 1684.150;  226.825;    0.000
359.550; 1843.150;  271.825;    0.000
359.604; 1797.150;  296.825;    0.000
359.658; 1750.150;  252.825;    0.000
359.712; 1778.150;  256.825;    0.000
359.766; 1734.150;  257.825;    0.000
359.820; 1732.150;  239.825;    0.000
359.875; 1707.150;  252.825;    0.000
359.929; 1669.150;  258.825;    0.000
359.983; 1687.150;  232.825;    0.000
360.037; 1737.150;  268.825;    0.000
360.091; 1776.150;  303.825;    0.000
360.145; 1712.150;  232.825;    0.000
360.199; 1785.150;  255.825;    0.000
360.253; 1746.150;  252.825;    0.000
360.306; 1743.150;  278.825;    0.000
360.360; 1720.150;  249.825;    0.000
360.414; 1788.150;  274.825;    0.000
360.468; 1799.150;  247.825;    0.000
360.522; 1681.150;  268.825;    0.000
360.576; 1728.150;  263.825;    0.000
360.630; 1834.150;  296.825;    0.000
360.684; 1782.150;  253.825;    0.000
360.738; 1764.150;  301.825;    0.000
360.792; 1741.150;  282.825;    0.000
360.846; 1778.150;  277.825;    0.000
360.899; 1741.150;  292.825;    0.000
360.953; 1747.150;  266.825;    0.000
361.007; 1730.150;  240.825;    0.000
361.061; 1793.150;  247.825;    0.000
361.115; 1739.150;  276.825;    0.000
361.168; 1815.150;  288.825;    0.000
361.222; 1758.150;  271.825;    0.000
361.276; 1797.150;  270.825;    0.000
361.330; 1719.150;  295.825;    0.000
361.384; 1744.150;  276.825;    0.000
361.437; 1750.150;  280.825;    0.000
361.491; 1743.150;  261.825;    0.000
361.545; 1801.150;  273.825;    0.000
361.599; 1742.150;  269.825;    0.000
361.652; 1716.150;  258.825;    0.000
361.706; 1793.150;  270.825;    0.000
361.760; 1700.150;  294.825;    0.000
361.813; 1729.150;  244.825;    0.000
361.867; 1779.150;  294.825;    0.000
361.921; 1692.150;  285.825;    0.000
361.974; 1767.150;  269.825;    0.000
362.028; 1812.150;  275.825;    0.000
362.082; 1749.150;  270.825;    0.000
362.135; 1826.150;  259.825;    0.000
362.189; 1724.150;  302.825;    0.000
362.242; 1796.150;  296.825;    0.000
362.296; 1772.150;  285.825;    0.000
362.350; 1809.150;  303.825;    0.000
362.403; 1751.150;  271.825;    0.000
362.457; 1726.150;  285.825;    0.000
362.510; 1744.150;  288.825;    0.000
362.564; 1718.150;  268.825;    0.000
362.617; 1763.150;  285.825;    0.000
362.671; 1732.150;  277.825;    0.000
362.724; 1673.150;  242.825;    0.000
362.778; 1736.150;  274.825;    0.000
362.831; 1727.150;  280.825;    0.000
362.885; 1736.150;  284.825;    0.000
362.938; 1670.150;  276.825;    0.000
362.992;  317.150;  289.825;    0.000
363.045;  290.150;  247.825;    0.000
363.099;  260.150;  260.825;    0.000
363.152;  270.150;  258.825;    0.000
363.205;  279.150;  286.825;    0.000
363.259;  241.150;  236.825;    0.000
363.312;  281.150;  297.825;    0.000
363.366;  316.150;  266.825;    0.000
363.419;  285.150;  309.825;    0.000
363.472;  278.150;  293.825;    0.000
363.526;  321.150;  270.825;    0.000
363.579;  279.150;  276.825;    0.000
363.632;  242.150;  279.825;    0.000
363.686;  297.150;  292.825;    0.000
363.739;  301.150;  248.825;    0.000
363.792;  309.150;  287.825;    0.000

