
Integration time [ms]:   1.000
Averaging Nr. [scans]: 1
Smoothing Nr. [pixels]: 0
Data measured with spectrometer [name]: VIS
Wave   ;Sample   ;Dark     ;Reference
[nm]   ;[counts] ;[counts] ;[counts] 

450.961;  171.850;  200.375;    0.000
451.100;  215.850;  241.375;    0.000
451.239;  209.850;  201.375;    0.000
451.377;  227.850;  262.375;    0.000
451.516;  211.850;  229.375;    0.000
451.655;  227.850;  211.375;    0.000
451.794;  211.850;  225.375;    0.000
451.932;  248.850;  247.375;    0.000
452.071;  215.850;  260.375;    0.000
452.210;  221.850;  235.375;    0.000
452.348;  227.850;  276.375;    0.000
452.487;  217.850;  259.375;    0.000
452.626;  193.850;  254.375;    0.000
452.764;  199.850;  233.375;    0.000
452.903;  190.850;  202.375;    0.000
453.042;  231.850;  211.375;    0.000
453.180; 1432.850;  240.375;    0.000
453.319; 1518.850;  238.375;    0.000
453.458; 1453.850;  215.375;    0.000
453.596; 1534.850;  252.375;    0.000
453.735; 1565.850;  240.375;    0.000
453.873; 1481.850;  257.375;    0.000
454.012; 1550.850;  228.375;    0.000
454.150; 1466.850;  270.375;    0.000
454.289; 1592.850;  233.375;    0.000
454.427; 1506.850;  243.375;    0.000
454.566; 1530.850;  257.375;    0.000
454.704; 1532.850;  243.375;    0.000
454.843; 1566.850;  190.375;    0.000
454.981; 1593.850;  271.375;    0.000
455.120; 1570.850;  210.375;    0.000
455.258; 1664.850;  235.375;    0.000
455.397; 1617.850;  214.375;    0.000
455.535; 1596.850;  214.375;    0.000
455.674; 1582.850;  184.375;    0.000
455.812; 1610.850;  228.375;    0.000
455.951; 1697.850;  204.375;    0.000
456.089; 1720.850;  220.375;    0.000
456.227; 1617.850;  196.375;    0.000
456.366; 1706.850;  261.375;    0.000
456.504; 1804.850;  249.375;    0.000
456.642; 1804.850;  245.375;    0.000
456.781; 1781.850;  183.375;    0.000
456.919; 1846.850;  203.375;    0.000
457.057; 1758.850;  177.375;    0.000
457.196; 1837.850;  191.375;    0.000
457.334; 1823.850;  233.375;    0.000
457.472; 1858.850;  214.375;    0.000
457.610; 1878.850;  230.375;    0.000
457.749; 1910.850;  247.375;    0.000
457.887; 1878.850;  220.375;    0.000
458.025; 1953.850;  195.375;    0.000
458.163; 1940.850;  224.375;    0.000
458.301; 2024.850;  228.375;    0.000
458.440; 1974.850;  200.375;    0.000
458.578; 2056.850;  233.375;    0.000
458.716; 1980.850;  182.375;    0.000
458.854; 2065.850;  251.375;    0.000
458.992; 2075.850;  187.375;    0.000
459.130; 2148.850;  229.375;    0.000
459.269; 2105.850;  237.375;    0.000
459.407; 2117.850;  228.375;    0.000
459.545; 2170.850;  216.375;    0.000
459.683; 2167.850;  204.375;    0.000
459.821; 2201.850;  191.375;    0.000
459.959; 2188.850;  227.375;    0.000
460.097; 2228.850;  221.375;    0.000
460.235; 2294.850;  241.375;    0.000
460.373; 2183.850;  231.375;    0.000
460.511; 2266.850;  214.375;    0.000
460.649; 2217.850;  172.375;    0.000
460.787; 2335.850;  275.375;    0.000
460.925; 2294.850;  175.375;    0.000
461.063; 2345.850;  252.375;    0.000
461.201; 2268.850;  210.375;    0.000
461.339; 2336.850;  237.375;    0.000
461.477; 2393.850;  210.375;    0.000
461.615; 2326.850;  236.375;    0.000
461.753; 2390.850;  215.375;    0.000
461.891; 2413.850;  222.375;    0.000
462.029; 2533.850;  227.375;    0.000
462.166; 2494.850;  202.375;    0.000
462.304; 2486.850;  191.375;    0.000
462.442; 2496.850;  210.375;    0.000
462.580; 2552.850;  184.375;    0.000
462.718; 2480.850;  220.375;    0.000
462.856; 2570.850;  226.375;    0.000
462.993; 2508.850;  254.375;    0.000
463.131; 2517.850;  200.375;    0.000
463.269; 2481.850;  215.375;    0.000
463.407; 2437.850;  213.375;    0.000
463.545; 2388.850;  242.375;    0.000
463.682; 2489.850;  212.375;    0.000
463.820; 2598.850;  185.375;    0.000
463.958; 2602.850;  212.375;    0.000
464.095; 2698.850;  181.375;    0.000
464.233; 2685.850;  192.375;    0.000
464.371; 2676.850;  247.375;    0.000
464.509; 2654.850;  151.375;    0.000
464.646; 2716.850;  207.375;    0.000
464.784; 2652.850;  199.375;    0.000
464.921; 2570.850;  253.375;    0.000
465.059; 2653.850;  214.375;    0.000
465.197; 2574.850;  200.375;    0.000
465.334; 2525.850;  180.375;    0.000
465.472; 2475.850;  204.375;    0.000
465.609; 2572.850;  203.375;    0.000
465.747; 2544.850;  214.375;    0.000
465.885; 2516.850;  233.375;    0.000
466.022; 2522.850;  215.375;    0.000
466.160; 2555.850;  201.375;    0.000
466.297; 2421.850;  196.375;    0.000
466.435; 2459.850;  230.375;    0.000
466.572; 2467.850;  227.375;    0.000
466.710; 2470.850;  218.375;    0.000
466.847; 2453.850;  245.375;    0.000
466.985; 2472.850;  223.375;    0.000
467.122; 2445.850;  168.375;    0.000
467.260; 2465.850;  196.375;    0.000
467.397; 2424.850;  198.375;    0.000
467.534; 2494.850;  219.375;    0.000
467.672; 2427.850;  214.375;    0.000
467.809; 2398.850;  185.375;    0.000
467.947; 2502.850;  247.375;    0.000
468.084; 2499.850;  196.375;    0.000
468.221; 2520.850;  238.375;    0.000
468.359; 2497.850;  236.375;    0.000
468.496; 2432.850;  235.375;    0.000
468.633; 2488.850;  218.375;    0.000
468.771; 2475.850;  223.375;    0.000
468.908; 2477.850;  208.375;    0.000
469.045; 2536.850;  249.375;    0.000
469.183; 2461.850;  222.375;    0.000
469.320; 2575.850;  216.375;    0.000
469.457; 2563.850;  224.375;    0.000
469.594; 2514.850;  259.375;    0.000
469.732; 2577.850;  223.375;    0.000
469.869; 2592.850;  234.375;    0.000
470.006; 2533.850;  225.375;    0.000
470.143; 2669.850;  243.375;    0.000
470.280; 2610.850;  208.375;    0.000
470.417; 2702.850;  232.375;    0.000
470.555; 2705.850;  218.375;    0.000
470.692; 2580.850;  223.375;    0.000
470.829; 2664.850;  238.375;    0.000
470.966; 2658.850;  205.375;    0.000
471.103; 2610.850;  259.375;    0.000
471.240; 2676.850;  214.375;    0.000
471.377; 2581.850;  226.375;    0.000
471.514; 2641.850;  250.375;    0.000
471.651; 2622.850;  221.375;    0.000
471.789; 2560.850;  242.375;    0.000
471.926; 2603.850;  190.375;    0.000
472.063; 2610.850;  234.375;    0.000
472.200; 2568.850;  252.375;    0.000
472.337; 2596.850;  241.375;    0.000
472.474; 2653.850;  244.375;    0.000
472.611; 2597.850;  268.375;    0.000
472.748; 2488.850;  222.375;    0.000
472.884; 2597.850;  271.375;    0.000
473.021; 2549.850;  195.375;    0.000
473.158; 2506.850;  205.375;    0.000
473.295; 2548.850;  223.375;    0.000
473.432; 2609.850;  216.375;    0.000
473.569; 2574.850;  196.375;    0.000
473.706; 2552.850;  190.375;    0.000
473.843; 2508.850;  211.375;    0.000
473.980; 2533.850;  254.375;    0.000
474.117; 2572.850;  185.375;    0.000
474.253; 2626.850;  229.375;    0.000
474.390; 2525.850;  238.375;    0.000
474.527; 2541.850;  220.375;    0.000
474.664; 2624.850;  242.375;    0.000
474.801; 2659.850;  229.375;    0.000
474.937; 2660.850;  229.375;    0.000
475.074; 2526.850;  210.375;    0.000
475.211; 2546.850;  219.375;    0.000
475.348; 2605.850;  226.375;    0.000
475.484; 2577.850;  207.375;    0.000
475.621; 2651.850;  233.375;    0.000
475.758; 2606.850;  230.375;    0.000
475.894; 2634.850;  234.375;    0.000
476.031; 2678.850;  202.375;    0.000
476.168; 2624.850;  222.375;    0.000
476.304; 2643.850;  237.375;    0.000
476.441; 2702.850;  238.375;    0.000
476.578; 2678.850;  216.375;    0.000
476.714; 2658.850;  212.375;    0.000
476.851; 2619.850;  210.375;    0.000
476.987; 2733.850;  239.375;    0.000
477.124; 2750.850;  250.375;    0.000
477.261; 2772.850;  227.375;    0.000
477.397; 2738.850;  189.375;    0.000
477.534; 2675.850;  204.375;    0.000
477.670; 2772.850;  190.375;    0.000
477.807; 2748.850;  198.375;    0.000
477.943; 2707.850;  216.375;    0.000
478.080; 2680.850;  213.375;    0.000
478.216; 2847.850;  239.375;    0.000
478.353; 2799.850;  218.375;    0.000
478.489; 2885.850;  184.375;    0.000
478.626; 2779.850;  223.375;    0.000
478.762; 2821.850;  213.375;    0.000
478.898; 2877.850;  216.375;    0.000
479.035; 2867.850;  250.375;    0.000
479.171; 2756.850;  201.375;    0.000
479.308; 2875.850;  242.375;    0.000
479.444; 2822.850;  205.375;    0.000
479.580; 2800.850;  203.375;    0.000
479.717; 2915.850;  260.375;    0.000
479.853; 2859.850;  225.375;    0.000
479.989; 2869.850;  226.375;    0.000
480.126; 2878.850;  211.375;    0.000
480.262; 2893.850;  220.375;    0.000
480.398; 2865.850;  207.375;    0.000
480.535; 2975.850;  179.375;    0.000
480.671; 2818.850;  200.375;    0.000
480.807; 2856.850;  190.375;    0.000
480.943; 2858.850;  165.375;    0.000
481.080; 2862.850;  210.375;    0.000
481.216; 2849.850;  232.375;    0.000
481.352; 2878.850;  235.375;    0.000
481.488; 2935.850;  208.375;    0.000
481.624; 2866.850;  245.375;    0.000
481.760; 2868.850;  210.375;    0.000
481.897; 2718.850;  189.375;    0.000
482.033; 2858.850;  256.375;    0.000
482.169; 2871.850;  257.375;    0.000
482.305; 2952.850;  199.375;    0.000
482.441; 2911.850;  182.375;    0.000
482.577; 2878.850;  223.375;    0.000
482.713; 2970.850;  243.375;    0.000
482.849; 2887.850;  197.375;    0.000
482.985; 2823.850;  240.375;    0.000
483.121; 2935.850;  210.375;    0.000
483.258; 2900.850;  248.375;    0.000
483.394; 2958.850;  224.375;    0.000
483.530; 2911.850;  209.375;    0.000
483.665; 2861.850;  225.375;    0.000
483.801; 2923.850;  216.375;    0.000
483.937; 2899.850;  211.375;    0.000
484.073; 2890.850;  259.375;    0.000
484.209; 2843.850;  191.375;    0.000
484.345; 2934.850;  239.375;    0.000
484.481; 2915.850;  231.375;    0.000
484.617; 2973.850;  216.375;    0.000
484.753; 2912.850;  180.375;    0.000
484.889; 3035.850;  252.375;    0.000
485.025; 2978.850;  244.375;    0.000
485.161; 2993.850;  242.375;    0.000
485.296; 2920.850;  235.375;    0.000
485.432; 3023.850;  247.375;    0.000
485.568; 2907.850;  203.375;    0.000
485.704; 2948.850;  229.375;    0.000
485.840; 2990.850;  230.375;    0.000
485.975; 2939.850;  266.375;    0.000
486.111; 2895.850;  220.375;    0.000
486.247; 3001.850;  264.375;    0.000
486.383; 2907.850;  213.375;    0.000
486.518; 2946.850;  222.375;    0.000
486.654; 3003.850;  244.375;    0.000
486.790; 2999.850;  273.375;    0.000
486.926; 2978.850;  203.375;    0.000
487.061; 2989.850;  227.375;    0.000
487.197; 3034.850;  210.375;    0.000
487.333; 2971.850;  209.375;    0.000
487.468; 3035.850;  197.375;    0.000
487.604; 2956.850;  230.375;    0.000
487.740; 2948.850;  254.375;    0.000
487.875; 3018.850;  286.375;    0.000
488.011; 2941.850;  225.375;    0.000
488.146; 2895.850;  251.375;    0.000
488.282; 3025.850;  242.375;    0.000
488.417; 2967.850;  230.375;    0.000
488.553; 2980.850;  260.375;    0.000
488.688; 2942.850;  207.375;    0.000
488.824; 2959.850;  204.375;    0.000
488.960; 2946.850;  248.375;    0.000
489.095; 2917.850;  204.375;    0.000
489.230; 2961.850;  227.375;    0.000
489.366; 2958.850;  226.375;    0.000
489.501; 2951.850;  199.375;    0.000
489.637; 2896.850;  233.375;    0.000
489.772; 3030.850;  249.375;    0.000
489.908; 2930.850;  200.375;    0.000
490.043; 2916.850;  246.375;    0.000
490.178; 2979.850;  222.375;    0.000
490.314; 2983.850;  219.375;    0.000
490.449; 2952.850;  227.375;    0.000
490.585; 2840.850;  209.375;    0.000
490.720; 2969.850;  238.375;    0.000
490.855; 2991.850;  222.375;    0.000
490.991; 2923.850;  202.375;    0.000
491.126; 3017.850;  272.375;    0.000
491.261; 3037.850;  261.375;    0.000
491.396; 2824.850;  190.375;    0.000
491.532; 2909.850;  202.375;    0.000
491.667; 2977.850;  208.375;    0.000
491.802; 2910.850;  203.375;    0.000
491.937; 3020.850;  253.375;    0.000
492.073; 3001.850;  242.375;    0.000
492.208; 2972.850;  230.375;    0.000
492.343; 2922.850;  183.375;    0.000
492.478; 3100.850;  246.375;    0.000
492.613; 3031.850;  223.375;    0.000
492.749; 2970.850;  230.375;    0.000
492.884; 2999.850;  190.375;    0.000
493.019; 3098.850;  234.375;    0.000
493.154; 3023.850;  218.375;    0.000
493.289; 3015.850;  222.375;    0.000
493.424; 3022.850;  196.375;    0.000
493.559; 2981.850;  202.375;    0.000
493.694; 3032.850;  180.375;    0.000
493.829; 2961.850;  224.375;    0.000
493.964; 3033.850;  218.375;    0.000
494.099; 3050.850;  275.375;    0.000
494.234; 3004.850;  226.375;    0.000
494.369; 2969.850;  225.375;    0.000
494.504; 2990.850;  219.375;    0.000
494.639; 2918.850;  296.375;    0.000
494.774; 2972.850;  228.375;    0.000
494.909; 2959.850;  222.375;    0.000
495.044; 2966.850;  215.375;    0.000
495.179; 2984.850;  200.375;    0.000
495.314; 2996.850;  235.375;    0.000
495.449; 2911.850;  249.375;    0.000
495.584; 2949.850;  228.375;    0.000
495.719; 2958.850;  212.375;    0.000
495.854; 2977.850;  201.375;    0.000
495.988; 3139.850;  248.375;    0.000
496.123; 2939.850;  209.375;    0.000
496.258; 3002.850;  249.375;    0.000
496.393; 3026.850;  223.375;    0.000
496.528; 3092.850;  209.375;    0.000
496.663; 3017.850;  207.375;    0.000
496.797; 3041.850;  229.375;    0.000
496.932; 3074.850;  225.375;    0.000
497.067; 3136.850;  218.375;    0.000
497.202; 3127.850;  163.375;    0.000
497.336; 3134.850;  246.375;    0.000
497.471; 3102.850;  229.375;    0.000
497.606; 3184.850;  251.375;    0.000
497.740; 3207.850;  220.375;    0.000
497.875; 3327.850;  216.375;    0.000
498.010; 3322.850;  226.375;    0.000
498.144; 3274.850;  237.375;    0.000
498.279; 3337.850;  196.375;    0.000
498.414; 3395.850;  219.375;    0.000
498.548; 3399.850;  205.375;    0.000
498.683; 3464.850;  206.375;    0.000
498.817; 3468.850;  225.375;    0.000
498.952; 3484.850;  221.375;    0.000
499.087; 3619.850;  220.375;    0.000
499.221; 3669.850;  233.375;    0.000
499.356; 3703.850;  230.375;    0.000
499.490; 3849.850;  229.375;    0.000
499.625; 3869.850;  231.375;    0.000
499.759; 3949.850;  243.375;    0.000
499.894; 4060.850;  241.375;    0.000
500.028; 4155.850;  264.375;    0.000
500.162; 4272.850;  287.375;    0.000
500.297; 4282.850;  234.375;    0.000
500.431; 4160.850;  230.375;    0.000
500.566; 4285.850;  213.375;    0.000
500.700; 4187.850;  243.375;    0.000
500.835; 4227.850;  272.375;    0.000
500.969; 4064.850;  188.375;    0.000
501.103; 3959.850;  200.375;    0.000
501.238; 3944.850;  257.375;    0.000
501.372; 3899.850;  224.375;    0.000
501.506; 3823.850;  225.375;    0.000
501.641; 3647.850;  271.375;    0.000
501.775; 3637.850;  199.375;    0.000
501.909; 3601.850;  249.375;    0.000
502.043; 3497.850;  211.375;    0.000
502.178; 3435.850;  269.375;    0.000
502.312; 3401.850;  198.375;    0.000
502.446; 3424.850;  256.375;    0.000
502.580; 3222.850;  195.375;    0.000
502.715; 3216.850;  224.375;    0.000
502.849; 3291.850;  245.375;    0.000
502.983; 3188.850;  250.375;    0.000
503.117; 3099.850;  193.375;    0.000
503.251; 3168.850;  242.375;    0.000
503.385; 3129.850;  227.375;    0.000
503.520; 3019.850;  235.375;    0.000
503.654; 2875.850;  220.375;    0.000
503.788; 2969.850;  267.375;    0.000
503.922; 2999.850;  220.375;    0.000
504.056; 2974.850;  238.375;    0.000
504.190; 2985.850;  212.375;    0.000
504.324; 2993.850;  265.375;    0.000
504.458; 2946.850;  228.375;    0.000
504.592; 2897.850;  231.375;    0.000
504.726; 2916.850;  218.375;    0.000
504.860; 2844.850;  253.375;    0.000
504.994; 2752.850;  217.375;    0.000
505.128; 2712.850;  243.375;    0.000
505.262; 2806.850;  194.375;    0.000
505.396; 2691.850;  210.375;    0.000
505.530; 2683.850;  211.375;    0.000
505.664; 2675.850;  219.375;    0.000
505.798; 2665.850;  240.375;    0.000
505.932; 2680.850;  240.375;    0.000
506.066; 2665.850;  252.375;    0.000
506.199; 2705.850;  242.375;    0.000
506.333; 2571.850;  244.375;    0.000
506.467; 2686.850;  223.375;    0.000
506.601; 2525.850;  183.375;    0.000
506.735; 2534.850;  249.375;    0.000
506.869; 2514.850;  270.375;    0.000
507.002; 2507.850;  207.375;    0.000
507.136; 2514.850;  242.375;    0.000
507.270; 2516.850;  232.375;    0.000
507.404; 2486.850;  195.375;    0.000
507.537; 2430.850;  218.375;    0.000
507.671; 2511.850;  246.375;    0.000
507.805; 2448.850;  244.375;    0.000
507.939; 2419.850;  251.375;    0.000
508.072; 2382.850;  212.375;    0.000
508.206; 2324.850;  198.375;    0.000
508.340; 2429.850;  234.375;    0.000
508.473; 2361.850;  217.375;    0.000
508.607; 2443.850;  224.375;    0.000
508.740; 2376.850;  207.375;    0.000
508.874; 2481.850;  230.375;    0.000
509.008; 2416.850;  246.375;    0.000
509.141; 2378.850;  239.375;    0.000
509.275; 2409.850;  229.375;    0.000
509.408; 2441.850;  234.375;    0.000
509.542; 2342.850;  212.375;    0.000
509.675; 2407.850;  256.375;    0.000
509.809; 2394.850;  232.375;    0.000
509.942; 2272.850;  237.375;    0.000
510.076; 2322.850;  226.375;    0.000
510.209; 2296.850;  251.375;    0.000
510.343; 2251.850;  229.375;    0.000
510.476; 2390.850;  285.375;    0.000
510.610; 2217.850;  211.375;    0.000
510.743; 2340.850;  258.375;    0.000
510.877; 2263.850;  244.375;    0.000
511.010; 2307.850;  235.375;    0.000
511.143; 2258.850;  251.375;    0.000
511.277; 2216.850;  228.375;    0.000
511.410; 2277.850;  216.375;    0.000
511.543; 2297.850;  231.375;    0.000
511.677; 2311.850;  244.375;    0.000
511.810; 2306.850;  186.375;    0.000
511.943; 2301.850;  211.375;    0.000
512.077; 2228.850;  201.375;    0.000
512.210; 2234.850;  194.375;    0.000
512.343; 2271.850;  233.375;    0.000
512.476; 2302.850;  234.375;    0.000
512.610; 2244.850;  224.375;    0.000
512.743; 2249.850;  255.375;    0.000
512.876; 2316.850;  264.375;    0.000
513.009; 2359.850;  283.375;    0.000
513.142; 2252.850;  246.375;    0.000
513.276; 2101.850;  217.375;    0.000
513.409; 2290.850;  222.375;    0.000
513.542; 2227.850;  237.375;    0.000
513.675; 2253.850;  238.375;    0.000
513.808; 2247.850;  220.375;    0.000
513.941; 2208.850;  233.375;    0.000
514.074; 2284.850;  248.375;    0.000
514.207; 2237.850;  233.375;    0.000
514.340; 2208.850;  190.375;    0.000
514.474; 2257.850;  221.375;    0.000
514.607; 2217.850;  213.375;    0.000
514.740; 2337.850;  251.375;    0.000
514.873; 2350.850;  257.375;    0.000
515.006; 2353.850;  268.375;    0.000
515.139; 2250.850;  257.375;    0.000
515.272; 2248.850;  227.375;    0.000
515.404; 2292.850;  238.375;    0.000
515.537; 2328.850;  275.375;    0.000
515.670; 2308.850;  239.375;    0.000
515.803; 2332.850;  223.375;    0.000
515.936; 2317.850;  202.375;    0.000
516.069; 2311.850;  188.375;    0.000
516.202; 2415.850;  240.375;    0.000
516.335; 2471.850;  252.375;    0.000
516.468; 2445.850;  254.375;    0.000
516.600; 2982.850;  254.375;    0.000
516.733; 3883.850;  255.375;    0.000
516.866; 3609.850;  265.375;    0.000
516.999; 3315.850;  251.375;    0.000
517.132; 4176.850;  256.375;    0.000
517.264; 5862.850;  202.375;    0.000
517.397; 5587.850;  248.375;    0.000
517.530; 4034.850;  221.375;    0.000
517.663; 3387.850;  244.375;    0.000
517.795; 3153.850;  245.375;    0.000
517.928; 3010.850;  236.375;    0.000
518.061; 3001.850;  219.375;    0.000
518.193; 4188.850;  251.375;    0.000
518.326; 6807.850;  271.375;    0.000
518.459; 7124.850;  207.375;    0.000
518.591; 5066.850;  217.375;    0.000
518.724; 3722.850;  200.375;    0.000
518.857; 3271.850;  204.375;    0.000
518.989; 3029.850;  242.375;    0.000
519.122; 2909.850;  254.375;    0.000
519.254; 2672.850;  239.375;    0.000
519.387; 2708.850;  235.375;    0.000
519.519; 2507.850;  227.375;    0.000
519.652; 2530.850;  178.375;    0.000
519.784; 2450.850;  226.375;    0.000
519.917; 2387.850;  256.375;    0.000
520.049; 2461.850;  234.375;    0.000
520.182; 2321.850;  258.375;    0.000
520.314; 2350.850;  298.375;    0.000
520.447; 2312.850;  204.375;    0.000
520.579; 2299.850;  235.375;    0.000
520.712; 2164.850;  208.375;    0.000
520.844; 2266.850;  272.375;    0.000
520.976; 2252.850;  234.375;    0.000
521.109; 2219.850;  235.375;    0.000
521.241; 2099.850;  250.375;    0.000
521.373; 2123.850;  233.375;    0.000
521.506; 2184.850;  231.375;    0.000
521.638; 2079.850;  258.375;    0.000
521.770; 2073.850;  226.375;    0.000
521.903; 2193.850;  258.375;    0.000
522.035; 2081.850;  263.375;    0.000
522.167; 2169.850;  214.375;    0.000
522.300; 2095.850;  212.375;    0.000
522.432; 2020.850;  220.375;    0.000
522.564; 2112.850;  228.375;    0.000
522.696; 2076.850;  272.375;    0.000
522.828; 2046.850;  222.375;    0.000
522.961; 1981.850;  205.375;    0.000
523.093; 2069.850;  253.375;    0.000
523.225; 2079.850;  239.375;    0.000
523.357; 2039.850;  263.375;    0.000
523.489; 2028.850;  264.375;    0.000
523.621; 2028.850;  259.375;    0.000
523.753; 1952.850;  233.375;    0.000
523.885; 1945.850;  232.375;    0.000
524.018; 1993.850;  214.375;    0.000
524.150; 1979.850;  235.375;    0.000
524.282; 1965.850;  242.375;    0.000
524.414; 2001.850;  261.375;    0.000
524.546; 1910.850;  233.375;    0.000
524.678; 1932.850;  242.375;    0.000
524.810; 1939.850;  216.375;    0.000
524.942; 1876.850;  220.375;    0.000
525.074; 1830.850;  249.375;    0.000
525.206; 2012.850;  227.375;    0.000
525.338; 1919.850;  250.375;    0.000
525.469; 1927.850;  231.375;    0.000
525.601; 1929.850;  245.375;    0.000
525.733; 1836.850;  187.375;    0.000
525.865; 1927.850;  280.375;    0.000
525.997; 1955.850;  216.375;    0.000
526.129; 1915.850;  228.375;    0.000
526.261; 1840.850;  187.375;    0.000
526.393; 1871.850;  228.375;    0.000
526.524; 1869.850;  201.375;    0.000
526.656; 1937.850;  199.375;    0.000
526.788; 1943.850;  233.375;    0.000
526.920; 1947.850;  256.375;    0.000
527.052; 1705.850;  219.375;    0.000
527.183; 1778.850;  227.375;    0.000
527.315; 1850.850;  266.375;    0.000
527.447; 1887.850;  239.375;    0.000
527.578; 1735.850;  213.375;    0.000
527.710; 1960.850;  216.375;    0.000
527.842; 1840.850;  240.375;    0.000
527.973; 1828.850;  286.375;    0.000
528.105; 1833.850;  222.375;    0.000
528.237; 1773.850;  223.375;    0.000
528.368; 1807.850;  211.375;    0.000
528.500; 1867.850;  215.375;    0.000
528.632; 1785.850;  216.375;    0.000
528.763; 1814.850;  234.375;    0.000
528.895; 1804.850;  196.375;    0.000
529.026; 1801.850;  202.375;    0.000
529.158; 1825.850;  226.375;    0.000
529.289; 1858.850;  229.375;    0.000
529.421; 1876.850;  264.375;    0.000
529.552; 1831.850;  265.375;    0.000
529.684; 1834.850;  260.375;    0.000
529.815; 1780.850;  284.375;    0.000
529.947; 1850.850;  237.375;    0.000
530.078; 1843.850;  223.375;    0.000
530.210; 1803.850;  223.375;    0.000
530.341; 1808.850;  209.375;    0.000
530.472; 1807.850;  203.375;    0.000
530.604; 1796.850;  223.375;    0.000
530.735; 1853.850;  218.375;    0.000
530.867; 1833.850;  222.375;    0.000
530.998; 1835.850;  239.375;    0.000
531.129; 1831.850;  250.375;    0.000
531.260; 1865.850;  224.375;    0.000
531.392; 1744.850;  216.375;    0.000
531.523; 1898.850;  234.375;    0.000
531.654; 1831.850;  256.375;    0.000
531.786; 1821.850;  226.375;    0.000
531.917; 1854.850;  239.375;    0.000
532.048; 1793.850;  205.375;    0.000
532.179; 1900.850;  244.375;    0.000
532.311; 1907.850;  235.375;    0.000
532.442; 1824.850;  258.375;    0.000
532.573; 1838.850;  220.375;    0.000
532.704; 1806.850;  213.375;    0.000
532.835; 1791.850;  249.375;    0.000
532.966; 1787.850;  226.375;    0.000
533.097; 1829.850;  246.375;    0.000
533.229; 1820.850;  237.375;    0.000
533.360; 1766.850;  225.375;    0.000
533.491; 1825.850;  241.375;    0.000
533.622; 1827.850;  242.375;    0.000
533.753; 1840.850;  264.375;    0.000
533.884; 1781.850;  245.375;    0.000
534.015; 1792.850;  269.375;    0.000
534.146; 1746.850;  267.375;    0.000
534.277; 1933.850;  282.375;    0.000
534.408; 1775.850;  229.375;    0.000
534.539; 1832.850;  269.375;    0.000
534.670; 1811.850;  231.375;    0.000
534.801; 1818.850;  260.375;    0.000
534.932; 1768.850;  232.375;    0.000
535.063; 1803.850;  227.375;    0.000
535.194; 1839.850;  281.375;    0.000
535.324; 1747.850;  206.375;    0.000
535.455; 1800.850;  257.375;    0.000
535.586; 1895.850;  275.375;    0.000
535.717; 1761.850;  206.375;    0.000
535.848; 1819.850;  271.375;    0.000
535.979; 1781.850;  250.375;    0.000
536.109; 1797.850;  253.375;    0.000
536.240; 1711.850;  234.375;    0.000
536.371; 1758.850;  230.375;    0.000
536.502; 1861.850;  270.375;    0.000
536.632; 1752.850;  228.375;    0.000
536.763; 1734.850;  249.375;    0.000
536.894; 1849.850;  262.375;    0.000
537.025; 1684.850;  258.375;    0.000
537.155; 1810.850;  278.375;    0.000
537.286; 1721.850;  209.375;    0.000
537.417; 1852.850;  255.375;    0.000
537.547; 1696.850;  208.375;    0.000
537.678; 1743.850;  224.375;    0.000
537.808; 1754.850;  224.375;    0.000
537.939; 1782.850;  257.375;    0.000
538.070; 1743.850;  240.375;    0.000
538.200; 1681.850;  259.375;    0.000
538.331; 1697.850;  235.375;    0.000
538.461; 1726.850;  251.375;    0.000
538.592; 1764.850;  245.375;    0.000
538.722; 1825.850;  239.375;    0.000
538.853; 1732.850;  216.375;    0.000
538.983; 1702.850;  226.375;    0.000
539.114; 1726.850;  240.375;    0.000
539.244; 1793.850;  237.375;    0.000
539.375; 1682.850;  198.375;    0.000
539.505; 1745.850;  263.375;    0.000
539.636; 1734.850;  226.375;    0.000
539.766; 1774.850;  229.375;    0.000
539.896; 1738.850;  219.375;    0.000
540.027; 1762.850;  246.375;    0.000
540.157; 1766.850;  218.375;    0.000
540.287; 1750.850;  216.375;    0.000
540.418; 1748.850;  267.375;    0.000
540.548; 1764.850;  260.375;    0.000
540.678; 1704.850;  242.375;    0.000
540.809; 1764.850;  260.375;    0.000
540.939; 1770.850;  257.375;    0.000
541.069; 1781.850;  226.375;    0.000
541.200; 1761.850;  227.375;    0.000
541.330; 1711.850;  218.375;    0.000
541.460; 1775.850;  223.375;    0.000
541.590; 1746.850;  237.375;    0.000
541.720; 1684.850;  222.375;    0.000
541.851; 1748.850;  250.375;    0.000
541.981; 1721.850;  222.375;    0.000
542.111; 1807.850;  212.375;    0.000
542.241; 1750.850;  205.375;    0.000
542.371; 1741.850;  202.375;    0.000
542.501; 1749.850;  218.375;    0.000
542.631; 1798.850;  222.375;    0.000
542.761; 1805.850;  249.375;    0.000
542.891; 1826.850;  173.375;    0.000
543.021; 1814.850;  218.375;    0.000
543.151; 1742.850;  222.375;    0.000
543.281; 1760.850;  188.375;    0.000
543.411; 1708.850;  239.375;    0.000
543.542; 1744.850;  215.375;    0.000
543.671; 1718.850;  250.375;    0.000
543.801; 1748.850;  212.375;    0.000
543.931; 1787.850;  233.375;    0.000
544.061; 1803.850;  194.375;    0.000
544.191; 1767.850;  218.375;    0.000
544.321; 1788.850;  220.375;    0.000
544.451; 1733.850;  183.375;    0.000
544.581; 1793.850;  221.375;    0.000
544.711; 1889.850;  224.375;    0.000
544.841; 1721.850;  214.375;    0.000
544.970; 1817.850;  227.375;    0.000
545.100; 1820.850;  186.375;    0.000
545.230; 1894.850;  205.375;    0.000
545.360; 1740.850;  211.375;    0.000
545.490; 1694.850;  202.375;    0.000
545.619; 1750.850;  182.375;    0.000
545.749; 1741.850;  174.375;    0.000
545.879; 1790.850;  169.375;    0.000
546.009; 1801.850;  182.375;    0.000
546.138; 1764.850;  200.375;    0.000
546.268; 1712.850;  204.375;    0.000
546.398; 1732.850;  200.375;    0.000
546.527; 1676.850;  179.375;    0.000
546.657; 1702.850;  162.375;    0.000
546.786; 1753.850;  179.375;    0.000
546.916; 1735.850;  221.375;    0.000
547.046; 1813.850;  179.375;    0.000
547.175; 1689.850;  168.375;    0.000
547.305; 1780.850;  200.375;    0.000
547.434; 1740.850;  166.375;    0.000
547.564; 1747.850;  177.375;    0.000
547.693; 1750.850;  152.375;    0.000
547.823; 1794.850;  171.375;    0.000
547.953; 1779.850;  195.375;    0.000
548.082; 1749.850;  214.375;    0.000
548.211; 1751.850;  177.375;    0.000
548.341; 1828.850;  189.375;    0.000
548.470; 1714.850;  194.375;    0.000
548.600; 1755.850;  172.375;    0.000
548.729; 1742.850;  158.375;    0.000
548.859; 1673.850;  193.375;    0.000
548.988; 1795.850;  131.375;    0.000
549.117; 1720.850;  204.375;    0.000
549.247; 1747.850;  191.375;    0.000
549.376; 1746.850;  202.375;    0.000
549.505; 1720.850;  187.375;    0.000
549.635; 1823.850;  198.375;    0.000
549.764; 1781.850;  155.375;    0.000
549.893; 1777.850;  176.375;    0.000
550.023; 1778.850;  202.375;    0.000
550.152; 1797.850;  168.375;    0.000
550.281; 1823.850;  180.375;    0.000
550.410; 1768.850;  180.375;    0.000
550.539; 1816.850;  181.375;    0.000
550.669; 1776.850;  168.375;    0.000
550.798; 1810.850;  223.375;    0.000
550.927; 1777.850;  179.375;    0.000
551.056; 1699.850;  159.375;    0.000
551.185; 1789.850;  199.375;    0.000
551.314; 1773.850;  185.375;    0.000
551.443; 1726.850;  172.375;    0.000
551.573; 1804.850;  158.375;    0.000
551.702; 1781.850;  210.375;    0.000
551.831; 1894.850;  238.375;    0.000
551.960; 1816.850;  191.375;    0.000
552.089; 1844.850;  195.375;    0.000
552.218; 1835.850;  196.375;    0.000
552.347; 1842.850;  194.375;    0.000
552.476; 1814.850;  192.375;    0.000
552.605; 1861.850;  172.375;    0.000
552.734; 1907.850;  214.375;    0.000
552.863; 2043.850;  177.375;    0.000
552.992; 2006.850;  190.375;    0.000
553.121; 1932.850;  185.375;    0.000
553.249; 1848.850;  175.375;    0.000
553.378; 1867.850;  192.375;    0.000
553.507; 1809.850;  193.375;    0.000
553.636; 1812.850;  182.375;    0.000
553.765; 1879.850;  187.375;    0.000
553.894; 1849.850;  214.375;    0.000
554.023; 1805.850;  217.375;    0.000
554.151; 1818.850;  223.375;    0.000
554.280; 1787.850;  170.375;    0.000
554.409; 1767.850;  172.375;    0.000
554.538; 1894.850;  182.375;    0.000
554.666; 1822.850;  195.375;    0.000
554.795; 1814.850;  176.375;    0.000
554.924; 1823.850;  164.375;    0.000
555.052; 1831.850;  171.375;    0.000
555.181; 1820.850;  208.375;    0.000
555.310; 1804.850;  214.375;    0.000
555.439; 1820.850;  193.375;    0.000
555.567; 1763.850;  189.375;    0.000
555.696; 1803.850;  196.375;    0.000
555.824; 1769.850;  183.375;    0.000
555.953; 1817.850;  234.375;    0.000
556.082; 1733.850;  183.375;    0.000
556.210; 1795.850;  199.375;    0.000
556.339; 1739.850;  201.375;    0.000
556.467; 1774.850;  208.375;    0.000
556.596; 1794.850;  194.375;    0.000
556.724; 1734.850;  170.375;    0.000
556.853; 1719.850;  166.375;    0.000
556.981; 1739.850;  185.375;    0.000
557.110; 1728.850;  213.375;    0.000
557.238; 1744.850;  188.375;    0.000
557.367; 1786.850;  176.375;    0.000
557.495; 1687.850;  180.375;    0.000
557.623; 1759.850;  193.375;    0.000
557.752; 1707.850;  207.375;    0.000
557.880; 1779.850;  189.375;    0.000
558.008; 1756.850;  169.375;    0.000
558.137; 1729.850;  203.375;    0.000
558.265; 1769.850;  167.375;    0.000
558.393; 1749.850;  204.375;    0.000
558.522; 1661.850;  203.375;    0.000
558.650; 1791.850;  215.375;    0.000
558.778; 1716.850;  190.375;    0.000
558.906; 1728.850;  186.375;    0.000
559.035; 1724.850;  193.375;    0.000
559.163; 1672.850;  198.375;    0.000
559.291; 1721.850;  222.375;    0.000
559.419; 1771.850;  192.375;    0.000
559.548; 1723.850;  186.375;    0.000
559.676; 1731.850;  199.375;    0.000
559.804; 1807.850;  186.375;    0.000
559.932; 1772.850;  202.375;    0.000
560.060; 1765.850;  183.375;    0.000
560.188; 1763.850;  212.375;    0.000
560.316; 1773.850;  192.375;    0.000
560.444; 1733.850;  180.375;    0.000
560.572; 1795.850;  206.375;    0.000
560.700; 1886.850;  184.375;    0.000
560.828; 1741.850;  177.375;    0.000
560.956; 1796.850;  221.375;    0.000
561.085; 1852.850;  227.375;    0.000
561.212; 1815.850;  208.375;    0.000
561.340; 1798.850;  189.375;    0.000
561.468; 1828.850;  189.375;    0.000
561.596; 1779.850;  183.375;    0.000
561.724; 1767.850;  188.375;    0.000
561.852; 1705.850;  183.375;    0.000
561.980; 1850.850;  209.375;    0.000
562.108; 1859.850;  165.375;    0.000
562.236; 1841.850;  188.375;    0.000
562.364; 1825.850;  177.375;    0.000
562.492; 1876.850;  192.375;    0.000
562.619; 1806.850;  187.375;    0.000
562.747; 1837.850;  217.375;    0.000
562.875; 1844.850;  221.375;    0.000
563.003; 1874.850;  199.375;    0.000
563.130; 1867.850;  191.375;    0.000
563.258; 1850.850;  186.375;    0.000
563.386; 1890.850;  191.375;    0.000
563.514; 1897.850;  217.375;    0.000
563.641; 1898.850;  220.375;    0.000
563.769; 1957.850;  186.375;    0.000
563.897; 1916.850;  158.375;    0.000
564.024; 1964.850;  192.375;    0.000
564.152; 1956.850;  217.375;    0.000
564.280; 1874.850;  203.375;    0.000
564.407; 1982.850;  190.375;    0.000
564.535; 1975.850;  188.375;    0.000
564.662; 1927.850;  199.375;    0.000
564.790; 1979.850;  227.375;    0.000
564.917; 2006.850;  160.375;    0.000
565.045; 1974.850;  222.375;    0.000
565.173; 1913.850;  169.375;    0.000
565.300; 2029.850;  208.375;    0.000
565.428; 1993.850;  174.375;    0.000
565.555; 2054.850;  201.375;    0.000
565.682; 1990.850;  180.375;    0.000
565.810; 2018.850;  165.375;    0.000
565.937; 2096.850;  167.375;    0.000
566.065; 2116.850;  190.375;    0.000
566.192; 2162.850;  169.375;    0.000
566.320; 2148.850;  167.375;    0.000
566.447; 2186.850;  151.375;    0.000
566.574; 2237.850;  176.375;    0.000
566.702; 2235.850;  198.375;    0.000
566.829; 2212.850;  209.375;    0.000
566.956; 2255.850;  186.375;    0.000
567.083; 2260.850;  188.375;    0.000
567.211; 2256.850;  159.375;    0.000
567.338; 2189.850;  204.375;    0.000
567.465; 2255.850;  141.375;    0.000
567.593; 2375.850;  168.375;    0.000
567.720; 2263.850;  177.375;    0.000
567.847; 2327.850;  160.375;    0.000
567.974; 2248.850;  139.375;    0.000
568.101; 2245.850;  153.375;    0.000
568.228; 2329.850;  173.375;    0.000
568.356; 2217.850;  149.375;    0.000
568.483; 2161.850;  185.375;    0.000
568.610; 2205.850;  170.375;    0.000
568.737; 2280.850;  223.375;    0.000
568.864; 2340.850;  167.375;    0.000
568.991; 2190.850;  177.375;    0.000
569.118; 2106.850;  169.375;    0.000
569.245; 2048.850;  128.375;    0.000
569.372; 2097.850;  160.375;    0.000
569.499; 2029.850;  156.375;    0.000
569.626; 2024.850;  191.375;    0.000
569.753; 2016.850;  163.375;    0.000
569.880; 1989.850;  167.375;    0.000
570.007; 1978.850;  143.375;    0.000
570.134; 1936.850;  191.375;    0.000
570.261; 1957.850;  164.375;    0.000
570.388; 1905.850;  162.375;    0.000
570.515; 1988.850;  220.375;    0.000
570.642; 1950.850;  184.375;    0.000
570.768; 1889.850;  174.375;    0.000
570.895; 1860.850;  177.375;    0.000
571.022; 1944.850;  152.375;    0.000
571.149; 1919.850;  183.375;    0.000
571.276; 1886.850;  153.375;    0.000
571.402; 1886.850;  190.375;    0.000
571.529; 1963.850;  187.375;    0.000
571.656; 1879.850;  167.375;    0.000
571.783; 1893.850;  186.375;    0.000
571.909; 1840.850;  183.375;    0.000
572.036; 1810.850;  162.375;    0.000
572.163; 1857.850;  196.375;    0.000
572.289; 1837.850;  180.375;    0.000
572.416; 1810.850;  190.375;    0.000
572.543; 1835.850;  174.375;    0.000
572.669; 1806.850;  186.375;    0.000
572.796; 1792.850;  205.375;    0.000
572.922; 1790.850;  185.375;    0.000
573.049; 1862.850;  178.375;    0.000
573.176; 1817.850;  196.375;    0.000
573.302; 1790.850;  202.375;    0.000
573.429; 1813.850;  189.375;    0.000
573.555; 1770.850;  145.375;    0.000
573.682; 1830.850;  228.375;    0.000
573.808; 1856.850;  197.375;    0.000
573.935; 1760.850;  216.375;    0.000
574.061; 1788.850;  173.375;    0.000
574.188; 1776.850;  151.375;    0.000
574.314; 1854.850;  181.375;    0.000
574.440; 1779.850;  167.375;    0.000
574.567; 1825.850;  185.375;    0.000
574.693; 1765.850;  173.375;    0.000
574.820; 1755.850;  164.375;    0.000
574.946; 1810.850;  199.375;    0.000
575.072; 1843.850;  162.375;    0.000
575.198; 1858.850;  225.375;    0.000
575.325; 1740.850;  171.375;    0.000
575.451; 1789.850;  183.375;    0.000
575.577; 1712.850;  190.375;    0.000
575.704; 1867.850;  210.375;    0.000
575.830; 1766.850;  185.375;    0.000
575.956; 1731.850;  168.375;    0.000
576.082; 1734.850;  158.375;    0.000
576.208; 1741.850;  158.375;    0.000
576.335; 1749.850;  196.375;    0.000
576.461; 1802.850;  187.375;    0.000
576.587; 1683.850;  157.375;    0.000
576.713; 1700.850;  156.375;    0.000
576.839; 1752.850;  196.375;    0.000
576.965; 1806.850;  187.375;    0.000
577.091; 1780.850;  204.375;    0.000
577.217; 1773.850;  207.375;    0.000
577.343; 1767.850;  175.375;    0.000
577.469; 1725.850;  197.375;    0.000
577.596; 1710.850;  182.375;    0.000
577.722; 1757.850;  159.375;    0.000
577.848; 1692.850;  162.375;    0.000
577.974; 1859.850;  180.375;    0.000
578.099; 1704.850;  161.375;    0.000
578.225; 1776.850;  180.375;    0.000
578.351; 1736.850;  190.375;    0.000
578.477; 1813.850;  212.375;    0.000
578.603; 1721.850;  179.375;    0.000
578.729; 1737.850;  195.375;    0.000
578.855; 1703.850;  153.375;    0.000
578.981; 1729.850;  162.375;    0.000
579.107; 1784.850;  149.375;    0.000
579.232; 1758.850;  164.375;    0.000
579.358; 1724.850;  162.375;    0.000
579.484; 1711.850;  181.375;    0.000
579.610; 1732.850;  190.375;    0.000
579.735; 1751.850;  191.375;    0.000
579.861; 1742.850;  189.375;    0.000
579.987; 1751.850;  202.375;    0.000
580.113; 1779.850;  197.375;    0.000
580.238; 1707.850;  228.375;    0.000
580.364; 1745.850;  212.375;    0.000
580.490; 1772.850;  225.375;    0.000
580.615; 1751.850;  218.375;    0.000
580.741; 1695.850;  167.375;    0.000
580.867; 1739.850;  215.375;    0.000
580.992; 1734.850;  191.375;    0.000
581.118; 1737.850;  171.375;    0.000
581.243; 1815.850;  204.375;    0.000
581.369; 1715.850;  186.375;    0.000
581.494; 1707.850;  184.375;    0.000
581.620; 1748.850;  212.375;    0.000
581.745; 1710.850;  192.375;    0.000
581.871; 1759.850;  195.375;    0.000
581.996; 1727.850;  160.375;    0.000
582.122; 1695.850;  217.375;    0.000
582.247; 1681.850;  213.375;    0.000
582.373; 1768.850;  187.375;    0.000
582.498; 1721.850;  208.375;    0.000
582.624; 1751.850;  189.375;    0.000
582.749; 1817.850;  185.375;    0.000
582.874; 1810.850;  195.375;    0.000
583.000; 1679.850;  208.375;    0.000
583.125; 1764.850;  147.375;    0.000
583.250; 1745.850;  201.375;    0.000
583.376; 1810.850;  191.375;    0.000
583.501; 1728.850;  206.375;    0.000
583.626; 1677.850;  167.375;    0.000
583.751; 1703.850;  180.375;    0.000
583.877; 1712.850;  185.375;    0.000
584.002; 1706.850;  186.375;    0.000
584.127; 1767.850;  176.375;    0.000
584.252; 1724.850;  214.375;    0.000
584.377; 1769.850;  225.375;    0.000
584.503; 1767.850;  195.375;    0.000
584.628; 1798.850;  206.375;    0.000
584.753; 1725.850;  181.375;    0.000
584.878; 1707.850;  136.375;    0.000
585.003; 1752.850;  215.375;    0.000
585.128; 1793.850;  206.375;    0.000
585.253; 1868.850;  200.375;    0.000
585.378; 1832.850;  169.375;    0.000
585.503; 1859.850;  191.375;    0.000
585.628; 1797.850;  182.375;    0.000
585.753; 1730.850;  164.375;    0.000
585.878; 1723.850;  123.375;    0.000
586.003; 1797.850;  187.375;    0.000
586.128; 1799.850;  198.375;    0.000
586.253; 1798.850;  172.375;    0.000
586.378; 1846.850;  191.375;    0.000
586.503; 1891.850;  190.375;    0.000
586.628; 1854.850;  178.375;    0.000
586.753; 1869.850;  184.375;    0.000
586.878; 1862.850;  169.375;    0.000
587.003; 1846.850;  186.375;    0.000
587.127; 1857.850;  170.375;    0.000
587.252; 1846.850;  170.375;    0.000
587.377; 1884.850;  181.375;    0.000
587.502; 1994.850;  209.375;    0.000
587.627; 2018.850;  210.375;    0.000
587.751; 2008.850;  212.375;    0.000
587.876; 2018.850;  198.375;    0.000
588.001; 2057.850;  161.375;    0.000
588.125; 2118.850;  191.375;    0.000
588.250; 2188.850;  132.375;    0.000
588.375; 2355.850;  183.375;    0.000
588.499; 2652.850;  176.375;    0.000
588.624; 3102.850;  173.375;    0.000
588.749; 4122.850;  204.375;    0.000
588.873; 7463.850;  179.375;    0.000
588.998;10911.850;  182.375;    0.000
589.122; 9233.850;  165.375;    0.000
589.247; 6170.850;  185.375;    0.000
589.372; 5030.850;  199.375;    0.000
589.496; 7321.850;  182.375;    0.000
589.621; 8867.850;  158.375;    0.000
589.745; 6962.850;  213.375;    0.000
589.870; 4250.850;  175.375;    0.000
589.994; 3246.850;  194.375;    0.000
590.118; 2816.850;  218.375;    0.000
590.243; 2477.850;  170.375;    0.000
590.367; 2426.850;  189.375;    0.000
590.492; 2318.850;  196.375;    0.000
590.616; 2146.850;  182.375;    0.000
590.740; 2185.850;  210.375;    0.000
590.865; 2120.850;  242.375;    0.000
590.989; 2048.850;  191.375;    0.000
591.114; 2004.850;  167.375;    0.000
591.238; 1976.850;  194.375;    0.000
591.362; 1956.850;  236.375;    0.000
591.486; 2035.850;  194.375;    0.000
591.611; 1877.850;  154.375;    0.000
591.735; 1959.850;  186.375;    0.000
591.859; 1953.850;  148.375;    0.000
591.983; 1959.850;  211.375;    0.000
592.107; 1963.850;  204.375;    0.000
592.232; 1938.850;  194.375;    0.000
592.356; 1923.850;  238.375;    0.000
592.480; 1946.850;  179.375;    0.000
592.604; 1913.850;  192.375;    0.000
592.728; 1947.850;  201.375;    0.000
592.852; 1952.850;  158.375;    0.000
592.976; 1957.850;  152.375;    0.000
593.100; 1882.850;  194.375;    0.000
593.224; 1956.850;  235.375;    0.000
593.349; 1957.850;  233.375;    0.000
593.473; 1937.850;  194.375;    0.000
593.597; 1916.850;  215.375;    0.000
593.721; 1876.850;  212.375;    0.000
593.844; 1915.850;  220.375;    0.000
593.968; 1910.850;  221.375;    0.000
594.092; 1934.850;  150.375;    0.000
594.216; 1845.850;  212.375;    0.000
594.340; 1899.850;  209.375;    0.000
594.464; 1873.850;  207.375;    0.000
594.588; 1872.850;  195.375;    0.000
594.712; 1896.850;  176.375;    0.000
594.836; 1886.850;  219.375;    0.000
594.959; 1889.850;  215.375;    0.000
595.083; 1850.850;  200.375;    0.000
595.207; 1851.850;  206.375;    0.000
595.331; 1837.850;  207.375;    0.000
595.455; 1858.850;  206.375;    0.000
595.578; 1872.850;  204.375;    0.000
595.702; 1830.850;  225.375;    0.000
595.826; 1783.850;  186.375;    0.000
595.949; 1738.850;  196.375;    0.000
596.073; 1846.850;  188.375;    0.000
596.197; 1801.850;  217.375;    0.000
596.320; 1838.850;  225.375;    0.000
596.444; 1763.850;  220.375;    0.000
596.568; 1736.850;  155.375;    0.000
596.691; 1804.850;  195.375;    0.000
596.815; 1680.850;  163.375;    0.000
596.938; 1796.850;  181.375;    0.000
597.062; 1791.850;  201.375;    0.000
597.186; 1761.850;  200.375;    0.000
597.309; 1675.850;  214.375;    0.000
597.433; 1769.850;  176.375;    0.000
597.556; 1653.850;  193.375;    0.000
597.680; 1747.850;  241.375;    0.000
597.803; 1708.850;  185.375;    0.000
597.926; 1707.850;  200.375;    0.000
598.050; 1670.850;  193.375;    0.000
598.173; 1690.850;  219.375;    0.000
598.297; 1745.850;  223.375;    0.000
598.420; 1709.850;  187.375;    0.000
598.543; 1591.850;  205.375;    0.000
598.667; 1712.850;  177.375;    0.000
598.790; 1682.850;  208.375;    0.000
598.913; 1740.850;  170.375;    0.000
599.037; 1674.850;  212.375;    0.000
599.160; 1703.850;  165.375;    0.000
599.283; 1723.850;  211.375;    0.000
599.406; 1656.850;  207.375;    0.000
599.530; 1693.850;  182.375;    0.000
599.653; 1710.850;  215.375;    0.000
599.776; 1693.850;  167.375;    0.000
599.899; 1743.850;  190.375;    0.000
600.022; 1701.850;  182.375;    0.000
600.145; 1656.850;  180.375;    0.000
600.269; 1686.850;  208.375;    0.000
600.392; 1642.850;  214.375;    0.000
600.515; 1711.850;  196.375;    0.000
600.638; 1668.850;  204.375;    0.000
600.761; 1655.850;  209.375;    0.000
600.884; 1636.850;  207.375;    0.000
601.007; 1708.850;  234.375;    0.000
601.130; 1601.850;  183.375;    0.000
601.253; 1699.850;  211.375;    0.000
601.376; 1615.850;  199.375;    0.000
601.499; 1649.850;  190.375;    0.000
601.622; 1693.850;  210.375;    0.000
601.745; 1624.850;  180.375;    0.000
601.868; 1623.850;  204.375;    0.000
601.991; 1777.850;  188.375;    0.000
602.113; 1668.850;  210.375;    0.000
602.236; 1660.850;  194.375;    0.000
602.359; 1599.850;  213.375;    0.000
602.482; 1599.850;  169.375;    0.000
602.605; 1596.850;  189.375;    0.000
602.728; 1609.850;  236.375;    0.000
602.850; 1631.850;  230.375;    0.000
602.973; 1611.850;  187.375;    0.000
603.096; 1625.850;  201.375;    0.000
603.219; 1573.850;  209.375;    0.000
603.341; 1628.850;  209.375;    0.000
603.464; 1591.850;  194.375;    0.000
603.587; 1605.850;  166.375;    0.000
603.709; 1630.850;  175.375;    0.000
603.832; 1616.850;  239.375;    0.000
603.955; 1601.850;  205.375;    0.000
604.077; 1537.850;  196.375;    0.000
604.200; 1606.850;  188.375;    0.000
604.323; 1644.850;  224.375;    0.000
604.445; 1637.850;  182.375;    0.000
604.568; 1540.850;  199.375;    0.000
604.690; 1626.850;  175.375;    0.000
604.813; 1602.850;  211.375;    0.000
604.935; 1669.850;  171.375;    0.000
605.058; 1624.850;  196.375;    0.000
605.180; 1653.850;  194.375;    0.000
605.303; 1646.850;  198.375;    0.000
605.425; 1620.850;  212.375;    0.000
605.547; 1570.850;  238.375;    0.000
605.670; 1605.850;  207.375;    0.000
605.792; 1650.850;  204.375;    0.000
605.915; 1584.850;  198.375;    0.000
606.037; 1637.850;  215.375;    0.000
606.159; 1672.850;  170.375;    0.000
606.282; 1578.850;  194.375;    0.000
606.404; 1540.850;  207.375;    0.000
606.526; 1577.850;  208.375;    0.000
606.648; 1510.850;  174.375;    0.000
606.771; 1609.850;  170.375;    0.000
606.893; 1548.850;  182.375;    0.000
607.015; 1555.850;  180.375;    0.000
607.137; 1594.850;  187.375;    0.000
607.260; 1608.850;  202.375;    0.000
607.382; 1576.850;  226.375;    0.000
607.504; 1569.850;  208.375;    0.000
607.626; 1587.850;  229.375;    0.000
607.748; 1660.850;  170.375;    0.000
607.870; 1613.850;  208.375;    0.000
607.992; 1545.850;  184.375;    0.000
608.114; 1610.850;  213.375;    0.000
608.237; 1601.850;  237.375;    0.000
608.359; 1569.850;  176.375;    0.000
608.481; 1576.850;  173.375;    0.000
608.603; 1588.850;  189.375;    0.000
608.725; 1630.850;  185.375;    0.000
608.847; 1596.850;  239.375;    0.000
608.969; 1612.850;  237.375;    0.000
609.090; 1603.850;  189.375;    0.000
609.212; 1563.850;  147.375;    0.000
609.334; 1558.850;  177.375;    0.000
609.456; 1707.850;  196.375;    0.000
609.578; 1579.850;  199.375;    0.000
609.700; 1459.850;  167.375;    0.000
609.822; 1553.850;  140.375;    0.000
609.944; 1606.850;  225.375;    0.000
610.065; 1613.850;  183.375;    0.000
610.187; 1561.850;  170.375;    0.000
610.309; 1517.850;  210.375;    0.000
610.431; 1590.850;  185.375;    0.000
610.552; 1598.850;  197.375;    0.000
610.674; 1508.850;  188.375;    0.000
610.796; 1592.850;  162.375;    0.000
610.918; 1578.850;  200.375;    0.000
611.039; 1594.850;  209.375;    0.000
611.161; 1576.850;  201.375;    0.000
611.282; 1543.850;  197.375;    0.000
611.404; 1553.850;  220.375;    0.000
611.526; 1554.850;  159.375;    0.000
611.647; 1630.850;  205.375;    0.000
611.769; 1523.850;  161.375;    0.000
611.890; 1549.850;  173.375;    0.000
612.012; 1588.850;  225.375;    0.000
612.133; 1558.850;  188.375;    0.000
612.255; 1554.850;  217.375;    0.000
612.377; 1559.850;  219.375;    0.000
612.498; 1596.850;  177.375;    0.000
612.619; 1571.850;  211.375;    0.000
612.741; 1524.850;  185.375;    0.000
612.862; 1606.850;  191.375;    0.000
612.984; 1557.850;  190.375;    0.000
613.105; 1557.850;  211.375;    0.000
613.226; 1553.850;  174.375;    0.000
613.348; 1571.850;  235.375;    0.000
613.469; 1564.850;  230.375;    0.000
613.590; 1558.850;  208.375;    0.000
613.712; 1584.850;  244.375;    0.000
613.833; 1534.850;  202.375;    0.000
613.954; 1543.850;  228.375;    0.000
614.076; 1585.850;  220.375;    0.000
614.197; 1568.850;  191.375;    0.000
614.318; 1511.850;  201.375;    0.000
614.439; 1560.850;  212.375;    0.000
614.560; 1573.850;  219.375;    0.000
614.682; 1600.850;  189.375;    0.000
614.803; 1507.850;  188.375;    0.000
614.924; 1537.850;  225.375;    0.000
615.045; 1545.850;  227.375;    0.000
615.166; 1592.850;  200.375;    0.000
615.287; 1571.850;  195.375;    0.000
615.408; 1581.850;  199.375;    0.000
615.529; 1572.850;  227.375;    0.000
615.650; 1564.850;  176.375;    0.000
615.771; 1503.850;  211.375;    0.000
615.892; 1621.850;  212.375;    0.000
616.013; 1604.850;  172.375;    0.000
616.134; 1551.850;  220.375;    0.000
616.255; 1557.850;  251.375;    0.000
616.376; 1577.850;  186.375;    0.000
616.497; 1524.850;  201.375;    0.000
616.618; 1527.850;  149.375;    0.000
616.739; 1623.850;  213.375;    0.000
616.860; 1528.850;  224.375;    0.000
616.981; 1562.850;  224.375;    0.000
617.102; 1579.850;  217.375;    0.000
617.222; 1599.850;  237.375;    0.000
617.343; 1561.850;  205.375;    0.000
617.464; 1533.850;  229.375;    0.000
617.585; 1518.850;  227.375;    0.000
617.705; 1579.850;  191.375;    0.000
617.826; 1621.850;  237.375;    0.000
617.947; 1536.850;  223.375;    0.000
618.068; 1574.850;  189.375;    0.000
618.188; 1430.850;  194.375;    0.000
618.309; 1473.850;  206.375;    0.000
618.430; 1576.850;  229.375;    0.000
618.550; 1559.850;  250.375;    0.000
618.671; 1490.850;  201.375;    0.000
618.791; 1566.850;  226.375;    0.000
618.912; 1514.850;  246.375;    0.000
619.033; 1575.850;  243.375;    0.000
619.153; 1533.850;  208.375;    0.000
619.274; 1532.850;  223.375;    0.000
619.394; 1532.850;  226.375;    0.000
619.515; 1554.850;  188.375;    0.000
619.635; 1463.850;  216.375;    0.000
619.756; 1530.850;  229.375;    0.000
619.876; 1461.850;  216.375;    0.000
619.996; 1481.850;  244.375;    0.000
620.117; 1564.850;  225.375;    0.000
620.237; 1487.850;  207.375;    0.000
620.358; 1560.850;  239.375;    0.000
620.478; 1478.850;  237.375;    0.000
620.598; 1548.850;  237.375;    0.000
620.719; 1583.850;  223.375;    0.000
620.839; 1517.850;  254.375;    0.000
620.959; 1583.850;  244.375;    0.000
621.079; 1488.850;  193.375;    0.000
621.200; 1459.850;  233.375;    0.000
621.320; 1529.850;  270.375;    0.000
621.440; 1456.850;  206.375;    0.000
621.560; 1459.850;  241.375;    0.000
621.681; 1511.850;  231.375;    0.000
621.801; 1465.850;  235.375;    0.000
621.921; 1548.850;  240.375;    0.000
622.041; 1501.850;  244.375;    0.000
622.161; 1513.850;  225.375;    0.000
622.281; 1497.850;  222.375;    0.000
622.401; 1468.850;  238.375;    0.000
622.521; 1481.850;  233.375;    0.000
622.641; 1468.850;  241.375;    0.000
622.761; 1516.850;  233.375;    0.000
622.882; 1504.850;  230.375;    0.000
623.002; 1527.850;  206.375;    0.000
623.121; 1472.850;  217.375;    0.000
623.241; 1525.850;  263.375;    0.000
623.361; 1409.850;  245.375;    0.000
623.481; 1417.850;  194.375;    0.000
623.601; 1501.850;  228.375;    0.000
623.721; 1461.850;  219.375;    0.000
623.841; 1528.850;  234.375;    0.000
623.961; 1492.850;  235.375;    0.000
624.081; 1442.850;  166.375;    0.000
624.201; 1482.850;  229.375;    0.000
624.320; 1428.850;  224.375;    0.000
624.440; 1419.850;  200.375;    0.000
624.560; 1437.850;  220.375;    0.000
624.680; 1480.850;  214.375;    0.000
624.799; 1438.850;  179.375;    0.000
624.919; 1419.850;  199.375;    0.000
625.039; 1487.850;  211.375;    0.000
625.159; 1462.850;  213.375;    0.000
625.278; 1427.850;  178.375;    0.000
625.398; 1450.850;  206.375;    0.000
625.518; 1431.850;  182.375;    0.000
625.637; 1485.850;  206.375;    0.000
625.757; 1450.850;  197.375;    0.000
625.876; 1459.850;  204.375;    0.000
625.996; 1424.850;  222.375;    0.000
626.115; 1451.850;  222.375;    0.000
626.235; 1402.850;  222.375;    0.000
626.354; 1502.850;  211.375;    0.000
626.474; 1459.850;  217.375;    0.000
626.594; 1479.850;  190.375;    0.000
626.713; 1457.850;  200.375;    0.000
626.832; 1436.850;  234.375;    0.000
626.952; 1358.850;  214.375;    0.000
627.071; 1407.850;  243.375;    0.000
627.191; 1457.850;  192.375;    0.000
627.310; 1366.850;  211.375;    0.000
627.429; 1379.850;  218.375;    0.000
627.549; 1420.850;  214.375;    0.000
627.668; 1453.850;  208.375;    0.000
627.787; 1446.850;  199.375;    0.000
627.907; 1426.850;  208.375;    0.000
628.026; 1407.850;  216.375;    0.000
628.145; 1387.850;  170.375;    0.000
628.264; 1424.850;  217.375;    0.000
628.384; 1446.850;  190.375;    0.000
628.503; 1394.850;  203.375;    0.000
628.622; 1383.850;  197.375;    0.000
628.741; 1475.850;  186.375;    0.000
628.860; 1431.850;  191.375;    0.000
628.980; 1420.850;  196.375;    0.000
629.099; 1410.850;  190.375;    0.000
629.218; 1375.850;  165.375;    0.000
629.337; 1449.850;  190.375;    0.000
629.456; 1373.850;  222.375;    0.000
629.575; 1455.850;  197.375;    0.000
629.694; 1464.850;  210.375;    0.000
629.813; 1407.850;  187.375;    0.000
629.932; 1430.850;  224.375;    0.000
630.051; 1438.850;  216.375;    0.000
630.170; 1419.850;  203.375;    0.000
630.289; 1421.850;  178.375;    0.000
630.408; 1395.850;  192.375;    0.000
630.527; 1452.850;  223.375;    0.000
630.646; 1392.850;  177.375;    0.000
630.764; 1367.850;  224.375;    0.000
630.883; 1420.850;  220.375;    0.000
631.002; 1407.850;  187.375;    0.000
631.121; 1403.850;  208.375;    0.000
631.240; 1413.850;  217.375;    0.000
631.359; 1443.850;  241.375;    0.000
631.477; 1467.850;  189.375;    0.000
631.596; 1509.850;  244.375;    0.000
631.715; 1455.850;  241.375;    0.000
631.834; 1402.850;  219.375;    0.000
631.952; 1455.850;  231.375;    0.000
632.071; 1365.850;  197.375;    0.000
632.190; 1382.850;  193.375;    0.000
632.308; 1415.850;  185.375;    0.000
632.427; 1408.850;  188.375;    0.000
632.546; 1391.850;  208.375;    0.000
632.664; 1376.850;  191.375;    0.000
632.783; 1402.850;  201.375;    0.000
632.901; 1369.850;  239.375;    0.000
633.020; 1407.850;  197.375;    0.000
633.138; 1405.850;  189.375;    0.000
633.257; 1367.850;  210.375;    0.000
633.375; 1370.850;  213.375;    0.000
633.494; 1374.850;  206.375;    0.000
633.612; 1409.850;  231.375;    0.000
633.731; 1390.850;  213.375;    0.000
633.849; 1403.850;  244.375;    0.000
633.968; 1362.850;  251.375;    0.000
634.086; 1378.850;  224.375;    0.000
634.204; 1370.850;  212.375;    0.000
634.323; 1410.850;  213.375;    0.000
634.441; 1443.850;  219.375;    0.000
634.559; 1392.850;  198.375;    0.000
634.678; 1412.850;  201.375;    0.000
634.796; 1422.850;  179.375;    0.000
634.914; 1390.850;  255.375;    0.000
635.032; 1459.850;  264.375;    0.000
635.151; 1359.850;  228.375;    0.000
635.269; 1353.850;  223.375;    0.000
635.387; 1412.850;  228.375;    0.000
635.505; 1348.850;  214.375;    0.000
635.623; 1457.850;  279.375;    0.000
635.742; 1365.850;  237.375;    0.000
635.860; 1332.850;  244.375;    0.000
635.978; 1315.850;  213.375;    0.000
636.096; 1353.850;  230.375;    0.000
636.214; 1380.850;  252.375;    0.000
636.332; 1362.850;  221.375;    0.000
636.450; 1343.850;  227.375;    0.000
636.568; 1361.850;  193.375;    0.000
636.686; 1322.850;  208.375;    0.000
636.804; 1307.850;  213.375;    0.000
636.922; 1342.850;  199.375;    0.000
637.040; 1451.850;  202.375;    0.000
637.158; 1400.850;  239.375;    0.000
637.276; 1356.850;  225.375;    0.000
637.394; 1419.850;  217.375;    0.000
637.512; 1392.850;  192.375;    0.000
637.629; 1433.850;  216.375;    0.000
637.747; 1395.850;  198.375;    0.000
637.865; 1405.850;  265.375;    0.000
637.983; 1365.850;  245.375;    0.000
638.101; 1357.850;  199.375;    0.000
638.218; 1350.850;  197.375;    0.000
638.336; 1379.850;  212.375;    0.000
638.454; 1398.850;  227.375;    0.000
638.572; 1448.850;  215.375;    0.000
638.689; 1370.850;  214.375;    0.000
638.807; 1366.850;  233.375;    0.000
638.925; 1439.850;  217.375;    0.000
639.042; 1336.850;  180.375;    0.000
639.160; 1391.850;  220.375;    0.000
639.278; 1366.850;  180.375;    0.000
639.395; 1406.850;  243.375;    0.000
639.513; 1353.850;  207.375;    0.000
639.630; 1371.850;  183.375;    0.000
639.748; 1377.850;  231.375;    0.000
639.865; 1388.850;  215.375;    0.000
639.983; 1402.850;  182.375;    0.000
640.100; 1358.850;  190.375;    0.000
640.218; 1355.850;  224.375;    0.000
640.335; 1306.850;  214.375;    0.000
640.453; 1375.850;  212.375;    0.000
640.570; 1390.850;  224.375;    0.000
640.688; 1344.850;  220.375;    0.000
640.805; 1381.850;  189.375;    0.000
640.922; 1388.850;  256.375;    0.000
641.040; 1421.850;  209.375;    0.000
641.157; 1400.850;  195.375;    0.000
641.274; 1399.850;  195.375;    0.000
641.391; 1430.850;  231.375;    0.000
641.509; 1373.850;  207.375;    0.000
641.626; 1384.850;  227.375;    0.000
641.743; 1339.850;  188.375;    0.000
641.860; 1287.850;  208.375;    0.000
641.978; 1340.850;  222.375;    0.000
642.095; 1336.850;  194.375;    0.000
642.212; 1339.850;  202.375;    0.000
642.329; 1385.850;  241.375;    0.000
642.446; 1347.850;  261.375;    0.000
642.563; 1411.850;  236.375;    0.000
642.681; 1405.850;  228.375;    0.000
642.798; 1349.850;  242.375;    0.000
642.915; 1374.850;  197.375;    0.000
643.032; 1383.850;  239.375;    0.000
643.149; 1367.850;  241.375;    0.000
643.266; 1444.850;  199.375;    0.000
643.383; 1388.850;  200.375;    0.000
643.500; 1384.850;  221.375;    0.000
643.617; 1411.850;  196.375;    0.000
643.734; 1411.850;  207.375;    0.000
643.850; 1333.850;  222.375;    0.000
643.967; 1401.850;  235.375;    0.000
644.084; 1475.850;  233.375;    0.000
644.201; 1413.850;  229.375;    0.000
644.318; 1371.850;  210.375;    0.000
644.435; 1440.850;  234.375;    0.000
644.552; 1382.850;  220.375;    0.000
644.668; 1453.850;  231.375;    0.000
644.785; 1394.850;  231.375;    0.000
644.902; 1411.850;  238.375;    0.000
645.019; 1369.850;  226.375;    0.000
645.135; 1370.850;  179.375;    0.000
645.252; 1390.850;  224.375;    0.000
645.369; 1412.850;  206.375;    0.000
645.485; 1379.850;  200.375;    0.000
645.602; 1428.850;  210.375;    0.000
645.719; 1440.850;  206.375;    0.000
645.835; 1452.850;  247.375;    0.000
645.952; 1421.850;  222.375;    0.000
646.068; 1349.850;  205.375;    0.000
646.185; 1445.850;  230.375;    0.000
646.302; 1473.850;  254.375;    0.000
646.418; 1467.850;  230.375;    0.000
646.535; 1488.850;  214.375;    0.000
646.651; 1506.850;  179.375;    0.000
646.768; 1442.850;  190.375;    0.000
646.884; 1460.850;  208.375;    0.000
647.000; 1489.850;  262.375;    0.000
647.117; 1453.850;  212.375;    0.000
647.233; 1368.850;  228.375;    0.000
647.350; 1476.850;  208.375;    0.000
647.466; 1463.850;  211.375;    0.000
647.582; 1494.850;  196.375;    0.000
647.699; 1506.850;  217.375;    0.000
647.815; 1487.850;  203.375;    0.000
647.931; 1495.850;  201.375;    0.000
648.047; 1479.850;  182.375;    0.000
648.164; 1404.850;  219.375;    0.000
648.280; 1518.850;  213.375;    0.000
648.396; 1489.850;  202.375;    0.000
648.512; 1507.850;  233.375;    0.000
648.629; 1523.850;  206.375;    0.000
648.745; 1423.850;  188.375;    0.000
648.861; 1538.850;  209.375;    0.000
648.977; 1528.850;  218.375;    0.000
649.093; 1539.850;  225.375;    0.000
649.209; 1509.850;  240.375;    0.000
649.325; 1547.850;  253.375;    0.000
649.441; 1566.850;  263.375;    0.000
649.557; 1573.850;  256.375;    0.000
649.673; 1493.850;  211.375;    0.000
649.789; 1546.850;  237.375;    0.000
649.905; 1547.850;  183.375;    0.000
650.021; 1540.850;  238.375;    0.000
650.137; 1600.850;  241.375;    0.000
650.253; 1636.850;  228.375;    0.000
650.369; 1546.850;  221.375;    0.000
650.485; 1503.850;  240.375;    0.000
650.601; 1587.850;  254.375;    0.000
650.717; 1593.850;  201.375;    0.000
650.833; 1567.850;  257.375;    0.000
650.948; 1700.850;  213.375;    0.000
651.064; 1565.850;  223.375;    0.000
651.180; 1659.850;  230.375;    0.000
651.296; 1596.850;  235.375;    0.000
651.411; 1615.850;  221.375;    0.000
651.527; 1645.850;  233.375;    0.000
651.643; 1642.850;  236.375;    0.000
651.759; 1657.850;  268.375;    0.000
651.874; 1661.850;  214.375;    0.000
651.990; 1683.850;  251.375;    0.000
652.105; 1706.850;  217.375;    0.000
652.221; 1728.850;  243.375;    0.000
652.337; 1730.850;  231.375;    0.000
652.452; 1812.850;  238.375;    0.000
652.568; 1751.850;  188.375;    0.000
652.683; 1792.850;  197.375;    0.000
652.799; 1777.850;  194.375;    0.000
652.914; 1764.850;  222.375;    0.000
653.030; 1829.850;  200.375;    0.000
653.145; 1789.850;  235.375;    0.000
653.261; 1833.850;  261.375;    0.000
653.376; 1818.850;  228.375;    0.000
653.492; 1821.850;  222.375;    0.000
653.607; 1842.850;  227.375;    0.000
653.722; 1906.850;  250.375;    0.000
653.838; 1974.850;  255.375;    0.000
653.953; 1968.850;  235.375;    0.000
654.068; 2016.850;  266.375;    0.000
654.184; 1940.850;  210.375;    0.000
654.299; 2048.850;  240.375;    0.000
654.414; 2050.850;  222.375;    0.000
654.530; 2095.850;  222.375;    0.000
654.645; 2089.850;  256.375;    0.000
654.760; 2199.850;  244.375;    0.000
654.875; 2231.850;  229.375;    0.000
654.990; 2248.850;  226.375;    0.000
655.106; 2321.850;  254.375;    0.000
655.221; 2368.850;  251.375;    0.000
655.336; 2443.850;  245.375;    0.000
655.451; 2477.850;  199.375;    0.000
655.566; 2511.850;  228.375;    0.000
655.681; 2666.850;  208.375;    0.000
655.796; 2699.850;  218.375;    0.000
655.911; 2789.850;  233.375;    0.000
656.026; 2894.850;  232.375;    0.000
656.141; 3021.850;  223.375;    0.000
656.256; 3134.850;  247.375;    0.000
656.371; 3085.850;  220.375;    0.000
656.486; 3008.850;  225.375;    0.000
656.601; 3032.850;  257.375;    0.000
656.716; 2960.850;  248.375;    0.000
656.831; 3082.850;  262.375;    0.000
656.946; 2784.850;  249.375;    0.000
657.060; 2817.850;  245.375;    0.000
657.175; 2815.850;  245.375;    0.000
657.290; 2655.850;  219.375;    0.000
657.405; 2674.850;  286.375;    0.000
657.520; 2611.850;  259.375;    0.000
657.634; 2508.850;  239.375;    0.000
657.749; 2477.850;  227.375;    0.000
657.864; 2453.850;  210.375;    0.000
657.979; 2442.850;  236.375;    0.000
658.093; 2273.850;  210.375;    0.000
658.208; 2331.850;  248.375;    0.000
658.323; 2240.850;  216.375;    0.000
658.437; 2236.850;  248.375;    0.000
658.552; 2290.850;  249.375;    0.000
658.666; 2224.850;  256.375;    0.000
658.781; 2137.850;  247.375;    0.000
658.895; 2137.850;  209.375;    0.000
659.010; 2087.850;  219.375;    0.000
659.125; 1976.850;  215.375;    0.000
659.239; 1963.850;  205.375;    0.000
659.353; 2008.850;  246.375;    0.000
659.468; 1982.850;  245.375;    0.000
659.582; 2003.850;  244.375;    0.000
659.697; 1923.850;  242.375;    0.000
659.811; 1933.850;  239.375;    0.000
659.926; 1889.850;  226.375;    0.000
660.040; 1886.850;  255.375;    0.000
660.154; 1873.850;  225.375;    0.000
660.269; 1849.850;  200.375;    0.000
660.383; 1856.850;  192.375;    0.000
660.497; 1832.850;  218.375;    0.000
660.612; 1814.850;  236.375;    0.000
660.726; 1820.850;  263.375;    0.000
660.840; 1740.850;  205.375;    0.000
660.954; 1707.850;  219.375;    0.000
661.068; 1731.850;  240.375;    0.000
661.183; 1718.850;  221.375;    0.000
661.297; 1687.850;  194.375;    0.000
661.411; 1665.850;  253.375;    0.000
661.525; 1677.850;  246.375;    0.000
661.639; 1659.850;  217.375;    0.000
661.753; 1620.850;  241.375;    0.000
661.867; 1665.850;  276.375;    0.000
661.981; 1604.850;  203.375;    0.000
662.095; 1630.850;  224.375;    0.000
662.209; 1549.850;  217.375;    0.000
662.323; 1597.850;  251.375;    0.000
662.437; 1520.850;  243.375;    0.000
662.551; 1583.850;  244.375;    0.000
662.665; 1598.850;  247.375;    0.000
662.779; 1498.850;  251.375;    0.000
662.893; 1628.850;  254.375;    0.000
663.007; 1423.850;  222.375;    0.000
663.121; 1565.850;  253.375;    0.000
663.235; 1450.850;  270.375;    0.000
663.349; 1530.850;  242.375;    0.000
663.462; 1503.850;  230.375;    0.000
663.576; 1453.850;  230.375;    0.000
663.690; 1464.850;  249.375;    0.000
663.804; 1434.850;  200.375;    0.000
663.917; 1404.850;  204.375;    0.000
664.031; 1429.850;  206.375;    0.000
664.145; 1462.850;  202.375;    0.000
664.258; 1431.850;  221.375;    0.000
664.372; 1406.850;  215.375;    0.000
664.486; 1345.850;  179.375;    0.000
664.599; 1348.850;  208.375;    0.000
664.713; 1366.850;  268.375;    0.000
664.827; 1427.850;  225.375;    0.000
664.940; 1460.850;  222.375;    0.000
665.054; 1368.850;  208.375;    0.000
665.167; 1369.850;  253.375;    0.000
665.281; 1436.850;  237.375;    0.000
665.394; 1353.850;  227.375;    0.000
665.508; 1287.850;  192.375;    0.000
665.621; 1321.850;  175.375;    0.000
665.735; 1336.850;  249.375;    0.000
665.848; 1359.850;  197.375;    0.000
665.961; 1288.850;  206.375;    0.000
666.075; 1345.850;  245.375;    0.000
666.188; 1340.850;  230.375;    0.000
666.301; 1311.850;  219.375;    0.000
666.415; 1303.850;  231.375;    0.000
666.528; 1331.850;  258.375;    0.000
666.641; 1234.850;  243.375;    0.000
666.755; 1301.850;  208.375;    0.000
666.868; 1317.850;  228.375;    0.000
666.981; 1305.850;  244.375;    0.000
667.094; 1321.850;  244.375;    0.000
667.207; 1290.850;  226.375;    0.000
667.321; 1304.850;  175.375;    0.000
667.434; 1286.850;  211.375;    0.000
667.547; 1336.850;  249.375;    0.000
667.660; 1336.850;  225.375;    0.000
667.773; 1326.850;  242.375;    0.000
667.886; 1271.850;  246.375;    0.000
667.999; 1284.850;  244.375;    0.000
668.112; 1239.850;  227.375;    0.000
668.225; 1271.850;  231.375;    0.000
668.338; 1270.850;  256.375;    0.000
668.451; 1215.850;  216.375;    0.000
668.564; 1235.850;  261.375;    0.000
668.677; 1317.850;  230.375;    0.000
668.790; 1225.850;  192.375;    0.000
668.903; 1212.850;  243.375;    0.000
669.016; 1245.850;  201.375;    0.000
669.129; 1231.850;  249.375;    0.000
669.242; 1152.850;  190.375;    0.000
669.354; 1208.850;  219.375;    0.000
669.467; 1193.850;  242.375;    0.000
669.580; 1230.850;  237.375;    0.000
669.693; 1241.850;  243.375;    0.000
669.806; 1175.850;  234.375;    0.000
669.918; 1201.850;  206.375;    0.000
670.031; 1244.850;  258.375;    0.000
670.144; 1214.850;  231.375;    0.000
670.256; 1190.850;  244.375;    0.000
670.369; 1265.850;  262.375;    0.000
670.482; 1126.850;  264.375;    0.000
670.594; 1195.850;  256.375;    0.000
670.707; 1178.850;  224.375;    0.000
670.820; 1140.850;  261.375;    0.000
670.932; 1178.850;  226.375;    0.000
671.045; 1206.850;  243.375;    0.000
671.157; 1213.850;  235.375;    0.000
671.270; 1164.850;  217.375;    0.000
671.382; 1129.850;  267.375;    0.000
671.495; 1182.850;  258.375;    0.000
671.607; 1076.850;  236.375;    0.000
671.720; 1118.850;  200.375;    0.000
671.832; 1119.850;  219.375;    0.000
671.944; 1180.850;  234.375;    0.000
672.057; 1124.850;  226.375;    0.000
672.169; 1115.850;  225.375;    0.000
672.281; 1248.850;  253.375;    0.000
672.394; 1177.850;  238.375;    0.000
672.506; 1159.850;  244.375;    0.000
672.618; 1183.850;  272.375;    0.000
672.731; 1165.850;  247.375;    0.000
672.843; 1143.850;  261.375;    0.000
672.955; 1118.850;  262.375;    0.000
673.067; 1171.850;  253.375;    0.000
673.180; 1145.850;  239.375;    0.000
673.292; 1144.850;  240.375;    0.000
673.404; 1191.850;  243.375;    0.000
673.516; 1122.850;  258.375;    0.000
673.628; 1123.850;  263.375;    0.000
673.740; 1104.850;  250.375;    0.000
673.852; 1153.850;  285.375;    0.000
673.964; 1137.850;  264.375;    0.000
674.076; 1130.850;  260.375;    0.000
674.188; 1025.850;  226.375;    0.000
674.300; 1099.850;  272.375;    0.000
674.412; 1090.850;  259.375;    0.000
674.524; 1112.850;  283.375;    0.000
674.636; 1134.850;  259.375;    0.000
674.748; 1098.850;  238.375;    0.000
674.860; 1107.850;  277.375;    0.000
674.972; 1146.850;  272.375;    0.000
675.084; 1085.850;  244.375;    0.000
675.196; 1138.850;  272.375;    0.000
675.307; 1130.850;  244.375;    0.000
675.419; 1127.850;  219.375;    0.000
675.531; 1116.850;  275.375;    0.000
675.643; 1096.850;  215.375;    0.000
675.755; 1112.850;  243.375;    0.000
675.866; 1078.850;  223.375;    0.000
675.978; 1029.850;  216.375;    0.000
676.090; 1113.850;  242.375;    0.000
676.201; 1137.850;  276.375;    0.000
676.313; 1137.850;  226.375;    0.000
676.425; 1116.850;  234.375;    0.000
676.536; 1084.850;  231.375;    0.000
676.648; 1118.850;  254.375;    0.000
676.759; 1100.850;  273.375;    0.000
676.871; 1062.850;  250.375;    0.000
676.983; 1099.850;  256.375;    0.000
677.094; 1083.850;  210.375;    0.000
677.206; 1062.850;  248.375;    0.000
677.317; 1021.850;  263.375;    0.000
677.429;  994.850;  238.375;    0.000
677.540; 1037.850;  247.375;    0.000
677.651;  943.850;  224.375;    0.000
677.763; 1058.850;  217.375;    0.000
677.874; 1052.850;  234.375;    0.000
677.986; 1036.850;  238.375;    0.000
678.097; 1024.850;  226.375;    0.000
678.208; 1093.850;  253.375;    0.000
678.320; 1080.850;  217.375;    0.000
678.431; 1051.850;  238.375;    0.000
678.542; 1023.850;  236.375;    0.000
678.653;  985.850;  218.375;    0.000
678.765; 1062.850;  275.375;    0.000
678.876; 1035.850;  213.375;    0.000
678.987;  995.850;  182.375;    0.000
679.098; 1013.850;  221.375;    0.000
679.209; 1046.850;  238.375;    0.000
679.320; 1000.850;  212.375;    0.000
679.432; 1055.850;  231.375;    0.000
679.543;  981.850;  198.375;    0.000
679.654; 1046.850;  191.375;    0.000
679.765; 1076.850;  214.375;    0.000
679.876; 1023.850;  221.375;    0.000
679.987; 1021.850;  162.375;    0.000
680.098; 1020.850;  230.375;    0.000
680.209;  966.850;  206.375;    0.000
680.320; 1011.850;  196.375;    0.000
680.431; 1037.850;  191.375;    0.000
680.542; 1004.850;  214.375;    0.000
680.653; 1035.850;  238.375;    0.000
680.763; 1014.850;  182.375;    0.000
680.874; 1005.850;  213.375;    0.000
680.985;  952.850;  224.375;    0.000
681.096; 1011.850;  222.375;    0.000
681.207;  987.850;  220.375;    0.000
681.318;  974.850;  216.375;    0.000
681.428; 1008.850;  229.375;    0.000
681.539;  957.850;  183.375;    0.000
681.650; 1023.850;  202.375;    0.000
681.760; 1017.850;  223.375;    0.000
681.871;  976.850;  211.375;    0.000
681.982;  989.850;  189.375;    0.000
682.093;  968.850;  222.375;    0.000
682.203;  949.850;  220.375;    0.000
682.314;  984.850;  214.375;    0.000
682.424;  993.850;  208.375;    0.000
682.535;  966.850;  213.375;    0.000
682.646; 1023.850;  302.375;    0.000
682.756;  976.850;  255.375;    0.000
682.867; 1007.850;  244.375;    0.000
682.977;  992.850;  221.375;    0.000
683.088;  986.850;  259.375;    0.000
683.198;  993.850;  212.375;    0.000
683.308;  987.850;  202.375;    0.000
683.419;  957.850;  255.375;    0.000
683.529;  975.850;  217.375;    0.000
683.640; 1028.850;  240.375;    0.000
683.750;  936.850;  181.375;    0.000
683.860;  977.850;  246.375;    0.000
683.971; 1028.850;  254.375;    0.000
684.081;  963.850;  235.375;    0.000
684.191; 1019.850;  251.375;    0.000
684.301;  975.850;  233.375;    0.000
684.412; 1004.850;  202.375;    0.000
684.522;  923.850;  232.375;    0.000
684.632;  947.850;  202.375;    0.000
684.742;  971.850;  254.375;    0.000
684.852;  995.850;  219.375;    0.000
684.963;  969.850;  256.375;    0.000
685.073;  961.850;  253.375;    0.000
685.183;  987.850;  254.375;    0.000
685.293;  959.850;  232.375;    0.000
685.403;  953.850;  242.375;    0.000
685.513; 1036.850;  261.375;    0.000
685.623;  988.850;  245.375;    0.000
685.733;  969.850;  254.375;    0.000
685.843; 1005.850;  249.375;    0.000
685.953;  976.850;  252.375;    0.000
686.063;  977.850;  227.375;    0.000
686.173;  999.850;  223.375;    0.000
686.283;  980.850;  234.375;    0.000
686.393; 1002.850;  239.375;    0.000
686.503;  981.850;  231.375;    0.000
686.612;  952.850;  232.375;    0.000
686.722; 1013.850;  258.375;    0.000
686.832;  981.850;  256.375;    0.000
686.942; 1002.850;  230.375;    0.000
687.052;  942.850;  274.375;    0.000
687.161;  961.850;  269.375;    0.000
687.271;  914.850;  218.375;    0.000
687.381;  924.850;  235.375;    0.000
687.491;  940.850;  262.375;    0.000
687.600;  902.850;  256.375;    0.000
687.710;  960.850;  225.375;    0.000
687.820;  990.850;  230.375;    0.000
687.929;  973.850;  226.375;    0.000
688.039;  949.850;  228.375;    0.000
688.148;  978.850;  249.375;    0.000
688.258;  967.850;  237.375;    0.000
688.367;  894.850;  260.375;    0.000
688.477;  906.850;  200.375;    0.000
688.586;  952.850;  223.375;    0.000
688.696;  914.850;  223.375;    0.000
688.805;  945.850;  257.375;    0.000
688.915;  956.850;  185.375;    0.000
689.024;  982.850;  227.375;    0.000
689.134;  925.850;  224.375;    0.000
689.243;  946.850;  206.375;    0.000
689.352;  912.850;  275.375;    0.000
689.462;  901.850;  233.375;    0.000
689.571;  958.850;  244.375;    0.000
689.680;  930.850;  261.375;    0.000
689.790;  912.850;  192.375;    0.000
689.899;  879.850;  214.375;    0.000
690.008;  954.850;  255.375;    0.000
690.117;  922.850;  219.375;    0.000
690.227; 1004.850;  241.375;    0.000
690.336;  913.850;  231.375;    0.000
690.445;  927.850;  212.375;    0.000
690.554;  890.850;  234.375;    0.000
690.663;  952.850;  210.375;    0.000
690.772;  921.850;  221.375;    0.000
690.881;  966.850;  244.375;    0.000
690.990;  949.850;  247.375;    0.000
691.099;  922.850;  222.375;    0.000
691.209;  921.850;  240.375;    0.000
691.318;  878.850;  223.375;    0.000
691.427;  918.850;  217.375;    0.000
691.536;  970.850;  216.375;    0.000
691.644;  884.850;  194.375;    0.000
691.753;  948.850;  221.375;    0.000
691.862;  858.850;  224.375;    0.000
691.971;  890.850;  191.375;    0.000
692.080;  960.850;  247.375;    0.000
692.189;  955.850;  208.375;    0.000
692.298;  911.850;  203.375;    0.000
692.406;  950.850;  239.375;    0.000
692.515;  928.850;  250.375;    0.000
692.624;  873.850;  226.375;    0.000
692.733;  917.850;  229.375;    0.000
692.842;  951.850;  254.375;    0.000
692.950;  956.850;  242.375;    0.000
693.059;  863.850;  204.375;    0.000
693.168;  944.850;  252.375;    0.000
693.276;  918.850;  195.375;    0.000
693.385;  895.850;  228.375;    0.000
693.494;  917.850;  282.375;    0.000
693.602;  933.850;  221.375;    0.000
693.711;  885.850;  225.375;    0.000
693.819;  886.850;  234.375;    0.000
693.928;  913.850;  229.375;    0.000
694.036;  876.850;  192.375;    0.000
694.145;  964.850;  233.375;    0.000
694.253;  954.850;  277.375;    0.000
694.362;  924.850;  188.375;    0.000
694.470;  918.850;  263.375;    0.000
694.579;  895.850;  253.375;    0.000
694.687;  943.850;  281.375;    0.000
694.795;  888.850;  233.375;    0.000
694.904;  889.850;  223.375;    0.000
695.012;  944.850;  296.375;    0.000
695.120;  941.850;  227.375;    0.000
695.229;  989.850;  269.375;    0.000
695.337;  891.850;  229.375;    0.000
695.445;  992.850;  244.375;    0.000
695.553;  909.850;  259.375;    0.000
695.662;  948.850;  208.375;    0.000
695.770;  874.850;  241.375;    0.000
695.878;  963.850;  239.375;    0.000
695.986;  961.850;  247.375;    0.000
696.094;  880.850;  224.375;    0.000
696.202;  877.850;  205.375;    0.000
696.310;  922.850;  217.375;    0.000
696.419;  907.850;  228.375;    0.000
696.527;  932.850;  246.375;    0.000
696.635;  913.850;  245.375;    0.000
696.743;  938.850;  233.375;    0.000
696.851;  940.850;  251.375;    0.000
696.959;  907.850;  257.375;    0.000
697.067;  881.850;  260.375;    0.000
697.174;  928.850;  223.375;    0.000
697.282;  904.850;  239.375;    0.000
697.390;  993.850;  264.375;    0.000
697.498;  931.850;  227.375;    0.000
697.606;  894.850;  243.375;    0.000
697.714;  961.850;  256.375;    0.000
697.822;  923.850;  278.375;    0.000
697.929;  914.850;  227.375;    0.000
698.037;  917.850;  232.375;    0.000
698.145;  872.850;  256.375;    0.000
698.253;  904.850;  245.375;    0.000
698.360;  947.850;  282.375;    0.000
698.468;  924.850;  244.375;    0.000
698.576;  908.850;  279.375;    0.000
698.683;  933.850;  259.375;    0.000
698.791;  917.850;  265.375;    0.000
698.899;  935.850;  250.375;    0.000
699.006;  921.850;  245.375;    0.000
699.114;  935.850;  280.375;    0.000
699.221;  934.850;  240.375;    0.000
699.329;  940.850;  293.375;    0.000
699.436;  909.850;  216.375;    0.000
699.544;  930.850;  269.375;    0.000
699.651;  905.850;  219.375;    0.000
699.759;  918.850;  245.375;    0.000
699.866;  925.850;  261.375;    0.000
699.974;  928.850;  245.375;    0.000
700.081;  898.850;  257.375;    0.000
700.188;  962.850;  268.375;    0.000
700.296;  890.850;  225.375;    0.000
700.403;  902.850;  257.375;    0.000
700.510;  897.850;  267.375;    0.000
700.618;  888.850;  299.375;    0.000
700.725;  876.850;  223.375;    0.000
700.832;  902.850;  233.375;    0.000
700.940;  926.850;  255.375;    0.000
701.047;  884.850;  244.375;    0.000
701.154;  903.850;  248.375;    0.000
701.261;  905.850;  264.375;    0.000
701.368;  898.850;  299.375;    0.000
701.475;  904.850;  264.375;    0.000
701.582;  903.850;  275.375;    0.000
701.690;  915.850;  261.375;    0.000
701.797;  956.850;  273.375;    0.000
701.904;  986.850;  320.375;    0.000
702.011;  979.850;  299.375;    0.000
702.118;  933.850;  292.375;    0.000
702.225;  981.850;  317.375;    0.000
702.332;  923.850;  307.375;    0.000
702.439;  990.850;  313.375;    0.000
702.546;  981.850;  312.375;    0.000
702.652;  976.850;  297.375;    0.000
702.759; 1010.850;  345.375;    0.000
702.866;  953.850;  330.375;    0.000
702.973;  984.850;  303.375;    0.000
703.080;  956.850;  303.375;    0.000
703.187;  989.850;  327.375;    0.000
703.294; 1028.850;  325.375;    0.000
703.400;  854.850;  302.375;    0.000
703.507;  395.850;  344.375;    0.000
703.614;  293.850;  294.375;    0.000
703.720;  300.850;  322.375;    0.000
703.827;  305.850;  329.375;    0.000
703.934;  296.850;  318.375;    0.000
704.040;  311.850;  299.375;    0.000
704.147;  322.850;  352.375;    0.000
704.254;  323.850;  350.375;    0.000
704.360;  314.850;  347.375;    0.000
704.467;  339.850;  336.375;    0.000
704.573;  345.850;  344.375;    0.000
704.680;  326.850;  365.375;    0.000
704.786;  321.850;  332.375;    0.000
704.893;  326.850;  304.375;    0.000
704.999;  305.850;  299.375;    0.000
705.106;  350.850;  365.375;    0.000

