
Integration time [ms]:   1.000
Averaging Nr. [scans]: 1
Smoothing Nr. [pixels]: 0
Data measured with spectrometer [name]: VIS
Wave   ;Sample   ;Dark     ;Reference
[nm]   ;[counts] ;[counts] ;[counts] 

450.961;  220.525;  200.375;    0.000
451.100;  250.525;  241.375;    0.000
451.239;  221.525;  201.375;    0.000
451.377;  260.525;  262.375;    0.000
451.516;  208.525;  229.375;    0.000
451.655;  237.525;  211.375;    0.000
451.794;  234.525;  225.375;    0.000
451.932;  220.525;  247.375;    0.000
452.071;  201.525;  260.375;    0.000
452.210;  207.525;  235.375;    0.000
452.348;  240.525;  276.375;    0.000
452.487;  216.525;  259.375;    0.000
452.626;  227.525;  254.375;    0.000
452.764;  250.525;  233.375;    0.000
452.903;  223.525;  202.375;    0.000
453.042;  251.525;  211.375;    0.000
453.180; 2371.525;  240.375;    0.000
453.319; 2523.525;  238.375;    0.000
453.458; 2410.525;  215.375;    0.000
453.596; 2419.525;  252.375;    0.000
453.735; 2493.525;  240.375;    0.000
453.873; 2513.525;  257.375;    0.000
454.012; 2537.525;  228.375;    0.000
454.150; 2530.525;  270.375;    0.000
454.289; 2573.525;  233.375;    0.000
454.427; 2570.525;  243.375;    0.000
454.566; 2588.525;  257.375;    0.000
454.704; 2702.525;  243.375;    0.000
454.843; 2668.525;  190.375;    0.000
454.981; 2686.525;  271.375;    0.000
455.120; 2606.525;  210.375;    0.000
455.258; 2671.525;  235.375;    0.000
455.397; 2666.525;  214.375;    0.000
455.535; 2819.525;  214.375;    0.000
455.674; 2798.525;  184.375;    0.000
455.812; 2772.525;  228.375;    0.000
455.951; 2761.525;  204.375;    0.000
456.089; 2834.525;  220.375;    0.000
456.227; 2815.525;  196.375;    0.000
456.366; 2934.525;  261.375;    0.000
456.504; 2883.525;  249.375;    0.000
456.642; 2914.525;  245.375;    0.000
456.781; 2924.525;  183.375;    0.000
456.919; 3037.525;  203.375;    0.000
457.057; 2928.525;  177.375;    0.000
457.196; 3029.525;  191.375;    0.000
457.334; 3122.525;  233.375;    0.000
457.472; 3093.525;  214.375;    0.000
457.610; 3208.525;  230.375;    0.000
457.749; 3269.525;  247.375;    0.000
457.887; 3300.525;  220.375;    0.000
458.025; 3300.525;  195.375;    0.000
458.163; 3314.525;  224.375;    0.000
458.301; 3425.525;  228.375;    0.000
458.440; 3426.525;  200.375;    0.000
458.578; 3515.525;  233.375;    0.000
458.716; 3511.525;  182.375;    0.000
458.854; 3608.525;  251.375;    0.000
458.992; 3600.525;  187.375;    0.000
459.130; 3590.525;  229.375;    0.000
459.269; 3589.525;  237.375;    0.000
459.407; 3685.525;  228.375;    0.000
459.545; 3611.525;  216.375;    0.000
459.683; 3855.525;  204.375;    0.000
459.821; 3760.525;  191.375;    0.000
459.959; 3872.525;  227.375;    0.000
460.097; 3808.525;  221.375;    0.000
460.235; 3967.525;  241.375;    0.000
460.373; 4033.525;  231.375;    0.000
460.511; 3959.525;  214.375;    0.000
460.649; 3963.525;  172.375;    0.000
460.787; 3921.525;  275.375;    0.000
460.925; 3975.525;  175.375;    0.000
461.063; 4066.525;  252.375;    0.000
461.201; 4101.525;  210.375;    0.000
461.339; 4067.525;  237.375;    0.000
461.477; 4000.525;  210.375;    0.000
461.615; 4227.525;  236.375;    0.000
461.753; 4144.525;  215.375;    0.000
461.891; 4196.525;  222.375;    0.000
462.029; 4441.525;  227.375;    0.000
462.166; 4371.525;  202.375;    0.000
462.304; 4391.525;  191.375;    0.000
462.442; 4443.525;  210.375;    0.000
462.580; 4547.525;  184.375;    0.000
462.718; 4532.525;  220.375;    0.000
462.856; 4411.525;  226.375;    0.000
462.993; 4489.525;  254.375;    0.000
463.131; 4369.525;  200.375;    0.000
463.269; 4337.525;  215.375;    0.000
463.407; 4359.525;  213.375;    0.000
463.545; 4277.525;  242.375;    0.000
463.682; 4382.525;  212.375;    0.000
463.820; 4490.525;  185.375;    0.000
463.958; 4690.525;  212.375;    0.000
464.095; 4767.525;  181.375;    0.000
464.233; 4718.525;  192.375;    0.000
464.371; 4694.525;  247.375;    0.000
464.509; 4768.525;  151.375;    0.000
464.646; 4716.525;  207.375;    0.000
464.784; 4725.525;  199.375;    0.000
464.921; 4546.525;  253.375;    0.000
465.059; 4660.525;  214.375;    0.000
465.197; 4545.525;  200.375;    0.000
465.334; 4473.525;  180.375;    0.000
465.472; 4476.525;  204.375;    0.000
465.609; 4390.525;  203.375;    0.000
465.747; 4313.525;  214.375;    0.000
465.885; 4294.525;  233.375;    0.000
466.022; 4356.525;  215.375;    0.000
466.160; 4227.525;  201.375;    0.000
466.297; 4292.525;  196.375;    0.000
466.435; 4160.525;  230.375;    0.000
466.572; 4214.525;  227.375;    0.000
466.710; 4293.525;  218.375;    0.000
466.847; 4299.525;  245.375;    0.000
466.985; 4213.525;  223.375;    0.000
467.122; 4299.525;  168.375;    0.000
467.260; 4102.525;  196.375;    0.000
467.397; 4158.525;  198.375;    0.000
467.534; 4249.525;  219.375;    0.000
467.672; 4324.525;  214.375;    0.000
467.809; 4093.525;  185.375;    0.000
467.947; 4160.525;  247.375;    0.000
468.084; 4158.525;  196.375;    0.000
468.221; 4290.525;  238.375;    0.000
468.359; 4109.525;  236.375;    0.000
468.496; 4230.525;  235.375;    0.000
468.633; 4181.525;  218.375;    0.000
468.771; 4142.525;  223.375;    0.000
468.908; 4172.525;  208.375;    0.000
469.045; 4276.525;  249.375;    0.000
469.183; 4300.525;  222.375;    0.000
469.320; 4276.525;  216.375;    0.000
469.457; 4402.525;  224.375;    0.000
469.594; 4479.525;  259.375;    0.000
469.732; 4331.525;  223.375;    0.000
469.869; 4365.525;  234.375;    0.000
470.006; 4453.525;  225.375;    0.000
470.143; 4424.525;  243.375;    0.000
470.280; 4603.525;  208.375;    0.000
470.417; 4593.525;  232.375;    0.000
470.555; 4624.525;  218.375;    0.000
470.692; 4528.525;  223.375;    0.000
470.829; 4521.525;  238.375;    0.000
470.966; 4471.525;  205.375;    0.000
471.103; 4508.525;  259.375;    0.000
471.240; 4541.525;  214.375;    0.000
471.377; 4491.525;  226.375;    0.000
471.514; 4594.525;  250.375;    0.000
471.651; 4417.525;  221.375;    0.000
471.789; 4357.525;  242.375;    0.000
471.926; 4476.525;  190.375;    0.000
472.063; 4543.525;  234.375;    0.000
472.200; 4548.525;  252.375;    0.000
472.337; 4422.525;  241.375;    0.000
472.474; 4524.525;  244.375;    0.000
472.611; 4421.525;  268.375;    0.000
472.748; 4405.525;  222.375;    0.000
472.884; 4413.525;  271.375;    0.000
473.021; 4424.525;  195.375;    0.000
473.158; 4349.525;  205.375;    0.000
473.295; 4368.525;  223.375;    0.000
473.432; 4422.525;  216.375;    0.000
473.569; 4330.525;  196.375;    0.000
473.706; 4261.525;  190.375;    0.000
473.843; 4362.525;  211.375;    0.000
473.980; 4353.525;  254.375;    0.000
474.117; 4290.525;  185.375;    0.000
474.253; 4422.525;  229.375;    0.000
474.390; 4446.525;  238.375;    0.000
474.527; 4436.525;  220.375;    0.000
474.664; 4338.525;  242.375;    0.000
474.801; 4412.525;  229.375;    0.000
474.937; 4376.525;  229.375;    0.000
475.074; 4532.525;  210.375;    0.000
475.211; 4415.525;  219.375;    0.000
475.348; 4564.525;  226.375;    0.000
475.484; 4413.525;  207.375;    0.000
475.621; 4467.525;  233.375;    0.000
475.758; 4421.525;  230.375;    0.000
475.894; 4455.525;  234.375;    0.000
476.031; 4435.525;  202.375;    0.000
476.168; 4502.525;  222.375;    0.000
476.304; 4503.525;  237.375;    0.000
476.441; 4488.525;  238.375;    0.000
476.578; 4533.525;  216.375;    0.000
476.714; 4531.525;  212.375;    0.000
476.851; 4638.525;  210.375;    0.000
476.987; 4693.525;  239.375;    0.000
477.124; 4689.525;  250.375;    0.000
477.261; 4698.525;  227.375;    0.000
477.397; 4569.525;  189.375;    0.000
477.534; 4580.525;  204.375;    0.000
477.670; 4698.525;  190.375;    0.000
477.807; 4584.525;  198.375;    0.000
477.943; 4794.525;  216.375;    0.000
478.080; 4788.525;  213.375;    0.000
478.216; 4781.525;  239.375;    0.000
478.353; 4798.525;  218.375;    0.000
478.489; 4891.525;  184.375;    0.000
478.626; 4970.525;  223.375;    0.000
478.762; 4955.525;  213.375;    0.000
478.898; 4956.525;  216.375;    0.000
479.035; 4834.525;  250.375;    0.000
479.171; 4965.525;  201.375;    0.000
479.308; 4802.525;  242.375;    0.000
479.444; 4881.525;  205.375;    0.000
479.580; 4981.525;  203.375;    0.000
479.717; 4950.525;  260.375;    0.000
479.853; 4848.525;  225.375;    0.000
479.989; 5042.525;  226.375;    0.000
480.126; 4984.525;  211.375;    0.000
480.262; 5102.525;  220.375;    0.000
480.398; 5110.525;  207.375;    0.000
480.535; 4963.525;  179.375;    0.000
480.671; 4998.525;  200.375;    0.000
480.807; 5091.525;  190.375;    0.000
480.943; 4976.525;  165.375;    0.000
481.080; 4972.525;  210.375;    0.000
481.216; 5051.525;  232.375;    0.000
481.352; 5046.525;  235.375;    0.000
481.488; 4981.525;  208.375;    0.000
481.624; 4973.525;  245.375;    0.000
481.760; 4975.525;  210.375;    0.000
481.897; 5033.525;  189.375;    0.000
482.033; 4962.525;  256.375;    0.000
482.169; 4972.525;  257.375;    0.000
482.305; 4944.525;  199.375;    0.000
482.441; 5029.525;  182.375;    0.000
482.577; 5110.525;  223.375;    0.000
482.713; 4938.525;  243.375;    0.000
482.849; 5007.525;  197.375;    0.000
482.985; 5001.525;  240.375;    0.000
483.121; 5092.525;  210.375;    0.000
483.258; 5060.525;  248.375;    0.000
483.394; 5014.525;  224.375;    0.000
483.530; 5041.525;  209.375;    0.000
483.665; 5098.525;  225.375;    0.000
483.801; 4955.525;  216.375;    0.000
483.937; 5165.525;  211.375;    0.000
484.073; 5036.525;  259.375;    0.000
484.209; 5026.525;  191.375;    0.000
484.345; 5132.525;  239.375;    0.000
484.481; 5151.525;  231.375;    0.000
484.617; 5044.525;  216.375;    0.000
484.753; 5071.525;  180.375;    0.000
484.889; 5202.525;  252.375;    0.000
485.025; 5109.525;  244.375;    0.000
485.161; 5085.525;  242.375;    0.000
485.296; 5175.525;  235.375;    0.000
485.432; 5137.525;  247.375;    0.000
485.568; 5096.525;  203.375;    0.000
485.704; 5104.525;  229.375;    0.000
485.840; 5072.525;  230.375;    0.000
485.975; 5133.525;  266.375;    0.000
486.111; 5132.525;  220.375;    0.000
486.247; 5137.525;  264.375;    0.000
486.383; 5117.525;  213.375;    0.000
486.518; 5231.525;  222.375;    0.000
486.654; 5184.525;  244.375;    0.000
486.790; 5191.525;  273.375;    0.000
486.926; 5066.525;  203.375;    0.000
487.061; 5088.525;  227.375;    0.000
487.197; 5199.525;  210.375;    0.000
487.333; 5087.525;  209.375;    0.000
487.468; 5065.525;  197.375;    0.000
487.604; 5084.525;  230.375;    0.000
487.740; 5161.525;  254.375;    0.000
487.875; 5143.525;  286.375;    0.000
488.011; 5107.525;  225.375;    0.000
488.146; 5068.525;  251.375;    0.000
488.282; 5195.525;  242.375;    0.000
488.417; 5198.525;  230.375;    0.000
488.553; 5123.525;  260.375;    0.000
488.688; 5065.525;  207.375;    0.000
488.824; 5051.525;  204.375;    0.000
488.960; 5127.525;  248.375;    0.000
489.095; 5106.525;  204.375;    0.000
489.230; 5203.525;  227.375;    0.000
489.366; 5214.525;  226.375;    0.000
489.501; 5149.525;  199.375;    0.000
489.637; 5175.525;  233.375;    0.000
489.772; 5188.525;  249.375;    0.000
489.908; 5139.525;  200.375;    0.000
490.043; 5182.525;  246.375;    0.000
490.178; 5246.525;  222.375;    0.000
490.314; 5163.525;  219.375;    0.000
490.449; 5223.525;  227.375;    0.000
490.585; 5113.525;  209.375;    0.000
490.720; 5096.525;  238.375;    0.000
490.855; 5292.525;  222.375;    0.000
490.991; 5145.525;  202.375;    0.000
491.126; 5139.525;  272.375;    0.000
491.261; 5162.525;  261.375;    0.000
491.396; 5023.525;  190.375;    0.000
491.532; 5033.525;  202.375;    0.000
491.667; 5236.525;  208.375;    0.000
491.802; 5127.525;  203.375;    0.000
491.937; 5030.525;  253.375;    0.000
492.073; 5125.525;  242.375;    0.000
492.208; 5114.525;  230.375;    0.000
492.343; 5215.525;  183.375;    0.000
492.478; 5261.525;  246.375;    0.000
492.613; 5258.525;  223.375;    0.000
492.749; 5128.525;  230.375;    0.000
492.884; 5136.525;  190.375;    0.000
493.019; 5107.525;  234.375;    0.000
493.154; 5128.525;  218.375;    0.000
493.289; 5170.525;  222.375;    0.000
493.424; 5179.525;  196.375;    0.000
493.559; 5049.525;  202.375;    0.000
493.694; 5101.525;  180.375;    0.000
493.829; 5157.525;  224.375;    0.000
493.964; 5238.525;  218.375;    0.000
494.099; 5129.525;  275.375;    0.000
494.234; 5224.525;  226.375;    0.000
494.369; 5108.525;  225.375;    0.000
494.504; 5232.525;  219.375;    0.000
494.639; 5216.525;  296.375;    0.000
494.774; 5122.525;  228.375;    0.000
494.909; 5069.525;  222.375;    0.000
495.044; 5119.525;  215.375;    0.000
495.179; 5131.525;  200.375;    0.000
495.314; 5115.525;  235.375;    0.000
495.449; 5134.525;  249.375;    0.000
495.584; 5090.525;  228.375;    0.000
495.719; 5121.525;  212.375;    0.000
495.854; 5275.525;  201.375;    0.000
495.988; 5119.525;  248.375;    0.000
496.123; 5182.525;  209.375;    0.000
496.258; 5184.525;  249.375;    0.000
496.393; 5258.525;  223.375;    0.000
496.528; 5199.525;  209.375;    0.000
496.663; 5261.525;  207.375;    0.000
496.797; 5280.525;  229.375;    0.000
496.932; 5361.525;  225.375;    0.000
497.067; 5406.525;  218.375;    0.000
497.202; 5415.525;  163.375;    0.000
497.336; 5392.525;  246.375;    0.000
497.471; 5415.525;  229.375;    0.000
497.606; 5542.525;  251.375;    0.000
497.740; 5620.525;  220.375;    0.000
497.875; 5643.525;  216.375;    0.000
498.010; 5685.525;  226.375;    0.000
498.144; 5731.525;  237.375;    0.000
498.279; 5836.525;  196.375;    0.000
498.414; 5891.525;  219.375;    0.000
498.548; 5967.525;  205.375;    0.000
498.683; 6048.525;  206.375;    0.000
498.817; 6123.525;  225.375;    0.000
498.952; 6239.525;  221.375;    0.000
499.087; 6261.525;  220.375;    0.000
499.221; 6577.525;  233.375;    0.000
499.356; 6671.525;  230.375;    0.000
499.490; 6851.525;  229.375;    0.000
499.625; 7019.525;  231.375;    0.000
499.759; 7212.525;  243.375;    0.000
499.894; 7440.525;  241.375;    0.000
500.028; 7601.525;  264.375;    0.000
500.162; 7789.525;  287.375;    0.000
500.297; 7911.525;  234.375;    0.000
500.431; 7651.525;  230.375;    0.000
500.566; 7819.525;  213.375;    0.000
500.700; 7962.525;  243.375;    0.000
500.835; 7810.525;  272.375;    0.000
500.969; 7453.525;  188.375;    0.000
501.103; 7409.525;  200.375;    0.000
501.238; 7249.525;  257.375;    0.000
501.372; 7032.525;  224.375;    0.000
501.506; 6686.525;  225.375;    0.000
501.641; 6622.525;  271.375;    0.000
501.775; 6466.525;  199.375;    0.000
501.909; 6314.525;  249.375;    0.000
502.043; 6227.525;  211.375;    0.000
502.178; 6220.525;  269.375;    0.000
502.312; 5922.525;  198.375;    0.000
502.446; 5952.525;  256.375;    0.000
502.580; 5704.525;  195.375;    0.000
502.715; 5689.525;  224.375;    0.000
502.849; 5661.525;  245.375;    0.000
502.983; 5548.525;  250.375;    0.000
503.117; 5539.525;  193.375;    0.000
503.251; 5409.525;  242.375;    0.000
503.385; 5444.525;  227.375;    0.000
503.520; 5252.525;  235.375;    0.000
503.654; 5143.525;  220.375;    0.000
503.788; 5299.525;  267.375;    0.000
503.922; 5220.525;  220.375;    0.000
504.056; 5181.525;  238.375;    0.000
504.190; 5113.525;  212.375;    0.000
504.324; 5031.525;  265.375;    0.000
504.458; 4941.525;  228.375;    0.000
504.592; 5005.525;  231.375;    0.000
504.726; 4872.525;  218.375;    0.000
504.860; 4894.525;  253.375;    0.000
504.994; 4847.525;  217.375;    0.000
505.128; 4808.525;  243.375;    0.000
505.262; 4718.525;  194.375;    0.000
505.396; 4741.525;  210.375;    0.000
505.530; 4526.525;  211.375;    0.000
505.664; 4621.525;  219.375;    0.000
505.798; 4579.525;  240.375;    0.000
505.932; 4562.525;  240.375;    0.000
506.066; 4528.525;  252.375;    0.000
506.199; 4430.525;  242.375;    0.000
506.333; 4374.525;  244.375;    0.000
506.467; 4361.525;  223.375;    0.000
506.601; 4256.525;  183.375;    0.000
506.735; 4261.525;  249.375;    0.000
506.869; 4282.525;  270.375;    0.000
507.002; 4320.525;  207.375;    0.000
507.136; 4140.525;  242.375;    0.000
507.270; 4301.525;  232.375;    0.000
507.404; 4202.525;  195.375;    0.000
507.537; 4198.525;  218.375;    0.000
507.671; 4145.525;  246.375;    0.000
507.805; 4141.525;  244.375;    0.000
507.939; 4068.525;  251.375;    0.000
508.072; 4118.525;  212.375;    0.000
508.206; 4086.525;  198.375;    0.000
508.340; 3972.525;  234.375;    0.000
508.473; 3992.525;  217.375;    0.000
508.607; 3985.525;  224.375;    0.000
508.740; 4004.525;  207.375;    0.000
508.874; 4026.525;  230.375;    0.000
509.008; 4039.525;  246.375;    0.000
509.141; 4127.525;  239.375;    0.000
509.275; 3886.525;  229.375;    0.000
509.408; 4055.525;  234.375;    0.000
509.542; 4000.525;  212.375;    0.000
509.675; 4061.525;  256.375;    0.000
509.809; 3901.525;  232.375;    0.000
509.942; 3898.525;  237.375;    0.000
510.076; 3847.525;  226.375;    0.000
510.209; 3921.525;  251.375;    0.000
510.343; 3884.525;  229.375;    0.000
510.476; 3832.525;  285.375;    0.000
510.610; 3838.525;  211.375;    0.000
510.743; 3821.525;  258.375;    0.000
510.877; 3892.525;  244.375;    0.000
511.010; 3805.525;  235.375;    0.000
511.143; 3833.525;  251.375;    0.000
511.277; 3890.525;  228.375;    0.000
511.410; 3784.525;  216.375;    0.000
511.543; 3761.525;  231.375;    0.000
511.677; 3902.525;  244.375;    0.000
511.810; 3904.525;  186.375;    0.000
511.943; 3728.525;  211.375;    0.000
512.077; 3817.525;  201.375;    0.000
512.210; 3758.525;  194.375;    0.000
512.343; 3866.525;  233.375;    0.000
512.476; 3757.525;  234.375;    0.000
512.610; 3813.525;  224.375;    0.000
512.743; 3848.525;  255.375;    0.000
512.876; 3780.525;  264.375;    0.000
513.009; 3776.525;  283.375;    0.000
513.142; 3774.525;  246.375;    0.000
513.276; 3760.525;  217.375;    0.000
513.409; 3657.525;  222.375;    0.000
513.542; 3697.525;  237.375;    0.000
513.675; 3751.525;  238.375;    0.000
513.808; 3766.525;  220.375;    0.000
513.941; 3717.525;  233.375;    0.000
514.074; 3802.525;  248.375;    0.000
514.207; 3688.525;  233.375;    0.000
514.340; 3723.525;  190.375;    0.000
514.474; 3814.525;  221.375;    0.000
514.607; 3794.525;  213.375;    0.000
514.740; 3774.525;  251.375;    0.000
514.873; 3799.525;  257.375;    0.000
515.006; 3797.525;  268.375;    0.000
515.139; 3764.525;  257.375;    0.000
515.272; 3860.525;  227.375;    0.000
515.404; 3858.525;  238.375;    0.000
515.537; 3845.525;  275.375;    0.000
515.670; 3936.525;  239.375;    0.000
515.803; 3911.525;  223.375;    0.000
515.936; 3831.525;  202.375;    0.000
516.069; 3968.525;  188.375;    0.000
516.202; 4042.525;  240.375;    0.000
516.335; 4099.525;  252.375;    0.000
516.468; 4313.525;  254.375;    0.000
516.600; 5301.525;  254.375;    0.000
516.733; 6705.525;  255.375;    0.000
516.866; 6486.525;  265.375;    0.000
516.999; 5691.525;  251.375;    0.000
517.132; 7152.525;  256.375;    0.000
517.264;10056.525;  202.375;    0.000
517.397; 9630.525;  248.375;    0.000
517.530; 6976.525;  221.375;    0.000
517.663; 5907.525;  244.375;    0.000
517.795; 5467.525;  245.375;    0.000
517.928; 5253.525;  236.375;    0.000
518.061; 5344.525;  219.375;    0.000
518.193; 7325.525;  251.375;    0.000
518.326;11601.525;  271.375;    0.000
518.459;12103.525;  207.375;    0.000
518.591; 8910.525;  217.375;    0.000
518.724; 6647.525;  200.375;    0.000
518.857; 5668.525;  204.375;    0.000
518.989; 5378.525;  242.375;    0.000
519.122; 4987.525;  254.375;    0.000
519.254; 4714.525;  239.375;    0.000
519.387; 4483.525;  235.375;    0.000
519.519; 4421.525;  227.375;    0.000
519.652; 4308.525;  178.375;    0.000
519.784; 4157.525;  226.375;    0.000
519.917; 4100.525;  256.375;    0.000
520.049; 4055.525;  234.375;    0.000
520.182; 3944.525;  258.375;    0.000
520.314; 3999.525;  298.375;    0.000
520.447; 3878.525;  204.375;    0.000
520.579; 3849.525;  235.375;    0.000
520.712; 3795.525;  208.375;    0.000
520.844; 3803.525;  272.375;    0.000
520.976; 3649.525;  234.375;    0.000
521.109; 3640.525;  235.375;    0.000
521.241; 3646.525;  250.375;    0.000
521.373; 3553.525;  233.375;    0.000
521.506; 3629.525;  231.375;    0.000
521.638; 3680.525;  258.375;    0.000
521.770; 3549.525;  226.375;    0.000
521.903; 3566.525;  258.375;    0.000
522.035; 3522.525;  263.375;    0.000
522.167; 3468.525;  214.375;    0.000
522.300; 3451.525;  212.375;    0.000
522.432; 3424.525;  220.375;    0.000
522.564; 3412.525;  228.375;    0.000
522.696; 3392.525;  272.375;    0.000
522.828; 3495.525;  222.375;    0.000
522.961; 3497.525;  205.375;    0.000
523.093; 3519.525;  253.375;    0.000
523.225; 3353.525;  239.375;    0.000
523.357; 3247.525;  263.375;    0.000
523.489; 3371.525;  264.375;    0.000
523.621; 3338.525;  259.375;    0.000
523.753; 3287.525;  233.375;    0.000
523.885; 3274.525;  232.375;    0.000
524.018; 3333.525;  214.375;    0.000
524.150; 3243.525;  235.375;    0.000
524.282; 3258.525;  242.375;    0.000
524.414; 3343.525;  261.375;    0.000
524.546; 3296.525;  233.375;    0.000
524.678; 3202.525;  242.375;    0.000
524.810; 3213.525;  216.375;    0.000
524.942; 3160.525;  220.375;    0.000
525.074; 3143.525;  249.375;    0.000
525.206; 3091.525;  227.375;    0.000
525.338; 3176.525;  250.375;    0.000
525.469; 3194.525;  231.375;    0.000
525.601; 3133.525;  245.375;    0.000
525.733; 3153.525;  187.375;    0.000
525.865; 3123.525;  280.375;    0.000
525.997; 3241.525;  216.375;    0.000
526.129; 3088.525;  228.375;    0.000
526.261; 3200.525;  187.375;    0.000
526.393; 3178.525;  228.375;    0.000
526.524; 3145.525;  201.375;    0.000
526.656; 3094.525;  199.375;    0.000
526.788; 3107.525;  233.375;    0.000
526.920; 3021.525;  256.375;    0.000
527.052; 3042.525;  219.375;    0.000
527.183; 3122.525;  227.375;    0.000
527.315; 3080.525;  266.375;    0.000
527.447; 3049.525;  239.375;    0.000
527.578; 3070.525;  213.375;    0.000
527.710; 3148.525;  216.375;    0.000
527.842; 3094.525;  240.375;    0.000
527.973; 3007.525;  286.375;    0.000
528.105; 2952.525;  222.375;    0.000
528.237; 3050.525;  223.375;    0.000
528.368; 2951.525;  211.375;    0.000
528.500; 2964.525;  215.375;    0.000
528.632; 3007.525;  216.375;    0.000
528.763; 2947.525;  234.375;    0.000
528.895; 2922.525;  196.375;    0.000
529.026; 2967.525;  202.375;    0.000
529.158; 3105.525;  226.375;    0.000
529.289; 3041.525;  229.375;    0.000
529.421; 2963.525;  264.375;    0.000
529.552; 3004.525;  265.375;    0.000
529.684; 3059.525;  260.375;    0.000
529.815; 3050.525;  284.375;    0.000
529.947; 3050.525;  237.375;    0.000
530.078; 3015.525;  223.375;    0.000
530.210; 2955.525;  223.375;    0.000
530.341; 3045.525;  209.375;    0.000
530.472; 2950.525;  203.375;    0.000
530.604; 2982.525;  223.375;    0.000
530.735; 3033.525;  218.375;    0.000
530.867; 2947.525;  222.375;    0.000
530.998; 3002.525;  239.375;    0.000
531.129; 3050.525;  250.375;    0.000
531.260; 3082.525;  224.375;    0.000
531.392; 2922.525;  216.375;    0.000
531.523; 3055.525;  234.375;    0.000
531.654; 2982.525;  256.375;    0.000
531.786; 3024.525;  226.375;    0.000
531.917; 3046.525;  239.375;    0.000
532.048; 3020.525;  205.375;    0.000
532.179; 3053.525;  244.375;    0.000
532.311; 2942.525;  235.375;    0.000
532.442; 3043.525;  258.375;    0.000
532.573; 2932.525;  220.375;    0.000
532.704; 2915.525;  213.375;    0.000
532.835; 3016.525;  249.375;    0.000
532.966; 2998.525;  226.375;    0.000
533.097; 2995.525;  246.375;    0.000
533.229; 2965.525;  237.375;    0.000
533.360; 2947.525;  225.375;    0.000
533.491; 2931.525;  241.375;    0.000
533.622; 3010.525;  242.375;    0.000
533.753; 3019.525;  264.375;    0.000
533.884; 3082.525;  245.375;    0.000
534.015; 3005.525;  269.375;    0.000
534.146; 3035.525;  267.375;    0.000
534.277; 3018.525;  282.375;    0.000
534.408; 2983.525;  229.375;    0.000
534.539; 3026.525;  269.375;    0.000
534.670; 3080.525;  231.375;    0.000
534.801; 3035.525;  260.375;    0.000
534.932; 2912.525;  232.375;    0.000
535.063; 3019.525;  227.375;    0.000
535.194; 2942.525;  281.375;    0.000
535.324; 2973.525;  206.375;    0.000
535.455; 2971.525;  257.375;    0.000
535.586; 2991.525;  275.375;    0.000
535.717; 2897.525;  206.375;    0.000
535.848; 3008.525;  271.375;    0.000
535.979; 2982.525;  250.375;    0.000
536.109; 2967.525;  253.375;    0.000
536.240; 2951.525;  234.375;    0.000
536.371; 2926.525;  230.375;    0.000
536.502; 2961.525;  270.375;    0.000
536.632; 2902.525;  228.375;    0.000
536.763; 2915.525;  249.375;    0.000
536.894; 2977.525;  262.375;    0.000
537.025; 2850.525;  258.375;    0.000
537.155; 2882.525;  278.375;    0.000
537.286; 2904.525;  209.375;    0.000
537.417; 2887.525;  255.375;    0.000
537.547; 2852.525;  208.375;    0.000
537.678; 2814.525;  224.375;    0.000
537.808; 2832.525;  224.375;    0.000
537.939; 2929.525;  257.375;    0.000
538.070; 2899.525;  240.375;    0.000
538.200; 2943.525;  259.375;    0.000
538.331; 2906.525;  235.375;    0.000
538.461; 2871.525;  251.375;    0.000
538.592; 2958.525;  245.375;    0.000
538.722; 2901.525;  239.375;    0.000
538.853; 2835.525;  216.375;    0.000
538.983; 2848.525;  226.375;    0.000
539.114; 2901.525;  240.375;    0.000
539.244; 2846.525;  237.375;    0.000
539.375; 2900.525;  198.375;    0.000
539.505; 2803.525;  263.375;    0.000
539.636; 2851.525;  226.375;    0.000
539.766; 2946.525;  229.375;    0.000
539.896; 2854.525;  219.375;    0.000
540.027; 2819.525;  246.375;    0.000
540.157; 2895.525;  218.375;    0.000
540.287; 2927.525;  216.375;    0.000
540.418; 2940.525;  267.375;    0.000
540.548; 2864.525;  260.375;    0.000
540.678; 2901.525;  242.375;    0.000
540.809; 2843.525;  260.375;    0.000
540.939; 2879.525;  257.375;    0.000
541.069; 2825.525;  226.375;    0.000
541.200; 2949.525;  227.375;    0.000
541.330; 2942.525;  218.375;    0.000
541.460; 2859.525;  223.375;    0.000
541.590; 2937.525;  237.375;    0.000
541.720; 2810.525;  222.375;    0.000
541.851; 2808.525;  250.375;    0.000
541.981; 2866.525;  222.375;    0.000
542.111; 2895.525;  212.375;    0.000
542.241; 2990.525;  205.375;    0.000
542.371; 2932.525;  202.375;    0.000
542.501; 2911.525;  218.375;    0.000
542.631; 2964.525;  222.375;    0.000
542.761; 3035.525;  249.375;    0.000
542.891; 2914.525;  173.375;    0.000
543.021; 2875.525;  218.375;    0.000
543.151; 2991.525;  222.375;    0.000
543.281; 2953.525;  188.375;    0.000
543.411; 2973.525;  239.375;    0.000
543.542; 2884.525;  215.375;    0.000
543.671; 2961.525;  250.375;    0.000
543.801; 2961.525;  212.375;    0.000
543.931; 2958.525;  233.375;    0.000
544.061; 2976.525;  194.375;    0.000
544.191; 2971.525;  218.375;    0.000
544.321; 2964.525;  220.375;    0.000
544.451; 2982.525;  183.375;    0.000
544.581; 2990.525;  221.375;    0.000
544.711; 2997.525;  224.375;    0.000
544.841; 3041.525;  214.375;    0.000
544.970; 3051.525;  227.375;    0.000
545.100; 2988.525;  186.375;    0.000
545.230; 3032.525;  205.375;    0.000
545.360; 3058.525;  211.375;    0.000
545.490; 3020.525;  202.375;    0.000
545.619; 2973.525;  182.375;    0.000
545.749; 2959.525;  174.375;    0.000
545.879; 2945.525;  169.375;    0.000
546.009; 2958.525;  182.375;    0.000
546.138; 2969.525;  200.375;    0.000
546.268; 2928.525;  204.375;    0.000
546.398; 2857.525;  200.375;    0.000
546.527; 2998.525;  179.375;    0.000
546.657; 2926.525;  162.375;    0.000
546.786; 3008.525;  179.375;    0.000
546.916; 2947.525;  221.375;    0.000
547.046; 2940.525;  179.375;    0.000
547.175; 2964.525;  168.375;    0.000
547.305; 2908.525;  200.375;    0.000
547.434; 2931.525;  166.375;    0.000
547.564; 2895.525;  177.375;    0.000
547.693; 2969.525;  152.375;    0.000
547.823; 2971.525;  171.375;    0.000
547.953; 2959.525;  195.375;    0.000
548.082; 2967.525;  214.375;    0.000
548.211; 2907.525;  177.375;    0.000
548.341; 2990.525;  189.375;    0.000
548.470; 2963.525;  194.375;    0.000
548.600; 2927.525;  172.375;    0.000
548.729; 2923.525;  158.375;    0.000
548.859; 2901.525;  193.375;    0.000
548.988; 3000.525;  131.375;    0.000
549.117; 2971.525;  204.375;    0.000
549.247; 2941.525;  191.375;    0.000
549.376; 3037.525;  202.375;    0.000
549.505; 2972.525;  187.375;    0.000
549.635; 2871.525;  198.375;    0.000
549.764; 2991.525;  155.375;    0.000
549.893; 2968.525;  176.375;    0.000
550.023; 2986.525;  202.375;    0.000
550.152; 2901.525;  168.375;    0.000
550.281; 3073.525;  180.375;    0.000
550.410; 3057.525;  180.375;    0.000
550.539; 3031.525;  181.375;    0.000
550.669; 2970.525;  168.375;    0.000
550.798; 3046.525;  223.375;    0.000
550.927; 3060.525;  179.375;    0.000
551.056; 2986.525;  159.375;    0.000
551.185; 3047.525;  199.375;    0.000
551.314; 2974.525;  185.375;    0.000
551.443; 2942.525;  172.375;    0.000
551.573; 3023.525;  158.375;    0.000
551.702; 3016.525;  210.375;    0.000
551.831; 3073.525;  238.375;    0.000
551.960; 3098.525;  191.375;    0.000
552.089; 3162.525;  195.375;    0.000
552.218; 3123.525;  196.375;    0.000
552.347; 3113.525;  194.375;    0.000
552.476; 3128.525;  192.375;    0.000
552.605; 3004.525;  172.375;    0.000
552.734; 3234.525;  214.375;    0.000
552.863; 3387.525;  177.375;    0.000
552.992; 3332.525;  190.375;    0.000
553.121; 3283.525;  185.375;    0.000
553.249; 3177.525;  175.375;    0.000
553.378; 3204.525;  192.375;    0.000
553.507; 3141.525;  193.375;    0.000
553.636; 3201.525;  182.375;    0.000
553.765; 3161.525;  187.375;    0.000
553.894; 3078.525;  214.375;    0.000
554.023; 3155.525;  217.375;    0.000
554.151; 3028.525;  223.375;    0.000
554.280; 3034.525;  170.375;    0.000
554.409; 3118.525;  172.375;    0.000
554.538; 3128.525;  182.375;    0.000
554.666; 3101.525;  195.375;    0.000
554.795; 3091.525;  176.375;    0.000
554.924; 3060.525;  164.375;    0.000
555.052; 2980.525;  171.375;    0.000
555.181; 3041.525;  208.375;    0.000
555.310; 3112.525;  214.375;    0.000
555.439; 2937.525;  193.375;    0.000
555.567; 3013.525;  189.375;    0.000
555.696; 3001.525;  196.375;    0.000
555.824; 2982.525;  183.375;    0.000
555.953; 3007.525;  234.375;    0.000
556.082; 3016.525;  183.375;    0.000
556.210; 2898.525;  199.375;    0.000
556.339; 2984.525;  201.375;    0.000
556.467; 2930.525;  208.375;    0.000
556.596; 3043.525;  194.375;    0.000
556.724; 2897.525;  170.375;    0.000
556.853; 2940.525;  166.375;    0.000
556.981; 2999.525;  185.375;    0.000
557.110; 2866.525;  213.375;    0.000
557.238; 2867.525;  188.375;    0.000
557.367; 2934.525;  176.375;    0.000
557.495; 2965.525;  180.375;    0.000
557.623; 2899.525;  193.375;    0.000
557.752; 2914.525;  207.375;    0.000
557.880; 2983.525;  189.375;    0.000
558.008; 2856.525;  169.375;    0.000
558.137; 2958.525;  203.375;    0.000
558.265; 2891.525;  167.375;    0.000
558.393; 3014.525;  204.375;    0.000
558.522; 2883.525;  203.375;    0.000
558.650; 2993.525;  215.375;    0.000
558.778; 2928.525;  190.375;    0.000
558.906; 2951.525;  186.375;    0.000
559.035; 2894.525;  193.375;    0.000
559.163; 2905.525;  198.375;    0.000
559.291; 2896.525;  222.375;    0.000
559.419; 2851.525;  192.375;    0.000
559.548; 2883.525;  186.375;    0.000
559.676; 3024.525;  199.375;    0.000
559.804; 2962.525;  186.375;    0.000
559.932; 2981.525;  202.375;    0.000
560.060; 2981.525;  183.375;    0.000
560.188; 2923.525;  212.375;    0.000
560.316; 2929.525;  192.375;    0.000
560.444; 2918.525;  180.375;    0.000
560.572; 3062.525;  206.375;    0.000
560.700; 3040.525;  184.375;    0.000
560.828; 3021.525;  177.375;    0.000
560.956; 2990.525;  221.375;    0.000
561.085; 2982.525;  227.375;    0.000
561.212; 3048.525;  208.375;    0.000
561.340; 3047.525;  189.375;    0.000
561.468; 3068.525;  189.375;    0.000
561.596; 2960.525;  183.375;    0.000
561.724; 3006.525;  188.375;    0.000
561.852; 3017.525;  183.375;    0.000
561.980; 3043.525;  209.375;    0.000
562.108; 2993.525;  165.375;    0.000
562.236; 3035.525;  188.375;    0.000
562.364; 3032.525;  177.375;    0.000
562.492; 3122.525;  192.375;    0.000
562.619; 3011.525;  187.375;    0.000
562.747; 3132.525;  217.375;    0.000
562.875; 3223.525;  221.375;    0.000
563.003; 3071.525;  199.375;    0.000
563.130; 3078.525;  191.375;    0.000
563.258; 3161.525;  186.375;    0.000
563.386; 3203.525;  191.375;    0.000
563.514; 3259.525;  217.375;    0.000
563.641; 3181.525;  220.375;    0.000
563.769; 3258.525;  186.375;    0.000
563.897; 3284.525;  158.375;    0.000
564.024; 3263.525;  192.375;    0.000
564.152; 3315.525;  217.375;    0.000
564.280; 3332.525;  203.375;    0.000
564.407; 3302.525;  190.375;    0.000
564.535; 3339.525;  188.375;    0.000
564.662; 3375.525;  199.375;    0.000
564.790; 3421.525;  227.375;    0.000
564.917; 3449.525;  160.375;    0.000
565.045; 3488.525;  222.375;    0.000
565.173; 3369.525;  169.375;    0.000
565.300; 3437.525;  208.375;    0.000
565.428; 3498.525;  174.375;    0.000
565.555; 3530.525;  201.375;    0.000
565.682; 3447.525;  180.375;    0.000
565.810; 3670.525;  165.375;    0.000
565.937; 3708.525;  167.375;    0.000
566.065; 3688.525;  190.375;    0.000
566.192; 3774.525;  169.375;    0.000
566.320; 3823.525;  167.375;    0.000
566.447; 3878.525;  151.375;    0.000
566.574; 3803.525;  176.375;    0.000
566.702; 3861.525;  198.375;    0.000
566.829; 3968.525;  209.375;    0.000
566.956; 3955.525;  186.375;    0.000
567.083; 4010.525;  188.375;    0.000
567.211; 3939.525;  159.375;    0.000
567.338; 4054.525;  204.375;    0.000
567.465; 4001.525;  141.375;    0.000
567.593; 4089.525;  168.375;    0.000
567.720; 4044.525;  177.375;    0.000
567.847; 4097.525;  160.375;    0.000
567.974; 4114.525;  139.375;    0.000
568.101; 3950.525;  153.375;    0.000
568.228; 3948.525;  173.375;    0.000
568.356; 3933.525;  149.375;    0.000
568.483; 3872.525;  185.375;    0.000
568.610; 3754.525;  170.375;    0.000
568.737; 3848.525;  223.375;    0.000
568.864; 3833.525;  167.375;    0.000
568.991; 3702.525;  177.375;    0.000
569.118; 3549.525;  169.375;    0.000
569.245; 3520.525;  128.375;    0.000
569.372; 3443.525;  160.375;    0.000
569.499; 3324.525;  156.375;    0.000
569.626; 3396.525;  191.375;    0.000
569.753; 3406.525;  163.375;    0.000
569.880; 3457.525;  167.375;    0.000
570.007; 3353.525;  143.375;    0.000
570.134; 3355.525;  191.375;    0.000
570.261; 3249.525;  164.375;    0.000
570.388; 3360.525;  162.375;    0.000
570.515; 3240.525;  220.375;    0.000
570.642; 3274.525;  184.375;    0.000
570.768; 3273.525;  174.375;    0.000
570.895; 3168.525;  177.375;    0.000
571.022; 3199.525;  152.375;    0.000
571.149; 3237.525;  183.375;    0.000
571.276; 3168.525;  153.375;    0.000
571.402; 3232.525;  190.375;    0.000
571.529; 3259.525;  187.375;    0.000
571.656; 3135.525;  167.375;    0.000
571.783; 3138.525;  186.375;    0.000
571.909; 3207.525;  183.375;    0.000
572.036; 3083.525;  162.375;    0.000
572.163; 3095.525;  196.375;    0.000
572.289; 3159.525;  180.375;    0.000
572.416; 3002.525;  190.375;    0.000
572.543; 3107.525;  174.375;    0.000
572.669; 2995.525;  186.375;    0.000
572.796; 3103.525;  205.375;    0.000
572.922; 2875.525;  185.375;    0.000
573.049; 3070.525;  178.375;    0.000
573.176; 3059.525;  196.375;    0.000
573.302; 3005.525;  202.375;    0.000
573.429; 3005.525;  189.375;    0.000
573.555; 3047.525;  145.375;    0.000
573.682; 2970.525;  228.375;    0.000
573.808; 2927.525;  197.375;    0.000
573.935; 2934.525;  216.375;    0.000
574.061; 3022.525;  173.375;    0.000
574.188; 3017.525;  151.375;    0.000
574.314; 2876.525;  181.375;    0.000
574.440; 2857.525;  167.375;    0.000
574.567; 2928.525;  185.375;    0.000
574.693; 2890.525;  173.375;    0.000
574.820; 2906.525;  164.375;    0.000
574.946; 2911.525;  199.375;    0.000
575.072; 2918.525;  162.375;    0.000
575.198; 2995.525;  225.375;    0.000
575.325; 2882.525;  171.375;    0.000
575.451; 2950.525;  183.375;    0.000
575.577; 2931.525;  190.375;    0.000
575.704; 2978.525;  210.375;    0.000
575.830; 2879.525;  185.375;    0.000
575.956; 2986.525;  168.375;    0.000
576.082; 2860.525;  158.375;    0.000
576.208; 2893.525;  158.375;    0.000
576.335; 2886.525;  196.375;    0.000
576.461; 2977.525;  187.375;    0.000
576.587; 2928.525;  157.375;    0.000
576.713; 2867.525;  156.375;    0.000
576.839; 2826.525;  196.375;    0.000
576.965; 2928.525;  187.375;    0.000
577.091; 2916.525;  204.375;    0.000
577.217; 2901.525;  207.375;    0.000
577.343; 2871.525;  175.375;    0.000
577.469; 2960.525;  197.375;    0.000
577.596; 2865.525;  182.375;    0.000
577.722; 2845.525;  159.375;    0.000
577.848; 2882.525;  162.375;    0.000
577.974; 2819.525;  180.375;    0.000
578.099; 2855.525;  161.375;    0.000
578.225; 2894.525;  180.375;    0.000
578.351; 2902.525;  190.375;    0.000
578.477; 2846.525;  212.375;    0.000
578.603; 2815.525;  179.375;    0.000
578.729; 2891.525;  195.375;    0.000
578.855; 2840.525;  153.375;    0.000
578.981; 2880.525;  162.375;    0.000
579.107; 2958.525;  149.375;    0.000
579.232; 2855.525;  164.375;    0.000
579.358; 2867.525;  162.375;    0.000
579.484; 2867.525;  181.375;    0.000
579.610; 2825.525;  190.375;    0.000
579.735; 2814.525;  191.375;    0.000
579.861; 2873.525;  189.375;    0.000
579.987; 2909.525;  202.375;    0.000
580.113; 2941.525;  197.375;    0.000
580.238; 2874.525;  228.375;    0.000
580.364; 2910.525;  212.375;    0.000
580.490; 2888.525;  225.375;    0.000
580.615; 2960.525;  218.375;    0.000
580.741; 2780.525;  167.375;    0.000
580.867; 2872.525;  215.375;    0.000
580.992; 2878.525;  191.375;    0.000
581.118; 2811.525;  171.375;    0.000
581.243; 2919.525;  204.375;    0.000
581.369; 2783.525;  186.375;    0.000
581.494; 2799.525;  184.375;    0.000
581.620; 2808.525;  212.375;    0.000
581.745; 2897.525;  192.375;    0.000
581.871; 2799.525;  195.375;    0.000
581.996; 2833.525;  160.375;    0.000
582.122; 2889.525;  217.375;    0.000
582.247; 2919.525;  213.375;    0.000
582.373; 2884.525;  187.375;    0.000
582.498; 2839.525;  208.375;    0.000
582.624; 2936.525;  189.375;    0.000
582.749; 2978.525;  185.375;    0.000
582.874; 2809.525;  195.375;    0.000
583.000; 2929.525;  208.375;    0.000
583.125; 2889.525;  147.375;    0.000
583.250; 2911.525;  201.375;    0.000
583.376; 2936.525;  191.375;    0.000
583.501; 2892.525;  206.375;    0.000
583.626; 2874.525;  167.375;    0.000
583.751; 2912.525;  180.375;    0.000
583.877; 2793.525;  185.375;    0.000
584.002; 2865.525;  186.375;    0.000
584.127; 2823.525;  176.375;    0.000
584.252; 2930.525;  214.375;    0.000
584.377; 2893.525;  225.375;    0.000
584.503; 2880.525;  195.375;    0.000
584.628; 2878.525;  206.375;    0.000
584.753; 2879.525;  181.375;    0.000
584.878; 2822.525;  136.375;    0.000
585.003; 2894.525;  215.375;    0.000
585.128; 2875.525;  206.375;    0.000
585.253; 2996.525;  200.375;    0.000
585.378; 2873.525;  169.375;    0.000
585.503; 2884.525;  191.375;    0.000
585.628; 2816.525;  182.375;    0.000
585.753; 2895.525;  164.375;    0.000
585.878; 2909.525;  123.375;    0.000
586.003; 2820.525;  187.375;    0.000
586.128; 2983.525;  198.375;    0.000
586.253; 2899.525;  172.375;    0.000
586.378; 2839.525;  191.375;    0.000
586.503; 2906.525;  190.375;    0.000
586.628; 2999.525;  178.375;    0.000
586.753; 3029.525;  184.375;    0.000
586.878; 2997.525;  169.375;    0.000
587.003; 2953.525;  186.375;    0.000
587.127; 2998.525;  170.375;    0.000
587.252; 3057.525;  170.375;    0.000
587.377; 3018.525;  181.375;    0.000
587.502; 3064.525;  209.375;    0.000
587.627; 3136.525;  210.375;    0.000
587.751; 3150.525;  212.375;    0.000
587.876; 3214.525;  198.375;    0.000
588.001; 3244.525;  161.375;    0.000
588.125; 3381.525;  191.375;    0.000
588.250; 3477.525;  132.375;    0.000
588.375; 3706.525;  183.375;    0.000
588.499; 4060.525;  176.375;    0.000
588.624; 4467.525;  173.375;    0.000
588.749; 5994.525;  204.375;    0.000
588.873; 9566.525;  179.375;    0.000
588.998;13432.525;  182.375;    0.000
589.122;11821.525;  165.375;    0.000
589.247; 8131.525;  185.375;    0.000
589.372; 6946.525;  199.375;    0.000
589.496; 9556.525;  182.375;    0.000
589.621;11497.525;  158.375;    0.000
589.745; 8924.525;  213.375;    0.000
589.870; 5977.525;  175.375;    0.000
589.994; 4710.525;  194.375;    0.000
590.118; 4273.525;  218.375;    0.000
590.243; 3908.525;  170.375;    0.000
590.367; 3695.525;  189.375;    0.000
590.492; 3698.525;  196.375;    0.000
590.616; 3536.525;  182.375;    0.000
590.740; 3398.525;  210.375;    0.000
590.865; 3313.525;  242.375;    0.000
590.989; 3265.525;  191.375;    0.000
591.114; 3344.525;  167.375;    0.000
591.238; 3227.525;  194.375;    0.000
591.362; 3268.525;  236.375;    0.000
591.486; 3262.525;  194.375;    0.000
591.611; 3124.525;  154.375;    0.000
591.735; 3261.525;  186.375;    0.000
591.859; 3185.525;  148.375;    0.000
591.983; 3195.525;  211.375;    0.000
592.107; 3248.525;  204.375;    0.000
592.232; 3203.525;  194.375;    0.000
592.356; 3268.525;  238.375;    0.000
592.480; 3220.525;  179.375;    0.000
592.604; 3191.525;  192.375;    0.000
592.728; 3305.525;  201.375;    0.000
592.852; 3195.525;  158.375;    0.000
592.976; 3203.525;  152.375;    0.000
593.100; 3187.525;  194.375;    0.000
593.224; 3197.525;  235.375;    0.000
593.349; 3218.525;  233.375;    0.000
593.473; 3223.525;  194.375;    0.000
593.597; 3205.525;  215.375;    0.000
593.721; 3227.525;  212.375;    0.000
593.844; 3196.525;  220.375;    0.000
593.968; 3272.525;  221.375;    0.000
594.092; 3251.525;  150.375;    0.000
594.216; 3156.525;  212.375;    0.000
594.340; 3225.525;  209.375;    0.000
594.464; 3191.525;  207.375;    0.000
594.588; 3273.525;  195.375;    0.000
594.712; 3125.525;  176.375;    0.000
594.836; 3123.525;  219.375;    0.000
594.959; 3108.525;  215.375;    0.000
595.083; 3053.525;  200.375;    0.000
595.207; 3062.525;  206.375;    0.000
595.331; 3030.525;  207.375;    0.000
595.455; 3055.525;  206.375;    0.000
595.578; 3033.525;  204.375;    0.000
595.702; 3006.525;  225.375;    0.000
595.826; 3012.525;  186.375;    0.000
595.949; 2916.525;  196.375;    0.000
596.073; 2931.525;  188.375;    0.000
596.197; 2994.525;  217.375;    0.000
596.320; 2942.525;  225.375;    0.000
596.444; 2915.525;  220.375;    0.000
596.568; 2853.525;  155.375;    0.000
596.691; 2907.525;  195.375;    0.000
596.815; 2886.525;  163.375;    0.000
596.938; 2922.525;  181.375;    0.000
597.062; 2879.525;  201.375;    0.000
597.186; 2842.525;  200.375;    0.000
597.309; 2835.525;  214.375;    0.000
597.433; 2938.525;  176.375;    0.000
597.556; 2826.525;  193.375;    0.000
597.680; 2895.525;  241.375;    0.000
597.803; 2782.525;  185.375;    0.000
597.926; 2747.525;  200.375;    0.000
598.050; 2752.525;  193.375;    0.000
598.173; 2808.525;  219.375;    0.000
598.297; 2805.525;  223.375;    0.000
598.420; 2830.525;  187.375;    0.000
598.543; 2773.525;  205.375;    0.000
598.667; 2739.525;  177.375;    0.000
598.790; 2843.525;  208.375;    0.000
598.913; 2724.525;  170.375;    0.000
599.037; 2844.525;  212.375;    0.000
599.160; 2774.525;  165.375;    0.000
599.283; 2793.525;  211.375;    0.000
599.406; 2791.525;  207.375;    0.000
599.530; 2751.525;  182.375;    0.000
599.653; 2737.525;  215.375;    0.000
599.776; 2770.525;  167.375;    0.000
599.899; 2734.525;  190.375;    0.000
600.022; 2755.525;  182.375;    0.000
600.145; 2719.525;  180.375;    0.000
600.269; 2858.525;  208.375;    0.000
600.392; 2766.525;  214.375;    0.000
600.515; 2706.525;  196.375;    0.000
600.638; 2743.525;  204.375;    0.000
600.761; 2773.525;  209.375;    0.000
600.884; 2684.525;  207.375;    0.000
601.007; 2696.525;  234.375;    0.000
601.130; 2608.525;  183.375;    0.000
601.253; 2751.525;  211.375;    0.000
601.376; 2648.525;  199.375;    0.000
601.499; 2743.525;  190.375;    0.000
601.622; 2735.525;  210.375;    0.000
601.745; 2713.525;  180.375;    0.000
601.868; 2763.525;  204.375;    0.000
601.991; 2719.525;  188.375;    0.000
602.113; 2741.525;  210.375;    0.000
602.236; 2575.525;  194.375;    0.000
602.359; 2674.525;  213.375;    0.000
602.482; 2603.525;  169.375;    0.000
602.605; 2639.525;  189.375;    0.000
602.728; 2764.525;  236.375;    0.000
602.850; 2615.525;  230.375;    0.000
602.973; 2650.525;  187.375;    0.000
603.096; 2659.525;  201.375;    0.000
603.219; 2731.525;  209.375;    0.000
603.341; 2683.525;  209.375;    0.000
603.464; 2589.525;  194.375;    0.000
603.587; 2664.525;  166.375;    0.000
603.709; 2653.525;  175.375;    0.000
603.832; 2619.525;  239.375;    0.000
603.955; 2685.525;  205.375;    0.000
604.077; 2678.525;  196.375;    0.000
604.200; 2709.525;  188.375;    0.000
604.323; 2666.525;  224.375;    0.000
604.445; 2739.525;  182.375;    0.000
604.568; 2622.525;  199.375;    0.000
604.690; 2634.525;  175.375;    0.000
604.813; 2654.525;  211.375;    0.000
604.935; 2634.525;  171.375;    0.000
605.058; 2575.525;  196.375;    0.000
605.180; 2656.525;  194.375;    0.000
605.303; 2646.525;  198.375;    0.000
605.425; 2660.525;  212.375;    0.000
605.547; 2686.525;  238.375;    0.000
605.670; 2587.525;  207.375;    0.000
605.792; 2657.525;  204.375;    0.000
605.915; 2570.525;  198.375;    0.000
606.037; 2675.525;  215.375;    0.000
606.159; 2668.525;  170.375;    0.000
606.282; 2609.525;  194.375;    0.000
606.404; 2516.525;  207.375;    0.000
606.526; 2640.525;  208.375;    0.000
606.648; 2535.525;  174.375;    0.000
606.771; 2537.525;  170.375;    0.000
606.893; 2548.525;  182.375;    0.000
607.015; 2573.525;  180.375;    0.000
607.137; 2543.525;  187.375;    0.000
607.260; 2605.525;  202.375;    0.000
607.382; 2634.525;  226.375;    0.000
607.504; 2703.525;  208.375;    0.000
607.626; 2662.525;  229.375;    0.000
607.748; 2667.525;  170.375;    0.000
607.870; 2616.525;  208.375;    0.000
607.992; 2602.525;  184.375;    0.000
608.114; 2585.525;  213.375;    0.000
608.237; 2568.525;  237.375;    0.000
608.359; 2607.525;  176.375;    0.000
608.481; 2635.525;  173.375;    0.000
608.603; 2598.525;  189.375;    0.000
608.725; 2650.525;  185.375;    0.000
608.847; 2623.525;  239.375;    0.000
608.969; 2705.525;  237.375;    0.000
609.090; 2641.525;  189.375;    0.000
609.212; 2574.525;  147.375;    0.000
609.334; 2568.525;  177.375;    0.000
609.456; 2631.525;  196.375;    0.000
609.578; 2542.525;  199.375;    0.000
609.700; 2572.525;  167.375;    0.000
609.822; 2568.525;  140.375;    0.000
609.944; 2631.525;  225.375;    0.000
610.065; 2557.525;  183.375;    0.000
610.187; 2522.525;  170.375;    0.000
610.309; 2569.525;  210.375;    0.000
610.431; 2563.525;  185.375;    0.000
610.552; 2581.525;  197.375;    0.000
610.674; 2558.525;  188.375;    0.000
610.796; 2600.525;  162.375;    0.000
610.918; 2514.525;  200.375;    0.000
611.039; 2491.525;  209.375;    0.000
611.161; 2608.525;  201.375;    0.000
611.282; 2624.525;  197.375;    0.000
611.404; 2571.525;  220.375;    0.000
611.526; 2522.525;  159.375;    0.000
611.647; 2561.525;  205.375;    0.000
611.769; 2585.525;  161.375;    0.000
611.890; 2543.525;  173.375;    0.000
612.012; 2539.525;  225.375;    0.000
612.133; 2524.525;  188.375;    0.000
612.255; 2546.525;  217.375;    0.000
612.377; 2526.525;  219.375;    0.000
612.498; 2513.525;  177.375;    0.000
612.619; 2467.525;  211.375;    0.000
612.741; 2567.525;  185.375;    0.000
612.862; 2560.525;  191.375;    0.000
612.984; 2552.525;  190.375;    0.000
613.105; 2664.525;  211.375;    0.000
613.226; 2521.525;  174.375;    0.000
613.348; 2521.525;  235.375;    0.000
613.469; 2497.525;  230.375;    0.000
613.590; 2525.525;  208.375;    0.000
613.712; 2599.525;  244.375;    0.000
613.833; 2514.525;  202.375;    0.000
613.954; 2480.525;  228.375;    0.000
614.076; 2582.525;  220.375;    0.000
614.197; 2552.525;  191.375;    0.000
614.318; 2507.525;  201.375;    0.000
614.439; 2436.525;  212.375;    0.000
614.560; 2587.525;  219.375;    0.000
614.682; 2460.525;  189.375;    0.000
614.803; 2559.525;  188.375;    0.000
614.924; 2527.525;  225.375;    0.000
615.045; 2503.525;  227.375;    0.000
615.166; 2583.525;  200.375;    0.000
615.287; 2495.525;  195.375;    0.000
615.408; 2495.525;  199.375;    0.000
615.529; 2547.525;  227.375;    0.000
615.650; 2545.525;  176.375;    0.000
615.771; 2521.525;  211.375;    0.000
615.892; 2523.525;  212.375;    0.000
616.013; 2531.525;  172.375;    0.000
616.134; 2575.525;  220.375;    0.000
616.255; 2594.525;  251.375;    0.000
616.376; 2544.525;  186.375;    0.000
616.497; 2561.525;  201.375;    0.000
616.618; 2507.525;  149.375;    0.000
616.739; 2555.525;  213.375;    0.000
616.860; 2464.525;  224.375;    0.000
616.981; 2437.525;  224.375;    0.000
617.102; 2512.525;  217.375;    0.000
617.222; 2541.525;  237.375;    0.000
617.343; 2577.525;  205.375;    0.000
617.464; 2581.525;  229.375;    0.000
617.585; 2522.525;  227.375;    0.000
617.705; 2541.525;  191.375;    0.000
617.826; 2478.525;  237.375;    0.000
617.947; 2522.525;  223.375;    0.000
618.068; 2470.525;  189.375;    0.000
618.188; 2426.525;  194.375;    0.000
618.309; 2500.525;  206.375;    0.000
618.430; 2500.525;  229.375;    0.000
618.550; 2450.525;  250.375;    0.000
618.671; 2444.525;  201.375;    0.000
618.791; 2492.525;  226.375;    0.000
618.912; 2479.525;  246.375;    0.000
619.033; 2461.525;  243.375;    0.000
619.153; 2504.525;  208.375;    0.000
619.274; 2515.525;  223.375;    0.000
619.394; 2445.525;  226.375;    0.000
619.515; 2531.525;  188.375;    0.000
619.635; 2420.525;  216.375;    0.000
619.756; 2497.525;  229.375;    0.000
619.876; 2479.525;  216.375;    0.000
619.996; 2478.525;  244.375;    0.000
620.117; 2495.525;  225.375;    0.000
620.237; 2441.525;  207.375;    0.000
620.358; 2574.525;  239.375;    0.000
620.478; 2465.525;  237.375;    0.000
620.598; 2458.525;  237.375;    0.000
620.719; 2465.525;  223.375;    0.000
620.839; 2578.525;  254.375;    0.000
620.959; 2444.525;  244.375;    0.000
621.079; 2460.525;  193.375;    0.000
621.200; 2530.525;  233.375;    0.000
621.320; 2506.525;  270.375;    0.000
621.440; 2442.525;  206.375;    0.000
621.560; 2435.525;  241.375;    0.000
621.681; 2443.525;  231.375;    0.000
621.801; 2386.525;  235.375;    0.000
621.921; 2478.525;  240.375;    0.000
622.041; 2402.525;  244.375;    0.000
622.161; 2469.525;  225.375;    0.000
622.281; 2477.525;  222.375;    0.000
622.401; 2430.525;  238.375;    0.000
622.521; 2430.525;  233.375;    0.000
622.641; 2356.525;  241.375;    0.000
622.761; 2464.525;  233.375;    0.000
622.882; 2416.525;  230.375;    0.000
623.002; 2410.525;  206.375;    0.000
623.121; 2436.525;  217.375;    0.000
623.241; 2389.525;  263.375;    0.000
623.361; 2405.525;  245.375;    0.000
623.481; 2373.525;  194.375;    0.000
623.601; 2488.525;  228.375;    0.000
623.721; 2387.525;  219.375;    0.000
623.841; 2398.525;  234.375;    0.000
623.961; 2372.525;  235.375;    0.000
624.081; 2484.525;  166.375;    0.000
624.201; 2447.525;  229.375;    0.000
624.320; 2395.525;  224.375;    0.000
624.440; 2358.525;  200.375;    0.000
624.560; 2383.525;  220.375;    0.000
624.680; 2399.525;  214.375;    0.000
624.799; 2413.525;  179.375;    0.000
624.919; 2325.525;  199.375;    0.000
625.039; 2330.525;  211.375;    0.000
625.159; 2393.525;  213.375;    0.000
625.278; 2415.525;  178.375;    0.000
625.398; 2396.525;  206.375;    0.000
625.518; 2372.525;  182.375;    0.000
625.637; 2296.525;  206.375;    0.000
625.757; 2334.525;  197.375;    0.000
625.876; 2327.525;  204.375;    0.000
625.996; 2333.525;  222.375;    0.000
626.115; 2359.525;  222.375;    0.000
626.235; 2391.525;  222.375;    0.000
626.354; 2448.525;  211.375;    0.000
626.474; 2357.525;  217.375;    0.000
626.594; 2282.525;  190.375;    0.000
626.713; 2365.525;  200.375;    0.000
626.832; 2431.525;  234.375;    0.000
626.952; 2333.525;  214.375;    0.000
627.071; 2368.525;  243.375;    0.000
627.191; 2326.525;  192.375;    0.000
627.310; 2338.525;  211.375;    0.000
627.429; 2325.525;  218.375;    0.000
627.549; 2364.525;  214.375;    0.000
627.668; 2327.525;  208.375;    0.000
627.787; 2402.525;  199.375;    0.000
627.907; 2288.525;  208.375;    0.000
628.026; 2424.525;  216.375;    0.000
628.145; 2267.525;  170.375;    0.000
628.264; 2349.525;  217.375;    0.000
628.384; 2328.525;  190.375;    0.000
628.503; 2365.525;  203.375;    0.000
628.622; 2267.525;  197.375;    0.000
628.741; 2327.525;  186.375;    0.000
628.860; 2330.525;  191.375;    0.000
628.980; 2351.525;  196.375;    0.000
629.099; 2408.525;  190.375;    0.000
629.218; 2247.525;  165.375;    0.000
629.337; 2263.525;  190.375;    0.000
629.456; 2264.525;  222.375;    0.000
629.575; 2237.525;  197.375;    0.000
629.694; 2311.525;  210.375;    0.000
629.813; 2351.525;  187.375;    0.000
629.932; 2321.525;  224.375;    0.000
630.051; 2267.525;  216.375;    0.000
630.170; 2296.525;  203.375;    0.000
630.289; 2275.525;  178.375;    0.000
630.408; 2289.525;  192.375;    0.000
630.527; 2346.525;  223.375;    0.000
630.646; 2305.525;  177.375;    0.000
630.764; 2339.525;  224.375;    0.000
630.883; 2275.525;  220.375;    0.000
631.002; 2302.525;  187.375;    0.000
631.121; 2340.525;  208.375;    0.000
631.240; 2324.525;  217.375;    0.000
631.359; 2337.525;  241.375;    0.000
631.477; 2297.525;  189.375;    0.000
631.596; 2322.525;  244.375;    0.000
631.715; 2361.525;  241.375;    0.000
631.834; 2359.525;  219.375;    0.000
631.952; 2334.525;  231.375;    0.000
632.071; 2310.525;  197.375;    0.000
632.190; 2224.525;  193.375;    0.000
632.308; 2382.525;  185.375;    0.000
632.427; 2261.525;  188.375;    0.000
632.546; 2322.525;  208.375;    0.000
632.664; 2318.525;  191.375;    0.000
632.783; 2349.525;  201.375;    0.000
632.901; 2328.525;  239.375;    0.000
633.020; 2284.525;  197.375;    0.000
633.138; 2316.525;  189.375;    0.000
633.257; 2308.525;  210.375;    0.000
633.375; 2320.525;  213.375;    0.000
633.494; 2219.525;  206.375;    0.000
633.612; 2301.525;  231.375;    0.000
633.731; 2285.525;  213.375;    0.000
633.849; 2281.525;  244.375;    0.000
633.968; 2253.525;  251.375;    0.000
634.086; 2191.525;  224.375;    0.000
634.204; 2336.525;  212.375;    0.000
634.323; 2314.525;  213.375;    0.000
634.441; 2288.525;  219.375;    0.000
634.559; 2306.525;  198.375;    0.000
634.678; 2277.525;  201.375;    0.000
634.796; 2229.525;  179.375;    0.000
634.914; 2306.525;  255.375;    0.000
635.032; 2373.525;  264.375;    0.000
635.151; 2188.525;  228.375;    0.000
635.269; 2258.525;  223.375;    0.000
635.387; 2334.525;  228.375;    0.000
635.505; 2296.525;  214.375;    0.000
635.623; 2332.525;  279.375;    0.000
635.742; 2267.525;  237.375;    0.000
635.860; 2418.525;  244.375;    0.000
635.978; 2250.525;  213.375;    0.000
636.096; 2277.525;  230.375;    0.000
636.214; 2283.525;  252.375;    0.000
636.332; 2199.525;  221.375;    0.000
636.450; 2244.525;  227.375;    0.000
636.568; 2210.525;  193.375;    0.000
636.686; 2196.525;  208.375;    0.000
636.804; 2295.525;  213.375;    0.000
636.922; 2333.525;  199.375;    0.000
637.040; 2185.525;  202.375;    0.000
637.158; 2292.525;  239.375;    0.000
637.276; 2317.525;  225.375;    0.000
637.394; 2275.525;  217.375;    0.000
637.512; 2210.525;  192.375;    0.000
637.629; 2306.525;  216.375;    0.000
637.747; 2275.525;  198.375;    0.000
637.865; 2298.525;  265.375;    0.000
637.983; 2325.525;  245.375;    0.000
638.101; 2270.525;  199.375;    0.000
638.218; 2292.525;  197.375;    0.000
638.336; 2343.525;  212.375;    0.000
638.454; 2284.525;  227.375;    0.000
638.572; 2288.525;  215.375;    0.000
638.689; 2320.525;  214.375;    0.000
638.807; 2303.525;  233.375;    0.000
638.925; 2335.525;  217.375;    0.000
639.042; 2231.525;  180.375;    0.000
639.160; 2255.525;  220.375;    0.000
639.278; 2257.525;  180.375;    0.000
639.395; 2233.525;  243.375;    0.000
639.513; 2293.525;  207.375;    0.000
639.630; 2315.525;  183.375;    0.000
639.748; 2221.525;  231.375;    0.000
639.865; 2278.525;  215.375;    0.000
639.983; 2296.525;  182.375;    0.000
640.100; 2232.525;  190.375;    0.000
640.218; 2337.525;  224.375;    0.000
640.335; 2314.525;  214.375;    0.000
640.453; 2342.525;  212.375;    0.000
640.570; 2245.525;  224.375;    0.000
640.688; 2199.525;  220.375;    0.000
640.805; 2260.525;  189.375;    0.000
640.922; 2276.525;  256.375;    0.000
641.040; 2288.525;  209.375;    0.000
641.157; 2262.525;  195.375;    0.000
641.274; 2253.525;  195.375;    0.000
641.391; 2369.525;  231.375;    0.000
641.509; 2369.525;  207.375;    0.000
641.626; 2329.525;  227.375;    0.000
641.743; 2246.525;  188.375;    0.000
641.860; 2352.525;  208.375;    0.000
641.978; 2312.525;  222.375;    0.000
642.095; 2332.525;  194.375;    0.000
642.212; 2320.525;  202.375;    0.000
642.329; 2302.525;  241.375;    0.000
642.446; 2317.525;  261.375;    0.000
642.563; 2349.525;  236.375;    0.000
642.681; 2287.525;  228.375;    0.000
642.798; 2273.525;  242.375;    0.000
642.915; 2228.525;  197.375;    0.000
643.032; 2264.525;  239.375;    0.000
643.149; 2310.525;  241.375;    0.000
643.266; 2347.525;  199.375;    0.000
643.383; 2328.525;  200.375;    0.000
643.500; 2375.525;  221.375;    0.000
643.617; 2257.525;  196.375;    0.000
643.734; 2324.525;  207.375;    0.000
643.850; 2375.525;  222.375;    0.000
643.967; 2423.525;  235.375;    0.000
644.084; 2297.525;  233.375;    0.000
644.201; 2334.525;  229.375;    0.000
644.318; 2349.525;  210.375;    0.000
644.435; 2415.525;  234.375;    0.000
644.552; 2427.525;  220.375;    0.000
644.668; 2440.525;  231.375;    0.000
644.785; 2438.525;  231.375;    0.000
644.902; 2436.525;  238.375;    0.000
645.019; 2395.525;  226.375;    0.000
645.135; 2415.525;  179.375;    0.000
645.252; 2379.525;  224.375;    0.000
645.369; 2418.525;  206.375;    0.000
645.485; 2395.525;  200.375;    0.000
645.602; 2321.525;  210.375;    0.000
645.719; 2377.525;  206.375;    0.000
645.835; 2457.525;  247.375;    0.000
645.952; 2478.525;  222.375;    0.000
646.068; 2371.525;  205.375;    0.000
646.185; 2504.525;  230.375;    0.000
646.302; 2506.525;  254.375;    0.000
646.418; 2474.525;  230.375;    0.000
646.535; 2460.525;  214.375;    0.000
646.651; 2563.525;  179.375;    0.000
646.768; 2435.525;  190.375;    0.000
646.884; 2532.525;  208.375;    0.000
647.000; 2416.525;  262.375;    0.000
647.117; 2463.525;  212.375;    0.000
647.233; 2559.525;  228.375;    0.000
647.350; 2611.525;  208.375;    0.000
647.466; 2601.525;  211.375;    0.000
647.582; 2625.525;  196.375;    0.000
647.699; 2587.525;  217.375;    0.000
647.815; 2585.525;  203.375;    0.000
647.931; 2587.525;  201.375;    0.000
648.047; 2630.525;  182.375;    0.000
648.164; 2680.525;  219.375;    0.000
648.280; 2621.525;  213.375;    0.000
648.396; 2688.525;  202.375;    0.000
648.512; 2657.525;  233.375;    0.000
648.629; 2744.525;  206.375;    0.000
648.745; 2655.525;  188.375;    0.000
648.861; 2634.525;  209.375;    0.000
648.977; 2703.525;  218.375;    0.000
649.093; 2606.525;  225.375;    0.000
649.209; 2683.525;  240.375;    0.000
649.325; 2695.525;  253.375;    0.000
649.441; 2698.525;  263.375;    0.000
649.557; 2773.525;  256.375;    0.000
649.673; 2690.525;  211.375;    0.000
649.789; 2741.525;  237.375;    0.000
649.905; 2741.525;  183.375;    0.000
650.021; 2776.525;  238.375;    0.000
650.137; 2772.525;  241.375;    0.000
650.253; 2802.525;  228.375;    0.000
650.369; 2714.525;  221.375;    0.000
650.485; 2732.525;  240.375;    0.000
650.601; 2895.525;  254.375;    0.000
650.717; 2851.525;  201.375;    0.000
650.833; 2840.525;  257.375;    0.000
650.948; 2896.525;  213.375;    0.000
651.064; 2919.525;  223.375;    0.000
651.180; 2903.525;  230.375;    0.000
651.296; 2957.525;  235.375;    0.000
651.411; 2933.525;  221.375;    0.000
651.527; 3013.525;  233.375;    0.000
651.643; 3035.525;  236.375;    0.000
651.759; 3087.525;  268.375;    0.000
651.874; 3054.525;  214.375;    0.000
651.990; 3070.525;  251.375;    0.000
652.105; 3080.525;  217.375;    0.000
652.221; 3015.525;  243.375;    0.000
652.337; 3181.525;  231.375;    0.000
652.452; 3186.525;  238.375;    0.000
652.568; 3272.525;  188.375;    0.000
652.683; 3247.525;  197.375;    0.000
652.799; 3273.525;  194.375;    0.000
652.914; 3296.525;  222.375;    0.000
653.030; 3390.525;  200.375;    0.000
653.145; 3419.525;  235.375;    0.000
653.261; 3407.525;  261.375;    0.000
653.376; 3366.525;  228.375;    0.000
653.492; 3429.525;  222.375;    0.000
653.607; 3582.525;  227.375;    0.000
653.722; 3637.525;  250.375;    0.000
653.838; 3583.525;  255.375;    0.000
653.953; 3684.525;  235.375;    0.000
654.068; 3744.525;  266.375;    0.000
654.184; 3872.525;  210.375;    0.000
654.299; 3824.525;  240.375;    0.000
654.414; 3957.525;  222.375;    0.000
654.530; 4043.525;  222.375;    0.000
654.645; 4125.525;  256.375;    0.000
654.760; 4271.525;  244.375;    0.000
654.875; 4249.525;  229.375;    0.000
654.990; 4496.525;  226.375;    0.000
655.106; 4529.525;  254.375;    0.000
655.221; 4836.525;  251.375;    0.000
655.336; 4685.525;  245.375;    0.000
655.451; 4946.525;  199.375;    0.000
655.566; 5035.525;  228.375;    0.000
655.681; 5116.525;  208.375;    0.000
655.796; 5469.525;  218.375;    0.000
655.911; 5534.525;  233.375;    0.000
656.026; 5756.525;  232.375;    0.000
656.141; 6115.525;  223.375;    0.000
656.256; 6353.525;  247.375;    0.000
656.371; 6364.525;  220.375;    0.000
656.486; 6224.525;  225.375;    0.000
656.601; 6255.525;  257.375;    0.000
656.716; 6121.525;  248.375;    0.000
656.831; 5922.525;  262.375;    0.000
656.946; 5843.525;  249.375;    0.000
657.060; 5673.525;  245.375;    0.000
657.175; 5567.525;  245.375;    0.000
657.290; 5456.525;  219.375;    0.000
657.405; 5264.525;  286.375;    0.000
657.520; 5231.525;  259.375;    0.000
657.634; 5068.525;  239.375;    0.000
657.749; 5011.525;  227.375;    0.000
657.864; 4795.525;  210.375;    0.000
657.979; 4721.525;  236.375;    0.000
658.093; 4625.525;  210.375;    0.000
658.208; 4515.525;  248.375;    0.000
658.323; 4349.525;  216.375;    0.000
658.437; 4319.525;  248.375;    0.000
658.552; 4358.525;  249.375;    0.000
658.666; 4328.525;  256.375;    0.000
658.781; 4289.525;  247.375;    0.000
658.895; 4150.525;  209.375;    0.000
659.010; 4105.525;  219.375;    0.000
659.125; 4028.525;  215.375;    0.000
659.239; 3855.525;  205.375;    0.000
659.353; 3784.525;  246.375;    0.000
659.468; 3790.525;  245.375;    0.000
659.582; 3850.525;  244.375;    0.000
659.697; 3783.525;  242.375;    0.000
659.811; 3617.525;  239.375;    0.000
659.926; 3615.525;  226.375;    0.000
660.040; 3578.525;  255.375;    0.000
660.154; 3534.525;  225.375;    0.000
660.269; 3569.525;  200.375;    0.000
660.383; 3362.525;  192.375;    0.000
660.497; 3435.525;  218.375;    0.000
660.612; 3308.525;  236.375;    0.000
660.726; 3314.525;  263.375;    0.000
660.840; 3258.525;  205.375;    0.000
660.954; 3340.525;  219.375;    0.000
661.068; 3211.525;  240.375;    0.000
661.183; 3275.525;  221.375;    0.000
661.297; 3136.525;  194.375;    0.000
661.411; 3154.525;  253.375;    0.000
661.525; 3075.525;  246.375;    0.000
661.639; 3075.525;  217.375;    0.000
661.753; 3083.525;  241.375;    0.000
661.867; 2955.525;  276.375;    0.000
661.981; 2940.525;  203.375;    0.000
662.095; 2927.525;  224.375;    0.000
662.209; 2941.525;  217.375;    0.000
662.323; 2901.525;  251.375;    0.000
662.437; 2859.525;  243.375;    0.000
662.551; 2791.525;  244.375;    0.000
662.665; 2825.525;  247.375;    0.000
662.779; 2792.525;  251.375;    0.000
662.893; 2790.525;  254.375;    0.000
663.007; 2723.525;  222.375;    0.000
663.121; 2815.525;  253.375;    0.000
663.235; 2622.525;  270.375;    0.000
663.349; 2731.525;  242.375;    0.000
663.462; 2614.525;  230.375;    0.000
663.576; 2531.525;  230.375;    0.000
663.690; 2563.525;  249.375;    0.000
663.804; 2582.525;  200.375;    0.000
663.917; 2495.525;  204.375;    0.000
664.031; 2558.525;  206.375;    0.000
664.145; 2521.525;  202.375;    0.000
664.258; 2491.525;  221.375;    0.000
664.372; 2450.525;  215.375;    0.000
664.486; 2489.525;  179.375;    0.000
664.599; 2510.525;  208.375;    0.000
664.713; 2516.525;  268.375;    0.000
664.827; 2431.525;  225.375;    0.000
664.940; 2378.525;  222.375;    0.000
665.054; 2472.525;  208.375;    0.000
665.167; 2446.525;  253.375;    0.000
665.281; 2425.525;  237.375;    0.000
665.394; 2343.525;  227.375;    0.000
665.508; 2404.525;  192.375;    0.000
665.621; 2389.525;  175.375;    0.000
665.735; 2358.525;  249.375;    0.000
665.848; 2334.525;  197.375;    0.000
665.961; 2235.525;  206.375;    0.000
666.075; 2355.525;  245.375;    0.000
666.188; 2270.525;  230.375;    0.000
666.301; 2270.525;  219.375;    0.000
666.415; 2330.525;  231.375;    0.000
666.528; 2295.525;  258.375;    0.000
666.641; 2309.525;  243.375;    0.000
666.755; 2234.525;  208.375;    0.000
666.868; 2242.525;  228.375;    0.000
666.981; 2202.525;  244.375;    0.000
667.094; 2191.525;  244.375;    0.000
667.207; 2260.525;  226.375;    0.000
667.321; 2140.525;  175.375;    0.000
667.434; 2122.525;  211.375;    0.000
667.547; 2202.525;  249.375;    0.000
667.660; 2147.525;  225.375;    0.000
667.773; 2173.525;  242.375;    0.000
667.886; 2105.525;  246.375;    0.000
667.999; 2152.525;  244.375;    0.000
668.112; 2066.525;  227.375;    0.000
668.225; 2087.525;  231.375;    0.000
668.338; 2036.525;  256.375;    0.000
668.451; 2104.525;  216.375;    0.000
668.564; 2067.525;  261.375;    0.000
668.677; 2046.525;  230.375;    0.000
668.790; 2027.525;  192.375;    0.000
668.903; 2019.525;  243.375;    0.000
669.016; 2051.525;  201.375;    0.000
669.129; 2021.525;  249.375;    0.000
669.242; 1966.525;  190.375;    0.000
669.354; 2091.525;  219.375;    0.000
669.467; 2021.525;  242.375;    0.000
669.580; 2031.525;  237.375;    0.000
669.693; 2064.525;  243.375;    0.000
669.806; 1996.525;  234.375;    0.000
669.918; 1983.525;  206.375;    0.000
670.031; 2080.525;  258.375;    0.000
670.144; 1977.525;  231.375;    0.000
670.256; 1921.525;  244.375;    0.000
670.369; 1977.525;  262.375;    0.000
670.482; 2033.525;  264.375;    0.000
670.594; 1977.525;  256.375;    0.000
670.707; 1980.525;  224.375;    0.000
670.820; 1990.525;  261.375;    0.000
670.932; 1964.525;  226.375;    0.000
671.045; 1954.525;  243.375;    0.000
671.157; 1936.525;  235.375;    0.000
671.270; 1885.525;  217.375;    0.000
671.382; 1978.525;  267.375;    0.000
671.495; 2015.525;  258.375;    0.000
671.607; 1872.525;  236.375;    0.000
671.720; 1851.525;  200.375;    0.000
671.832; 1858.525;  219.375;    0.000
671.944; 1930.525;  234.375;    0.000
672.057; 1879.525;  226.375;    0.000
672.169; 1889.525;  225.375;    0.000
672.281; 1899.525;  253.375;    0.000
672.394; 1834.525;  238.375;    0.000
672.506; 1906.525;  244.375;    0.000
672.618; 1871.525;  272.375;    0.000
672.731; 1920.525;  247.375;    0.000
672.843; 1859.525;  261.375;    0.000
672.955; 1894.525;  262.375;    0.000
673.067; 1854.525;  253.375;    0.000
673.180; 1875.525;  239.375;    0.000
673.292; 1849.525;  240.375;    0.000
673.404; 1867.525;  243.375;    0.000
673.516; 1776.525;  258.375;    0.000
673.628; 1832.525;  263.375;    0.000
673.740; 1807.525;  250.375;    0.000
673.852; 1894.525;  285.375;    0.000
673.964; 1845.525;  264.375;    0.000
674.076; 1811.525;  260.375;    0.000
674.188; 1831.525;  226.375;    0.000
674.300; 1771.525;  272.375;    0.000
674.412; 1780.525;  259.375;    0.000
674.524; 1830.525;  283.375;    0.000
674.636; 1817.525;  259.375;    0.000
674.748; 1763.525;  238.375;    0.000
674.860; 1759.525;  277.375;    0.000
674.972; 1781.525;  272.375;    0.000
675.084; 1794.525;  244.375;    0.000
675.196; 1876.525;  272.375;    0.000
675.307; 1779.525;  244.375;    0.000
675.419; 1691.525;  219.375;    0.000
675.531; 1800.525;  275.375;    0.000
675.643; 1706.525;  215.375;    0.000
675.755; 1785.525;  243.375;    0.000
675.866; 1787.525;  223.375;    0.000
675.978; 1677.525;  216.375;    0.000
676.090; 1755.525;  242.375;    0.000
676.201; 1730.525;  276.375;    0.000
676.313; 1696.525;  226.375;    0.000
676.425; 1715.525;  234.375;    0.000
676.536; 1646.525;  231.375;    0.000
676.648; 1755.525;  254.375;    0.000
676.759; 1752.525;  273.375;    0.000
676.871; 1741.525;  250.375;    0.000
676.983; 1691.525;  256.375;    0.000
677.094; 1756.525;  210.375;    0.000
677.206; 1697.525;  248.375;    0.000
677.317; 1743.525;  263.375;    0.000
677.429; 1686.525;  238.375;    0.000
677.540; 1723.525;  247.375;    0.000
677.651; 1649.525;  224.375;    0.000
677.763; 1624.525;  217.375;    0.000
677.874; 1679.525;  234.375;    0.000
677.986; 1654.525;  238.375;    0.000
678.097; 1667.525;  226.375;    0.000
678.208; 1704.525;  253.375;    0.000
678.320; 1673.525;  217.375;    0.000
678.431; 1693.525;  238.375;    0.000
678.542; 1644.525;  236.375;    0.000
678.653; 1623.525;  218.375;    0.000
678.765; 1727.525;  275.375;    0.000
678.876; 1650.525;  213.375;    0.000
678.987; 1586.525;  182.375;    0.000
679.098; 1641.525;  221.375;    0.000
679.209; 1649.525;  238.375;    0.000
679.320; 1661.525;  212.375;    0.000
679.432; 1666.525;  231.375;    0.000
679.543; 1658.525;  198.375;    0.000
679.654; 1638.525;  191.375;    0.000
679.765; 1590.525;  214.375;    0.000
679.876; 1628.525;  221.375;    0.000
679.987; 1516.525;  162.375;    0.000
680.098; 1636.525;  230.375;    0.000
680.209; 1556.525;  206.375;    0.000
680.320; 1574.525;  196.375;    0.000
680.431; 1593.525;  191.375;    0.000
680.542; 1617.525;  214.375;    0.000
680.653; 1681.525;  238.375;    0.000
680.763; 1561.525;  182.375;    0.000
680.874; 1564.525;  213.375;    0.000
680.985; 1598.525;  224.375;    0.000
681.096; 1640.525;  222.375;    0.000
681.207; 1564.525;  220.375;    0.000
681.318; 1600.525;  216.375;    0.000
681.428; 1647.525;  229.375;    0.000
681.539; 1552.525;  183.375;    0.000
681.650; 1633.525;  202.375;    0.000
681.760; 1557.525;  223.375;    0.000
681.871; 1565.525;  211.375;    0.000
681.982; 1597.525;  189.375;    0.000
682.093; 1605.525;  222.375;    0.000
682.203; 1590.525;  220.375;    0.000
682.314; 1572.525;  214.375;    0.000
682.424; 1588.525;  208.375;    0.000
682.535; 1560.525;  213.375;    0.000
682.646; 1618.525;  302.375;    0.000
682.756; 1592.525;  255.375;    0.000
682.867; 1667.525;  244.375;    0.000
682.977; 1575.525;  221.375;    0.000
683.088; 1597.525;  259.375;    0.000
683.198; 1514.525;  212.375;    0.000
683.308; 1515.525;  202.375;    0.000
683.419; 1565.525;  255.375;    0.000
683.529; 1523.525;  217.375;    0.000
683.640; 1534.525;  240.375;    0.000
683.750; 1548.525;  181.375;    0.000
683.860; 1589.525;  246.375;    0.000
683.971; 1606.525;  254.375;    0.000
684.081; 1503.525;  235.375;    0.000
684.191; 1560.525;  251.375;    0.000
684.301; 1535.525;  233.375;    0.000
684.412; 1518.525;  202.375;    0.000
684.522; 1554.525;  232.375;    0.000
684.632; 1513.525;  202.375;    0.000
684.742; 1535.525;  254.375;    0.000
684.852; 1547.525;  219.375;    0.000
684.963; 1476.525;  256.375;    0.000
685.073; 1464.525;  253.375;    0.000
685.183; 1526.525;  254.375;    0.000
685.293; 1517.525;  232.375;    0.000
685.403; 1507.525;  242.375;    0.000
685.513; 1547.525;  261.375;    0.000
685.623; 1547.525;  245.375;    0.000
685.733; 1550.525;  254.375;    0.000
685.843; 1550.525;  249.375;    0.000
685.953; 1527.525;  252.375;    0.000
686.063; 1535.525;  227.375;    0.000
686.173; 1439.525;  223.375;    0.000
686.283; 1520.525;  234.375;    0.000
686.393; 1442.525;  239.375;    0.000
686.503; 1537.525;  231.375;    0.000
686.612; 1575.525;  232.375;    0.000
686.722; 1651.525;  258.375;    0.000
686.832; 1535.525;  256.375;    0.000
686.942; 1580.525;  230.375;    0.000
687.052; 1568.525;  274.375;    0.000
687.161; 1507.525;  269.375;    0.000
687.271; 1535.525;  218.375;    0.000
687.381; 1527.525;  235.375;    0.000
687.491; 1457.525;  262.375;    0.000
687.600; 1539.525;  256.375;    0.000
687.710; 1495.525;  225.375;    0.000
687.820; 1505.525;  230.375;    0.000
687.929; 1543.525;  226.375;    0.000
688.039; 1564.525;  228.375;    0.000
688.148; 1575.525;  249.375;    0.000
688.258; 1487.525;  237.375;    0.000
688.367; 1494.525;  260.375;    0.000
688.477; 1491.525;  200.375;    0.000
688.586; 1483.525;  223.375;    0.000
688.696; 1537.525;  223.375;    0.000
688.805; 1491.525;  257.375;    0.000
688.915; 1508.525;  185.375;    0.000
689.024; 1565.525;  227.375;    0.000
689.134; 1531.525;  224.375;    0.000
689.243; 1460.525;  206.375;    0.000
689.352; 1541.525;  275.375;    0.000
689.462; 1489.525;  233.375;    0.000
689.571; 1378.525;  244.375;    0.000
689.680; 1537.525;  261.375;    0.000
689.790; 1497.525;  192.375;    0.000
689.899; 1428.525;  214.375;    0.000
690.008; 1466.525;  255.375;    0.000
690.117; 1462.525;  219.375;    0.000
690.227; 1522.525;  241.375;    0.000
690.336; 1466.525;  231.375;    0.000
690.445; 1385.525;  212.375;    0.000
690.554; 1504.525;  234.375;    0.000
690.663; 1494.525;  210.375;    0.000
690.772; 1432.525;  221.375;    0.000
690.881; 1506.525;  244.375;    0.000
690.990; 1446.525;  247.375;    0.000
691.099; 1461.525;  222.375;    0.000
691.209; 1414.525;  240.375;    0.000
691.318; 1477.525;  223.375;    0.000
691.427; 1498.525;  217.375;    0.000
691.536; 1442.525;  216.375;    0.000
691.644; 1494.525;  194.375;    0.000
691.753; 1426.525;  221.375;    0.000
691.862; 1448.525;  224.375;    0.000
691.971; 1444.525;  191.375;    0.000
692.080; 1430.525;  247.375;    0.000
692.189; 1418.525;  208.375;    0.000
692.298; 1416.525;  203.375;    0.000
692.406; 1469.525;  239.375;    0.000
692.515; 1525.525;  250.375;    0.000
692.624; 1404.525;  226.375;    0.000
692.733; 1434.525;  229.375;    0.000
692.842; 1445.525;  254.375;    0.000
692.950; 1492.525;  242.375;    0.000
693.059; 1474.525;  204.375;    0.000
693.168; 1435.525;  252.375;    0.000
693.276; 1408.525;  195.375;    0.000
693.385; 1438.525;  228.375;    0.000
693.494; 1407.525;  282.375;    0.000
693.602; 1398.525;  221.375;    0.000
693.711; 1421.525;  225.375;    0.000
693.819; 1465.525;  234.375;    0.000
693.928; 1410.525;  229.375;    0.000
694.036; 1473.525;  192.375;    0.000
694.145; 1490.525;  233.375;    0.000
694.253; 1504.525;  277.375;    0.000
694.362; 1480.525;  188.375;    0.000
694.470; 1514.525;  263.375;    0.000
694.579; 1428.525;  253.375;    0.000
694.687; 1498.525;  281.375;    0.000
694.795; 1393.525;  233.375;    0.000
694.904; 1409.525;  223.375;    0.000
695.012; 1446.525;  296.375;    0.000
695.120; 1449.525;  227.375;    0.000
695.229; 1506.525;  269.375;    0.000
695.337; 1478.525;  229.375;    0.000
695.445; 1470.525;  244.375;    0.000
695.553; 1436.525;  259.375;    0.000
695.662; 1430.525;  208.375;    0.000
695.770; 1430.525;  241.375;    0.000
695.878; 1450.525;  239.375;    0.000
695.986; 1448.525;  247.375;    0.000
696.094; 1425.525;  224.375;    0.000
696.202; 1384.525;  205.375;    0.000
696.310; 1454.525;  217.375;    0.000
696.419; 1446.525;  228.375;    0.000
696.527; 1469.525;  246.375;    0.000
696.635; 1460.525;  245.375;    0.000
696.743; 1427.525;  233.375;    0.000
696.851; 1422.525;  251.375;    0.000
696.959; 1466.525;  257.375;    0.000
697.067; 1444.525;  260.375;    0.000
697.174; 1413.525;  223.375;    0.000
697.282; 1475.525;  239.375;    0.000
697.390; 1414.525;  264.375;    0.000
697.498; 1378.525;  227.375;    0.000
697.606; 1433.525;  243.375;    0.000
697.714; 1466.525;  256.375;    0.000
697.822; 1401.525;  278.375;    0.000
697.929; 1364.525;  227.375;    0.000
698.037; 1386.525;  232.375;    0.000
698.145; 1370.525;  256.375;    0.000
698.253; 1404.525;  245.375;    0.000
698.360; 1420.525;  282.375;    0.000
698.468; 1465.525;  244.375;    0.000
698.576; 1464.525;  279.375;    0.000
698.683; 1428.525;  259.375;    0.000
698.791; 1429.525;  265.375;    0.000
698.899; 1447.525;  250.375;    0.000
699.006; 1392.525;  245.375;    0.000
699.114; 1447.525;  280.375;    0.000
699.221; 1445.525;  240.375;    0.000
699.329; 1412.525;  293.375;    0.000
699.436; 1441.525;  216.375;    0.000
699.544; 1457.525;  269.375;    0.000
699.651; 1399.525;  219.375;    0.000
699.759; 1372.525;  245.375;    0.000
699.866; 1457.525;  261.375;    0.000
699.974; 1372.525;  245.375;    0.000
700.081; 1386.525;  257.375;    0.000
700.188; 1469.525;  268.375;    0.000
700.296; 1419.525;  225.375;    0.000
700.403; 1390.525;  257.375;    0.000
700.510; 1417.525;  267.375;    0.000
700.618; 1430.525;  299.375;    0.000
700.725; 1456.525;  223.375;    0.000
700.832; 1409.525;  233.375;    0.000
700.940; 1426.525;  255.375;    0.000
701.047; 1386.525;  244.375;    0.000
701.154; 1354.525;  248.375;    0.000
701.261; 1421.525;  264.375;    0.000
701.368; 1442.525;  299.375;    0.000
701.475; 1436.525;  264.375;    0.000
701.582; 1416.525;  275.375;    0.000
701.690; 1394.525;  261.375;    0.000
701.797; 1388.525;  273.375;    0.000
701.904; 1382.525;  320.375;    0.000
702.011; 1473.525;  299.375;    0.000
702.118; 1471.525;  292.375;    0.000
702.225; 1490.525;  317.375;    0.000
702.332; 1445.525;  307.375;    0.000
702.439; 1424.525;  313.375;    0.000
702.546; 1482.525;  312.375;    0.000
702.652; 1469.525;  297.375;    0.000
702.759; 1422.525;  345.375;    0.000
702.866; 1458.525;  330.375;    0.000
702.973; 1547.525;  303.375;    0.000
703.080; 1476.525;  303.375;    0.000
703.187; 1466.525;  327.375;    0.000
703.294; 1494.525;  325.375;    0.000
703.400; 1340.525;  302.375;    0.000
703.507;  469.525;  344.375;    0.000
703.614;  305.525;  294.375;    0.000
703.720;  306.525;  322.375;    0.000
703.827;  336.525;  329.375;    0.000
703.934;  327.525;  318.375;    0.000
704.040;  278.525;  299.375;    0.000
704.147;  322.525;  352.375;    0.000
704.254;  340.525;  350.375;    0.000
704.360;  301.525;  347.375;    0.000
704.467;  337.525;  336.375;    0.000
704.573;  346.525;  344.375;    0.000
704.680;  306.525;  365.375;    0.000
704.786;  309.525;  332.375;    0.000
704.893;  302.525;  304.375;    0.000
704.999;  282.525;  299.375;    0.000
705.106;  336.525;  365.375;    0.000

