
Integration time [ms]:   1.000
Averaging Nr. [scans]: 1
Smoothing Nr. [pixels]: 0
Data measured with spectrometer [name]: UV2
Wave   ;Sample   ;Dark     ;Reference
[nm]   ;[counts] ;[counts] ;[counts] 

353.533;  220.325;  216.475;    0.000
353.597;  213.325;  244.475;    0.000
353.660;  197.325;  181.475;    0.000
353.723;  191.325;  203.475;    0.000
353.786;  185.325;  180.475;    0.000
353.850;  209.325;  213.475;    0.000
353.913;  194.325;  191.475;    0.000
353.976;  202.325;  195.475;    0.000
354.039;  195.325;  158.475;    0.000
354.102;  224.325;  199.475;    0.000
354.166;  196.325;  185.475;    0.000
354.229;  186.325;  188.475;    0.000
354.292;  180.325;  188.475;    0.000
354.355;  231.325;  226.475;    0.000
354.418;  185.325;  158.475;    0.000
354.481;  205.325;  185.475;    0.000
354.545;  524.325;  191.475;    0.000
354.608;  575.325;  247.475;    0.000
354.671;  505.325;  176.475;    0.000
354.734;  582.325;  198.475;    0.000
354.797;  584.325;  195.475;    0.000
354.860;  585.325;  212.475;    0.000
354.923;  581.325;  184.475;    0.000
354.986;  636.325;  169.475;    0.000
355.050;  612.325;  206.475;    0.000
355.113;  569.325;  210.475;    0.000
355.176;  626.325;  217.475;    0.000
355.239;  662.325;  201.475;    0.000
355.302;  639.325;  193.475;    0.000
355.365;  661.325;  234.475;    0.000
355.428;  676.325;  182.475;    0.000
355.491;  728.325;  233.475;    0.000
355.554;  600.325;  167.475;    0.000
355.617;  667.325;  195.475;    0.000
355.680;  642.325;  198.475;    0.000
355.743;  697.325;  186.475;    0.000
355.806;  697.325;  171.475;    0.000
355.869;  759.325;  244.475;    0.000
355.932;  669.325;  164.475;    0.000
355.995;  740.325;  220.475;    0.000
356.058;  730.325;  172.475;    0.000
356.121;  704.325;  228.475;    0.000
356.184;  725.325;  225.475;    0.000
356.247;  734.325;  161.475;    0.000
356.310;  693.325;  195.475;    0.000
356.373;  782.325;  191.475;    0.000
356.436;  719.325;  147.475;    0.000
356.498;  682.325;  183.475;    0.000
356.561;  748.325;  137.475;    0.000
356.624;  724.325;  186.475;    0.000
356.687;  760.325;  158.475;    0.000
356.750;  777.325;  194.475;    0.000
356.813;  688.325;  186.475;    0.000
356.876;  729.325;  161.475;    0.000
356.939;  731.325;  188.475;    0.000
357.001;  741.325;  200.475;    0.000
357.064;  728.325;  182.475;    0.000
357.127;  743.325;  168.475;    0.000
357.190;  740.325;  157.475;    0.000
357.253;  751.325;  199.475;    0.000
357.316;  778.325;  187.475;    0.000
357.378;  807.325;  174.475;    0.000
357.441;  795.325;  165.475;    0.000
357.504;  735.325;  189.475;    0.000
357.567;  751.325;  116.475;    0.000
357.629;  762.325;  176.475;    0.000
357.692;  739.325;  134.475;    0.000
357.755;  789.325;  175.475;    0.000
357.818;  723.325;  159.475;    0.000
357.880;  753.325;  185.475;    0.000
357.943;  760.325;  159.475;    0.000
358.006;  809.325;  176.475;    0.000
358.069;  820.325;  156.475;    0.000
358.131;  771.325;  170.475;    0.000
358.194;  774.325;  125.475;    0.000
358.257;  739.325;  186.475;    0.000
358.319;  768.325;  139.475;    0.000
358.382;  839.325;  175.475;    0.000
358.445;  771.325;  170.475;    0.000
358.507;  786.325;  129.475;    0.000
358.570;  827.325;  168.475;    0.000
358.633;  793.325;  152.475;    0.000
358.695;  743.325;  194.475;    0.000
358.758;  785.325;  154.475;    0.000
358.821;  754.325;  147.475;    0.000
358.883;  787.325;  163.475;    0.000
358.946;  790.325;  155.475;    0.000
359.008;  827.325;  208.475;    0.000
359.071;  754.325;  182.475;    0.000
359.134;  776.325;  126.475;    0.000
359.196;  755.325;  142.475;    0.000
359.259;  816.325;  138.475;    0.000
359.321;  827.325;  153.475;    0.000
359.384;  816.325;  186.475;    0.000
359.446;  811.325;  152.475;    0.000
359.509;  809.325;  144.475;    0.000
359.571;  861.325;  164.475;    0.000
359.634;  829.325;  171.475;    0.000
359.696;  777.325;  144.475;    0.000
359.759;  847.325;  171.475;    0.000
359.821;  798.325;  161.475;    0.000
359.884;  856.325;  159.475;    0.000
359.946;  842.325;  186.475;    0.000
360.009;  820.325;  171.475;    0.000
360.071;  795.325;  166.475;    0.000
360.134;  828.325;  215.475;    0.000
360.196;  797.325;  138.475;    0.000
360.259;  838.325;  196.475;    0.000
360.321;  845.325;  148.475;    0.000
360.384;  907.325;  150.475;    0.000
360.446;  839.325;  148.475;    0.000
360.508;  800.325;  172.475;    0.000
360.571;  870.325;  155.475;    0.000
360.633;  804.325;  153.475;    0.000
360.696;  821.325;  142.475;    0.000
360.758;  837.325;  165.475;    0.000
360.820;  857.325;  155.475;    0.000
360.883;  772.325;  156.475;    0.000
360.945;  851.325;  171.475;    0.000
361.007;  844.325;  138.475;    0.000
361.070;  858.325;  129.475;    0.000
361.132;  852.325;  166.475;    0.000
361.194;  829.325;  143.475;    0.000
361.257;  871.325;  154.475;    0.000
361.319;  887.325;  176.475;    0.000
361.381;  928.325;  143.475;    0.000
361.443;  889.325;  136.475;    0.000
361.506;  852.325;  160.475;    0.000
361.568;  831.325;  140.475;    0.000
361.630;  843.325;  159.475;    0.000
361.693;  871.325;  162.475;    0.000
361.755;  908.325;  185.475;    0.000
361.817;  855.325;  209.475;    0.000
361.879;  927.325;  161.475;    0.000
361.941;  899.325;  152.475;    0.000
362.004;  833.325;  132.475;    0.000
362.066;  863.325;  159.475;    0.000
362.128;  893.325;  143.475;    0.000
362.190;  891.325;  131.475;    0.000
362.252;  939.325;  131.475;    0.000
362.315;  912.325;  175.475;    0.000
362.377;  887.325;  140.475;    0.000
362.439;  896.325;  140.475;    0.000
362.501;  813.325;  140.475;    0.000
362.563;  879.325;  152.475;    0.000
362.625;  935.325;  174.475;    0.000
362.688;  865.325;  195.475;    0.000
362.750;  907.325;  221.475;    0.000
362.812;  912.325;  171.475;    0.000
362.874;  861.325;  117.475;    0.000
362.936;  905.325;  162.475;    0.000
362.998;  868.325;  142.475;    0.000
363.060;  933.325;  143.475;    0.000
363.122;  937.325;  148.475;    0.000
363.184;  926.325;  179.475;    0.000
363.246;  938.325;  186.475;    0.000
363.308;  857.325;  180.475;    0.000
363.370;  908.325;  200.475;    0.000
363.432;  942.325;  139.475;    0.000
363.494;  916.325;  138.475;    0.000
363.556;  824.325;  114.475;    0.000
363.618;  910.325;  153.475;    0.000
363.680;  875.325;  153.475;    0.000
363.742;  910.325;  178.475;    0.000
363.804;  933.325;  214.475;    0.000
363.866;  963.325;  170.475;    0.000
363.928;  858.325;  145.475;    0.000
363.990;  977.325;  215.475;    0.000
364.052;  942.325;  166.475;    0.000
364.114;  914.325;  168.475;    0.000
364.176;  973.325;  176.475;    0.000
364.238;  962.325;  203.475;    0.000
364.300;  912.325;  158.475;    0.000
364.362;  878.325;  152.475;    0.000
364.424;  930.325;  119.475;    0.000
364.486;  974.325;  187.475;    0.000
364.548;  936.325;  180.475;    0.000
364.609;  941.325;  212.475;    0.000
364.671; 1006.325;  165.475;    0.000
364.733;  940.325;  190.475;    0.000
364.795;  946.325;  148.475;    0.000
364.857;  915.325;  159.475;    0.000
364.919;  890.325;  159.475;    0.000
364.981;  966.325;  191.475;    0.000
365.042;  973.325;  170.475;    0.000
365.104;  920.325;  145.475;    0.000
365.166;  889.325;  134.475;    0.000
365.228;  990.325;  150.475;    0.000
365.290;  974.325;  158.475;    0.000
365.351;  970.325;  168.475;    0.000
365.413;  891.325;  173.475;    0.000
365.475;  982.325;  172.475;    0.000
365.537;  910.325;  126.475;    0.000
365.598;  998.325;  160.475;    0.000
365.660;  940.325;  127.475;    0.000
365.722;  977.325;  189.475;    0.000
365.784;  938.325;  161.475;    0.000
365.845;  928.325;  152.475;    0.000
365.907;  972.325;  117.475;    0.000
365.969; 1025.325;  146.475;    0.000
366.030;  966.325;  171.475;    0.000
366.092;  962.325;  155.475;    0.000
366.154;  933.325;  137.475;    0.000
366.215; 1023.325;  147.475;    0.000
366.277;  892.325;  148.475;    0.000
366.339;  950.325;  158.475;    0.000
366.400; 1012.325;  140.475;    0.000
366.462;  952.325;  159.475;    0.000
366.524; 1009.325;  160.475;    0.000
366.585;  981.325;  157.475;    0.000
366.647; 1044.325;  170.475;    0.000
366.708;  969.325;  123.475;    0.000
366.770; 1003.325;  194.475;    0.000
366.832;  978.325;  191.475;    0.000
366.893;  990.325;  155.475;    0.000
366.955; 1003.325;  132.475;    0.000
367.016;  988.325;  126.475;    0.000
367.078;  945.325;  202.475;    0.000
367.139;  926.325;  116.475;    0.000
367.201; 1006.325;  134.475;    0.000
367.262;  975.325;  157.475;    0.000
367.324;  993.325;  202.475;    0.000
367.385;  956.325;  118.475;    0.000
367.447; 1008.325;  155.475;    0.000
367.508;  994.325;  134.475;    0.000
367.570;  995.325;  165.475;    0.000
367.631;  972.325;  118.475;    0.000
367.693; 1037.325;  170.475;    0.000
367.754; 1005.325;  154.475;    0.000
367.816;  982.325;  146.475;    0.000
367.877; 1045.325;  175.475;    0.000
367.939; 1023.325;  200.475;    0.000
368.000;  978.325;  168.475;    0.000
368.062;  962.325;  138.475;    0.000
368.123;  948.325;  170.475;    0.000
368.184;  972.325;  188.475;    0.000
368.246;  981.325;  145.475;    0.000
368.307; 1002.325;  163.475;    0.000
368.369;  988.325;  144.475;    0.000
368.430;  961.325;  140.475;    0.000
368.491; 1003.325;  133.475;    0.000
368.553;  976.325;  145.475;    0.000
368.614; 1036.325;  158.475;    0.000
368.675;  989.325;  147.475;    0.000
368.737;  996.325;  157.475;    0.000
368.798; 1013.325;  163.475;    0.000
368.859; 1001.325;  173.475;    0.000
368.921; 1033.325;  122.475;    0.000
368.982;  990.325;  184.475;    0.000
369.043; 1057.325;  169.475;    0.000
369.104; 1020.325;  142.475;    0.000
369.166; 1024.325;  169.475;    0.000
369.227;  982.325;  156.475;    0.000
369.288; 1024.325;  151.475;    0.000
369.349; 1062.325;  191.475;    0.000
369.411; 1041.325;  168.475;    0.000
369.472; 1073.325;  155.475;    0.000
369.533; 1048.325;  149.475;    0.000
369.594;  985.325;  174.475;    0.000
369.656; 1060.325;  188.475;    0.000
369.717;  942.325;  113.475;    0.000
369.778; 1018.325;  184.475;    0.000
369.839;  959.325;  151.475;    0.000
369.900; 1102.325;  180.475;    0.000
369.961;  979.325;  171.475;    0.000
370.023; 1000.325;  143.475;    0.000
370.084; 1038.325;  137.475;    0.000
370.145; 1075.325;  152.475;    0.000
370.206; 1034.325;  151.475;    0.000
370.267; 1087.325;  134.475;    0.000
370.328;  993.325;  178.475;    0.000
370.389; 1062.325;  181.475;    0.000
370.451; 1055.325;  169.475;    0.000
370.512; 1016.325;  172.475;    0.000
370.573; 1045.325;  148.475;    0.000
370.634; 1046.325;  156.475;    0.000
370.695; 1056.325;  151.475;    0.000
370.756; 1041.325;  185.475;    0.000
370.817; 1095.325;  185.475;    0.000
370.878; 1048.325;  191.475;    0.000
370.939; 1018.325;  147.475;    0.000
371.000; 1083.325;  162.475;    0.000
371.061; 1052.325;  145.475;    0.000
371.122; 1021.325;  179.475;    0.000
371.183;  965.325;  114.475;    0.000
371.244; 1034.325;  180.475;    0.000
371.305; 1015.325;  138.475;    0.000
371.366; 1061.325;  157.475;    0.000
371.427; 1050.325;  148.475;    0.000
371.488; 1070.325;  138.475;    0.000
371.549; 1096.325;  193.475;    0.000
371.610; 1035.325;  158.475;    0.000
371.671; 1056.325;  119.475;    0.000
371.732;  990.325;  159.475;    0.000
371.793;  998.325;  178.475;    0.000
371.853; 1055.325;  155.475;    0.000
371.914; 1025.325;  148.475;    0.000
371.975; 1031.325;  124.475;    0.000
372.036; 1114.325;  158.475;    0.000
372.097; 1082.325;  136.475;    0.000
372.158; 1027.325;  116.475;    0.000
372.219; 1126.325;  157.475;    0.000
372.280; 1033.325;  151.475;    0.000
372.340; 1074.325;  190.475;    0.000
372.401; 1086.325;  151.475;    0.000
372.462; 1073.325;  129.475;    0.000
372.523; 1024.325;  121.475;    0.000
372.584; 1092.325;  152.475;    0.000
372.645; 1028.325;  132.475;    0.000
372.705; 1154.325;  190.475;    0.000
372.766; 1054.325;  153.475;    0.000
372.827; 1051.325;  133.475;    0.000
372.888; 1075.325;  161.475;    0.000
372.948; 1099.325;  159.475;    0.000
373.009; 1060.325;  164.475;    0.000
373.070; 1068.325;  139.475;    0.000
373.131; 1111.325;  137.475;    0.000
373.191; 1129.325;  181.475;    0.000
373.252; 1073.325;  154.475;    0.000
373.313; 1107.325;  179.475;    0.000
373.373; 1131.325;  136.475;    0.000
373.434; 1089.325;  169.475;    0.000
373.495; 1110.325;   97.475;    0.000
373.555; 1070.325;  142.475;    0.000
373.616; 1105.325;  178.475;    0.000
373.677; 1127.325;  167.475;    0.000
373.737; 1122.325;  139.475;    0.000
373.798; 1134.325;  155.475;    0.000
373.859; 1084.325;  162.475;    0.000
373.919; 1088.325;  174.475;    0.000
373.980; 1139.325;  172.475;    0.000
374.041; 1068.325;  166.475;    0.000
374.101; 1128.325;  172.475;    0.000
374.162; 1109.325;  188.475;    0.000
374.222; 1159.325;  186.475;    0.000
374.283; 1111.325;  195.475;    0.000
374.343; 1145.325;  204.475;    0.000
374.404; 1169.325;  187.475;    0.000
374.465; 1146.325;  183.475;    0.000
374.525; 1091.325;  136.475;    0.000
374.586; 1115.325;  140.475;    0.000
374.646; 1130.325;  191.475;    0.000
374.707; 1148.325;  208.475;    0.000
374.767; 1070.325;  178.475;    0.000
374.828; 1111.325;  159.475;    0.000
374.888; 1163.325;  143.475;    0.000
374.949; 1202.325;  202.475;    0.000
375.009; 1159.325;  151.475;    0.000
375.070; 1122.325;  160.475;    0.000
375.130; 1117.325;  160.475;    0.000
375.190; 1157.325;  164.475;    0.000
375.251; 1164.325;  196.475;    0.000
375.311; 1167.325;  154.475;    0.000
375.372; 1162.325;  197.475;    0.000
375.432; 1126.325;  159.475;    0.000
375.493; 1132.325;  197.475;    0.000
375.553; 1133.325;  165.475;    0.000
375.613; 1113.325;  174.475;    0.000
375.674; 1186.325;  165.475;    0.000
375.734; 1168.325;  128.475;    0.000
375.794; 1095.325;  169.475;    0.000
375.855; 1172.325;  193.475;    0.000
375.915; 1216.325;  162.475;    0.000
375.975; 1110.325;  181.475;    0.000
376.036; 1161.325;  161.475;    0.000
376.096; 1195.325;  131.475;    0.000
376.156; 1091.325;  165.475;    0.000
376.217; 1145.325;  182.475;    0.000
376.277; 1190.325;  185.475;    0.000
376.337; 1130.325;  177.475;    0.000
376.398; 1123.325;  162.475;    0.000
376.458; 1169.325;  179.475;    0.000
376.518; 1144.325;  150.475;    0.000
376.578; 1204.325;  165.475;    0.000
376.639; 1172.325;  159.475;    0.000
376.699; 1193.325;  180.475;    0.000
376.759; 1160.325;  206.475;    0.000
376.819; 1161.325;  146.475;    0.000
376.880; 1177.325;  177.475;    0.000
376.940; 1201.325;  160.475;    0.000
377.000; 1224.325;  149.475;    0.000
377.060; 1175.325;  180.475;    0.000
377.120; 1200.325;  146.475;    0.000
377.180; 1192.325;  137.475;    0.000
377.241; 1242.325;  163.475;    0.000
377.301; 1191.325;  169.475;    0.000
377.361; 1155.325;  137.475;    0.000
377.421; 1197.325;  184.475;    0.000
377.481; 1227.325;  185.475;    0.000
377.541; 1194.325;  146.475;    0.000
377.601; 1263.325;  179.475;    0.000
377.661; 1203.325;  181.475;    0.000
377.722; 1192.325;  185.475;    0.000
377.782; 1257.325;  147.475;    0.000
377.842; 1180.325;  190.475;    0.000
377.902; 1245.325;  166.475;    0.000
377.962; 1207.325;  153.475;    0.000
378.022; 1203.325;  163.475;    0.000
378.082; 1198.325;  146.475;    0.000
378.142; 1195.325;  152.475;    0.000
378.202; 1262.325;  164.475;    0.000
378.262; 1231.325;  195.475;    0.000
378.322; 1267.325;  190.475;    0.000
378.382; 1296.325;  152.475;    0.000
378.442; 1247.325;  175.475;    0.000
378.502; 1194.325;  153.475;    0.000
378.562; 1223.325;  142.475;    0.000
378.622; 1305.325;  166.475;    0.000
378.682; 1305.325;  173.475;    0.000
378.742; 1249.325;  182.475;    0.000
378.802; 1242.325;  145.475;    0.000
378.862; 1303.325;  210.475;    0.000
378.921; 1312.325;  182.475;    0.000
378.981; 1310.325;  185.475;    0.000
379.041; 1332.325;  130.475;    0.000
379.101; 1368.325;  177.475;    0.000
379.161; 1289.325;  166.475;    0.000
379.221; 1299.325;  162.475;    0.000
379.281; 1288.325;  167.475;    0.000
379.341; 1293.325;  136.475;    0.000
379.401; 1333.325;  145.475;    0.000
379.460; 1330.325;  176.475;    0.000
379.520; 1311.325;  162.475;    0.000
379.580; 1291.325;  144.475;    0.000
379.640; 1354.325;  163.475;    0.000
379.700; 1316.325;  157.475;    0.000
379.759; 1398.325;  165.475;    0.000
379.819; 1319.325;  190.475;    0.000
379.879; 1385.325;  143.475;    0.000
379.939; 1384.325;  188.475;    0.000
379.999; 1333.325;  141.475;    0.000
380.058; 1364.325;  169.475;    0.000
380.118; 1385.325;  158.475;    0.000
380.178; 1400.325;  114.475;    0.000
380.237; 1391.325;  157.475;    0.000
380.297; 1398.325;  177.475;    0.000
380.357; 1397.325;  189.475;    0.000
380.417; 1418.325;  182.475;    0.000
380.476; 1409.325;  178.475;    0.000
380.536; 1433.325;  189.475;    0.000
380.596; 1342.325;  183.475;    0.000
380.655; 1470.325;  195.475;    0.000
380.715; 1420.325;  170.475;    0.000
380.775; 1412.325;  170.475;    0.000
380.834; 1456.325;  179.475;    0.000
380.894; 1440.325;  188.475;    0.000
380.954; 1394.325;  142.475;    0.000
381.013; 1457.325;  178.475;    0.000
381.073; 1431.325;  164.475;    0.000
381.132; 1415.325;  192.475;    0.000
381.192; 1487.325;  187.475;    0.000
381.252; 1468.325;  176.475;    0.000
381.311; 1456.325;  206.475;    0.000
381.371; 1511.325;  167.475;    0.000
381.430; 1491.325;  131.475;    0.000
381.490; 1495.325;  150.475;    0.000
381.549; 1481.325;  129.475;    0.000
381.609; 1553.325;  178.475;    0.000
381.668; 1563.325;  194.475;    0.000
381.728; 1495.325;  210.475;    0.000
381.787; 1597.325;  190.475;    0.000
381.847; 1602.325;  181.475;    0.000
381.906; 1598.325;  156.475;    0.000
381.966; 1553.325;  176.475;    0.000
382.025; 1655.325;  186.475;    0.000
382.085; 1680.325;  192.475;    0.000
382.144; 1660.325;  173.475;    0.000
382.204; 1702.325;  207.475;    0.000
382.263; 1624.325;  193.475;    0.000
382.323; 1727.325;  164.475;    0.000
382.382; 1801.325;  161.475;    0.000
382.441; 1771.325;  199.475;    0.000
382.501; 1768.325;  208.475;    0.000
382.560; 1909.325;  173.475;    0.000
382.619; 1905.325;  179.475;    0.000
382.679; 1958.325;  177.475;    0.000
382.738; 2069.325;  190.475;    0.000
382.798; 2237.325;  213.475;    0.000
382.857; 2360.325;  195.475;    0.000
382.916; 2576.325;  184.475;    0.000
382.976; 2830.325;  169.475;    0.000
383.035; 2568.325;  194.475;    0.000
383.094; 2570.325;  185.475;    0.000
383.154; 2839.325;  198.475;    0.000
383.213; 3519.325;  147.475;    0.000
383.272; 3466.325;  175.475;    0.000
383.331; 2699.325;  122.475;    0.000
383.391; 2420.325;  185.475;    0.000
383.450; 2443.325;  160.475;    0.000
383.509; 2371.325;  168.475;    0.000
383.568; 2502.325;  196.475;    0.000
383.628; 2565.325;  156.475;    0.000
383.687; 2905.325;  171.475;    0.000
383.746; 3165.325;  155.475;    0.000
383.805; 3949.325;  201.475;    0.000
383.864; 3890.325;  125.475;    0.000
383.924; 2948.325;  213.475;    0.000
383.983; 2512.325;  188.475;    0.000
384.042; 2222.325;  162.475;    0.000
384.101; 2210.325;  183.475;    0.000
384.160; 1928.325;  155.475;    0.000
384.219; 1883.325;  155.475;    0.000
384.279; 1937.325;  189.475;    0.000
384.338; 1802.325;  156.475;    0.000
384.397; 1812.325;  148.475;    0.000
384.456; 1799.325;  154.475;    0.000
384.515; 1769.325;  160.475;    0.000
384.574; 1750.325;  223.475;    0.000
384.633; 1730.325;  133.475;    0.000
384.692; 1721.325;  163.475;    0.000
384.751; 1727.325;  186.475;    0.000
384.810; 1702.325;  187.475;    0.000
384.869; 1572.325;  172.475;    0.000
384.929; 1648.325;  153.475;    0.000
384.988; 1672.325;  174.475;    0.000
385.047; 1605.325;  154.475;    0.000
385.106; 1638.325;  164.475;    0.000
385.165; 1573.325;  151.475;    0.000
385.224; 1631.325;  147.475;    0.000
385.283; 1651.325;  176.475;    0.000
385.342; 1562.325;  142.475;    0.000
385.401; 1656.325;  175.475;    0.000
385.459; 1678.325;  150.475;    0.000
385.518; 1563.325;  124.475;    0.000
385.577; 1613.325;  115.475;    0.000
385.636; 1648.325;  174.475;    0.000
385.695; 1577.325;  158.475;    0.000
385.754; 1580.325;  150.475;    0.000
385.813; 1665.325;  129.475;    0.000
385.872; 1664.325;  146.475;    0.000
385.931; 1607.325;  194.475;    0.000
385.990; 1526.325;  174.475;    0.000
386.049; 1651.325;  176.475;    0.000
386.107; 1602.325;  151.475;    0.000
386.166; 1555.325;  178.475;    0.000
386.225; 1581.325;  162.475;    0.000
386.284; 1632.325;  180.475;    0.000
386.343; 1607.325;  171.475;    0.000
386.402; 1568.325;  176.475;    0.000
386.460; 1563.325;  144.475;    0.000
386.519; 1584.325;  140.475;    0.000
386.578; 1659.325;  145.475;    0.000
386.637; 1653.325;  164.475;    0.000
386.696; 1577.325;  189.475;    0.000
386.754; 1575.325;  135.475;    0.000
386.813; 1579.325;  139.475;    0.000
386.872; 1507.325;  121.475;    0.000
386.931; 1584.325;  153.475;    0.000
386.989; 1660.325;  211.475;    0.000
387.048; 1579.325;  156.475;    0.000
387.107; 1611.325;  210.475;    0.000
387.165; 1515.325;  129.475;    0.000
387.224; 1565.325;  205.475;    0.000
387.283; 1529.325;  130.475;    0.000
387.342; 1613.325;  171.475;    0.000
387.400; 1587.325;  156.475;    0.000
387.459; 1515.325;  141.475;    0.000
387.517; 1584.325;  219.475;    0.000
387.576; 1596.325;  166.475;    0.000
387.635; 1602.325;  136.475;    0.000
387.693; 1543.325;  191.475;    0.000
387.752; 1577.325;  165.475;    0.000
387.811; 1593.325;  158.475;    0.000
387.869; 1625.325;  204.475;    0.000
387.928; 1560.325;  149.475;    0.000
387.986; 1571.325;  156.475;    0.000
388.045; 1478.325;  123.475;    0.000
388.103; 1516.325;  150.475;    0.000
388.162; 1548.325;  173.475;    0.000
388.221; 1497.325;  143.475;    0.000
388.279; 1517.325;  129.475;    0.000
388.338; 1622.325;  212.475;    0.000
388.396; 1545.325;  150.475;    0.000
388.455; 1561.325;  167.475;    0.000
388.513; 1516.325;  116.475;    0.000
388.572; 1532.325;  181.475;    0.000
388.630; 1512.325;  187.475;    0.000
388.689; 1532.325;  180.475;    0.000
388.747; 1544.325;  154.475;    0.000
388.806; 1483.325;  161.475;    0.000
388.864; 1525.325;  167.475;    0.000
388.922; 1591.325;  184.475;    0.000
388.981; 1573.325;  169.475;    0.000
389.039; 1563.325;  102.475;    0.000
389.098; 1589.325;  183.475;    0.000
389.156; 1548.325;  182.475;    0.000
389.214; 1599.325;  173.475;    0.000
389.273; 1536.325;  167.475;    0.000
389.331; 1553.325;  170.475;    0.000
389.390; 1510.325;  150.475;    0.000
389.448; 1529.325;  156.475;    0.000
389.506; 1581.325;  149.475;    0.000
389.565; 1575.325;  162.475;    0.000
389.623; 1488.325;  188.475;    0.000
389.681; 1562.325;  204.475;    0.000
389.740; 1510.325;  187.475;    0.000
389.798; 1512.325;  153.475;    0.000
389.856; 1507.325;  214.475;    0.000
389.914; 1511.325;  177.475;    0.000
389.973; 1590.325;  189.475;    0.000
390.031; 1534.325;  178.475;    0.000
390.089; 1533.325;  163.475;    0.000
390.147; 1455.325;  170.475;    0.000
390.206; 1601.325;  183.475;    0.000
390.264; 1456.325;  161.475;    0.000
390.322; 1564.325;  148.475;    0.000
390.380; 1548.325;  138.475;    0.000
390.439; 1491.325;  194.475;    0.000
390.497; 1562.325;  170.475;    0.000
390.555; 1603.325;  165.475;    0.000
390.613; 1571.325;  177.475;    0.000
390.671; 1455.325;  170.475;    0.000
390.729; 1571.325;  158.475;    0.000
390.788; 1614.325;  162.475;    0.000
390.846; 1471.325;  161.475;    0.000
390.904; 1551.325;  197.475;    0.000
390.962; 1525.325;  212.475;    0.000
391.020; 1603.325;  224.475;    0.000
391.078; 1614.325;  184.475;    0.000
391.136; 1491.325;  191.475;    0.000
391.194; 1623.325;  187.475;    0.000
391.253; 1596.325;  197.475;    0.000
391.311; 1587.325;  185.475;    0.000
391.369; 1532.325;  207.475;    0.000
391.427; 1571.325;  222.475;    0.000
391.485; 1553.325;  184.475;    0.000
391.543; 1611.325;  203.475;    0.000
391.601; 1513.325;  151.475;    0.000
391.659; 1551.325;  176.475;    0.000
391.717; 1633.325;  190.475;    0.000
391.775; 1520.325;  159.475;    0.000
391.833; 1501.325;  186.475;    0.000
391.891; 1562.325;  154.475;    0.000
391.949; 1511.325;  181.475;    0.000
392.007; 1582.325;  190.475;    0.000
392.065; 1567.325;  182.475;    0.000
392.123; 1542.325;  158.475;    0.000
392.180; 1606.325;  198.475;    0.000
392.238; 1629.325;  191.475;    0.000
392.296; 1590.325;  164.475;    0.000
392.354; 1559.325;  172.475;    0.000
392.412; 1616.325;  194.475;    0.000
392.470; 1570.325;  154.475;    0.000
392.528; 1552.325;  172.475;    0.000
392.586; 1610.325;  179.475;    0.000
392.644; 1665.325;  173.475;    0.000
392.701; 1637.325;  202.475;    0.000
392.759; 1636.325;  180.475;    0.000
392.817; 1573.325;  181.475;    0.000
392.875; 1628.325;  168.475;    0.000
392.933; 1608.325;  161.475;    0.000
392.991; 1592.325;  216.475;    0.000
393.048; 1659.325;  197.475;    0.000
393.106; 1620.325;  199.475;    0.000
393.164; 1569.325;  173.475;    0.000
393.222; 1621.325;  179.475;    0.000
393.279; 1641.325;  209.475;    0.000
393.337; 1707.325;  185.475;    0.000
393.395; 1715.325;  174.475;    0.000
393.453; 1670.325;  181.475;    0.000
393.510; 1564.325;  188.475;    0.000
393.568; 1602.325;  191.475;    0.000
393.626; 1659.325;  151.475;    0.000
393.684; 1591.325;  208.475;    0.000
393.741; 1622.325;  179.475;    0.000
393.799; 1653.325;  149.475;    0.000
393.857; 1576.325;  136.475;    0.000
393.914; 1613.325;  190.475;    0.000
393.972; 1587.325;  155.475;    0.000
394.030; 1592.325;  170.475;    0.000
394.087; 1634.325;  213.475;    0.000
394.145; 1651.325;  191.475;    0.000
394.202; 1642.325;  188.475;    0.000
394.260; 1647.325;  168.475;    0.000
394.318; 1637.325;  176.475;    0.000
394.375; 1626.325;  159.475;    0.000
394.433; 1599.325;  168.475;    0.000
394.490; 1620.325;  163.475;    0.000
394.548; 1667.325;  163.475;    0.000
394.605; 1592.325;  181.475;    0.000
394.663; 1544.325;  180.475;    0.000
394.720; 1697.325;  193.475;    0.000
394.778; 1645.325;  168.475;    0.000
394.836; 1615.325;  128.475;    0.000
394.893; 1587.325;  151.475;    0.000
394.951; 1709.325;  173.475;    0.000
395.008; 1686.325;  201.475;    0.000
395.065; 1664.325;  139.475;    0.000
395.123; 1689.325;  173.475;    0.000
395.180; 1653.325;  144.475;    0.000
395.238; 1640.325;  135.475;    0.000
395.295; 1614.325;  167.475;    0.000
395.353; 1709.325;  150.475;    0.000
395.410; 1654.325;  165.475;    0.000
395.468; 1704.325;  223.475;    0.000
395.525; 1687.325;  156.475;    0.000
395.582; 1708.325;  178.475;    0.000
395.640; 1654.325;  178.475;    0.000
395.697; 1686.325;  173.475;    0.000
395.754; 1703.325;  154.475;    0.000
395.812; 1675.325;  169.475;    0.000
395.869; 1761.325;  196.475;    0.000
395.927; 1666.325;  190.475;    0.000
395.984; 1716.325;  195.475;    0.000
396.041; 1747.325;  160.475;    0.000
396.098; 1689.325;  161.475;    0.000
396.156; 1716.325;  187.475;    0.000
396.213; 1758.325;  200.475;    0.000
396.270; 1695.325;  160.475;    0.000
396.328; 1725.325;  113.475;    0.000
396.385; 1674.325;  165.475;    0.000
396.442; 1601.325;  168.475;    0.000
396.499; 1714.325;  117.475;    0.000
396.557; 1717.325;  203.475;    0.000
396.614; 1786.325;  155.475;    0.000
396.671; 1720.325;  187.475;    0.000
396.728; 1776.325;  169.475;    0.000
396.785; 1804.325;  167.475;    0.000
396.843; 1824.325;  154.475;    0.000
396.900; 1740.325;  172.475;    0.000
396.957; 1687.325;  176.475;    0.000
397.014; 1777.325;  193.475;    0.000
397.071; 1699.325;  170.475;    0.000
397.128; 1753.325;  172.475;    0.000
397.186; 1807.325;  205.475;    0.000
397.243; 1741.325;  163.475;    0.000
397.300; 1788.325;  193.475;    0.000
397.357; 1797.325;  166.475;    0.000
397.414; 1738.325;  149.475;    0.000
397.471; 1751.325;  157.475;    0.000
397.528; 1772.325;  180.475;    0.000
397.585; 1843.325;  203.475;    0.000
397.642; 1782.325;  156.475;    0.000
397.699; 1800.325;  229.475;    0.000
397.756; 1753.325;  185.475;    0.000
397.814; 1813.325;  191.475;    0.000
397.871; 1789.325;  170.475;    0.000
397.928; 1788.325;  191.475;    0.000
397.985; 1819.325;  183.475;    0.000
398.042; 1872.325;  161.475;    0.000
398.099; 1818.325;  192.475;    0.000
398.156; 1842.325;  176.475;    0.000
398.212; 1853.325;  170.475;    0.000
398.269; 1887.325;  158.475;    0.000
398.326; 1801.325;  175.475;    0.000
398.383; 1856.325;  177.475;    0.000
398.440; 1876.325;  169.475;    0.000
398.497; 1908.325;  184.475;    0.000
398.554; 1847.325;  196.475;    0.000
398.611; 1880.325;  198.475;    0.000
398.668; 1893.325;  135.475;    0.000
398.725; 1873.325;  181.475;    0.000
398.782; 1903.325;  195.475;    0.000
398.839; 1883.325;  179.475;    0.000
398.895; 1911.325;  188.475;    0.000
398.952; 1958.325;  176.475;    0.000
399.009; 1868.325;  183.475;    0.000
399.066; 1889.325;  190.475;    0.000
399.123; 1991.325;  174.475;    0.000
399.180; 1943.325;  191.475;    0.000
399.236; 1988.325;  217.475;    0.000
399.293; 1995.325;  154.475;    0.000
399.350; 2108.325;  210.475;    0.000
399.407; 2075.325;  202.475;    0.000
399.463; 2039.325;  162.475;    0.000
399.520; 1999.325;  207.475;    0.000
399.577; 2033.325;  174.475;    0.000
399.634; 2023.325;  170.475;    0.000
399.690; 2117.325;  186.475;    0.000
399.747; 2039.325;  218.475;    0.000
399.804; 2089.325;  200.475;    0.000
399.861; 2030.325;  190.475;    0.000
399.917; 2047.325;  218.475;    0.000
399.974; 2100.325;  200.475;    0.000
400.031; 2185.325;  200.475;    0.000
400.087; 2104.325;  153.475;    0.000
400.144; 2048.325;  188.475;    0.000
400.201; 2015.325;  198.475;    0.000
400.257; 2025.325;  205.475;    0.000
400.314; 2060.325;  183.475;    0.000
400.370; 2043.325;  227.475;    0.000
400.427; 2005.325;  177.475;    0.000
400.484; 2051.325;  202.475;    0.000
400.540; 2018.325;  173.475;    0.000
400.597; 2041.325;  212.475;    0.000
400.653; 2013.325;  182.475;    0.000
400.710; 2026.325;  201.475;    0.000
400.766; 1969.325;  188.475;    0.000
400.823; 2008.325;  205.475;    0.000
400.879; 1974.325;  165.475;    0.000
400.936; 1960.325;  180.475;    0.000
400.993; 2008.325;  181.475;    0.000
401.049; 1932.325;  147.475;    0.000
401.105; 1997.325;  205.475;    0.000
401.162; 2034.325;  197.475;    0.000
401.218; 1963.325;  177.475;    0.000
401.275; 1977.325;  183.475;    0.000
401.331; 1961.325;  198.475;    0.000
401.388; 2014.325;  209.475;    0.000
401.444; 1948.325;  211.475;    0.000
401.501; 1943.325;  185.475;    0.000
401.557; 1962.325;  190.475;    0.000
401.614; 1914.325;  172.475;    0.000
401.670; 1970.325;  185.475;    0.000
401.726; 2013.325;  196.475;    0.000
401.783; 1947.325;  187.475;    0.000
401.839; 2002.325;  192.475;    0.000
401.895; 1972.325;  173.475;    0.000
401.952; 1930.325;  145.475;    0.000
402.008; 1986.325;  197.475;    0.000
402.064; 1975.325;  146.475;    0.000
402.121; 2042.325;  197.475;    0.000
402.177; 1987.325;  173.475;    0.000
402.233; 2010.325;  185.475;    0.000
402.290; 1964.325;  175.475;    0.000
402.346; 2051.325;  164.475;    0.000
402.402; 2068.325;  173.475;    0.000
402.458; 2041.325;  183.475;    0.000
402.515; 2102.325;  147.475;    0.000
402.571; 1993.325;  210.475;    0.000
402.627; 2067.325;  181.475;    0.000
402.683; 1995.325;  177.475;    0.000
402.740; 2008.325;  162.475;    0.000
402.796; 1950.325;  178.475;    0.000
402.852; 2020.325;  138.475;    0.000
402.908; 2127.325;  181.475;    0.000
402.964; 2041.325;  151.475;    0.000
403.021; 1999.325;  170.475;    0.000
403.077; 2006.325;  204.475;    0.000
403.133; 2075.325;  144.475;    0.000
403.189; 2055.325;  207.475;    0.000
403.245; 2042.325;  184.475;    0.000
403.301; 2073.325;  170.475;    0.000
403.357; 2066.325;  201.475;    0.000
403.414; 2155.325;  205.475;    0.000
403.470; 2071.325;  170.475;    0.000
403.526; 1992.325;  135.475;    0.000
403.582; 1998.325;  180.475;    0.000
403.638; 2052.325;  185.475;    0.000
403.694; 2139.325;  169.475;    0.000
403.750; 2067.325;  210.475;    0.000
403.806; 2095.325;  210.475;    0.000
403.862; 2064.325;  219.475;    0.000
403.918; 2071.325;  191.475;    0.000
403.974; 2111.325;  193.475;    0.000
404.030; 2091.325;  154.475;    0.000
404.086; 2073.325;  170.475;    0.000
404.142; 2025.325;  194.475;    0.000
404.198; 2057.325;  224.475;    0.000
404.254; 2121.325;  177.475;    0.000
404.310; 2115.325;  204.475;    0.000
404.366; 2080.325;  170.475;    0.000
404.422; 2122.325;  172.475;    0.000
404.478; 2086.325;  153.475;    0.000
404.534; 2084.325;  159.475;    0.000
404.590; 2139.325;  203.475;    0.000
404.646; 2099.325;  164.475;    0.000
404.701; 2124.325;  141.475;    0.000
404.757; 2064.325;  195.475;    0.000
404.813; 2163.325;  152.475;    0.000
404.869; 2157.325;  174.475;    0.000
404.925; 2161.325;  167.475;    0.000
404.981; 2147.325;  175.475;    0.000
405.037; 2105.325;  170.475;    0.000
405.092; 2017.325;  155.475;    0.000
405.148; 2142.325;  160.475;    0.000
405.204; 2102.325;  158.475;    0.000
405.260; 2073.325;  128.475;    0.000
405.316; 2100.325;  168.475;    0.000
405.371; 2128.325;  162.475;    0.000
405.427; 2140.325;  187.475;    0.000
405.483; 2162.325;  214.475;    0.000
405.539; 2128.325;  163.475;    0.000
405.594; 2187.325;  191.475;    0.000
405.650; 2097.325;  124.475;    0.000
405.706; 2179.325;  188.475;    0.000
405.761; 2150.325;  204.475;    0.000
405.817; 2175.325;  150.475;    0.000
405.873; 2131.325;  152.475;    0.000
405.928; 2190.325;  135.475;    0.000
405.984; 2201.325;  209.475;    0.000
406.040; 2134.325;  165.475;    0.000
406.095; 2151.325;  146.475;    0.000
406.151; 2179.325;  169.475;    0.000
406.207; 2202.325;  174.475;    0.000
406.262; 2170.325;  189.475;    0.000
406.318; 2186.325;  141.475;    0.000
406.374; 2151.325;  178.475;    0.000
406.429; 2181.325;  197.475;    0.000
406.485; 2206.325;  194.475;    0.000
406.540; 2236.325;  149.475;    0.000
406.596; 2260.325;  173.475;    0.000
406.651; 2271.325;  154.475;    0.000
406.707; 2260.325;  183.475;    0.000
406.763; 2246.325;  156.475;    0.000
406.818; 2297.325;  181.475;    0.000
406.874; 2173.325;  135.475;    0.000
406.929; 2321.325;  194.475;    0.000
406.985; 2303.325;  166.475;    0.000
407.040; 2364.325;  207.475;    0.000
407.095; 2374.325;  213.475;    0.000
407.151; 2314.325;  198.475;    0.000
407.206; 2348.325;  186.475;    0.000
407.262; 2359.325;  148.475;    0.000
407.317; 2359.325;  212.475;    0.000
407.373; 2428.325;  209.475;    0.000
407.428; 2446.325;  218.475;    0.000
407.484; 2355.325;  158.475;    0.000
407.539; 2363.325;  165.475;    0.000
407.594; 2383.325;  197.475;    0.000
407.650; 2457.325;  177.475;    0.000
407.705; 2366.325;  154.475;    0.000
407.760; 2421.325;  198.475;    0.000
407.816; 2355.325;  181.475;    0.000
407.871; 2331.325;  185.475;    0.000
407.926; 2402.325;  167.475;    0.000
407.982; 2352.325;  172.475;    0.000
408.037; 2336.325;  202.475;    0.000
408.092; 2371.325;  201.475;    0.000
408.148; 2433.325;  199.475;    0.000
408.203; 2352.325;  174.475;    0.000
408.258; 2359.325;  157.475;    0.000
408.314; 2361.325;  194.475;    0.000
408.369; 2335.325;  189.475;    0.000
408.424; 2422.325;  204.475;    0.000
408.479; 2363.325;  192.475;    0.000
408.534; 2375.325;  215.475;    0.000
408.590; 2370.325;  190.475;    0.000
408.645; 2331.325;  159.475;    0.000
408.700; 2394.325;  191.475;    0.000
408.755; 2337.325;  217.475;    0.000
408.810; 2335.325;  158.475;    0.000
408.866; 2324.325;  166.475;    0.000
408.921; 2343.325;  214.475;    0.000
408.976; 2372.325;  158.475;    0.000
409.031; 2352.325;  185.475;    0.000
409.086; 2327.325;  158.475;    0.000
409.141; 2333.325;  180.475;    0.000
409.196; 2333.325;  188.475;    0.000
409.252; 2293.325;  186.475;    0.000
409.307; 2315.325;  135.475;    0.000
409.362; 2299.325;  162.475;    0.000
409.417; 2282.325;  149.475;    0.000
409.472; 2330.325;  205.475;    0.000
409.527; 2378.325;  184.475;    0.000
409.582; 2281.325;  174.475;    0.000
409.637; 2359.325;  188.475;    0.000
409.692; 2376.325;  211.475;    0.000
409.747; 2322.325;  159.475;    0.000
409.802; 2326.325;  199.475;    0.000
409.857; 2362.325;  118.475;    0.000
409.912; 2383.325;  177.475;    0.000
409.967; 2333.325;  182.475;    0.000
410.022; 2402.325;  188.475;    0.000
410.077; 2344.325;  204.475;    0.000
410.132; 2260.325;  174.475;    0.000
410.187; 2333.325;  169.475;    0.000
410.242; 2306.325;  178.475;    0.000
410.297; 2342.325;  185.475;    0.000
410.351; 2319.325;  203.475;    0.000
410.406; 2355.325;  180.475;    0.000
410.461; 2272.325;  213.475;    0.000
410.516; 2360.325;  198.475;    0.000
410.571; 2356.325;  171.475;    0.000
410.626; 2337.325;  186.475;    0.000
410.681; 2383.325;  187.475;    0.000
410.736; 2275.325;  147.475;    0.000
410.790; 2369.325;  186.475;    0.000
410.845; 2335.325;  152.475;    0.000
410.900; 2320.325;  202.475;    0.000
410.955; 2337.325;  196.475;    0.000
411.010; 2359.325;  150.475;    0.000
411.064; 2408.325;  200.475;    0.000
411.119; 2331.325;  203.475;    0.000
411.174; 2353.325;  176.475;    0.000
411.229; 2346.325;  203.475;    0.000
411.283; 2357.325;  176.475;    0.000
411.338; 2343.325;  153.475;    0.000
411.393; 2341.325;  168.475;    0.000
411.447; 2360.325;  223.475;    0.000
411.502; 2396.325;  238.475;    0.000
411.557; 2336.325;  179.475;    0.000
411.612; 2451.325;  159.475;    0.000
411.666; 2424.325;  189.475;    0.000
411.721; 2381.325;  212.475;    0.000
411.776; 2325.325;  242.475;    0.000
411.830; 2427.325;  194.475;    0.000
411.885; 2305.325;  188.475;    0.000
411.939; 2473.325;  245.475;    0.000
411.994; 2414.325;  177.475;    0.000
412.049; 2358.325;  170.475;    0.000
412.103; 2449.325;  196.475;    0.000
412.158; 2434.325;  215.475;    0.000
412.212; 2398.325;  199.475;    0.000
412.267; 2346.325;  191.475;    0.000
412.322; 2440.325;  238.475;    0.000
412.376; 2324.325;  243.475;    0.000
412.431; 2460.325;  214.475;    0.000
412.485; 2404.325;  210.475;    0.000
412.540; 2420.325;  200.475;    0.000
412.594; 2349.325;  174.475;    0.000
412.649; 2363.325;  246.475;    0.000
412.703; 2381.325;  182.475;    0.000
412.758; 2383.325;  222.475;    0.000
412.812; 2289.325;  201.475;    0.000
412.866; 2322.325;  162.475;    0.000
412.921; 2443.325;  202.475;    0.000
412.975; 2376.325;  212.475;    0.000
413.030; 2353.325;  238.475;    0.000
413.084; 2350.325;  201.475;    0.000
413.139; 2370.325;  210.475;    0.000
413.193; 2355.325;  218.475;    0.000
413.247; 2445.325;  203.475;    0.000
413.302; 2322.325;  176.475;    0.000
413.356; 2314.325;  215.475;    0.000
413.410; 2310.325;  204.475;    0.000
413.465; 2357.325;  186.475;    0.000
413.519; 2384.325;  196.475;    0.000
413.573; 2308.325;  181.475;    0.000
413.628; 2344.325;  200.475;    0.000
413.682; 2378.325;  157.475;    0.000
413.736; 2450.325;  194.475;    0.000
413.791; 2343.325;  193.475;    0.000
413.845; 2317.325;  225.475;    0.000
413.899; 2347.325;  195.475;    0.000
413.953; 2444.325;  173.475;    0.000
414.008; 2340.325;  186.475;    0.000
414.062; 2357.325;  217.475;    0.000
414.116; 2326.325;  169.475;    0.000
414.170; 2379.325;  228.475;    0.000
414.225; 2305.325;  177.475;    0.000
414.279; 2359.325;  210.475;    0.000
414.333; 2388.325;  207.475;    0.000
414.387; 2320.325;  217.475;    0.000
414.441; 2429.325;  187.475;    0.000
414.496; 2418.325;  215.475;    0.000
414.550; 2263.325;  204.475;    0.000
414.604; 2401.325;  206.475;    0.000
414.658; 2385.325;  139.475;    0.000
414.712; 2372.325;  198.475;    0.000
414.766; 2396.325;  208.475;    0.000
414.820; 2391.325;  199.475;    0.000
414.874; 2300.325;  216.475;    0.000
414.928; 2328.325;  186.475;    0.000
414.982; 2365.325;  176.475;    0.000
415.037; 2453.325;  181.475;    0.000
415.091; 2343.325;  208.475;    0.000
415.145; 2301.325;  209.475;    0.000
415.199; 2331.325;  186.475;    0.000
415.253; 2272.325;  203.475;    0.000
415.307; 2284.325;  197.475;    0.000
415.361; 2393.325;  223.475;    0.000
415.415; 2326.325;  213.475;    0.000
415.469; 2387.325;  226.475;    0.000
415.523; 2429.325;  222.475;    0.000
415.577; 2343.325;  205.475;    0.000
415.631; 2356.325;  224.475;    0.000
415.684; 2364.325;  193.475;    0.000
415.738; 2325.325;  224.475;    0.000
415.792; 2334.325;  204.475;    0.000
415.846; 2345.325;  189.475;    0.000
415.900; 2341.325;  223.475;    0.000
415.954; 2347.325;  187.475;    0.000
416.008; 2268.325;  237.475;    0.000
416.062; 2334.325;  195.475;    0.000
416.116; 2266.325;  223.475;    0.000
416.169; 2324.325;  210.475;    0.000
416.223; 2351.325;  232.475;    0.000
416.277; 2357.325;  227.475;    0.000
416.331; 2346.325;  216.475;    0.000
416.385; 2368.325;  186.475;    0.000
416.439; 2373.325;  226.475;    0.000
416.492; 2403.325;  229.475;    0.000
416.546; 2256.325;  216.475;    0.000
416.600; 2392.325;  211.475;    0.000
416.654; 2401.325;  226.475;    0.000
416.707; 2326.325;  248.475;    0.000
416.761; 2339.325;  217.475;    0.000
416.815; 2321.325;  207.475;    0.000
416.869; 2251.325;  226.475;    0.000
416.922; 2348.325;  192.475;    0.000
416.976; 2264.325;  205.475;    0.000
417.030; 2307.325;  233.475;    0.000
417.083; 2334.325;  226.475;    0.000
417.137; 2303.325;  222.475;    0.000
417.191; 2359.325;  217.475;    0.000
417.244; 2337.325;  221.475;    0.000
417.298; 2283.325;  201.475;    0.000
417.352; 2306.325;  170.475;    0.000
417.405; 2387.325;  234.475;    0.000
417.459; 2309.325;  241.475;    0.000
417.512; 2376.325;  247.475;    0.000
417.566; 2369.325;  219.475;    0.000
417.620; 2326.325;  228.475;    0.000
417.673; 2383.325;  192.475;    0.000
417.727; 2274.325;  203.475;    0.000
417.780; 2291.325;  204.475;    0.000
417.834; 2316.325;  234.475;    0.000
417.887; 2304.325;  245.475;    0.000
417.941; 2381.325;  211.475;    0.000
417.994; 2318.325;  244.475;    0.000
418.048; 2375.325;  203.475;    0.000
418.101; 2297.325;  212.475;    0.000
418.155; 2343.325;  251.475;    0.000
418.208; 2350.325;  286.475;    0.000
418.262; 2372.325;  243.475;    0.000
418.315; 2313.325;  214.475;    0.000
418.369; 2330.325;  269.475;    0.000
418.422; 2373.325;  222.475;    0.000
418.476; 2326.325;  226.475;    0.000
418.529; 2359.325;  238.475;    0.000
418.582; 2264.325;  210.475;    0.000
418.636; 2328.325;  221.475;    0.000
418.689; 2344.325;  224.475;    0.000
418.743; 2400.325;  228.475;    0.000
418.796; 2393.325;  192.475;    0.000
418.849; 2285.325;  230.475;    0.000
418.903; 2293.325;  257.475;    0.000
418.956; 2407.325;  241.475;    0.000
419.009; 2405.325;  247.475;    0.000
419.063; 2324.325;  235.475;    0.000
419.116; 2308.325;  218.475;    0.000
419.169; 2356.325;  219.475;    0.000
419.222; 2321.325;  215.475;    0.000
419.276; 2366.325;  202.475;    0.000
419.329; 2347.325;  210.475;    0.000
419.382; 2267.325;  188.475;    0.000
419.435; 2287.325;  222.475;    0.000
419.489; 2328.325;  232.475;    0.000
419.542; 2310.325;  250.475;    0.000
419.595; 2303.325;  240.475;    0.000
419.648; 2333.325;  261.475;    0.000
419.701; 2355.325;  222.475;    0.000
419.755; 2319.325;  233.475;    0.000
419.808; 2324.325;  178.475;    0.000
419.861; 2361.325;  207.475;    0.000
419.914; 2322.325;  223.475;    0.000
419.967; 2307.325;  216.475;    0.000
420.020; 2291.325;  211.475;    0.000
420.073; 2215.325;  200.475;    0.000
420.127; 2364.325;  248.475;    0.000
420.180; 2342.325;  220.475;    0.000
420.233; 2295.325;  215.475;    0.000
420.286; 2189.325;  222.475;    0.000
420.339; 2247.325;  229.475;    0.000
420.392; 2315.325;  245.475;    0.000
420.445; 2264.325;  221.475;    0.000
420.498; 2237.325;  224.475;    0.000
420.551; 2184.325;  170.475;    0.000
420.604; 2179.325;  237.475;    0.000
420.657; 2273.325;  235.475;    0.000
420.710; 2327.325;  223.475;    0.000
420.763; 2278.325;  219.475;    0.000
420.816; 2223.325;  200.475;    0.000
420.869; 2247.325;  197.475;    0.000
420.922; 2162.325;  212.475;    0.000
420.975; 2267.325;  274.475;    0.000
421.028; 2252.325;  228.475;    0.000
421.081; 2203.325;  243.475;    0.000
421.134; 2193.325;  227.475;    0.000
421.187; 2216.325;  245.475;    0.000
421.239; 2219.325;  210.475;    0.000
421.292; 2237.325;  193.475;    0.000
421.345; 2203.325;  226.475;    0.000
421.398; 2158.325;  226.475;    0.000
421.451; 2223.325;  259.475;    0.000
421.504; 2235.325;  204.475;    0.000
421.557; 2222.325;  215.475;    0.000
421.609; 2191.325;  194.475;    0.000
421.662; 2172.325;  216.475;    0.000
421.715; 2221.325;  226.475;    0.000
421.768; 2181.325;  177.475;    0.000
421.821; 2266.325;  210.475;    0.000
421.873; 2221.325;  208.475;    0.000
421.926; 2211.325;  223.475;    0.000
421.979; 2192.325;  230.475;    0.000
422.032; 2190.325;  227.475;    0.000
422.084; 2238.325;  234.475;    0.000
422.137; 2174.325;  207.475;    0.000
422.190; 2289.325;  228.475;    0.000
422.243; 2211.325;  206.475;    0.000
422.295; 2196.325;  236.475;    0.000
422.348; 2178.325;  232.475;    0.000
422.401; 2138.325;  228.475;    0.000
422.453; 2262.325;  239.475;    0.000
422.506; 2257.325;  226.475;    0.000
422.559; 2195.325;  205.475;    0.000
422.611; 2272.325;  235.475;    0.000
422.664; 2154.325;  231.475;    0.000
422.716; 2210.325;  228.475;    0.000
422.769; 2226.325;  204.475;    0.000
422.822; 2177.325;  205.475;    0.000
422.874; 2213.325;  228.475;    0.000
422.927; 2248.325;  266.475;    0.000
422.979; 2216.325;  223.475;    0.000
423.032; 2166.325;  207.475;    0.000
423.084; 2256.325;  211.475;    0.000
423.137; 2136.325;  205.475;    0.000
423.189; 2165.325;  254.475;    0.000
423.242; 2151.325;  208.475;    0.000
423.294; 2208.325;  240.475;    0.000
423.347; 2169.325;  218.475;    0.000
423.399; 2139.325;  237.475;    0.000
423.452; 2192.325;  242.475;    0.000
423.504; 2153.325;  225.475;    0.000
423.557; 2103.325;  195.475;    0.000
423.609; 2152.325;  206.475;    0.000
423.662; 2197.325;  211.475;    0.000
423.714; 2171.325;  252.475;    0.000
423.766; 2188.325;  181.475;    0.000
423.819; 2237.325;  216.475;    0.000
423.871; 2107.325;  216.475;    0.000
423.923; 2108.325;  222.475;    0.000
423.976; 2077.325;  223.475;    0.000
424.028; 2069.325;  229.475;    0.000
424.081; 2184.325;  267.475;    0.000
424.133; 2115.325;  251.475;    0.000
424.185; 2173.325;  238.475;    0.000
424.238; 2158.325;  220.475;    0.000
424.290; 2074.325;  259.475;    0.000
424.342; 2149.325;  248.475;    0.000
424.394; 2181.325;  234.475;    0.000
424.447; 2174.325;  248.475;    0.000
424.499; 2186.325;  233.475;    0.000
424.551; 2142.325;  236.475;    0.000
424.603; 2122.325;  207.475;    0.000
424.656; 2130.325;  210.475;    0.000
424.708; 2070.325;  251.475;    0.000
424.760; 2142.325;  221.475;    0.000
424.812; 2102.325;  275.475;    0.000
424.864; 2142.325;  206.475;    0.000
424.917; 2010.325;  198.475;    0.000
424.969; 2178.325;  246.475;    0.000
425.021; 2086.325;  209.475;    0.000
425.073; 2146.325;  242.475;    0.000
425.125; 2162.325;  254.475;    0.000
425.177; 2084.325;  224.475;    0.000
425.229; 2146.325;  256.475;    0.000
425.282; 2164.325;  265.475;    0.000
425.334; 2094.325;  266.475;    0.000
425.386; 2084.325;  242.475;    0.000
425.438; 2051.325;  205.475;    0.000
425.490; 2102.325;  227.475;    0.000
425.542; 2113.325;  235.475;    0.000
425.594; 2034.325;  210.475;    0.000
425.646; 2161.325;  232.475;    0.000
425.698; 2093.325;  243.475;    0.000
425.750; 2102.325;  230.475;    0.000
425.802; 2082.325;  218.475;    0.000
425.854; 2058.325;  222.475;    0.000
425.906; 2074.325;  235.475;    0.000
425.958; 2058.325;  220.475;    0.000
426.010; 2230.325;  236.475;    0.000
426.062; 2098.325;  230.475;    0.000
426.114; 2106.325;  216.475;    0.000
426.166; 2106.325;  230.475;    0.000
426.218; 2058.325;  237.475;    0.000
426.270; 2070.325;  217.475;    0.000
426.321; 2008.325;  224.475;    0.000
426.373; 2022.325;  207.475;    0.000
426.425; 2040.325;  278.475;    0.000
426.477; 2108.325;  243.475;    0.000
426.529; 2044.325;  247.475;    0.000
426.581; 1993.325;  229.475;    0.000
426.633; 2066.325;  212.475;    0.000
426.684; 2107.325;  244.475;    0.000
426.736; 2083.325;  250.475;    0.000
426.788; 2073.325;  210.475;    0.000
426.840; 2074.325;  201.475;    0.000
426.892; 2058.325;  225.475;    0.000
426.943; 2089.325;  215.475;    0.000
426.995; 2045.325;  216.475;    0.000
427.047; 2010.325;  216.475;    0.000
427.099; 2002.325;  203.475;    0.000
427.150; 2026.325;  195.475;    0.000
427.202; 1962.325;  212.475;    0.000
427.254; 2022.325;  233.475;    0.000
427.306; 2026.325;  211.475;    0.000
427.357; 1998.325;  210.475;    0.000
427.409; 2018.325;  244.475;    0.000
427.461; 2064.325;  187.475;    0.000
427.512; 1986.325;  227.475;    0.000
427.564; 2056.325;  210.475;    0.000
427.616; 2042.325;  202.475;    0.000
427.667; 2008.325;  185.475;    0.000
427.719; 1987.325;  222.475;    0.000
427.770; 2064.325;  230.475;    0.000
427.822; 2061.325;  254.475;    0.000
427.874; 2012.325;  222.475;    0.000
427.925; 2061.325;  199.475;    0.000
427.977; 1951.325;  228.475;    0.000
428.028; 2027.325;  226.475;    0.000
428.080; 2042.325;  236.475;    0.000
428.131; 1985.325;  220.475;    0.000
428.183; 2026.325;  256.475;    0.000
428.234; 2001.325;  217.475;    0.000
428.286; 2037.325;  234.475;    0.000
428.337; 1974.325;  209.475;    0.000
428.389; 1966.325;  219.475;    0.000
428.440; 1922.325;  249.475;    0.000
428.492; 1970.325;  255.475;    0.000
428.543; 2026.325;  224.475;    0.000
428.595; 1924.325;  225.475;    0.000
428.646; 2018.325;  240.475;    0.000
428.697; 1964.325;  211.475;    0.000
428.749; 2016.325;  200.475;    0.000
428.800; 2076.325;  235.475;    0.000
428.852; 2069.325;  265.475;    0.000
428.903; 2004.325;  201.475;    0.000
428.954; 1963.325;  242.475;    0.000
429.006; 1989.325;  245.475;    0.000
429.057; 1967.325;  252.475;    0.000
429.108; 1904.325;  211.475;    0.000
429.160; 1949.325;  217.475;    0.000
429.211; 2037.325;  234.475;    0.000
429.262; 1840.325;  205.475;    0.000
429.314; 1891.325;  211.475;    0.000
429.365; 1993.325;  240.475;    0.000
429.416; 1954.325;  263.475;    0.000
429.467; 2018.325;  244.475;    0.000
429.519; 1965.325;  223.475;    0.000
429.570; 1981.325;  214.475;    0.000
429.621; 1906.325;  235.475;    0.000
429.672; 1950.325;  202.475;    0.000
429.724; 1904.325;  189.475;    0.000
429.775; 2014.325;  214.475;    0.000
429.826; 1948.325;  178.475;    0.000
429.877; 1918.325;  224.475;    0.000
429.928; 1972.325;  230.475;    0.000
429.980; 1895.325;  199.475;    0.000
430.031; 1970.325;  208.475;    0.000
430.082; 1945.325;  224.475;    0.000
430.133; 1902.325;  193.475;    0.000
430.184; 1861.325;  220.475;    0.000
430.235; 1957.325;  184.475;    0.000
430.286; 1902.325;  197.475;    0.000
430.337; 1888.325;  199.475;    0.000
430.388; 1850.325;  207.475;    0.000
430.439; 1964.325;  227.475;    0.000
430.490; 1946.325;  215.475;    0.000
430.542; 1864.325;  211.475;    0.000
430.593; 1983.325;  230.475;    0.000
430.644; 1922.325;  186.475;    0.000
430.695; 1945.325;  232.475;    0.000
430.746; 1958.325;  214.475;    0.000
430.797; 1945.325;  260.475;    0.000
430.848; 1999.325;  214.475;    0.000
430.898; 1870.325;  204.475;    0.000
430.949; 1940.325;  189.475;    0.000
431.000; 1956.325;  240.475;    0.000
431.051; 2060.325;  201.475;    0.000
431.102; 1921.325;  188.475;    0.000
431.153; 1898.325;  209.475;    0.000
431.204; 1971.325;  187.475;    0.000
431.255; 1907.325;  171.475;    0.000
431.306; 1985.325;  181.475;    0.000
431.357; 1894.325;  221.475;    0.000
431.408; 1910.325;  217.475;    0.000
431.458; 1891.325;  206.475;    0.000
431.509; 1877.325;  194.475;    0.000
431.560; 1948.325;  235.475;    0.000
431.611; 1928.325;  213.475;    0.000
431.662; 1932.325;  237.475;    0.000
431.713; 1833.325;  220.475;    0.000
431.763; 1926.325;  212.475;    0.000
431.814; 1955.325;  238.475;    0.000
431.865; 1919.325;  213.475;    0.000
431.916; 1917.325;  191.475;    0.000
431.966; 1900.325;  171.475;    0.000
432.017; 1862.325;  263.475;    0.000
432.068; 1919.325;  240.475;    0.000
432.118; 1937.325;  235.475;    0.000
432.169; 1912.325;  212.475;    0.000
432.220; 1943.325;  188.475;    0.000
432.271; 1936.325;  216.475;    0.000
432.321; 1901.325;  223.475;    0.000
432.372; 1984.325;  254.475;    0.000
432.423; 1913.325;  193.475;    0.000
432.473; 1835.325;  219.475;    0.000
432.524; 1927.325;  215.475;    0.000
432.574; 1856.325;  234.475;    0.000
432.625; 1877.325;  226.475;    0.000
432.676; 1940.325;  219.475;    0.000
432.726; 1889.325;  254.475;    0.000
432.777; 1903.325;  210.475;    0.000
432.827; 1943.325;  234.475;    0.000
432.878; 1864.325;  212.475;    0.000
432.928; 1897.325;  238.475;    0.000
432.979; 1916.325;  252.475;    0.000
433.029; 1865.325;  222.475;    0.000
433.080; 1941.325;  188.475;    0.000
433.130; 1859.325;  223.475;    0.000
433.181; 1912.325;  254.475;    0.000
433.231; 1927.325;  237.475;    0.000
433.282; 1900.325;  242.475;    0.000
433.332; 1806.325;  261.475;    0.000
433.383; 1947.325;  266.475;    0.000
433.433; 1983.325;  286.475;    0.000
433.484; 1925.325;  231.475;    0.000
433.534; 1947.325;  256.475;    0.000
433.585; 1952.325;  253.475;    0.000
433.635; 1849.325;  228.475;    0.000
433.685; 1943.325;  226.475;    0.000
433.736; 1996.325;  276.475;    0.000
433.786; 1937.325;  253.475;    0.000
433.836; 1959.325;  289.475;    0.000
433.887; 1940.325;  241.475;    0.000
433.937; 1873.325;  252.475;    0.000
433.987; 1883.325;  223.475;    0.000
434.038; 1904.325;  241.475;    0.000
434.088; 1941.325;  231.475;    0.000
434.138; 1915.325;  259.475;    0.000
434.189; 1874.325;  263.475;    0.000
434.239; 1901.325;  194.475;    0.000
434.289; 1915.325;  273.475;    0.000
434.339; 1948.325;  212.475;    0.000
434.389; 1937.325;  248.475;    0.000
434.440; 1976.325;  250.475;    0.000
434.490; 1946.325;  278.475;    0.000
434.540; 1993.325;  241.475;    0.000
434.590; 2009.325;  251.475;    0.000
434.640; 1966.325;  207.475;    0.000
434.691; 1925.325;  242.475;    0.000
434.741; 1954.325;  218.475;    0.000
434.791; 1994.325;  267.475;    0.000
434.841; 1878.325;  272.475;    0.000
434.891; 2022.325;  260.475;    0.000
434.941; 1950.325;  258.475;    0.000
434.991; 1994.325;  264.475;    0.000
435.042; 2022.325;  264.475;    0.000
435.092; 1918.325;  271.475;    0.000
435.142; 1894.325;  229.475;    0.000
435.192; 1862.325;  226.475;    0.000
435.242; 1954.325;  253.475;    0.000
435.292; 1896.325;  215.475;    0.000
435.342; 1946.325;  240.475;    0.000
435.392; 1894.325;  235.475;    0.000
435.442; 1848.325;  230.475;    0.000
435.492; 1910.325;  235.475;    0.000
435.542; 1849.325;  230.475;    0.000
435.592; 1836.325;  239.475;    0.000
435.642; 1926.325;  244.475;    0.000
435.692; 1891.325;  236.475;    0.000
435.742; 1866.325;  236.475;    0.000
435.792; 1870.325;  230.475;    0.000
435.842; 1877.325;  248.475;    0.000
435.891; 1810.325;  233.475;    0.000
435.941; 1849.325;  243.475;    0.000
435.991; 1866.325;  279.475;    0.000
436.041; 1966.325;  204.475;    0.000
436.091; 1842.325;  217.475;    0.000
436.141; 1862.325;  205.475;    0.000
436.191; 1858.325;  220.475;    0.000
436.241; 1858.325;  248.475;    0.000
436.290; 1886.325;  255.475;    0.000
436.340; 1882.325;  235.475;    0.000
436.390; 1864.325;  207.475;    0.000
436.440; 1834.325;  207.475;    0.000
436.490; 1814.325;  251.475;    0.000
436.539; 1874.325;  240.475;    0.000
436.589; 1798.325;  198.475;    0.000
436.639; 1837.325;  240.475;    0.000
436.689; 1822.325;  216.475;    0.000
436.738; 1862.325;  246.475;    0.000
436.788; 1784.325;  203.475;    0.000
436.838; 1868.325;  230.475;    0.000
436.887; 1890.325;  235.475;    0.000
436.937; 1840.325;  249.475;    0.000
436.987; 1794.325;  208.475;    0.000
437.036; 1817.325;  232.475;    0.000
437.086; 1793.325;  238.475;    0.000
437.136; 1826.325;  228.475;    0.000
437.185; 1893.325;  219.475;    0.000
437.235; 1814.325;  227.475;    0.000
437.285; 1766.325;  241.475;    0.000
437.334; 1858.325;  216.475;    0.000
437.384; 1818.325;  243.475;    0.000
437.433; 1814.325;  214.475;    0.000
437.483; 1880.325;  246.475;    0.000
437.532; 1750.325;  261.475;    0.000
437.582; 1810.325;  205.475;    0.000
437.631; 1844.325;  218.475;    0.000
437.681; 1822.325;  240.475;    0.000
437.730; 1757.325;  258.475;    0.000
437.780; 1750.325;  237.475;    0.000
437.829; 1782.325;  209.475;    0.000
437.879; 1823.325;  214.475;    0.000
437.928; 1780.325;  223.475;    0.000
437.978; 1726.325;  220.475;    0.000
438.027; 1766.325;  239.475;    0.000
438.077; 1836.325;  231.475;    0.000
438.126; 1845.325;  266.475;    0.000
438.176; 1839.325;  234.475;    0.000
438.225; 1858.325;  237.475;    0.000
438.274; 1802.325;  234.475;    0.000
438.324; 1809.325;  244.475;    0.000
438.373; 1814.325;  232.475;    0.000
438.422; 1741.325;  218.475;    0.000
438.472; 1750.325;  221.475;    0.000
438.521; 1722.325;  190.475;    0.000
438.570; 1832.325;  243.475;    0.000
438.620; 1806.325;  255.475;    0.000
438.669; 1726.325;  210.475;    0.000
438.718; 1846.325;  237.475;    0.000
438.768; 1790.325;  220.475;    0.000
438.817; 1697.325;  218.475;    0.000
438.866; 1784.325;  198.475;    0.000
438.915; 1906.325;  256.475;    0.000
438.965; 1776.325;  221.475;    0.000
439.014; 1780.325;  255.475;    0.000
439.063; 1770.325;  276.475;    0.000
439.112; 1811.325;  220.475;    0.000
439.162; 1802.325;  253.475;    0.000
439.211; 1769.325;  247.475;    0.000
439.260; 1783.325;  220.475;    0.000
439.309; 1716.325;  235.475;    0.000
439.358; 1765.325;  205.475;    0.000
439.407; 1744.325;  207.475;    0.000
439.456; 1842.325;  216.475;    0.000
439.506; 1729.325;  245.475;    0.000
439.555; 1813.325;  264.475;    0.000
439.604; 1786.325;  227.475;    0.000
439.653; 1835.325;  220.475;    0.000
439.702; 1758.325;  223.475;    0.000
439.751; 1778.325;  197.475;    0.000
439.800; 1764.325;  207.475;    0.000
439.849; 1870.325;  238.475;    0.000
439.898; 1761.325;  209.475;    0.000
439.947; 1704.325;  170.475;    0.000
439.996; 1778.325;  233.475;    0.000
440.045; 1823.325;  222.475;    0.000
440.094; 1858.325;  240.475;    0.000
440.143; 1866.325;  249.475;    0.000
440.192; 1817.325;  252.475;    0.000
440.241; 1832.325;  239.475;    0.000
440.290; 1837.325;  234.475;    0.000
440.339; 1814.325;  241.475;    0.000
440.388; 1740.325;  239.475;    0.000
440.437; 1806.325;  231.475;    0.000
440.486; 1805.325;  254.475;    0.000
440.535; 1824.325;  266.475;    0.000
440.583; 1806.325;  205.475;    0.000
440.632; 1735.325;  234.475;    0.000
440.681; 1754.325;  218.475;    0.000
440.730; 1776.325;  248.475;    0.000
440.779; 1805.325;  246.475;    0.000
440.828; 1778.325;  235.475;    0.000
440.876; 1829.325;  218.475;    0.000
440.925; 1822.325;  228.475;    0.000
440.974; 1757.325;  249.475;    0.000
441.023; 1854.325;  192.475;    0.000
441.072; 1878.325;  226.475;    0.000
441.120; 1868.325;  238.475;    0.000
441.169; 1872.325;  255.475;    0.000
441.218; 1802.325;  233.475;    0.000
441.267; 1856.325;  231.475;    0.000
441.315; 1876.325;  214.475;    0.000
441.364; 1893.325;  250.475;    0.000
441.413; 1825.325;  228.475;    0.000
441.461; 1826.325;  209.475;    0.000
441.510; 1881.325;  260.475;    0.000
441.559; 1869.325;  230.475;    0.000
441.607; 1862.325;  220.475;    0.000
441.656; 1934.325;  251.475;    0.000
441.705; 1984.325;  237.475;    0.000
441.753; 1932.325;  257.475;    0.000
441.802; 1892.325;  256.475;    0.000
441.850; 1916.325;  253.475;    0.000
441.899; 1902.325;  212.475;    0.000
441.948; 1851.325;  251.475;    0.000
441.996; 1829.325;  239.475;    0.000
442.045; 1941.325;  223.475;    0.000
442.093; 1881.325;  211.475;    0.000
442.142; 1954.325;  235.475;    0.000
442.190; 1991.325;  254.475;    0.000
442.239; 1904.325;  226.475;    0.000
442.287; 1874.325;  242.475;    0.000
442.336; 1954.325;  256.475;    0.000
442.384; 1850.325;  252.475;    0.000
442.433; 1865.325;  262.475;    0.000
442.481; 1931.325;  246.475;    0.000
442.529; 1896.325;  290.475;    0.000
442.578; 1902.325;  247.475;    0.000
442.626; 1866.325;  247.475;    0.000
442.675; 1934.325;  272.475;    0.000
442.723; 1877.325;  230.475;    0.000
442.771; 1867.325;  234.475;    0.000
442.820; 1916.325;  224.475;    0.000
442.868; 1892.325;  246.475;    0.000
442.917; 1846.325;  249.475;    0.000
442.965; 1860.325;  260.475;    0.000
443.013; 1909.325;  258.475;    0.000
443.062; 1939.325;  259.475;    0.000
443.110; 1909.325;  226.475;    0.000
443.158; 1860.325;  213.475;    0.000
443.206; 1845.325;  201.475;    0.000
443.255; 1952.325;  280.475;    0.000
443.303; 1927.325;  292.475;    0.000
443.351; 1926.325;  256.475;    0.000
443.399; 1907.325;  215.475;    0.000
443.448; 1936.325;  243.475;    0.000
443.496; 1997.325;  249.475;    0.000
443.544; 1907.325;  231.475;    0.000
443.592; 1988.325;  243.475;    0.000
443.640; 1913.325;  252.475;    0.000
443.689; 1867.325;  220.475;    0.000
443.737; 1944.325;  231.475;    0.000
443.785; 1969.325;  256.475;    0.000
443.833; 2039.325;  268.475;    0.000
443.881; 1900.325;  181.475;    0.000
443.929; 1959.325;  245.475;    0.000
443.977; 1943.325;  278.475;    0.000
444.025; 1914.325;  245.475;    0.000
444.074; 2003.325;  233.475;    0.000
444.122; 1999.325;  267.475;    0.000
444.170; 1915.325;  247.475;    0.000
444.218; 1987.325;  246.475;    0.000
444.266; 2056.325;  275.475;    0.000
444.314; 1979.325;  263.475;    0.000
444.362; 1973.325;  240.475;    0.000
444.410; 1941.325;  220.475;    0.000
444.458; 2061.325;  258.475;    0.000
444.506; 2045.325;  258.475;    0.000
444.554; 2005.325;  224.475;    0.000
444.602; 2006.325;  245.475;    0.000
444.650; 2130.325;  261.475;    0.000
444.698; 2042.325;  232.475;    0.000
444.746; 1994.325;  206.475;    0.000
444.793; 1934.325;  249.475;    0.000
444.841; 2094.325;  261.475;    0.000
444.889; 1982.325;  221.475;    0.000
444.937; 2030.325;  215.475;    0.000
444.985; 2032.325;  244.475;    0.000
445.033; 2050.325;  211.475;    0.000
445.081; 2100.325;  225.475;    0.000
445.129; 2022.325;  217.475;    0.000
445.176; 2062.325;  196.475;    0.000
445.224; 2079.325;  211.475;    0.000
445.272; 2074.325;  242.475;    0.000
445.320; 1989.325;  225.475;    0.000
445.368; 2070.325;  249.475;    0.000
445.415; 2028.325;  243.475;    0.000
445.463; 1963.325;  242.475;    0.000
445.511; 1996.325;  248.475;    0.000
445.559; 2062.325;  219.475;    0.000
445.606; 2082.325;  221.475;    0.000
445.654; 2037.325;  202.475;    0.000
445.702; 2041.325;  210.475;    0.000
445.749; 2065.325;  249.475;    0.000
445.797; 2066.325;  206.475;    0.000
445.845; 2042.325;  213.475;    0.000
445.892; 2118.325;  224.475;    0.000
445.940; 2042.325;  214.475;    0.000
445.988; 2054.325;  247.475;    0.000
446.035; 2004.325;  204.475;    0.000
446.083; 2046.325;  235.475;    0.000
446.130; 2000.325;  195.475;    0.000
446.178; 2116.325;  236.475;    0.000
446.226; 2058.325;  218.475;    0.000
446.273; 2141.325;  215.475;    0.000
446.321; 2066.325;  222.475;    0.000
446.368; 2097.325;  228.475;    0.000
446.416; 2063.325;  223.475;    0.000
446.463; 2096.325;  220.475;    0.000
446.511; 2104.325;  198.475;    0.000
446.558; 2052.325;  208.475;    0.000
446.606; 2140.325;  253.475;    0.000
446.653; 2195.325;  198.475;    0.000
446.701; 2171.325;  231.475;    0.000
446.748; 2125.325;  224.475;    0.000
446.796; 2221.325;  201.475;    0.000
446.843; 2309.325;  257.475;    0.000
446.891; 2277.325;  218.475;    0.000
446.938; 2257.325;  232.475;    0.000
446.985; 2270.325;  229.475;    0.000
447.033; 2270.325;  251.475;    0.000
447.080; 2252.325;  257.475;    0.000
447.128; 2314.325;  232.475;    0.000
447.175; 2296.325;  269.475;    0.000
447.222; 2322.325;  185.475;    0.000
447.270; 2406.325;  264.475;    0.000
447.317; 2283.325;  225.475;    0.000
447.364; 2344.325;  243.475;    0.000
447.411; 2353.325;  263.475;    0.000
447.459; 2340.325;  257.475;    0.000
447.506; 2476.325;  175.475;    0.000
447.553; 2411.325;  203.475;    0.000
447.601; 2489.325;  238.475;    0.000
447.648; 2514.325;  244.475;    0.000
447.695; 2473.325;  249.475;    0.000
447.742; 2489.325;  234.475;    0.000
447.789; 2599.325;  228.475;    0.000
447.837; 2536.325;  258.475;    0.000
447.884; 2612.325;  243.475;    0.000
447.931; 2650.325;  235.475;    0.000
447.978; 2666.325;  224.475;    0.000
448.025; 2825.325;  245.475;    0.000
448.072; 2693.325;  212.475;    0.000
448.120; 2775.325;  256.475;    0.000
448.167; 2814.325;  240.475;    0.000
448.214; 2676.325;  247.475;    0.000
448.261; 2700.325;  245.475;    0.000
448.308; 2618.325;  273.475;    0.000
448.355; 2549.325;  257.475;    0.000
448.402; 2560.325;  259.475;    0.000
448.449; 2521.325;  238.475;    0.000
448.496; 2529.325;  245.475;    0.000
448.543; 2522.325;  217.475;    0.000
448.590; 2404.325;  269.475;    0.000
448.637; 2439.325;  250.475;    0.000
448.684; 2348.325;  250.475;    0.000
448.731; 2332.325;  235.475;    0.000
448.778; 2282.325;  265.475;    0.000
448.825; 2315.325;  257.475;    0.000
448.872; 2315.325;  234.475;    0.000
448.919; 2235.325;  216.475;    0.000
448.966; 2231.325;  274.475;    0.000
449.013; 2204.325;  263.475;    0.000
449.060; 2219.325;  247.475;    0.000
449.107; 2193.325;  218.475;    0.000
449.154; 2123.325;  225.475;    0.000
449.200; 2189.325;  212.475;    0.000
449.247; 2251.325;  242.475;    0.000
449.294; 2125.325;  228.475;    0.000
449.341; 2066.325;  232.475;    0.000
449.388; 2083.325;  247.475;    0.000
449.435; 2050.325;  227.475;    0.000
449.481; 2069.325;  270.475;    0.000
449.528; 2070.325;  265.475;    0.000
449.575; 2068.325;  255.475;    0.000
449.622; 2103.325;  210.475;    0.000
449.668; 2100.325;  234.475;    0.000
449.715; 2072.325;  262.475;    0.000
449.762; 2078.325;  247.475;    0.000
449.809; 2035.325;  286.475;    0.000
449.855; 2033.325;  246.475;    0.000
449.902; 2005.325;  224.475;    0.000
449.949; 2023.325;  244.475;    0.000
449.995; 2034.325;  274.475;    0.000
450.042; 1929.325;  272.475;    0.000
450.089; 2030.325;  274.475;    0.000
450.135; 1976.325;  285.475;    0.000
450.182; 1961.325;  251.475;    0.000
450.229; 1964.325;  242.475;    0.000
450.275; 2008.325;  277.475;    0.000
450.322; 1900.325;  260.475;    0.000
450.368; 1937.325;  257.475;    0.000
450.415; 1922.325;  276.475;    0.000
450.462; 2001.325;  298.475;    0.000
450.508; 1937.325;  255.475;    0.000
450.555; 1931.325;  271.475;    0.000
450.601; 1932.325;  281.475;    0.000
450.648; 1888.325;  249.475;    0.000
450.694; 1904.325;  270.475;    0.000
450.741; 1954.325;  256.475;    0.000
450.787; 1903.325;  292.475;    0.000
450.834; 1901.325;  221.475;    0.000
450.880; 1919.325;  265.475;    0.000
450.927; 1905.325;  242.475;    0.000
450.973; 1954.325;  259.475;    0.000
451.019; 1913.325;  221.475;    0.000
451.066; 1902.325;  257.475;    0.000
451.112; 1943.325;  251.475;    0.000
451.159; 1912.325;  278.475;    0.000
451.205; 1870.325;  274.475;    0.000
451.251; 1940.325;  281.475;    0.000
451.298; 1950.325;  273.475;    0.000
451.344; 1943.325;  246.475;    0.000
451.390; 1959.325;  286.475;    0.000
451.437; 1812.325;  268.475;    0.000
451.483; 1923.325;  315.475;    0.000
451.529; 1874.325;  251.475;    0.000
451.576; 1835.325;  306.475;    0.000
451.622; 1807.325;  234.475;    0.000
451.668; 1795.325;  243.475;    0.000
451.714; 1865.325;  256.475;    0.000
451.761; 1824.325;  264.475;    0.000
451.807; 1913.325;  284.475;    0.000
451.853; 1807.325;  282.475;    0.000
451.899; 1839.325;  240.475;    0.000
451.945; 1848.325;  263.475;    0.000
451.992; 1805.325;  255.475;    0.000
452.038; 1780.325;  273.475;    0.000
452.084; 1877.325;  274.475;    0.000
452.130; 1903.325;  261.475;    0.000
452.176; 1859.325;  246.475;    0.000
452.222; 1750.325;  238.475;    0.000
452.268; 1817.325;  267.475;    0.000
452.315; 1800.325;  274.475;    0.000
452.361; 1815.325;  241.475;    0.000
452.407; 1781.325;  274.475;    0.000
452.453; 1816.325;  260.475;    0.000
452.499; 1850.325;  232.475;    0.000
452.545; 1835.325;  252.475;    0.000
452.591; 1785.325;  263.475;    0.000
452.637; 1826.325;  208.475;    0.000
452.683; 1751.325;  237.475;    0.000
452.729; 1816.325;  263.475;    0.000
452.775; 1805.325;  291.475;    0.000
452.821; 1824.325;  238.475;    0.000
452.867; 1800.325;  223.475;    0.000
452.913; 1753.325;  257.475;    0.000
452.959; 1759.325;  238.475;    0.000
453.005; 1724.325;  252.475;    0.000
453.051; 1765.325;  260.475;    0.000
453.097; 1727.325;  268.475;    0.000
453.142; 1760.325;  231.475;    0.000
453.188; 1741.325;  266.475;    0.000
453.234; 1757.325;  233.475;    0.000
453.280; 1720.325;  219.475;    0.000
453.326; 1733.325;  265.475;    0.000
453.372; 1723.325;  238.475;    0.000
453.418; 1710.325;  240.475;    0.000
453.463; 1738.325;  219.475;    0.000
453.509; 1731.325;  264.475;    0.000
453.555; 1716.325;  247.475;    0.000
453.601; 1759.325;  230.475;    0.000
453.647; 1778.325;  285.475;    0.000
453.692; 1650.325;  240.475;    0.000
453.738; 1791.325;  233.475;    0.000
453.784; 1761.325;  230.475;    0.000
453.829; 1757.325;  246.475;    0.000
453.875; 1706.325;  261.475;    0.000
453.921; 1738.325;  203.475;    0.000
453.967; 1813.325;  241.475;    0.000
454.012; 1778.325;  250.475;    0.000
454.058; 1758.325;  252.475;    0.000
454.104; 1798.325;  239.475;    0.000
454.149; 1750.325;  250.475;    0.000
454.195; 1746.325;  243.475;    0.000
454.240; 1792.325;  252.475;    0.000
454.286; 1786.325;  245.475;    0.000
454.332; 1702.325;  286.475;    0.000
454.377; 1752.325;  254.475;    0.000
454.423; 1716.325;  246.475;    0.000
454.468; 1753.325;  235.475;    0.000
454.514; 1718.325;  231.475;    0.000
454.559; 1780.325;  246.475;    0.000
454.605; 1675.325;  204.475;    0.000
454.650; 1719.325;  272.475;    0.000
454.696; 1716.325;  222.475;    0.000
454.741; 1758.325;  290.475;    0.000
454.787; 1685.325;  262.475;    0.000
454.832; 1673.325;  227.475;    0.000
454.878; 1715.325;  241.475;    0.000
454.923; 1749.325;  272.475;    0.000
454.969; 1754.325;  290.475;    0.000
455.014; 1674.325;  278.475;    0.000
455.060; 1698.325;  246.475;    0.000
455.105; 1725.325;  231.475;    0.000
455.150; 1730.325;  265.475;    0.000
455.196; 1722.325;  266.475;    0.000
455.241; 1752.325;  258.475;    0.000
455.286; 1686.325;  266.475;    0.000
455.332; 1670.325;  252.475;    0.000
455.377; 1674.325;  219.475;    0.000
455.422; 1740.325;  262.475;    0.000
455.468; 1685.325;  260.475;    0.000
455.513; 1708.325;  212.475;    0.000
455.558; 1714.325;  197.475;    0.000
455.604; 1748.325;  262.475;    0.000
455.649; 1723.325;  238.475;    0.000
455.694; 1690.325;  221.475;    0.000
455.739; 1687.325;  251.475;    0.000
455.785; 1672.325;  287.475;    0.000
455.830; 1763.325;  284.475;    0.000
455.875; 1755.325;  234.475;    0.000
455.920; 1702.325;  215.475;    0.000
455.965; 1701.325;  256.475;    0.000
456.010; 1739.325;  266.475;    0.000
456.056; 1749.325;  263.475;    0.000
456.101; 1653.325;  240.475;    0.000
456.146; 1666.325;  258.475;    0.000
456.191; 1714.325;  241.475;    0.000
456.236; 1691.325;  252.475;    0.000
456.281; 1666.325;  218.475;    0.000
456.326; 1718.325;  251.475;    0.000
456.371; 1656.325;  256.475;    0.000
456.416; 1732.325;  301.475;    0.000
456.461; 1717.325;  233.475;    0.000
456.507; 1748.325;  218.475;    0.000
456.552; 1720.325;  278.475;    0.000
456.597; 1719.325;  223.475;    0.000
456.642; 1777.325;  203.475;    0.000
456.687; 1714.325;  245.475;    0.000
456.732; 1785.325;  256.475;    0.000
456.776; 1765.325;  244.475;    0.000
456.821; 1747.325;  276.475;    0.000
456.866; 1694.325;  232.475;    0.000
456.911; 1688.325;  225.475;    0.000
456.956; 1716.325;  237.475;    0.000
457.001; 1702.325;  261.475;    0.000
457.046; 1693.325;  205.475;    0.000
457.091; 1718.325;  241.475;    0.000
457.136; 1679.325;  217.475;    0.000
457.181; 1693.325;  251.475;    0.000
457.225; 1712.325;  241.475;    0.000
457.270; 1746.325;  237.475;    0.000
457.315; 1734.325;  279.475;    0.000
457.360; 1685.325;  245.475;    0.000
457.405; 1624.325;  202.475;    0.000
457.450; 1809.325;  247.475;    0.000
457.494; 1754.325;  243.475;    0.000
457.539; 1722.325;  222.475;    0.000
457.584; 1692.325;  239.475;    0.000
457.629; 1719.325;  236.475;    0.000
457.673; 1688.325;  234.475;    0.000
457.718; 1744.325;  202.475;    0.000
457.763; 1710.325;  274.475;    0.000
457.807; 1767.325;  236.475;    0.000
457.852; 1709.325;  265.475;    0.000
457.897; 1719.325;  252.475;    0.000
457.941; 1737.325;  264.475;    0.000
457.986; 1762.325;  280.475;    0.000
458.031; 1731.325;  217.475;    0.000
458.075; 1700.325;  249.475;    0.000
458.120; 1743.325;  257.475;    0.000
458.165; 1730.325;  183.475;    0.000
458.209; 1804.325;  245.475;    0.000
458.254; 1663.325;  245.475;    0.000
458.298; 1749.325;  265.475;    0.000
458.343; 1747.325;  241.475;    0.000
458.387; 1780.325;  262.475;    0.000
458.432; 1813.325;  245.475;    0.000
458.476; 1849.325;  255.475;    0.000
458.521; 1796.325;  269.475;    0.000
458.565; 1803.325;  265.475;    0.000
458.610; 1751.325;  222.475;    0.000
458.654; 1772.325;  257.475;    0.000
458.699; 1754.325;  296.475;    0.000
458.743; 1779.325;  203.475;    0.000
458.788; 1797.325;  267.475;    0.000
458.832; 1827.325;  274.475;    0.000
458.877; 1811.325;  251.475;    0.000
458.921; 1712.325;  237.475;    0.000
458.965; 1813.325;  264.475;    0.000
459.010; 1754.325;  256.475;    0.000
459.054; 1883.325;  280.475;    0.000
459.099; 1763.325;  240.475;    0.000
459.143; 1783.325;  287.475;    0.000
459.187; 1834.325;  257.475;    0.000
459.231; 1894.325;  273.475;    0.000
459.276; 1869.325;  231.475;    0.000
459.320; 1861.325;  261.475;    0.000
459.364; 1809.325;  278.475;    0.000
459.409; 1894.325;  249.475;    0.000
459.453; 1868.325;  235.475;    0.000
459.497; 1858.325;  262.475;    0.000
459.541; 1936.325;  269.475;    0.000
459.586; 1772.325;  240.475;    0.000
459.630; 1850.325;  261.475;    0.000
459.674; 1847.325;  276.475;    0.000
459.718; 1894.325;  236.475;    0.000
459.762; 1895.325;  263.475;    0.000
459.807; 1907.325;  263.475;    0.000
459.851; 1794.325;  225.475;    0.000
459.895; 1883.325;  247.475;    0.000
459.939; 1836.325;  231.475;    0.000
459.983; 1799.325;  242.475;    0.000
460.027; 1845.325;  248.475;    0.000
460.071; 1928.325;  273.475;    0.000
460.115; 1887.325;  282.475;    0.000
460.159; 1915.325;  264.475;    0.000
460.204; 1899.325;  288.475;    0.000
460.248; 1912.325;  293.475;    0.000
460.292; 1905.325;  277.475;    0.000
460.336; 1829.325;  250.475;    0.000
460.380; 1897.325;  275.475;    0.000
460.424; 1875.325;  243.475;    0.000
460.468; 1853.325;  277.475;    0.000
460.512; 1928.325;  261.475;    0.000
460.556; 1978.325;  266.475;    0.000
460.599; 1882.325;  246.475;    0.000
460.643; 1845.325;  256.475;    0.000
460.687; 1996.325;  257.475;    0.000
460.731; 1923.325;  235.475;    0.000
460.775; 1918.325;  278.475;    0.000
460.819; 1938.325;  268.475;    0.000
460.863; 1958.325;  257.475;    0.000
460.907; 1941.325;  213.475;    0.000
460.951; 1875.325;  274.475;    0.000
460.995; 1928.325;  258.475;    0.000
461.038; 1930.325;  219.475;    0.000
461.082; 1930.325;  253.475;    0.000
461.126; 1880.325;  281.475;    0.000
461.170; 1917.325;  244.475;    0.000
461.214; 1909.325;  262.475;    0.000
461.257; 1964.325;  284.475;    0.000
461.301; 1924.325;  275.475;    0.000
461.345; 1907.325;  267.475;    0.000
461.389; 1804.325;  255.475;    0.000
461.432; 1922.325;  282.475;    0.000
461.476; 1871.325;  263.475;    0.000
461.520; 1867.325;  260.475;    0.000
461.563; 1921.325;  278.475;    0.000
461.607; 1915.325;  236.475;    0.000
461.651; 1908.325;  262.475;    0.000
461.694; 1847.325;  236.475;    0.000
461.738; 1897.325;  295.475;    0.000
461.782; 1956.325;  252.475;    0.000
461.825; 1911.325;  271.475;    0.000
461.869; 1945.325;  278.475;    0.000
461.913; 1971.325;  255.475;    0.000
461.956; 1932.325;  254.475;    0.000
462.000; 1969.325;  299.475;    0.000
462.043; 1979.325;  282.475;    0.000
462.087; 1894.325;  274.475;    0.000
462.130; 1981.325;  270.475;    0.000
462.174; 1989.325;  274.475;    0.000
462.217; 1990.325;  272.475;    0.000
462.261; 2043.325;  286.475;    0.000
462.304; 1936.325;  236.475;    0.000
462.348; 2042.325;  262.475;    0.000
462.391; 1928.325;  244.475;    0.000
462.435; 2014.325;  321.475;    0.000
462.478; 1989.325;  230.475;    0.000
462.522; 1973.325;  245.475;    0.000
462.565; 2010.325;  278.475;    0.000
462.608; 2081.325;  303.475;    0.000
462.652; 1972.325;  275.475;    0.000
462.695; 2092.325;  314.475;    0.000
462.739; 2098.325;  307.475;    0.000
462.782; 2082.325;  286.475;    0.000
462.825; 2066.325;  312.475;    0.000
462.869; 2041.325;  338.475;    0.000
462.912; 2069.325;  304.475;    0.000
462.955; 2078.325;  288.475;    0.000
462.998; 2154.325;  292.475;    0.000
463.042; 2068.325;  309.475;    0.000
463.085; 2146.325;  292.475;    0.000
463.128; 2132.325;  317.475;    0.000
463.172; 2038.325;  287.475;    0.000
463.215;  416.325;  313.475;    0.000
463.258;  335.325;  295.475;    0.000
463.301;  294.325;  275.475;    0.000
463.344;  317.325;  311.475;    0.000
463.388;  316.325;  296.475;    0.000
463.431;  273.325;  277.475;    0.000
463.474;  323.325;  364.475;    0.000
463.517;  310.325;  306.475;    0.000
463.560;  326.325;  308.475;    0.000
463.603;  339.325;  343.475;    0.000
463.646;  324.325;  309.475;    0.000
463.690;  333.325;  309.475;    0.000
463.733;  332.325;  320.475;    0.000
463.776;  280.325;  299.475;    0.000
463.819;  313.325;  320.475;    0.000
463.862;  297.325;  283.475;    0.000

