
Integration time [ms]:   1.000
Averaging Nr. [scans]: 1
Smoothing Nr. [pixels]: 0
Data measured with spectrometer [name]: VIS
Wave   ;Sample   ;Dark     ;Reference
[nm]   ;[counts] ;[counts] ;[counts] 

450.961;  191.000;  200.375;    0.000
451.100;  208.000;  241.375;    0.000
451.239;  226.000;  201.375;    0.000
451.377;  246.000;  262.375;    0.000
451.516;  217.000;  229.375;    0.000
451.655;  186.000;  211.375;    0.000
451.794;  201.000;  225.375;    0.000
451.932;  260.000;  247.375;    0.000
452.071;  200.000;  260.375;    0.000
452.210;  215.000;  235.375;    0.000
452.348;  194.000;  276.375;    0.000
452.487;  233.000;  259.375;    0.000
452.626;  257.000;  254.375;    0.000
452.764;  229.000;  233.375;    0.000
452.903;  204.000;  202.375;    0.000
453.042;  246.000;  211.375;    0.000
453.180; 1813.000;  240.375;    0.000
453.319; 1817.000;  238.375;    0.000
453.458; 1839.000;  215.375;    0.000
453.596; 1831.000;  252.375;    0.000
453.735; 1874.000;  240.375;    0.000
453.873; 1927.000;  257.375;    0.000
454.012; 1897.000;  228.375;    0.000
454.150; 1922.000;  270.375;    0.000
454.289; 1974.000;  233.375;    0.000
454.427; 1988.000;  243.375;    0.000
454.566; 1968.000;  257.375;    0.000
454.704; 1985.000;  243.375;    0.000
454.843; 2002.000;  190.375;    0.000
454.981; 2012.000;  271.375;    0.000
455.120; 2035.000;  210.375;    0.000
455.258; 2079.000;  235.375;    0.000
455.397; 2095.000;  214.375;    0.000
455.535; 2012.000;  214.375;    0.000
455.674; 2047.000;  184.375;    0.000
455.812; 2062.000;  228.375;    0.000
455.951; 2124.000;  204.375;    0.000
456.089; 2114.000;  220.375;    0.000
456.227; 2105.000;  196.375;    0.000
456.366; 2168.000;  261.375;    0.000
456.504; 2212.000;  249.375;    0.000
456.642; 2227.000;  245.375;    0.000
456.781; 2246.000;  183.375;    0.000
456.919; 2233.000;  203.375;    0.000
457.057; 2295.000;  177.375;    0.000
457.196; 2301.000;  191.375;    0.000
457.334; 2352.000;  233.375;    0.000
457.472; 2348.000;  214.375;    0.000
457.610; 2459.000;  230.375;    0.000
457.749; 2498.000;  247.375;    0.000
457.887; 2435.000;  220.375;    0.000
458.025; 2477.000;  195.375;    0.000
458.163; 2491.000;  224.375;    0.000
458.301; 2528.000;  228.375;    0.000
458.440; 2606.000;  200.375;    0.000
458.578; 2546.000;  233.375;    0.000
458.716; 2597.000;  182.375;    0.000
458.854; 2712.000;  251.375;    0.000
458.992; 2629.000;  187.375;    0.000
459.130; 2724.000;  229.375;    0.000
459.269; 2806.000;  237.375;    0.000
459.407; 2753.000;  228.375;    0.000
459.545; 2759.000;  216.375;    0.000
459.683; 2747.000;  204.375;    0.000
459.821; 2787.000;  191.375;    0.000
459.959; 2868.000;  227.375;    0.000
460.097; 2945.000;  221.375;    0.000
460.235; 2930.000;  241.375;    0.000
460.373; 2972.000;  231.375;    0.000
460.511; 2942.000;  214.375;    0.000
460.649; 2951.000;  172.375;    0.000
460.787; 2895.000;  275.375;    0.000
460.925; 2894.000;  175.375;    0.000
461.063; 3035.000;  252.375;    0.000
461.201; 2936.000;  210.375;    0.000
461.339; 3010.000;  237.375;    0.000
461.477; 3106.000;  210.375;    0.000
461.615; 3068.000;  236.375;    0.000
461.753; 3180.000;  215.375;    0.000
461.891; 3083.000;  222.375;    0.000
462.029; 3258.000;  227.375;    0.000
462.166; 3208.000;  202.375;    0.000
462.304; 3203.000;  191.375;    0.000
462.442; 3293.000;  210.375;    0.000
462.580; 3314.000;  184.375;    0.000
462.718; 3248.000;  220.375;    0.000
462.856; 3211.000;  226.375;    0.000
462.993; 3302.000;  254.375;    0.000
463.131; 3175.000;  200.375;    0.000
463.269; 3228.000;  215.375;    0.000
463.407; 3233.000;  213.375;    0.000
463.545; 3094.000;  242.375;    0.000
463.682; 3236.000;  212.375;    0.000
463.820; 3218.000;  185.375;    0.000
463.958; 3505.000;  212.375;    0.000
464.095; 3453.000;  181.375;    0.000
464.233; 3434.000;  192.375;    0.000
464.371; 3409.000;  247.375;    0.000
464.509; 3480.000;  151.375;    0.000
464.646; 3525.000;  207.375;    0.000
464.784; 3347.000;  199.375;    0.000
464.921; 3428.000;  253.375;    0.000
465.059; 3459.000;  214.375;    0.000
465.197; 3373.000;  200.375;    0.000
465.334; 3265.000;  180.375;    0.000
465.472; 3198.000;  204.375;    0.000
465.609; 3295.000;  203.375;    0.000
465.747; 3190.000;  214.375;    0.000
465.885; 3231.000;  233.375;    0.000
466.022; 3161.000;  215.375;    0.000
466.160; 3202.000;  201.375;    0.000
466.297; 3170.000;  196.375;    0.000
466.435; 3278.000;  230.375;    0.000
466.572; 3224.000;  227.375;    0.000
466.710; 3217.000;  218.375;    0.000
466.847; 3274.000;  245.375;    0.000
466.985; 3158.000;  223.375;    0.000
467.122; 3100.000;  168.375;    0.000
467.260; 3065.000;  196.375;    0.000
467.397; 3181.000;  198.375;    0.000
467.534; 3196.000;  219.375;    0.000
467.672; 3066.000;  214.375;    0.000
467.809; 3127.000;  185.375;    0.000
467.947; 3161.000;  247.375;    0.000
468.084; 3079.000;  196.375;    0.000
468.221; 3179.000;  238.375;    0.000
468.359; 3192.000;  236.375;    0.000
468.496; 3116.000;  235.375;    0.000
468.633; 3119.000;  218.375;    0.000
468.771; 3130.000;  223.375;    0.000
468.908; 3112.000;  208.375;    0.000
469.045; 3251.000;  249.375;    0.000
469.183; 3237.000;  222.375;    0.000
469.320; 3220.000;  216.375;    0.000
469.457; 3258.000;  224.375;    0.000
469.594; 3183.000;  259.375;    0.000
469.732; 3382.000;  223.375;    0.000
469.869; 3305.000;  234.375;    0.000
470.006; 3231.000;  225.375;    0.000
470.143; 3308.000;  243.375;    0.000
470.280; 3402.000;  208.375;    0.000
470.417; 3462.000;  232.375;    0.000
470.555; 3429.000;  218.375;    0.000
470.692; 3394.000;  223.375;    0.000
470.829; 3407.000;  238.375;    0.000
470.966; 3392.000;  205.375;    0.000
471.103; 3336.000;  259.375;    0.000
471.240; 3301.000;  214.375;    0.000
471.377; 3328.000;  226.375;    0.000
471.514; 3322.000;  250.375;    0.000
471.651; 3309.000;  221.375;    0.000
471.789; 3435.000;  242.375;    0.000
471.926; 3349.000;  190.375;    0.000
472.063; 3313.000;  234.375;    0.000
472.200; 3282.000;  252.375;    0.000
472.337; 3285.000;  241.375;    0.000
472.474; 3168.000;  244.375;    0.000
472.611; 3295.000;  268.375;    0.000
472.748; 3263.000;  222.375;    0.000
472.884; 3258.000;  271.375;    0.000
473.021; 3237.000;  195.375;    0.000
473.158; 3295.000;  205.375;    0.000
473.295; 3278.000;  223.375;    0.000
473.432; 3128.000;  216.375;    0.000
473.569; 3276.000;  196.375;    0.000
473.706; 3277.000;  190.375;    0.000
473.843; 3220.000;  211.375;    0.000
473.980; 3296.000;  254.375;    0.000
474.117; 3335.000;  185.375;    0.000
474.253; 3291.000;  229.375;    0.000
474.390; 3305.000;  238.375;    0.000
474.527; 3363.000;  220.375;    0.000
474.664; 3345.000;  242.375;    0.000
474.801; 3318.000;  229.375;    0.000
474.937; 3330.000;  229.375;    0.000
475.074; 3237.000;  210.375;    0.000
475.211; 3356.000;  219.375;    0.000
475.348; 3373.000;  226.375;    0.000
475.484; 3328.000;  207.375;    0.000
475.621; 3316.000;  233.375;    0.000
475.758; 3295.000;  230.375;    0.000
475.894; 3375.000;  234.375;    0.000
476.031; 3351.000;  202.375;    0.000
476.168; 3353.000;  222.375;    0.000
476.304; 3425.000;  237.375;    0.000
476.441; 3416.000;  238.375;    0.000
476.578; 3334.000;  216.375;    0.000
476.714; 3462.000;  212.375;    0.000
476.851; 3469.000;  210.375;    0.000
476.987; 3441.000;  239.375;    0.000
477.124; 3483.000;  250.375;    0.000
477.261; 3526.000;  227.375;    0.000
477.397; 3500.000;  189.375;    0.000
477.534; 3437.000;  204.375;    0.000
477.670; 3443.000;  190.375;    0.000
477.807; 3494.000;  198.375;    0.000
477.943; 3520.000;  216.375;    0.000
478.080; 3461.000;  213.375;    0.000
478.216; 3619.000;  239.375;    0.000
478.353; 3522.000;  218.375;    0.000
478.489; 3596.000;  184.375;    0.000
478.626; 3565.000;  223.375;    0.000
478.762; 3635.000;  213.375;    0.000
478.898; 3614.000;  216.375;    0.000
479.035; 3642.000;  250.375;    0.000
479.171; 3599.000;  201.375;    0.000
479.308; 3535.000;  242.375;    0.000
479.444; 3606.000;  205.375;    0.000
479.580; 3706.000;  203.375;    0.000
479.717; 3738.000;  260.375;    0.000
479.853; 3676.000;  225.375;    0.000
479.989; 3786.000;  226.375;    0.000
480.126; 3660.000;  211.375;    0.000
480.262; 3622.000;  220.375;    0.000
480.398; 3652.000;  207.375;    0.000
480.535; 3647.000;  179.375;    0.000
480.671; 3680.000;  200.375;    0.000
480.807; 3675.000;  190.375;    0.000
480.943; 3656.000;  165.375;    0.000
481.080; 3647.000;  210.375;    0.000
481.216; 3692.000;  232.375;    0.000
481.352; 3791.000;  235.375;    0.000
481.488; 3684.000;  208.375;    0.000
481.624; 3679.000;  245.375;    0.000
481.760; 3636.000;  210.375;    0.000
481.897; 3647.000;  189.375;    0.000
482.033; 3670.000;  256.375;    0.000
482.169; 3677.000;  257.375;    0.000
482.305; 3740.000;  199.375;    0.000
482.441; 3681.000;  182.375;    0.000
482.577; 3724.000;  223.375;    0.000
482.713; 3784.000;  243.375;    0.000
482.849; 3643.000;  197.375;    0.000
482.985; 3685.000;  240.375;    0.000
483.121; 3679.000;  210.375;    0.000
483.258; 3759.000;  248.375;    0.000
483.394; 3715.000;  224.375;    0.000
483.530; 3730.000;  209.375;    0.000
483.665; 3703.000;  225.375;    0.000
483.801; 3610.000;  216.375;    0.000
483.937; 3774.000;  211.375;    0.000
484.073; 3694.000;  259.375;    0.000
484.209; 3678.000;  191.375;    0.000
484.345; 3810.000;  239.375;    0.000
484.481; 3838.000;  231.375;    0.000
484.617; 3746.000;  216.375;    0.000
484.753; 3862.000;  180.375;    0.000
484.889; 3702.000;  252.375;    0.000
485.025; 3752.000;  244.375;    0.000
485.161; 3720.000;  242.375;    0.000
485.296; 3786.000;  235.375;    0.000
485.432; 3786.000;  247.375;    0.000
485.568; 3776.000;  203.375;    0.000
485.704; 3741.000;  229.375;    0.000
485.840; 3687.000;  230.375;    0.000
485.975; 3792.000;  266.375;    0.000
486.111; 3826.000;  220.375;    0.000
486.247; 3841.000;  264.375;    0.000
486.383; 3799.000;  213.375;    0.000
486.518; 3680.000;  222.375;    0.000
486.654; 3829.000;  244.375;    0.000
486.790; 3828.000;  273.375;    0.000
486.926; 3885.000;  203.375;    0.000
487.061; 3848.000;  227.375;    0.000
487.197; 3797.000;  210.375;    0.000
487.333; 3721.000;  209.375;    0.000
487.468; 3821.000;  197.375;    0.000
487.604; 3865.000;  230.375;    0.000
487.740; 3781.000;  254.375;    0.000
487.875; 3829.000;  286.375;    0.000
488.011; 3795.000;  225.375;    0.000
488.146; 3799.000;  251.375;    0.000
488.282; 3745.000;  242.375;    0.000
488.417; 3839.000;  230.375;    0.000
488.553; 3805.000;  260.375;    0.000
488.688; 3706.000;  207.375;    0.000
488.824; 3828.000;  204.375;    0.000
488.960; 3845.000;  248.375;    0.000
489.095; 3806.000;  204.375;    0.000
489.230; 3807.000;  227.375;    0.000
489.366; 3870.000;  226.375;    0.000
489.501; 3771.000;  199.375;    0.000
489.637; 3797.000;  233.375;    0.000
489.772; 3790.000;  249.375;    0.000
489.908; 3776.000;  200.375;    0.000
490.043; 3812.000;  246.375;    0.000
490.178; 3764.000;  222.375;    0.000
490.314; 3845.000;  219.375;    0.000
490.449; 3844.000;  227.375;    0.000
490.585; 3713.000;  209.375;    0.000
490.720; 3729.000;  238.375;    0.000
490.855; 3821.000;  222.375;    0.000
490.991; 3839.000;  202.375;    0.000
491.126; 3863.000;  272.375;    0.000
491.261; 3769.000;  261.375;    0.000
491.396; 3781.000;  190.375;    0.000
491.532; 3811.000;  202.375;    0.000
491.667; 3814.000;  208.375;    0.000
491.802; 3746.000;  203.375;    0.000
491.937; 3801.000;  253.375;    0.000
492.073; 3813.000;  242.375;    0.000
492.208; 3874.000;  230.375;    0.000
492.343; 3746.000;  183.375;    0.000
492.478; 3932.000;  246.375;    0.000
492.613; 3775.000;  223.375;    0.000
492.749; 3793.000;  230.375;    0.000
492.884; 3754.000;  190.375;    0.000
493.019; 3912.000;  234.375;    0.000
493.154; 3863.000;  218.375;    0.000
493.289; 3796.000;  222.375;    0.000
493.424; 3809.000;  196.375;    0.000
493.559; 3796.000;  202.375;    0.000
493.694; 3781.000;  180.375;    0.000
493.829; 3852.000;  224.375;    0.000
493.964; 3819.000;  218.375;    0.000
494.099; 3867.000;  275.375;    0.000
494.234; 3833.000;  226.375;    0.000
494.369; 3835.000;  225.375;    0.000
494.504; 3773.000;  219.375;    0.000
494.639; 3870.000;  296.375;    0.000
494.774; 3878.000;  228.375;    0.000
494.909; 3827.000;  222.375;    0.000
495.044; 3846.000;  215.375;    0.000
495.179; 3789.000;  200.375;    0.000
495.314; 3770.000;  235.375;    0.000
495.449; 3808.000;  249.375;    0.000
495.584; 3792.000;  228.375;    0.000
495.719; 3926.000;  212.375;    0.000
495.854; 3871.000;  201.375;    0.000
495.988; 3850.000;  248.375;    0.000
496.123; 3855.000;  209.375;    0.000
496.258; 3959.000;  249.375;    0.000
496.393; 3804.000;  223.375;    0.000
496.528; 3862.000;  209.375;    0.000
496.663; 3924.000;  207.375;    0.000
496.797; 4004.000;  229.375;    0.000
496.932; 4014.000;  225.375;    0.000
497.067; 4019.000;  218.375;    0.000
497.202; 4004.000;  163.375;    0.000
497.336; 4013.000;  246.375;    0.000
497.471; 4043.000;  229.375;    0.000
497.606; 4106.000;  251.375;    0.000
497.740; 4108.000;  220.375;    0.000
497.875; 4155.000;  216.375;    0.000
498.010; 4253.000;  226.375;    0.000
498.144; 4162.000;  237.375;    0.000
498.279; 4388.000;  196.375;    0.000
498.414; 4423.000;  219.375;    0.000
498.548; 4400.000;  205.375;    0.000
498.683; 4421.000;  206.375;    0.000
498.817; 4598.000;  225.375;    0.000
498.952; 4651.000;  221.375;    0.000
499.087; 4764.000;  220.375;    0.000
499.221; 4797.000;  233.375;    0.000
499.356; 4903.000;  230.375;    0.000
499.490; 5024.000;  229.375;    0.000
499.625; 5010.000;  231.375;    0.000
499.759; 5181.000;  243.375;    0.000
499.894; 5305.000;  241.375;    0.000
500.028; 5478.000;  264.375;    0.000
500.162; 5541.000;  287.375;    0.000
500.297; 5526.000;  234.375;    0.000
500.431; 5613.000;  230.375;    0.000
500.566; 5655.000;  213.375;    0.000
500.700; 5612.000;  243.375;    0.000
500.835; 5481.000;  272.375;    0.000
500.969; 5358.000;  188.375;    0.000
501.103; 5307.000;  200.375;    0.000
501.238; 5290.000;  257.375;    0.000
501.372; 5099.000;  224.375;    0.000
501.506; 4927.000;  225.375;    0.000
501.641; 4684.000;  271.375;    0.000
501.775; 4732.000;  199.375;    0.000
501.909; 4542.000;  249.375;    0.000
502.043; 4532.000;  211.375;    0.000
502.178; 4590.000;  269.375;    0.000
502.312; 4357.000;  198.375;    0.000
502.446; 4353.000;  256.375;    0.000
502.580; 4202.000;  195.375;    0.000
502.715; 4235.000;  224.375;    0.000
502.849; 4272.000;  245.375;    0.000
502.983; 4157.000;  250.375;    0.000
503.117; 4193.000;  193.375;    0.000
503.251; 4018.000;  242.375;    0.000
503.385; 3934.000;  227.375;    0.000
503.520; 3807.000;  235.375;    0.000
503.654; 3827.000;  220.375;    0.000
503.788; 3761.000;  267.375;    0.000
503.922; 3772.000;  220.375;    0.000
504.056; 3786.000;  238.375;    0.000
504.190; 3670.000;  212.375;    0.000
504.324; 3840.000;  265.375;    0.000
504.458; 3669.000;  228.375;    0.000
504.592; 3727.000;  231.375;    0.000
504.726; 3654.000;  218.375;    0.000
504.860; 3612.000;  253.375;    0.000
504.994; 3493.000;  217.375;    0.000
505.128; 3519.000;  243.375;    0.000
505.262; 3462.000;  194.375;    0.000
505.396; 3420.000;  210.375;    0.000
505.530; 3349.000;  211.375;    0.000
505.664; 3419.000;  219.375;    0.000
505.798; 3296.000;  240.375;    0.000
505.932; 3354.000;  240.375;    0.000
506.066; 3379.000;  252.375;    0.000
506.199; 3243.000;  242.375;    0.000
506.333; 3210.000;  244.375;    0.000
506.467; 3247.000;  223.375;    0.000
506.601; 3160.000;  183.375;    0.000
506.735; 3218.000;  249.375;    0.000
506.869; 3226.000;  270.375;    0.000
507.002; 3164.000;  207.375;    0.000
507.136; 3174.000;  242.375;    0.000
507.270; 3253.000;  232.375;    0.000
507.404; 3066.000;  195.375;    0.000
507.537; 3104.000;  218.375;    0.000
507.671; 3095.000;  246.375;    0.000
507.805; 3076.000;  244.375;    0.000
507.939; 3107.000;  251.375;    0.000
508.072; 3104.000;  212.375;    0.000
508.206; 3043.000;  198.375;    0.000
508.340; 3024.000;  234.375;    0.000
508.473; 3179.000;  217.375;    0.000
508.607; 3012.000;  224.375;    0.000
508.740; 2977.000;  207.375;    0.000
508.874; 2978.000;  230.375;    0.000
509.008; 2973.000;  246.375;    0.000
509.141; 3006.000;  239.375;    0.000
509.275; 3021.000;  229.375;    0.000
509.408; 3057.000;  234.375;    0.000
509.542; 2938.000;  212.375;    0.000
509.675; 2913.000;  256.375;    0.000
509.809; 2920.000;  232.375;    0.000
509.942; 2989.000;  237.375;    0.000
510.076; 2945.000;  226.375;    0.000
510.209; 2910.000;  251.375;    0.000
510.343; 2879.000;  229.375;    0.000
510.476; 2967.000;  285.375;    0.000
510.610; 2915.000;  211.375;    0.000
510.743; 2967.000;  258.375;    0.000
510.877; 2926.000;  244.375;    0.000
511.010; 2902.000;  235.375;    0.000
511.143; 2834.000;  251.375;    0.000
511.277; 2894.000;  228.375;    0.000
511.410; 2822.000;  216.375;    0.000
511.543; 2850.000;  231.375;    0.000
511.677; 2832.000;  244.375;    0.000
511.810; 2872.000;  186.375;    0.000
511.943; 2840.000;  211.375;    0.000
512.077; 2826.000;  201.375;    0.000
512.210; 2842.000;  194.375;    0.000
512.343; 2993.000;  233.375;    0.000
512.476; 2841.000;  234.375;    0.000
512.610; 2761.000;  224.375;    0.000
512.743; 2852.000;  255.375;    0.000
512.876; 2910.000;  264.375;    0.000
513.009; 2825.000;  283.375;    0.000
513.142; 2863.000;  246.375;    0.000
513.276; 2803.000;  217.375;    0.000
513.409; 2875.000;  222.375;    0.000
513.542; 2796.000;  237.375;    0.000
513.675; 2809.000;  238.375;    0.000
513.808; 2796.000;  220.375;    0.000
513.941; 2868.000;  233.375;    0.000
514.074; 2876.000;  248.375;    0.000
514.207; 2789.000;  233.375;    0.000
514.340; 2749.000;  190.375;    0.000
514.474; 2821.000;  221.375;    0.000
514.607; 2883.000;  213.375;    0.000
514.740; 2763.000;  251.375;    0.000
514.873; 2891.000;  257.375;    0.000
515.006; 2931.000;  268.375;    0.000
515.139; 2803.000;  257.375;    0.000
515.272; 2840.000;  227.375;    0.000
515.404; 2790.000;  238.375;    0.000
515.537; 2962.000;  275.375;    0.000
515.670; 3024.000;  239.375;    0.000
515.803; 2950.000;  223.375;    0.000
515.936; 2965.000;  202.375;    0.000
516.069; 2986.000;  188.375;    0.000
516.202; 3020.000;  240.375;    0.000
516.335; 3119.000;  252.375;    0.000
516.468; 3290.000;  254.375;    0.000
516.600; 3795.000;  254.375;    0.000
516.733; 4890.000;  255.375;    0.000
516.866; 4689.000;  265.375;    0.000
516.999; 4208.000;  251.375;    0.000
517.132; 5204.000;  256.375;    0.000
517.264; 7260.000;  202.375;    0.000
517.397; 6992.000;  248.375;    0.000
517.530; 5199.000;  221.375;    0.000
517.663; 4459.000;  244.375;    0.000
517.795; 4151.000;  245.375;    0.000
517.928; 3945.000;  236.375;    0.000
518.061; 4101.000;  219.375;    0.000
518.193; 5202.000;  251.375;    0.000
518.326; 8340.000;  271.375;    0.000
518.459; 8860.000;  207.375;    0.000
518.591; 6537.000;  217.375;    0.000
518.724; 4977.000;  200.375;    0.000
518.857; 4374.000;  204.375;    0.000
518.989; 3923.000;  242.375;    0.000
519.122; 3675.000;  254.375;    0.000
519.254; 3595.000;  239.375;    0.000
519.387; 3321.000;  235.375;    0.000
519.519; 3206.000;  227.375;    0.000
519.652; 3200.000;  178.375;    0.000
519.784; 3174.000;  226.375;    0.000
519.917; 3134.000;  256.375;    0.000
520.049; 3023.000;  234.375;    0.000
520.182; 2980.000;  258.375;    0.000
520.314; 2953.000;  298.375;    0.000
520.447; 2886.000;  204.375;    0.000
520.579; 2878.000;  235.375;    0.000
520.712; 2866.000;  208.375;    0.000
520.844; 2835.000;  272.375;    0.000
520.976; 2775.000;  234.375;    0.000
521.109; 2844.000;  235.375;    0.000
521.241; 2776.000;  250.375;    0.000
521.373; 2736.000;  233.375;    0.000
521.506; 2670.000;  231.375;    0.000
521.638; 2756.000;  258.375;    0.000
521.770; 2775.000;  226.375;    0.000
521.903; 2723.000;  258.375;    0.000
522.035; 2663.000;  263.375;    0.000
522.167; 2644.000;  214.375;    0.000
522.300; 2571.000;  212.375;    0.000
522.432; 2652.000;  220.375;    0.000
522.564; 2602.000;  228.375;    0.000
522.696; 2650.000;  272.375;    0.000
522.828; 2629.000;  222.375;    0.000
522.961; 2530.000;  205.375;    0.000
523.093; 2599.000;  253.375;    0.000
523.225; 2526.000;  239.375;    0.000
523.357; 2508.000;  263.375;    0.000
523.489; 2539.000;  264.375;    0.000
523.621; 2554.000;  259.375;    0.000
523.753; 2480.000;  233.375;    0.000
523.885; 2556.000;  232.375;    0.000
524.018; 2455.000;  214.375;    0.000
524.150; 2470.000;  235.375;    0.000
524.282; 2554.000;  242.375;    0.000
524.414; 2527.000;  261.375;    0.000
524.546; 2397.000;  233.375;    0.000
524.678; 2454.000;  242.375;    0.000
524.810; 2480.000;  216.375;    0.000
524.942; 2402.000;  220.375;    0.000
525.074; 2414.000;  249.375;    0.000
525.206; 2433.000;  227.375;    0.000
525.338; 2450.000;  250.375;    0.000
525.469; 2439.000;  231.375;    0.000
525.601; 2372.000;  245.375;    0.000
525.733; 2416.000;  187.375;    0.000
525.865; 2409.000;  280.375;    0.000
525.997; 2388.000;  216.375;    0.000
526.129; 2350.000;  228.375;    0.000
526.261; 2431.000;  187.375;    0.000
526.393; 2277.000;  228.375;    0.000
526.524; 2321.000;  201.375;    0.000
526.656; 2269.000;  199.375;    0.000
526.788; 2390.000;  233.375;    0.000
526.920; 2364.000;  256.375;    0.000
527.052; 2219.000;  219.375;    0.000
527.183; 2263.000;  227.375;    0.000
527.315; 2365.000;  266.375;    0.000
527.447; 2362.000;  239.375;    0.000
527.578; 2293.000;  213.375;    0.000
527.710; 2458.000;  216.375;    0.000
527.842; 2314.000;  240.375;    0.000
527.973; 2337.000;  286.375;    0.000
528.105; 2264.000;  222.375;    0.000
528.237; 2313.000;  223.375;    0.000
528.368; 2276.000;  211.375;    0.000
528.500; 2296.000;  215.375;    0.000
528.632; 2263.000;  216.375;    0.000
528.763; 2243.000;  234.375;    0.000
528.895; 2301.000;  196.375;    0.000
529.026; 2291.000;  202.375;    0.000
529.158; 2255.000;  226.375;    0.000
529.289; 2276.000;  229.375;    0.000
529.421; 2338.000;  264.375;    0.000
529.552; 2271.000;  265.375;    0.000
529.684; 2374.000;  260.375;    0.000
529.815; 2344.000;  284.375;    0.000
529.947; 2215.000;  237.375;    0.000
530.078; 2280.000;  223.375;    0.000
530.210; 2292.000;  223.375;    0.000
530.341; 2232.000;  209.375;    0.000
530.472; 2287.000;  203.375;    0.000
530.604; 2246.000;  223.375;    0.000
530.735; 2237.000;  218.375;    0.000
530.867; 2193.000;  222.375;    0.000
530.998; 2255.000;  239.375;    0.000
531.129; 2246.000;  250.375;    0.000
531.260; 2308.000;  224.375;    0.000
531.392; 2293.000;  216.375;    0.000
531.523; 2267.000;  234.375;    0.000
531.654; 2330.000;  256.375;    0.000
531.786; 2264.000;  226.375;    0.000
531.917; 2369.000;  239.375;    0.000
532.048; 2297.000;  205.375;    0.000
532.179; 2276.000;  244.375;    0.000
532.311; 2316.000;  235.375;    0.000
532.442; 2257.000;  258.375;    0.000
532.573; 2267.000;  220.375;    0.000
532.704; 2315.000;  213.375;    0.000
532.835; 2257.000;  249.375;    0.000
532.966; 2243.000;  226.375;    0.000
533.097; 2281.000;  246.375;    0.000
533.229; 2262.000;  237.375;    0.000
533.360; 2338.000;  225.375;    0.000
533.491; 2223.000;  241.375;    0.000
533.622; 2212.000;  242.375;    0.000
533.753; 2267.000;  264.375;    0.000
533.884; 2280.000;  245.375;    0.000
534.015; 2326.000;  269.375;    0.000
534.146; 2296.000;  267.375;    0.000
534.277; 2311.000;  282.375;    0.000
534.408; 2388.000;  229.375;    0.000
534.539; 2295.000;  269.375;    0.000
534.670; 2284.000;  231.375;    0.000
534.801; 2315.000;  260.375;    0.000
534.932; 2214.000;  232.375;    0.000
535.063; 2237.000;  227.375;    0.000
535.194; 2320.000;  281.375;    0.000
535.324; 2165.000;  206.375;    0.000
535.455; 2270.000;  257.375;    0.000
535.586; 2330.000;  275.375;    0.000
535.717; 2241.000;  206.375;    0.000
535.848; 2273.000;  271.375;    0.000
535.979; 2243.000;  250.375;    0.000
536.109; 2230.000;  253.375;    0.000
536.240; 2108.000;  234.375;    0.000
536.371; 2323.000;  230.375;    0.000
536.502; 2307.000;  270.375;    0.000
536.632; 2232.000;  228.375;    0.000
536.763; 2234.000;  249.375;    0.000
536.894; 2191.000;  262.375;    0.000
537.025; 2230.000;  258.375;    0.000
537.155; 2298.000;  278.375;    0.000
537.286; 2239.000;  209.375;    0.000
537.417; 2234.000;  255.375;    0.000
537.547; 2154.000;  208.375;    0.000
537.678; 2278.000;  224.375;    0.000
537.808; 2152.000;  224.375;    0.000
537.939; 2252.000;  257.375;    0.000
538.070; 2154.000;  240.375;    0.000
538.200; 2106.000;  259.375;    0.000
538.331; 2182.000;  235.375;    0.000
538.461; 2207.000;  251.375;    0.000
538.592; 2289.000;  245.375;    0.000
538.722; 2246.000;  239.375;    0.000
538.853; 2152.000;  216.375;    0.000
538.983; 2198.000;  226.375;    0.000
539.114; 2172.000;  240.375;    0.000
539.244; 2161.000;  237.375;    0.000
539.375; 2244.000;  198.375;    0.000
539.505; 2133.000;  263.375;    0.000
539.636; 2120.000;  226.375;    0.000
539.766; 2165.000;  229.375;    0.000
539.896; 2119.000;  219.375;    0.000
540.027; 2217.000;  246.375;    0.000
540.157; 2153.000;  218.375;    0.000
540.287; 2173.000;  216.375;    0.000
540.418; 2249.000;  267.375;    0.000
540.548; 2164.000;  260.375;    0.000
540.678; 2143.000;  242.375;    0.000
540.809; 2187.000;  260.375;    0.000
540.939; 2165.000;  257.375;    0.000
541.069; 2215.000;  226.375;    0.000
541.200; 2163.000;  227.375;    0.000
541.330; 2136.000;  218.375;    0.000
541.460; 2266.000;  223.375;    0.000
541.590; 2153.000;  237.375;    0.000
541.720; 2166.000;  222.375;    0.000
541.851; 2178.000;  250.375;    0.000
541.981; 2167.000;  222.375;    0.000
542.111; 2208.000;  212.375;    0.000
542.241; 2195.000;  205.375;    0.000
542.371; 2276.000;  202.375;    0.000
542.501; 2220.000;  218.375;    0.000
542.631; 2252.000;  222.375;    0.000
542.761; 2267.000;  249.375;    0.000
542.891; 2348.000;  173.375;    0.000
543.021; 2257.000;  218.375;    0.000
543.151; 2351.000;  222.375;    0.000
543.281; 2265.000;  188.375;    0.000
543.411; 2204.000;  239.375;    0.000
543.542; 2211.000;  215.375;    0.000
543.671; 2299.000;  250.375;    0.000
543.801; 2252.000;  212.375;    0.000
543.931; 2361.000;  233.375;    0.000
544.061; 2261.000;  194.375;    0.000
544.191; 2240.000;  218.375;    0.000
544.321; 2224.000;  220.375;    0.000
544.451; 2327.000;  183.375;    0.000
544.581; 2235.000;  221.375;    0.000
544.711; 2209.000;  224.375;    0.000
544.841; 2227.000;  214.375;    0.000
544.970; 2271.000;  227.375;    0.000
545.100; 2280.000;  186.375;    0.000
545.230; 2338.000;  205.375;    0.000
545.360; 2257.000;  211.375;    0.000
545.490; 2242.000;  202.375;    0.000
545.619; 2134.000;  182.375;    0.000
545.749; 2197.000;  174.375;    0.000
545.879; 2244.000;  169.375;    0.000
546.009; 2233.000;  182.375;    0.000
546.138; 2260.000;  200.375;    0.000
546.268; 2216.000;  204.375;    0.000
546.398; 2233.000;  200.375;    0.000
546.527; 2211.000;  179.375;    0.000
546.657; 2201.000;  162.375;    0.000
546.786; 2199.000;  179.375;    0.000
546.916; 2295.000;  221.375;    0.000
547.046; 2273.000;  179.375;    0.000
547.175; 2332.000;  168.375;    0.000
547.305; 2227.000;  200.375;    0.000
547.434; 2222.000;  166.375;    0.000
547.564; 2176.000;  177.375;    0.000
547.693; 2181.000;  152.375;    0.000
547.823; 2205.000;  171.375;    0.000
547.953; 2188.000;  195.375;    0.000
548.082; 2256.000;  214.375;    0.000
548.211; 2227.000;  177.375;    0.000
548.341; 2207.000;  189.375;    0.000
548.470; 2253.000;  194.375;    0.000
548.600; 2265.000;  172.375;    0.000
548.729; 2179.000;  158.375;    0.000
548.859; 2258.000;  193.375;    0.000
548.988; 2204.000;  131.375;    0.000
549.117; 2269.000;  204.375;    0.000
549.247; 2157.000;  191.375;    0.000
549.376; 2222.000;  202.375;    0.000
549.505; 2312.000;  187.375;    0.000
549.635; 2339.000;  198.375;    0.000
549.764; 2185.000;  155.375;    0.000
549.893; 2241.000;  176.375;    0.000
550.023; 2302.000;  202.375;    0.000
550.152; 2257.000;  168.375;    0.000
550.281; 2234.000;  180.375;    0.000
550.410; 2333.000;  180.375;    0.000
550.539; 2219.000;  181.375;    0.000
550.669; 2338.000;  168.375;    0.000
550.798; 2341.000;  223.375;    0.000
550.927; 2264.000;  179.375;    0.000
551.056; 2191.000;  159.375;    0.000
551.185; 2302.000;  199.375;    0.000
551.314; 2228.000;  185.375;    0.000
551.443; 2311.000;  172.375;    0.000
551.573; 2245.000;  158.375;    0.000
551.702; 2250.000;  210.375;    0.000
551.831; 2336.000;  238.375;    0.000
551.960; 2359.000;  191.375;    0.000
552.089; 2238.000;  195.375;    0.000
552.218; 2311.000;  196.375;    0.000
552.347; 2344.000;  194.375;    0.000
552.476; 2351.000;  192.375;    0.000
552.605; 2322.000;  172.375;    0.000
552.734; 2396.000;  214.375;    0.000
552.863; 2512.000;  177.375;    0.000
552.992; 2577.000;  190.375;    0.000
553.121; 2430.000;  185.375;    0.000
553.249; 2470.000;  175.375;    0.000
553.378; 2391.000;  192.375;    0.000
553.507; 2333.000;  193.375;    0.000
553.636; 2345.000;  182.375;    0.000
553.765; 2442.000;  187.375;    0.000
553.894; 2396.000;  214.375;    0.000
554.023; 2378.000;  217.375;    0.000
554.151; 2341.000;  223.375;    0.000
554.280; 2261.000;  170.375;    0.000
554.409; 2314.000;  172.375;    0.000
554.538; 2271.000;  182.375;    0.000
554.666; 2350.000;  195.375;    0.000
554.795; 2251.000;  176.375;    0.000
554.924; 2249.000;  164.375;    0.000
555.052; 2286.000;  171.375;    0.000
555.181; 2290.000;  208.375;    0.000
555.310; 2220.000;  214.375;    0.000
555.439; 2300.000;  193.375;    0.000
555.567; 2233.000;  189.375;    0.000
555.696; 2290.000;  196.375;    0.000
555.824; 2194.000;  183.375;    0.000
555.953; 2311.000;  234.375;    0.000
556.082; 2267.000;  183.375;    0.000
556.210; 2199.000;  199.375;    0.000
556.339; 2290.000;  201.375;    0.000
556.467; 2266.000;  208.375;    0.000
556.596; 2276.000;  194.375;    0.000
556.724; 2224.000;  170.375;    0.000
556.853; 2182.000;  166.375;    0.000
556.981; 2250.000;  185.375;    0.000
557.110; 2228.000;  213.375;    0.000
557.238; 2221.000;  188.375;    0.000
557.367; 2155.000;  176.375;    0.000
557.495; 2222.000;  180.375;    0.000
557.623; 2164.000;  193.375;    0.000
557.752; 2119.000;  207.375;    0.000
557.880; 2277.000;  189.375;    0.000
558.008; 2208.000;  169.375;    0.000
558.137; 2192.000;  203.375;    0.000
558.265; 2147.000;  167.375;    0.000
558.393; 2202.000;  204.375;    0.000
558.522; 2211.000;  203.375;    0.000
558.650; 2263.000;  215.375;    0.000
558.778; 2323.000;  190.375;    0.000
558.906; 2208.000;  186.375;    0.000
559.035; 2212.000;  193.375;    0.000
559.163; 2252.000;  198.375;    0.000
559.291; 2232.000;  222.375;    0.000
559.419; 2258.000;  192.375;    0.000
559.548; 2119.000;  186.375;    0.000
559.676; 2217.000;  199.375;    0.000
559.804; 2207.000;  186.375;    0.000
559.932; 2269.000;  202.375;    0.000
560.060; 2274.000;  183.375;    0.000
560.188; 2272.000;  212.375;    0.000
560.316; 2295.000;  192.375;    0.000
560.444; 2200.000;  180.375;    0.000
560.572; 2181.000;  206.375;    0.000
560.700; 2274.000;  184.375;    0.000
560.828; 2285.000;  177.375;    0.000
560.956; 2414.000;  221.375;    0.000
561.085; 2343.000;  227.375;    0.000
561.212; 2223.000;  208.375;    0.000
561.340; 2362.000;  189.375;    0.000
561.468; 2353.000;  189.375;    0.000
561.596; 2248.000;  183.375;    0.000
561.724; 2254.000;  188.375;    0.000
561.852; 2282.000;  183.375;    0.000
561.980; 2294.000;  209.375;    0.000
562.108; 2293.000;  165.375;    0.000
562.236; 2299.000;  188.375;    0.000
562.364; 2398.000;  177.375;    0.000
562.492; 2412.000;  192.375;    0.000
562.619; 2260.000;  187.375;    0.000
562.747; 2383.000;  217.375;    0.000
562.875; 2398.000;  221.375;    0.000
563.003; 2366.000;  199.375;    0.000
563.130; 2319.000;  191.375;    0.000
563.258; 2383.000;  186.375;    0.000
563.386; 2344.000;  191.375;    0.000
563.514; 2404.000;  217.375;    0.000
563.641; 2460.000;  220.375;    0.000
563.769; 2422.000;  186.375;    0.000
563.897; 2424.000;  158.375;    0.000
564.024; 2555.000;  192.375;    0.000
564.152; 2541.000;  217.375;    0.000
564.280; 2515.000;  203.375;    0.000
564.407; 2502.000;  190.375;    0.000
564.535; 2473.000;  188.375;    0.000
564.662; 2530.000;  199.375;    0.000
564.790; 2607.000;  227.375;    0.000
564.917; 2494.000;  160.375;    0.000
565.045; 2584.000;  222.375;    0.000
565.173; 2533.000;  169.375;    0.000
565.300; 2560.000;  208.375;    0.000
565.428; 2594.000;  174.375;    0.000
565.555; 2688.000;  201.375;    0.000
565.682; 2587.000;  180.375;    0.000
565.810; 2719.000;  165.375;    0.000
565.937; 2697.000;  167.375;    0.000
566.065; 2784.000;  190.375;    0.000
566.192; 2803.000;  169.375;    0.000
566.320; 2906.000;  167.375;    0.000
566.447; 2870.000;  151.375;    0.000
566.574; 2799.000;  176.375;    0.000
566.702; 2881.000;  198.375;    0.000
566.829; 2938.000;  209.375;    0.000
566.956; 3026.000;  186.375;    0.000
567.083; 2930.000;  188.375;    0.000
567.211; 2932.000;  159.375;    0.000
567.338; 2925.000;  204.375;    0.000
567.465; 2976.000;  141.375;    0.000
567.593; 3028.000;  168.375;    0.000
567.720; 3046.000;  177.375;    0.000
567.847; 2959.000;  160.375;    0.000
567.974; 2891.000;  139.375;    0.000
568.101; 2915.000;  153.375;    0.000
568.228; 3087.000;  173.375;    0.000
568.356; 2996.000;  149.375;    0.000
568.483; 2898.000;  185.375;    0.000
568.610; 3000.000;  170.375;    0.000
568.737; 3020.000;  223.375;    0.000
568.864; 3086.000;  167.375;    0.000
568.991; 2925.000;  177.375;    0.000
569.118; 2846.000;  169.375;    0.000
569.245; 2623.000;  128.375;    0.000
569.372; 2653.000;  160.375;    0.000
569.499; 2614.000;  156.375;    0.000
569.626; 2613.000;  191.375;    0.000
569.753; 2564.000;  163.375;    0.000
569.880; 2498.000;  167.375;    0.000
570.007; 2539.000;  143.375;    0.000
570.134; 2542.000;  191.375;    0.000
570.261; 2515.000;  164.375;    0.000
570.388; 2493.000;  162.375;    0.000
570.515; 2418.000;  220.375;    0.000
570.642; 2454.000;  184.375;    0.000
570.768; 2478.000;  174.375;    0.000
570.895; 2392.000;  177.375;    0.000
571.022; 2409.000;  152.375;    0.000
571.149; 2494.000;  183.375;    0.000
571.276; 2436.000;  153.375;    0.000
571.402; 2494.000;  190.375;    0.000
571.529; 2445.000;  187.375;    0.000
571.656; 2513.000;  167.375;    0.000
571.783; 2356.000;  186.375;    0.000
571.909; 2355.000;  183.375;    0.000
572.036; 2436.000;  162.375;    0.000
572.163; 2413.000;  196.375;    0.000
572.289; 2361.000;  180.375;    0.000
572.416; 2299.000;  190.375;    0.000
572.543; 2312.000;  174.375;    0.000
572.669; 2317.000;  186.375;    0.000
572.796; 2335.000;  205.375;    0.000
572.922; 2279.000;  185.375;    0.000
573.049; 2348.000;  178.375;    0.000
573.176; 2259.000;  196.375;    0.000
573.302; 2285.000;  202.375;    0.000
573.429; 2324.000;  189.375;    0.000
573.555; 2334.000;  145.375;    0.000
573.682; 2235.000;  228.375;    0.000
573.808; 2246.000;  197.375;    0.000
573.935; 2305.000;  216.375;    0.000
574.061; 2285.000;  173.375;    0.000
574.188; 2242.000;  151.375;    0.000
574.314; 2214.000;  181.375;    0.000
574.440; 2244.000;  167.375;    0.000
574.567; 2291.000;  185.375;    0.000
574.693; 2251.000;  173.375;    0.000
574.820; 2192.000;  164.375;    0.000
574.946; 2244.000;  199.375;    0.000
575.072; 2255.000;  162.375;    0.000
575.198; 2330.000;  225.375;    0.000
575.325; 2236.000;  171.375;    0.000
575.451; 2197.000;  183.375;    0.000
575.577; 2309.000;  190.375;    0.000
575.704; 2246.000;  210.375;    0.000
575.830; 2292.000;  185.375;    0.000
575.956; 2177.000;  168.375;    0.000
576.082; 2243.000;  158.375;    0.000
576.208; 2165.000;  158.375;    0.000
576.335; 2300.000;  196.375;    0.000
576.461; 2219.000;  187.375;    0.000
576.587; 2267.000;  157.375;    0.000
576.713; 2218.000;  156.375;    0.000
576.839; 2231.000;  196.375;    0.000
576.965; 2253.000;  187.375;    0.000
577.091; 2258.000;  204.375;    0.000
577.217; 2288.000;  207.375;    0.000
577.343; 2260.000;  175.375;    0.000
577.469; 2248.000;  197.375;    0.000
577.596; 2265.000;  182.375;    0.000
577.722; 2122.000;  159.375;    0.000
577.848; 2213.000;  162.375;    0.000
577.974; 2259.000;  180.375;    0.000
578.099; 2213.000;  161.375;    0.000
578.225; 2299.000;  180.375;    0.000
578.351; 2314.000;  190.375;    0.000
578.477; 2227.000;  212.375;    0.000
578.603; 2164.000;  179.375;    0.000
578.729; 2161.000;  195.375;    0.000
578.855; 2128.000;  153.375;    0.000
578.981; 2196.000;  162.375;    0.000
579.107; 2288.000;  149.375;    0.000
579.232; 2157.000;  164.375;    0.000
579.358; 2175.000;  162.375;    0.000
579.484; 2223.000;  181.375;    0.000
579.610; 2241.000;  190.375;    0.000
579.735; 2259.000;  191.375;    0.000
579.861; 2249.000;  189.375;    0.000
579.987; 2286.000;  202.375;    0.000
580.113; 2224.000;  197.375;    0.000
580.238; 2267.000;  228.375;    0.000
580.364; 2276.000;  212.375;    0.000
580.490; 2263.000;  225.375;    0.000
580.615; 2232.000;  218.375;    0.000
580.741; 2147.000;  167.375;    0.000
580.867; 2242.000;  215.375;    0.000
580.992; 2211.000;  191.375;    0.000
581.118; 2180.000;  171.375;    0.000
581.243; 2235.000;  204.375;    0.000
581.369; 2218.000;  186.375;    0.000
581.494; 2254.000;  184.375;    0.000
581.620; 2246.000;  212.375;    0.000
581.745; 2301.000;  192.375;    0.000
581.871; 2208.000;  195.375;    0.000
581.996; 2284.000;  160.375;    0.000
582.122; 2342.000;  217.375;    0.000
582.247; 2222.000;  213.375;    0.000
582.373; 2249.000;  187.375;    0.000
582.498; 2309.000;  208.375;    0.000
582.624; 2291.000;  189.375;    0.000
582.749; 2262.000;  185.375;    0.000
582.874; 2234.000;  195.375;    0.000
583.000; 2299.000;  208.375;    0.000
583.125; 2183.000;  147.375;    0.000
583.250; 2218.000;  201.375;    0.000
583.376; 2246.000;  191.375;    0.000
583.501; 2286.000;  206.375;    0.000
583.626; 2280.000;  167.375;    0.000
583.751; 2310.000;  180.375;    0.000
583.877; 2362.000;  185.375;    0.000
584.002; 2292.000;  186.375;    0.000
584.127; 2312.000;  176.375;    0.000
584.252; 2263.000;  214.375;    0.000
584.377; 2340.000;  225.375;    0.000
584.503; 2278.000;  195.375;    0.000
584.628; 2335.000;  206.375;    0.000
584.753; 2355.000;  181.375;    0.000
584.878; 2314.000;  136.375;    0.000
585.003; 2291.000;  215.375;    0.000
585.128; 2404.000;  206.375;    0.000
585.253; 2426.000;  200.375;    0.000
585.378; 2428.000;  169.375;    0.000
585.503; 2330.000;  191.375;    0.000
585.628; 2378.000;  182.375;    0.000
585.753; 2493.000;  164.375;    0.000
585.878; 2396.000;  123.375;    0.000
586.003; 2429.000;  187.375;    0.000
586.128; 2432.000;  198.375;    0.000
586.253; 2436.000;  172.375;    0.000
586.378; 2475.000;  191.375;    0.000
586.503; 2497.000;  190.375;    0.000
586.628; 2513.000;  178.375;    0.000
586.753; 2549.000;  184.375;    0.000
586.878; 2603.000;  169.375;    0.000
587.003; 2688.000;  186.375;    0.000
587.127; 2613.000;  170.375;    0.000
587.252; 2663.000;  170.375;    0.000
587.377; 2757.000;  181.375;    0.000
587.502; 2814.000;  209.375;    0.000
587.627; 2993.000;  210.375;    0.000
587.751; 2993.000;  212.375;    0.000
587.876; 3110.000;  198.375;    0.000
588.001; 3325.000;  161.375;    0.000
588.125; 3502.000;  191.375;    0.000
588.250; 3731.000;  132.375;    0.000
588.375; 4149.000;  183.375;    0.000
588.499; 4616.000;  176.375;    0.000
588.624; 5651.000;  173.375;    0.000
588.749; 7330.000;  204.375;    0.000
588.873;11540.000;  179.375;    0.000
588.998;16125.000;  182.375;    0.000
589.122;14827.000;  165.375;    0.000
589.247;10824.000;  185.375;    0.000
589.372; 9340.000;  199.375;    0.000
589.496;11599.000;  182.375;    0.000
589.621;13767.000;  158.375;    0.000
589.745;11372.000;  213.375;    0.000
589.870; 7861.000;  175.375;    0.000
589.994; 6041.000;  194.375;    0.000
590.118; 5056.000;  218.375;    0.000
590.243; 4522.000;  170.375;    0.000
590.367; 4067.000;  189.375;    0.000
590.492; 3793.000;  196.375;    0.000
590.616; 3565.000;  182.375;    0.000
590.740; 3417.000;  210.375;    0.000
590.865; 3274.000;  242.375;    0.000
590.989; 3156.000;  191.375;    0.000
591.114; 3105.000;  167.375;    0.000
591.238; 2999.000;  194.375;    0.000
591.362; 2997.000;  236.375;    0.000
591.486; 2918.000;  194.375;    0.000
591.611; 2725.000;  154.375;    0.000
591.735; 2851.000;  186.375;    0.000
591.859; 2848.000;  148.375;    0.000
591.983; 2761.000;  211.375;    0.000
592.107; 2768.000;  204.375;    0.000
592.232; 2713.000;  194.375;    0.000
592.356; 2762.000;  238.375;    0.000
592.480; 2741.000;  179.375;    0.000
592.604; 2703.000;  192.375;    0.000
592.728; 2699.000;  201.375;    0.000
592.852; 2633.000;  158.375;    0.000
592.976; 2686.000;  152.375;    0.000
593.100; 2623.000;  194.375;    0.000
593.224; 2660.000;  235.375;    0.000
593.349; 2666.000;  233.375;    0.000
593.473; 2555.000;  194.375;    0.000
593.597; 2634.000;  215.375;    0.000
593.721; 2508.000;  212.375;    0.000
593.844; 2621.000;  220.375;    0.000
593.968; 2604.000;  221.375;    0.000
594.092; 2548.000;  150.375;    0.000
594.216; 2522.000;  212.375;    0.000
594.340; 2599.000;  209.375;    0.000
594.464; 2595.000;  207.375;    0.000
594.588; 2491.000;  195.375;    0.000
594.712; 2493.000;  176.375;    0.000
594.836; 2518.000;  219.375;    0.000
594.959; 2448.000;  215.375;    0.000
595.083; 2434.000;  200.375;    0.000
595.207; 2444.000;  206.375;    0.000
595.331; 2395.000;  207.375;    0.000
595.455; 2420.000;  206.375;    0.000
595.578; 2461.000;  204.375;    0.000
595.702; 2348.000;  225.375;    0.000
595.826; 2309.000;  186.375;    0.000
595.949; 2300.000;  196.375;    0.000
596.073; 2285.000;  188.375;    0.000
596.197; 2389.000;  217.375;    0.000
596.320; 2267.000;  225.375;    0.000
596.444; 2231.000;  220.375;    0.000
596.568; 2239.000;  155.375;    0.000
596.691; 2303.000;  195.375;    0.000
596.815; 2233.000;  163.375;    0.000
596.938; 2274.000;  181.375;    0.000
597.062; 2194.000;  201.375;    0.000
597.186; 2298.000;  200.375;    0.000
597.309; 2288.000;  214.375;    0.000
597.433; 2207.000;  176.375;    0.000
597.556; 2224.000;  193.375;    0.000
597.680; 2218.000;  241.375;    0.000
597.803; 2226.000;  185.375;    0.000
597.926; 2295.000;  200.375;    0.000
598.050; 2190.000;  193.375;    0.000
598.173; 2207.000;  219.375;    0.000
598.297; 2248.000;  223.375;    0.000
598.420; 2186.000;  187.375;    0.000
598.543; 2244.000;  205.375;    0.000
598.667; 2152.000;  177.375;    0.000
598.790; 2184.000;  208.375;    0.000
598.913; 2137.000;  170.375;    0.000
599.037; 2206.000;  212.375;    0.000
599.160; 2155.000;  165.375;    0.000
599.283; 2191.000;  211.375;    0.000
599.406; 2145.000;  207.375;    0.000
599.530; 2235.000;  182.375;    0.000
599.653; 2088.000;  215.375;    0.000
599.776; 2144.000;  167.375;    0.000
599.899; 2122.000;  190.375;    0.000
600.022; 2147.000;  182.375;    0.000
600.145; 2156.000;  180.375;    0.000
600.269; 2187.000;  208.375;    0.000
600.392; 2111.000;  214.375;    0.000
600.515; 2096.000;  196.375;    0.000
600.638; 2158.000;  204.375;    0.000
600.761; 2145.000;  209.375;    0.000
600.884; 2112.000;  207.375;    0.000
601.007; 2142.000;  234.375;    0.000
601.130; 2101.000;  183.375;    0.000
601.253; 2110.000;  211.375;    0.000
601.376; 2121.000;  199.375;    0.000
601.499; 1999.000;  190.375;    0.000
601.622; 2120.000;  210.375;    0.000
601.745; 2019.000;  180.375;    0.000
601.868; 2082.000;  204.375;    0.000
601.991; 2043.000;  188.375;    0.000
602.113; 2130.000;  210.375;    0.000
602.236; 2049.000;  194.375;    0.000
602.359; 2106.000;  213.375;    0.000
602.482; 2068.000;  169.375;    0.000
602.605; 2020.000;  189.375;    0.000
602.728; 2030.000;  236.375;    0.000
602.850; 2133.000;  230.375;    0.000
602.973; 2040.000;  187.375;    0.000
603.096; 2093.000;  201.375;    0.000
603.219; 2057.000;  209.375;    0.000
603.341; 2056.000;  209.375;    0.000
603.464; 2039.000;  194.375;    0.000
603.587; 2073.000;  166.375;    0.000
603.709; 2049.000;  175.375;    0.000
603.832; 2053.000;  239.375;    0.000
603.955; 2119.000;  205.375;    0.000
604.077; 2006.000;  196.375;    0.000
604.200; 2019.000;  188.375;    0.000
604.323; 1995.000;  224.375;    0.000
604.445; 2023.000;  182.375;    0.000
604.568; 2044.000;  199.375;    0.000
604.690; 2050.000;  175.375;    0.000
604.813; 2068.000;  211.375;    0.000
604.935; 2062.000;  171.375;    0.000
605.058; 1976.000;  196.375;    0.000
605.180; 2071.000;  194.375;    0.000
605.303; 2024.000;  198.375;    0.000
605.425; 2013.000;  212.375;    0.000
605.547; 2036.000;  238.375;    0.000
605.670; 2029.000;  207.375;    0.000
605.792; 1958.000;  204.375;    0.000
605.915; 2001.000;  198.375;    0.000
606.037; 2041.000;  215.375;    0.000
606.159; 2031.000;  170.375;    0.000
606.282; 2065.000;  194.375;    0.000
606.404; 1996.000;  207.375;    0.000
606.526; 1975.000;  208.375;    0.000
606.648; 2003.000;  174.375;    0.000
606.771; 2058.000;  170.375;    0.000
606.893; 2027.000;  182.375;    0.000
607.015; 2013.000;  180.375;    0.000
607.137; 1984.000;  187.375;    0.000
607.260; 2030.000;  202.375;    0.000
607.382; 2088.000;  226.375;    0.000
607.504; 1974.000;  208.375;    0.000
607.626; 2079.000;  229.375;    0.000
607.748; 2015.000;  170.375;    0.000
607.870; 2034.000;  208.375;    0.000
607.992; 1951.000;  184.375;    0.000
608.114; 1912.000;  213.375;    0.000
608.237; 2034.000;  237.375;    0.000
608.359; 2052.000;  176.375;    0.000
608.481; 2010.000;  173.375;    0.000
608.603; 1996.000;  189.375;    0.000
608.725; 1993.000;  185.375;    0.000
608.847; 1948.000;  239.375;    0.000
608.969; 1941.000;  237.375;    0.000
609.090; 1988.000;  189.375;    0.000
609.212; 1893.000;  147.375;    0.000
609.334; 2011.000;  177.375;    0.000
609.456; 2031.000;  196.375;    0.000
609.578; 1897.000;  199.375;    0.000
609.700; 1903.000;  167.375;    0.000
609.822; 1811.000;  140.375;    0.000
609.944; 2020.000;  225.375;    0.000
610.065; 1868.000;  183.375;    0.000
610.187; 1919.000;  170.375;    0.000
610.309; 1980.000;  210.375;    0.000
610.431; 1942.000;  185.375;    0.000
610.552; 1949.000;  197.375;    0.000
610.674; 1893.000;  188.375;    0.000
610.796; 1990.000;  162.375;    0.000
610.918; 1937.000;  200.375;    0.000
611.039; 1946.000;  209.375;    0.000
611.161; 2063.000;  201.375;    0.000
611.282; 1935.000;  197.375;    0.000
611.404; 1956.000;  220.375;    0.000
611.526; 1923.000;  159.375;    0.000
611.647; 1968.000;  205.375;    0.000
611.769; 1864.000;  161.375;    0.000
611.890; 1908.000;  173.375;    0.000
612.012; 1979.000;  225.375;    0.000
612.133; 1990.000;  188.375;    0.000
612.255; 1953.000;  217.375;    0.000
612.377; 1937.000;  219.375;    0.000
612.498; 1989.000;  177.375;    0.000
612.619; 1952.000;  211.375;    0.000
612.741; 1946.000;  185.375;    0.000
612.862; 2029.000;  191.375;    0.000
612.984; 1925.000;  190.375;    0.000
613.105; 1947.000;  211.375;    0.000
613.226; 1963.000;  174.375;    0.000
613.348; 1940.000;  235.375;    0.000
613.469; 1937.000;  230.375;    0.000
613.590; 1913.000;  208.375;    0.000
613.712; 1926.000;  244.375;    0.000
613.833; 1888.000;  202.375;    0.000
613.954; 1979.000;  228.375;    0.000
614.076; 1939.000;  220.375;    0.000
614.197; 1937.000;  191.375;    0.000
614.318; 1942.000;  201.375;    0.000
614.439; 1821.000;  212.375;    0.000
614.560; 1994.000;  219.375;    0.000
614.682; 1954.000;  189.375;    0.000
614.803; 1979.000;  188.375;    0.000
614.924; 1920.000;  225.375;    0.000
615.045; 1999.000;  227.375;    0.000
615.166; 2010.000;  200.375;    0.000
615.287; 1940.000;  195.375;    0.000
615.408; 2042.000;  199.375;    0.000
615.529; 1981.000;  227.375;    0.000
615.650; 2020.000;  176.375;    0.000
615.771; 1916.000;  211.375;    0.000
615.892; 1915.000;  212.375;    0.000
616.013; 1928.000;  172.375;    0.000
616.134; 2027.000;  220.375;    0.000
616.255; 1927.000;  251.375;    0.000
616.376; 1915.000;  186.375;    0.000
616.497; 1944.000;  201.375;    0.000
616.618; 1923.000;  149.375;    0.000
616.739; 2000.000;  213.375;    0.000
616.860; 1892.000;  224.375;    0.000
616.981; 1984.000;  224.375;    0.000
617.102; 1907.000;  217.375;    0.000
617.222; 1946.000;  237.375;    0.000
617.343; 1913.000;  205.375;    0.000
617.464; 1907.000;  229.375;    0.000
617.585; 1879.000;  227.375;    0.000
617.705; 1892.000;  191.375;    0.000
617.826; 1924.000;  237.375;    0.000
617.947; 1945.000;  223.375;    0.000
618.068; 1832.000;  189.375;    0.000
618.188; 1874.000;  194.375;    0.000
618.309; 1969.000;  206.375;    0.000
618.430; 1891.000;  229.375;    0.000
618.550; 1883.000;  250.375;    0.000
618.671; 1933.000;  201.375;    0.000
618.791; 1878.000;  226.375;    0.000
618.912; 1925.000;  246.375;    0.000
619.033; 1906.000;  243.375;    0.000
619.153; 1874.000;  208.375;    0.000
619.274; 1889.000;  223.375;    0.000
619.394; 1910.000;  226.375;    0.000
619.515; 1861.000;  188.375;    0.000
619.635; 1890.000;  216.375;    0.000
619.756; 1814.000;  229.375;    0.000
619.876; 1851.000;  216.375;    0.000
619.996; 1924.000;  244.375;    0.000
620.117; 1857.000;  225.375;    0.000
620.237; 1848.000;  207.375;    0.000
620.358; 1960.000;  239.375;    0.000
620.478; 1894.000;  237.375;    0.000
620.598; 1895.000;  237.375;    0.000
620.719; 1913.000;  223.375;    0.000
620.839; 1923.000;  254.375;    0.000
620.959; 1861.000;  244.375;    0.000
621.079; 1882.000;  193.375;    0.000
621.200; 1876.000;  233.375;    0.000
621.320; 1909.000;  270.375;    0.000
621.440; 1960.000;  206.375;    0.000
621.560; 1815.000;  241.375;    0.000
621.681; 1890.000;  231.375;    0.000
621.801; 1817.000;  235.375;    0.000
621.921; 1889.000;  240.375;    0.000
622.041; 1905.000;  244.375;    0.000
622.161; 1830.000;  225.375;    0.000
622.281; 1818.000;  222.375;    0.000
622.401; 1889.000;  238.375;    0.000
622.521; 1899.000;  233.375;    0.000
622.641; 1843.000;  241.375;    0.000
622.761; 1890.000;  233.375;    0.000
622.882; 1858.000;  230.375;    0.000
623.002; 1813.000;  206.375;    0.000
623.121; 1870.000;  217.375;    0.000
623.241; 1858.000;  263.375;    0.000
623.361; 1868.000;  245.375;    0.000
623.481; 1744.000;  194.375;    0.000
623.601; 1903.000;  228.375;    0.000
623.721; 1890.000;  219.375;    0.000
623.841; 1894.000;  234.375;    0.000
623.961; 1865.000;  235.375;    0.000
624.081; 1827.000;  166.375;    0.000
624.201; 1850.000;  229.375;    0.000
624.320; 1762.000;  224.375;    0.000
624.440; 1876.000;  200.375;    0.000
624.560; 1843.000;  220.375;    0.000
624.680; 1822.000;  214.375;    0.000
624.799; 1846.000;  179.375;    0.000
624.919; 1862.000;  199.375;    0.000
625.039; 1821.000;  211.375;    0.000
625.159; 1784.000;  213.375;    0.000
625.278; 1820.000;  178.375;    0.000
625.398; 1742.000;  206.375;    0.000
625.518; 1800.000;  182.375;    0.000
625.637; 1879.000;  206.375;    0.000
625.757; 1781.000;  197.375;    0.000
625.876; 1785.000;  204.375;    0.000
625.996; 1872.000;  222.375;    0.000
626.115; 1851.000;  222.375;    0.000
626.235; 1820.000;  222.375;    0.000
626.354; 1787.000;  211.375;    0.000
626.474; 1863.000;  217.375;    0.000
626.594; 1743.000;  190.375;    0.000
626.713; 1752.000;  200.375;    0.000
626.832; 1825.000;  234.375;    0.000
626.952; 1754.000;  214.375;    0.000
627.071; 1822.000;  243.375;    0.000
627.191; 1800.000;  192.375;    0.000
627.310; 1757.000;  211.375;    0.000
627.429; 1783.000;  218.375;    0.000
627.549; 1748.000;  214.375;    0.000
627.668; 1786.000;  208.375;    0.000
627.787; 1759.000;  199.375;    0.000
627.907; 1779.000;  208.375;    0.000
628.026; 1806.000;  216.375;    0.000
628.145; 1833.000;  170.375;    0.000
628.264; 1734.000;  217.375;    0.000
628.384; 1810.000;  190.375;    0.000
628.503; 1768.000;  203.375;    0.000
628.622; 1754.000;  197.375;    0.000
628.741; 1795.000;  186.375;    0.000
628.860; 1800.000;  191.375;    0.000
628.980; 1738.000;  196.375;    0.000
629.099; 1805.000;  190.375;    0.000
629.218; 1734.000;  165.375;    0.000
629.337; 1774.000;  190.375;    0.000
629.456; 1823.000;  222.375;    0.000
629.575; 1756.000;  197.375;    0.000
629.694; 1755.000;  210.375;    0.000
629.813; 1768.000;  187.375;    0.000
629.932; 1782.000;  224.375;    0.000
630.051; 1780.000;  216.375;    0.000
630.170; 1857.000;  203.375;    0.000
630.289; 1746.000;  178.375;    0.000
630.408; 1749.000;  192.375;    0.000
630.527; 1758.000;  223.375;    0.000
630.646; 1785.000;  177.375;    0.000
630.764; 1747.000;  224.375;    0.000
630.883; 1856.000;  220.375;    0.000
631.002; 1741.000;  187.375;    0.000
631.121; 1780.000;  208.375;    0.000
631.240; 1693.000;  217.375;    0.000
631.359; 1816.000;  241.375;    0.000
631.477; 1721.000;  189.375;    0.000
631.596; 1717.000;  244.375;    0.000
631.715; 1783.000;  241.375;    0.000
631.834; 1779.000;  219.375;    0.000
631.952; 1713.000;  231.375;    0.000
632.071; 1747.000;  197.375;    0.000
632.190; 1687.000;  193.375;    0.000
632.308; 1684.000;  185.375;    0.000
632.427; 1706.000;  188.375;    0.000
632.546; 1775.000;  208.375;    0.000
632.664; 1730.000;  191.375;    0.000
632.783; 1744.000;  201.375;    0.000
632.901; 1745.000;  239.375;    0.000
633.020; 1768.000;  197.375;    0.000
633.138; 1778.000;  189.375;    0.000
633.257; 1742.000;  210.375;    0.000
633.375; 1795.000;  213.375;    0.000
633.494; 1663.000;  206.375;    0.000
633.612; 1757.000;  231.375;    0.000
633.731; 1734.000;  213.375;    0.000
633.849; 1776.000;  244.375;    0.000
633.968; 1740.000;  251.375;    0.000
634.086; 1776.000;  224.375;    0.000
634.204; 1761.000;  212.375;    0.000
634.323; 1798.000;  213.375;    0.000
634.441; 1755.000;  219.375;    0.000
634.559; 1765.000;  198.375;    0.000
634.678; 1697.000;  201.375;    0.000
634.796; 1697.000;  179.375;    0.000
634.914; 1752.000;  255.375;    0.000
635.032; 1768.000;  264.375;    0.000
635.151; 1693.000;  228.375;    0.000
635.269; 1743.000;  223.375;    0.000
635.387; 1775.000;  228.375;    0.000
635.505; 1719.000;  214.375;    0.000
635.623; 1719.000;  279.375;    0.000
635.742; 1739.000;  237.375;    0.000
635.860; 1714.000;  244.375;    0.000
635.978; 1734.000;  213.375;    0.000
636.096; 1696.000;  230.375;    0.000
636.214; 1746.000;  252.375;    0.000
636.332; 1672.000;  221.375;    0.000
636.450; 1734.000;  227.375;    0.000
636.568; 1724.000;  193.375;    0.000
636.686; 1667.000;  208.375;    0.000
636.804; 1756.000;  213.375;    0.000
636.922; 1699.000;  199.375;    0.000
637.040; 1686.000;  202.375;    0.000
637.158; 1721.000;  239.375;    0.000
637.276; 1690.000;  225.375;    0.000
637.394; 1683.000;  217.375;    0.000
637.512; 1676.000;  192.375;    0.000
637.629; 1736.000;  216.375;    0.000
637.747; 1697.000;  198.375;    0.000
637.865; 1794.000;  265.375;    0.000
637.983; 1746.000;  245.375;    0.000
638.101; 1699.000;  199.375;    0.000
638.218; 1729.000;  197.375;    0.000
638.336; 1765.000;  212.375;    0.000
638.454; 1668.000;  227.375;    0.000
638.572; 1672.000;  215.375;    0.000
638.689; 1726.000;  214.375;    0.000
638.807; 1701.000;  233.375;    0.000
638.925; 1643.000;  217.375;    0.000
639.042; 1651.000;  180.375;    0.000
639.160; 1735.000;  220.375;    0.000
639.278; 1690.000;  180.375;    0.000
639.395; 1719.000;  243.375;    0.000
639.513; 1678.000;  207.375;    0.000
639.630; 1696.000;  183.375;    0.000
639.748; 1676.000;  231.375;    0.000
639.865; 1652.000;  215.375;    0.000
639.983; 1660.000;  182.375;    0.000
640.100; 1736.000;  190.375;    0.000
640.218; 1719.000;  224.375;    0.000
640.335; 1667.000;  214.375;    0.000
640.453; 1687.000;  212.375;    0.000
640.570; 1759.000;  224.375;    0.000
640.688; 1679.000;  220.375;    0.000
640.805; 1698.000;  189.375;    0.000
640.922; 1702.000;  256.375;    0.000
641.040; 1810.000;  209.375;    0.000
641.157; 1680.000;  195.375;    0.000
641.274; 1690.000;  195.375;    0.000
641.391; 1768.000;  231.375;    0.000
641.509; 1742.000;  207.375;    0.000
641.626; 1760.000;  227.375;    0.000
641.743; 1655.000;  188.375;    0.000
641.860; 1692.000;  208.375;    0.000
641.978; 1729.000;  222.375;    0.000
642.095; 1708.000;  194.375;    0.000
642.212; 1659.000;  202.375;    0.000
642.329; 1730.000;  241.375;    0.000
642.446; 1715.000;  261.375;    0.000
642.563; 1733.000;  236.375;    0.000
642.681; 1721.000;  228.375;    0.000
642.798; 1706.000;  242.375;    0.000
642.915; 1658.000;  197.375;    0.000
643.032; 1758.000;  239.375;    0.000
643.149; 1761.000;  241.375;    0.000
643.266; 1749.000;  199.375;    0.000
643.383; 1776.000;  200.375;    0.000
643.500; 1660.000;  221.375;    0.000
643.617; 1720.000;  196.375;    0.000
643.734; 1707.000;  207.375;    0.000
643.850; 1749.000;  222.375;    0.000
643.967; 1779.000;  235.375;    0.000
644.084; 1779.000;  233.375;    0.000
644.201; 1683.000;  229.375;    0.000
644.318; 1714.000;  210.375;    0.000
644.435; 1675.000;  234.375;    0.000
644.552; 1796.000;  220.375;    0.000
644.668; 1822.000;  231.375;    0.000
644.785; 1738.000;  231.375;    0.000
644.902; 1746.000;  238.375;    0.000
645.019; 1798.000;  226.375;    0.000
645.135; 1795.000;  179.375;    0.000
645.252; 1722.000;  224.375;    0.000
645.369; 1728.000;  206.375;    0.000
645.485; 1826.000;  200.375;    0.000
645.602; 1690.000;  210.375;    0.000
645.719; 1722.000;  206.375;    0.000
645.835; 1778.000;  247.375;    0.000
645.952; 1747.000;  222.375;    0.000
646.068; 1760.000;  205.375;    0.000
646.185; 1788.000;  230.375;    0.000
646.302; 1842.000;  254.375;    0.000
646.418; 1816.000;  230.375;    0.000
646.535; 1874.000;  214.375;    0.000
646.651; 1857.000;  179.375;    0.000
646.768; 1771.000;  190.375;    0.000
646.884; 1836.000;  208.375;    0.000
647.000; 1845.000;  262.375;    0.000
647.117; 1842.000;  212.375;    0.000
647.233; 1809.000;  228.375;    0.000
647.350; 1880.000;  208.375;    0.000
647.466; 1807.000;  211.375;    0.000
647.582; 1777.000;  196.375;    0.000
647.699; 1880.000;  217.375;    0.000
647.815; 1829.000;  203.375;    0.000
647.931; 1923.000;  201.375;    0.000
648.047; 1856.000;  182.375;    0.000
648.164; 1897.000;  219.375;    0.000
648.280; 1911.000;  213.375;    0.000
648.396; 1961.000;  202.375;    0.000
648.512; 1920.000;  233.375;    0.000
648.629; 1959.000;  206.375;    0.000
648.745; 1935.000;  188.375;    0.000
648.861; 1952.000;  209.375;    0.000
648.977; 1977.000;  218.375;    0.000
649.093; 1979.000;  225.375;    0.000
649.209; 1994.000;  240.375;    0.000
649.325; 1942.000;  253.375;    0.000
649.441; 1903.000;  263.375;    0.000
649.557; 1909.000;  256.375;    0.000
649.673; 1960.000;  211.375;    0.000
649.789; 1928.000;  237.375;    0.000
649.905; 2000.000;  183.375;    0.000
650.021; 1964.000;  238.375;    0.000
650.137; 1949.000;  241.375;    0.000
650.253; 2001.000;  228.375;    0.000
650.369; 2011.000;  221.375;    0.000
650.485; 1947.000;  240.375;    0.000
650.601; 2041.000;  254.375;    0.000
650.717; 1949.000;  201.375;    0.000
650.833; 2065.000;  257.375;    0.000
650.948; 1996.000;  213.375;    0.000
651.064; 2052.000;  223.375;    0.000
651.180; 2045.000;  230.375;    0.000
651.296; 2039.000;  235.375;    0.000
651.411; 2117.000;  221.375;    0.000
651.527; 2071.000;  233.375;    0.000
651.643; 1997.000;  236.375;    0.000
651.759; 2139.000;  268.375;    0.000
651.874; 2122.000;  214.375;    0.000
651.990; 2225.000;  251.375;    0.000
652.105; 2174.000;  217.375;    0.000
652.221; 2191.000;  243.375;    0.000
652.337; 2230.000;  231.375;    0.000
652.452; 2212.000;  238.375;    0.000
652.568; 2217.000;  188.375;    0.000
652.683; 2268.000;  197.375;    0.000
652.799; 2244.000;  194.375;    0.000
652.914; 2166.000;  222.375;    0.000
653.030; 2327.000;  200.375;    0.000
653.145; 2369.000;  235.375;    0.000
653.261; 2331.000;  261.375;    0.000
653.376; 2351.000;  228.375;    0.000
653.492; 2412.000;  222.375;    0.000
653.607; 2400.000;  227.375;    0.000
653.722; 2581.000;  250.375;    0.000
653.838; 2538.000;  255.375;    0.000
653.953; 2528.000;  235.375;    0.000
654.068; 2563.000;  266.375;    0.000
654.184; 2563.000;  210.375;    0.000
654.299; 2675.000;  240.375;    0.000
654.414; 2712.000;  222.375;    0.000
654.530; 2729.000;  222.375;    0.000
654.645; 2736.000;  256.375;    0.000
654.760; 2856.000;  244.375;    0.000
654.875; 2854.000;  229.375;    0.000
654.990; 2967.000;  226.375;    0.000
655.106; 3075.000;  254.375;    0.000
655.221; 3143.000;  251.375;    0.000
655.336; 3221.000;  245.375;    0.000
655.451; 3282.000;  199.375;    0.000
655.566; 3450.000;  228.375;    0.000
655.681; 3472.000;  208.375;    0.000
655.796; 3680.000;  218.375;    0.000
655.911; 3685.000;  233.375;    0.000
656.026; 3916.000;  232.375;    0.000
656.141; 3918.000;  223.375;    0.000
656.256; 4099.000;  247.375;    0.000
656.371; 4207.000;  220.375;    0.000
656.486; 4133.000;  225.375;    0.000
656.601; 4123.000;  257.375;    0.000
656.716; 3936.000;  248.375;    0.000
656.831; 3914.000;  262.375;    0.000
656.946; 3802.000;  249.375;    0.000
657.060; 3859.000;  245.375;    0.000
657.175; 3658.000;  245.375;    0.000
657.290; 3685.000;  219.375;    0.000
657.405; 3574.000;  286.375;    0.000
657.520; 3410.000;  259.375;    0.000
657.634; 3422.000;  239.375;    0.000
657.749; 3296.000;  227.375;    0.000
657.864; 3155.000;  210.375;    0.000
657.979; 3152.000;  236.375;    0.000
658.093; 3160.000;  210.375;    0.000
658.208; 3136.000;  248.375;    0.000
658.323; 2967.000;  216.375;    0.000
658.437; 2938.000;  248.375;    0.000
658.552; 2913.000;  249.375;    0.000
658.666; 2847.000;  256.375;    0.000
658.781; 2787.000;  247.375;    0.000
658.895; 2766.000;  209.375;    0.000
659.010; 2678.000;  219.375;    0.000
659.125; 2649.000;  215.375;    0.000
659.239; 2602.000;  205.375;    0.000
659.353; 2674.000;  246.375;    0.000
659.468; 2572.000;  245.375;    0.000
659.582; 2586.000;  244.375;    0.000
659.697; 2545.000;  242.375;    0.000
659.811; 2538.000;  239.375;    0.000
659.926; 2436.000;  226.375;    0.000
660.040; 2389.000;  255.375;    0.000
660.154; 2366.000;  225.375;    0.000
660.269; 2387.000;  200.375;    0.000
660.383; 2404.000;  192.375;    0.000
660.497; 2375.000;  218.375;    0.000
660.612; 2301.000;  236.375;    0.000
660.726; 2338.000;  263.375;    0.000
660.840; 2266.000;  205.375;    0.000
660.954; 2187.000;  219.375;    0.000
661.068; 2192.000;  240.375;    0.000
661.183; 2181.000;  221.375;    0.000
661.297; 2208.000;  194.375;    0.000
661.411; 2126.000;  253.375;    0.000
661.525; 2116.000;  246.375;    0.000
661.639; 2099.000;  217.375;    0.000
661.753; 2033.000;  241.375;    0.000
661.867; 2109.000;  276.375;    0.000
661.981; 2024.000;  203.375;    0.000
662.095; 2061.000;  224.375;    0.000
662.209; 1998.000;  217.375;    0.000
662.323; 1963.000;  251.375;    0.000
662.437; 2003.000;  243.375;    0.000
662.551; 1969.000;  244.375;    0.000
662.665; 1981.000;  247.375;    0.000
662.779; 1954.000;  251.375;    0.000
662.893; 1980.000;  254.375;    0.000
663.007; 1960.000;  222.375;    0.000
663.121; 1959.000;  253.375;    0.000
663.235; 1935.000;  270.375;    0.000
663.349; 1900.000;  242.375;    0.000
663.462; 1859.000;  230.375;    0.000
663.576; 1859.000;  230.375;    0.000
663.690; 1838.000;  249.375;    0.000
663.804; 1898.000;  200.375;    0.000
663.917; 1779.000;  204.375;    0.000
664.031; 1820.000;  206.375;    0.000
664.145; 1814.000;  202.375;    0.000
664.258; 1806.000;  221.375;    0.000
664.372; 1816.000;  215.375;    0.000
664.486; 1710.000;  179.375;    0.000
664.599; 1753.000;  208.375;    0.000
664.713; 1810.000;  268.375;    0.000
664.827; 1758.000;  225.375;    0.000
664.940; 1759.000;  222.375;    0.000
665.054; 1698.000;  208.375;    0.000
665.167; 1775.000;  253.375;    0.000
665.281; 1740.000;  237.375;    0.000
665.394; 1628.000;  227.375;    0.000
665.508; 1676.000;  192.375;    0.000
665.621; 1660.000;  175.375;    0.000
665.735; 1706.000;  249.375;    0.000
665.848; 1649.000;  197.375;    0.000
665.961; 1661.000;  206.375;    0.000
666.075; 1721.000;  245.375;    0.000
666.188; 1683.000;  230.375;    0.000
666.301; 1664.000;  219.375;    0.000
666.415; 1629.000;  231.375;    0.000
666.528; 1623.000;  258.375;    0.000
666.641; 1657.000;  243.375;    0.000
666.755; 1580.000;  208.375;    0.000
666.868; 1593.000;  228.375;    0.000
666.981; 1681.000;  244.375;    0.000
667.094; 1674.000;  244.375;    0.000
667.207; 1591.000;  226.375;    0.000
667.321; 1533.000;  175.375;    0.000
667.434; 1575.000;  211.375;    0.000
667.547; 1641.000;  249.375;    0.000
667.660; 1608.000;  225.375;    0.000
667.773; 1566.000;  242.375;    0.000
667.886; 1543.000;  246.375;    0.000
667.999; 1610.000;  244.375;    0.000
668.112; 1525.000;  227.375;    0.000
668.225; 1495.000;  231.375;    0.000
668.338; 1576.000;  256.375;    0.000
668.451; 1532.000;  216.375;    0.000
668.564; 1598.000;  261.375;    0.000
668.677; 1491.000;  230.375;    0.000
668.790; 1488.000;  192.375;    0.000
668.903; 1505.000;  243.375;    0.000
669.016; 1477.000;  201.375;    0.000
669.129; 1532.000;  249.375;    0.000
669.242; 1444.000;  190.375;    0.000
669.354; 1491.000;  219.375;    0.000
669.467; 1525.000;  242.375;    0.000
669.580; 1527.000;  237.375;    0.000
669.693; 1483.000;  243.375;    0.000
669.806; 1469.000;  234.375;    0.000
669.918; 1436.000;  206.375;    0.000
670.031; 1479.000;  258.375;    0.000
670.144; 1520.000;  231.375;    0.000
670.256; 1472.000;  244.375;    0.000
670.369; 1467.000;  262.375;    0.000
670.482; 1471.000;  264.375;    0.000
670.594; 1474.000;  256.375;    0.000
670.707; 1429.000;  224.375;    0.000
670.820; 1415.000;  261.375;    0.000
670.932; 1420.000;  226.375;    0.000
671.045; 1420.000;  243.375;    0.000
671.157; 1494.000;  235.375;    0.000
671.270; 1457.000;  217.375;    0.000
671.382; 1474.000;  267.375;    0.000
671.495; 1443.000;  258.375;    0.000
671.607; 1425.000;  236.375;    0.000
671.720; 1380.000;  200.375;    0.000
671.832; 1355.000;  219.375;    0.000
671.944; 1404.000;  234.375;    0.000
672.057; 1366.000;  226.375;    0.000
672.169; 1393.000;  225.375;    0.000
672.281; 1389.000;  253.375;    0.000
672.394; 1446.000;  238.375;    0.000
672.506; 1425.000;  244.375;    0.000
672.618; 1376.000;  272.375;    0.000
672.731; 1413.000;  247.375;    0.000
672.843; 1441.000;  261.375;    0.000
672.955; 1418.000;  262.375;    0.000
673.067; 1423.000;  253.375;    0.000
673.180; 1483.000;  239.375;    0.000
673.292; 1397.000;  240.375;    0.000
673.404; 1343.000;  243.375;    0.000
673.516; 1380.000;  258.375;    0.000
673.628; 1404.000;  263.375;    0.000
673.740; 1380.000;  250.375;    0.000
673.852; 1347.000;  285.375;    0.000
673.964; 1388.000;  264.375;    0.000
674.076; 1385.000;  260.375;    0.000
674.188; 1395.000;  226.375;    0.000
674.300; 1385.000;  272.375;    0.000
674.412; 1372.000;  259.375;    0.000
674.524; 1431.000;  283.375;    0.000
674.636; 1351.000;  259.375;    0.000
674.748; 1384.000;  238.375;    0.000
674.860; 1285.000;  277.375;    0.000
674.972; 1349.000;  272.375;    0.000
675.084; 1324.000;  244.375;    0.000
675.196; 1302.000;  272.375;    0.000
675.307; 1381.000;  244.375;    0.000
675.419; 1359.000;  219.375;    0.000
675.531; 1415.000;  275.375;    0.000
675.643; 1319.000;  215.375;    0.000
675.755; 1330.000;  243.375;    0.000
675.866; 1333.000;  223.375;    0.000
675.978; 1302.000;  216.375;    0.000
676.090; 1244.000;  242.375;    0.000
676.201; 1326.000;  276.375;    0.000
676.313; 1270.000;  226.375;    0.000
676.425; 1357.000;  234.375;    0.000
676.536; 1368.000;  231.375;    0.000
676.648; 1381.000;  254.375;    0.000
676.759; 1316.000;  273.375;    0.000
676.871; 1276.000;  250.375;    0.000
676.983; 1337.000;  256.375;    0.000
677.094; 1331.000;  210.375;    0.000
677.206; 1329.000;  248.375;    0.000
677.317; 1351.000;  263.375;    0.000
677.429; 1299.000;  238.375;    0.000
677.540; 1289.000;  247.375;    0.000
677.651; 1242.000;  224.375;    0.000
677.763; 1245.000;  217.375;    0.000
677.874; 1262.000;  234.375;    0.000
677.986; 1220.000;  238.375;    0.000
678.097; 1243.000;  226.375;    0.000
678.208; 1264.000;  253.375;    0.000
678.320; 1311.000;  217.375;    0.000
678.431; 1256.000;  238.375;    0.000
678.542; 1287.000;  236.375;    0.000
678.653; 1254.000;  218.375;    0.000
678.765; 1293.000;  275.375;    0.000
678.876; 1196.000;  213.375;    0.000
678.987; 1223.000;  182.375;    0.000
679.098; 1210.000;  221.375;    0.000
679.209; 1296.000;  238.375;    0.000
679.320; 1253.000;  212.375;    0.000
679.432; 1225.000;  231.375;    0.000
679.543; 1214.000;  198.375;    0.000
679.654; 1244.000;  191.375;    0.000
679.765; 1171.000;  214.375;    0.000
679.876; 1261.000;  221.375;    0.000
679.987; 1245.000;  162.375;    0.000
680.098; 1204.000;  230.375;    0.000
680.209; 1195.000;  206.375;    0.000
680.320; 1190.000;  196.375;    0.000
680.431; 1235.000;  191.375;    0.000
680.542; 1231.000;  214.375;    0.000
680.653; 1291.000;  238.375;    0.000
680.763; 1194.000;  182.375;    0.000
680.874; 1146.000;  213.375;    0.000
680.985; 1134.000;  224.375;    0.000
681.096; 1252.000;  222.375;    0.000
681.207; 1240.000;  220.375;    0.000
681.318; 1246.000;  216.375;    0.000
681.428; 1200.000;  229.375;    0.000
681.539; 1178.000;  183.375;    0.000
681.650; 1189.000;  202.375;    0.000
681.760; 1215.000;  223.375;    0.000
681.871; 1186.000;  211.375;    0.000
681.982; 1211.000;  189.375;    0.000
682.093; 1220.000;  222.375;    0.000
682.203; 1219.000;  220.375;    0.000
682.314; 1234.000;  214.375;    0.000
682.424; 1240.000;  208.375;    0.000
682.535; 1186.000;  213.375;    0.000
682.646; 1171.000;  302.375;    0.000
682.756; 1206.000;  255.375;    0.000
682.867; 1154.000;  244.375;    0.000
682.977; 1169.000;  221.375;    0.000
683.088; 1236.000;  259.375;    0.000
683.198; 1184.000;  212.375;    0.000
683.308; 1180.000;  202.375;    0.000
683.419; 1196.000;  255.375;    0.000
683.529; 1211.000;  217.375;    0.000
683.640; 1211.000;  240.375;    0.000
683.750; 1161.000;  181.375;    0.000
683.860; 1185.000;  246.375;    0.000
683.971; 1199.000;  254.375;    0.000
684.081; 1166.000;  235.375;    0.000
684.191; 1218.000;  251.375;    0.000
684.301; 1145.000;  233.375;    0.000
684.412; 1235.000;  202.375;    0.000
684.522; 1154.000;  232.375;    0.000
684.632; 1180.000;  202.375;    0.000
684.742; 1224.000;  254.375;    0.000
684.852; 1141.000;  219.375;    0.000
684.963; 1164.000;  256.375;    0.000
685.073; 1112.000;  253.375;    0.000
685.183; 1199.000;  254.375;    0.000
685.293; 1153.000;  232.375;    0.000
685.403; 1191.000;  242.375;    0.000
685.513; 1159.000;  261.375;    0.000
685.623; 1203.000;  245.375;    0.000
685.733; 1188.000;  254.375;    0.000
685.843; 1145.000;  249.375;    0.000
685.953; 1194.000;  252.375;    0.000
686.063; 1158.000;  227.375;    0.000
686.173; 1200.000;  223.375;    0.000
686.283; 1163.000;  234.375;    0.000
686.393; 1177.000;  239.375;    0.000
686.503; 1174.000;  231.375;    0.000
686.612; 1174.000;  232.375;    0.000
686.722; 1203.000;  258.375;    0.000
686.832; 1204.000;  256.375;    0.000
686.942; 1189.000;  230.375;    0.000
687.052; 1192.000;  274.375;    0.000
687.161; 1214.000;  269.375;    0.000
687.271; 1214.000;  218.375;    0.000
687.381; 1153.000;  235.375;    0.000
687.491; 1205.000;  262.375;    0.000
687.600; 1107.000;  256.375;    0.000
687.710; 1108.000;  225.375;    0.000
687.820; 1142.000;  230.375;    0.000
687.929; 1109.000;  226.375;    0.000
688.039; 1171.000;  228.375;    0.000
688.148; 1162.000;  249.375;    0.000
688.258; 1079.000;  237.375;    0.000
688.367; 1204.000;  260.375;    0.000
688.477; 1091.000;  200.375;    0.000
688.586; 1088.000;  223.375;    0.000
688.696; 1200.000;  223.375;    0.000
688.805; 1166.000;  257.375;    0.000
688.915; 1151.000;  185.375;    0.000
689.024; 1148.000;  227.375;    0.000
689.134; 1135.000;  224.375;    0.000
689.243; 1151.000;  206.375;    0.000
689.352; 1158.000;  275.375;    0.000
689.462; 1158.000;  233.375;    0.000
689.571; 1163.000;  244.375;    0.000
689.680; 1130.000;  261.375;    0.000
689.790; 1140.000;  192.375;    0.000
689.899; 1062.000;  214.375;    0.000
690.008; 1100.000;  255.375;    0.000
690.117; 1072.000;  219.375;    0.000
690.227; 1146.000;  241.375;    0.000
690.336; 1147.000;  231.375;    0.000
690.445; 1126.000;  212.375;    0.000
690.554; 1109.000;  234.375;    0.000
690.663; 1127.000;  210.375;    0.000
690.772; 1134.000;  221.375;    0.000
690.881; 1132.000;  244.375;    0.000
690.990; 1130.000;  247.375;    0.000
691.099; 1061.000;  222.375;    0.000
691.209; 1120.000;  240.375;    0.000
691.318; 1130.000;  223.375;    0.000
691.427; 1117.000;  217.375;    0.000
691.536; 1152.000;  216.375;    0.000
691.644; 1141.000;  194.375;    0.000
691.753; 1111.000;  221.375;    0.000
691.862; 1084.000;  224.375;    0.000
691.971; 1097.000;  191.375;    0.000
692.080; 1157.000;  247.375;    0.000
692.189; 1111.000;  208.375;    0.000
692.298; 1164.000;  203.375;    0.000
692.406; 1143.000;  239.375;    0.000
692.515; 1157.000;  250.375;    0.000
692.624; 1161.000;  226.375;    0.000
692.733; 1182.000;  229.375;    0.000
692.842; 1115.000;  254.375;    0.000
692.950; 1074.000;  242.375;    0.000
693.059; 1109.000;  204.375;    0.000
693.168; 1177.000;  252.375;    0.000
693.276; 1144.000;  195.375;    0.000
693.385; 1088.000;  228.375;    0.000
693.494; 1146.000;  282.375;    0.000
693.602; 1169.000;  221.375;    0.000
693.711; 1121.000;  225.375;    0.000
693.819; 1089.000;  234.375;    0.000
693.928; 1101.000;  229.375;    0.000
694.036; 1130.000;  192.375;    0.000
694.145; 1143.000;  233.375;    0.000
694.253; 1153.000;  277.375;    0.000
694.362; 1149.000;  188.375;    0.000
694.470; 1111.000;  263.375;    0.000
694.579; 1094.000;  253.375;    0.000
694.687; 1120.000;  281.375;    0.000
694.795; 1139.000;  233.375;    0.000
694.904; 1007.000;  223.375;    0.000
695.012; 1188.000;  296.375;    0.000
695.120; 1092.000;  227.375;    0.000
695.229; 1119.000;  269.375;    0.000
695.337; 1110.000;  229.375;    0.000
695.445; 1150.000;  244.375;    0.000
695.553; 1107.000;  259.375;    0.000
695.662; 1131.000;  208.375;    0.000
695.770; 1152.000;  241.375;    0.000
695.878; 1162.000;  239.375;    0.000
695.986; 1120.000;  247.375;    0.000
696.094; 1156.000;  224.375;    0.000
696.202; 1038.000;  205.375;    0.000
696.310; 1097.000;  217.375;    0.000
696.419; 1118.000;  228.375;    0.000
696.527; 1151.000;  246.375;    0.000
696.635; 1165.000;  245.375;    0.000
696.743; 1106.000;  233.375;    0.000
696.851; 1129.000;  251.375;    0.000
696.959; 1178.000;  257.375;    0.000
697.067; 1180.000;  260.375;    0.000
697.174; 1057.000;  223.375;    0.000
697.282; 1040.000;  239.375;    0.000
697.390; 1149.000;  264.375;    0.000
697.498; 1146.000;  227.375;    0.000
697.606; 1101.000;  243.375;    0.000
697.714; 1111.000;  256.375;    0.000
697.822; 1095.000;  278.375;    0.000
697.929; 1077.000;  227.375;    0.000
698.037; 1076.000;  232.375;    0.000
698.145; 1043.000;  256.375;    0.000
698.253; 1072.000;  245.375;    0.000
698.360; 1110.000;  282.375;    0.000
698.468; 1117.000;  244.375;    0.000
698.576; 1133.000;  279.375;    0.000
698.683; 1128.000;  259.375;    0.000
698.791; 1087.000;  265.375;    0.000
698.899; 1084.000;  250.375;    0.000
699.006; 1161.000;  245.375;    0.000
699.114; 1113.000;  280.375;    0.000
699.221; 1119.000;  240.375;    0.000
699.329; 1090.000;  293.375;    0.000
699.436; 1095.000;  216.375;    0.000
699.544; 1101.000;  269.375;    0.000
699.651; 1107.000;  219.375;    0.000
699.759; 1052.000;  245.375;    0.000
699.866; 1130.000;  261.375;    0.000
699.974; 1120.000;  245.375;    0.000
700.081; 1131.000;  257.375;    0.000
700.188; 1136.000;  268.375;    0.000
700.296; 1129.000;  225.375;    0.000
700.403; 1086.000;  257.375;    0.000
700.510; 1133.000;  267.375;    0.000
700.618; 1100.000;  299.375;    0.000
700.725; 1027.000;  223.375;    0.000
700.832; 1055.000;  233.375;    0.000
700.940; 1120.000;  255.375;    0.000
701.047; 1091.000;  244.375;    0.000
701.154; 1067.000;  248.375;    0.000
701.261; 1104.000;  264.375;    0.000
701.368; 1096.000;  299.375;    0.000
701.475; 1095.000;  264.375;    0.000
701.582; 1098.000;  275.375;    0.000
701.690; 1082.000;  261.375;    0.000
701.797; 1147.000;  273.375;    0.000
701.904; 1099.000;  320.375;    0.000
702.011; 1152.000;  299.375;    0.000
702.118; 1094.000;  292.375;    0.000
702.225; 1198.000;  317.375;    0.000
702.332; 1118.000;  307.375;    0.000
702.439; 1210.000;  313.375;    0.000
702.546; 1191.000;  312.375;    0.000
702.652; 1164.000;  297.375;    0.000
702.759; 1148.000;  345.375;    0.000
702.866; 1188.000;  330.375;    0.000
702.973; 1168.000;  303.375;    0.000
703.080; 1156.000;  303.375;    0.000
703.187; 1083.000;  327.375;    0.000
703.294; 1125.000;  325.375;    0.000
703.400; 1077.000;  302.375;    0.000
703.507;  409.000;  344.375;    0.000
703.614;  301.000;  294.375;    0.000
703.720;  294.000;  322.375;    0.000
703.827;  321.000;  329.375;    0.000
703.934;  331.000;  318.375;    0.000
704.040;  299.000;  299.375;    0.000
704.147;  337.000;  352.375;    0.000
704.254;  332.000;  350.375;    0.000
704.360;  307.000;  347.375;    0.000
704.467;  324.000;  336.375;    0.000
704.573;  336.000;  344.375;    0.000
704.680;  299.000;  365.375;    0.000
704.786;  305.000;  332.375;    0.000
704.893;  328.000;  304.375;    0.000
704.999;  339.000;  299.375;    0.000
705.106;  343.000;  365.375;    0.000

