
Integration time [ms]:   0.300
Averaging Nr. [scans]: 1
Smoothing Nr. [pixels]: 0
Data measured with spectrometer [name]: UV1
Wave   ;Sample   ;Dark     ;Reference
[nm]   ;[counts] ;[counts] ;[counts] 

236.381;  127.175;  149.925;    0.000
236.451;  192.175;  206.925;    0.000
236.520;  195.175;  212.925;    0.000
236.590;  212.175;  189.925;    0.000
236.660;  185.175;  184.925;    0.000
236.730;  218.175;  186.925;    0.000
236.799;  197.175;  191.925;    0.000
236.869;  180.175;  184.925;    0.000
236.939;  189.175;  176.925;    0.000
237.009;  213.175;  184.925;    0.000
237.078;  188.175;  189.925;    0.000
237.148;  173.175;  217.925;    0.000
237.218;  177.175;  192.925;    0.000
237.287;  211.175;  182.925;    0.000
237.357;  169.175;  196.925;    0.000
237.427;  177.175;  144.925;    0.000
237.496;  575.175;  224.925;    0.000
237.566;  525.175;  210.925;    0.000
237.636;  528.175;  165.925;    0.000
237.705;  601.175;  214.925;    0.000
237.775;  503.175;  194.925;    0.000
237.845;  526.175;  214.925;    0.000
237.914;  579.175;  191.925;    0.000
237.984;  615.175;  218.925;    0.000
238.054;  591.175;  187.925;    0.000
238.123;  590.175;  179.925;    0.000
238.193;  540.175;  177.925;    0.000
238.263;  556.175;  225.925;    0.000
238.332;  528.175;  197.925;    0.000
238.402;  580.175;  183.925;    0.000
238.471;  530.175;  181.925;    0.000
238.541;  541.175;  200.925;    0.000
238.611;  521.175;  170.925;    0.000
238.680;  509.175;  170.925;    0.000
238.750;  569.175;  175.925;    0.000
238.819;  506.175;  180.925;    0.000
238.889;  541.175;  190.925;    0.000
238.958;  517.175;  207.925;    0.000
239.028;  505.175;  201.925;    0.000
239.097;  497.175;  181.925;    0.000
239.167;  552.175;  222.925;    0.000
239.237;  547.175;  221.925;    0.000
239.306;  535.175;  147.925;    0.000
239.376;  551.175;  188.925;    0.000
239.445;  571.175;  198.925;    0.000
239.515;  525.175;  191.925;    0.000
239.584;  568.175;  178.925;    0.000
239.654;  544.175;  147.925;    0.000
239.723;  546.175;  212.925;    0.000
239.793;  522.175;  185.925;    0.000
239.862;  483.175;  157.925;    0.000
239.932;  497.175;  181.925;    0.000
240.001;  515.175;  163.925;    0.000
240.070;  532.175;  194.925;    0.000
240.140;  524.175;  202.925;    0.000
240.209;  518.175;  180.925;    0.000
240.279;  573.175;  188.925;    0.000
240.348;  554.175;  189.925;    0.000
240.418;  521.175;  143.925;    0.000
240.487;  549.175;  195.925;    0.000
240.556;  486.175;  170.925;    0.000
240.626;  509.175;  172.925;    0.000
240.695;  468.175;  202.925;    0.000
240.765;  511.175;  191.925;    0.000
240.834;  503.175;  177.925;    0.000
240.903;  558.175;  189.925;    0.000
240.973;  465.175;  196.925;    0.000
241.042;  531.175;  183.925;    0.000
241.112;  530.175;  189.925;    0.000
241.181;  490.175;  186.925;    0.000
241.250;  530.175;  168.925;    0.000
241.320;  551.175;  200.925;    0.000
241.389;  526.175;  185.925;    0.000
241.458;  538.175;  194.925;    0.000
241.528;  516.175;  165.925;    0.000
241.597;  570.175;  200.925;    0.000
241.666;  520.175;  184.925;    0.000
241.736;  500.175;  176.925;    0.000
241.805;  500.175;  165.925;    0.000
241.874;  487.175;  200.925;    0.000
241.943;  546.175;  184.925;    0.000
242.013;  537.175;  212.925;    0.000
242.082;  581.175;  200.925;    0.000
242.151;  497.175;  196.925;    0.000
242.221;  492.175;  182.925;    0.000
242.290;  528.175;  222.925;    0.000
242.359;  495.175;  142.925;    0.000
242.428;  555.175;  180.925;    0.000
242.498;  463.175;  180.925;    0.000
242.567;  513.175;  181.925;    0.000
242.636;  521.175;  203.925;    0.000
242.705;  566.175;  209.925;    0.000
242.774;  524.175;  172.925;    0.000
242.844;  472.175;  218.925;    0.000
242.913;  505.175;  188.925;    0.000
242.982;  529.175;  193.925;    0.000
243.051;  542.175;  202.925;    0.000
243.120;  529.175;  174.925;    0.000
243.190;  511.175;  165.925;    0.000
243.259;  529.175;  206.925;    0.000
243.328;  531.175;  166.925;    0.000
243.397;  490.175;  167.925;    0.000
243.466;  519.175;  163.925;    0.000
243.535;  512.175;  162.925;    0.000
243.605;  503.175;  159.925;    0.000
243.674;  490.175;  171.925;    0.000
243.743;  488.175;  189.925;    0.000
243.812;  496.175;  169.925;    0.000
243.881;  495.175;  145.925;    0.000
243.950;  458.175;  197.925;    0.000
244.019;  534.175;  189.925;    0.000
244.088;  531.175;  200.925;    0.000
244.158;  539.175;  208.925;    0.000
244.227;  500.175;  154.925;    0.000
244.296;  492.175;  142.925;    0.000
244.365;  508.175;  198.925;    0.000
244.434;  466.175;  162.925;    0.000
244.503;  512.175;  186.925;    0.000
244.572;  471.175;  143.925;    0.000
244.641;  489.175;  145.925;    0.000
244.710;  499.175;  159.925;    0.000
244.779;  490.175;  175.925;    0.000
244.848;  487.175;  163.925;    0.000
244.917;  500.175;  157.925;    0.000
244.986;  487.175;  166.925;    0.000
245.055;  506.175;  211.925;    0.000
245.124;  480.175;  155.925;    0.000
245.193;  484.175;  187.925;    0.000
245.262;  437.175;  152.925;    0.000
245.331;  478.175;  177.925;    0.000
245.400;  516.175;  157.925;    0.000
245.469;  463.175;  195.925;    0.000
245.538;  455.175;  199.925;    0.000
245.607;  549.175;  194.925;    0.000
245.676;  488.175;  170.925;    0.000
245.745;  487.175;  208.925;    0.000
245.814;  462.175;  185.925;    0.000
245.883;  434.175;  165.925;    0.000
245.952;  503.175;  151.925;    0.000
246.021;  489.175;  171.925;    0.000
246.090;  506.175;  174.925;    0.000
246.159;  466.175;  192.925;    0.000
246.227;  446.175;  178.925;    0.000
246.296;  456.175;  159.925;    0.000
246.365;  515.175;  189.925;    0.000
246.434;  490.175;  205.925;    0.000
246.503;  468.175;  174.925;    0.000
246.572;  444.175;  203.925;    0.000
246.641;  461.175;  169.925;    0.000
246.710;  490.175;  186.925;    0.000
246.779;  438.175;  196.925;    0.000
246.847;  471.175;  209.925;    0.000
246.916;  421.175;  177.925;    0.000
246.985;  471.175;  188.925;    0.000
247.054;  436.175;  189.925;    0.000
247.123;  452.175;  196.925;    0.000
247.192;  494.175;  210.925;    0.000
247.260;  437.175;  164.925;    0.000
247.329;  518.175;  204.925;    0.000
247.398;  491.175;  204.925;    0.000
247.467;  409.175;  160.925;    0.000
247.536;  490.175;  193.925;    0.000
247.604;  477.175;  208.925;    0.000
247.673;  444.175;  168.925;    0.000
247.742;  434.175;  182.925;    0.000
247.811;  447.175;  186.925;    0.000
247.879;  456.175;  166.925;    0.000
247.948;  473.175;  192.925;    0.000
248.017;  489.175;  178.925;    0.000
248.086;  438.175;  193.925;    0.000
248.154;  466.175;  191.925;    0.000
248.223;  479.175;  207.925;    0.000
248.292;  467.175;  168.925;    0.000
248.361;  471.175;  211.925;    0.000
248.429;  442.175;  196.925;    0.000
248.498;  388.175;  163.925;    0.000
248.567;  498.175;  159.925;    0.000
248.635;  472.175;  194.925;    0.000
248.704;  432.175;  205.925;    0.000
248.773;  460.175;  190.925;    0.000
248.841;  463.175;  179.925;    0.000
248.910;  472.175;  193.925;    0.000
248.979;  417.175;  167.925;    0.000
249.047;  413.175;  166.925;    0.000
249.116;  451.175;  191.925;    0.000
249.185;  492.175;  203.925;    0.000
249.253;  433.175;  140.925;    0.000
249.322;  447.175;  173.925;    0.000
249.390;  469.175;  165.925;    0.000
249.459;  442.175;  173.925;    0.000
249.528;  503.175;  203.925;    0.000
249.596;  479.175;  204.925;    0.000
249.665;  434.175;  176.925;    0.000
249.733;  455.175;  178.925;    0.000
249.802;  472.175;  190.925;    0.000
249.871;  492.175;  171.925;    0.000
249.939;  488.175;  160.925;    0.000
250.008;  466.175;  220.925;    0.000
250.076;  460.175;  211.925;    0.000
250.145;  423.175;  145.925;    0.000
250.213;  437.175;  177.925;    0.000
250.282;  455.175;  186.925;    0.000
250.350;  446.175;  170.925;    0.000
250.419;  429.175;  195.925;    0.000
250.487;  420.175;  194.925;    0.000
250.556;  475.175;  178.925;    0.000
250.624;  462.175;  193.925;    0.000
250.693;  400.175;  167.925;    0.000
250.761;  477.175;  253.925;    0.000
250.830;  441.175;  241.925;    0.000
250.898;  464.175;  161.925;    0.000
250.967;  446.175;  178.925;    0.000
251.035;  401.175;  189.925;    0.000
251.104;  455.175;  166.925;    0.000
251.172;  437.175;  178.925;    0.000
251.241;  401.175;  174.925;    0.000
251.309;  458.175;  197.925;    0.000
251.378;  443.175;  172.925;    0.000
251.446;  470.175;  157.925;    0.000
251.514;  463.175;  197.925;    0.000
251.583;  437.175;  191.925;    0.000
251.651;  466.175;  154.925;    0.000
251.720;  426.175;  198.925;    0.000
251.788;  434.175;  226.925;    0.000
251.856;  396.175;  164.925;    0.000
251.925;  453.175;  181.925;    0.000
251.993;  450.175;  203.925;    0.000
252.062;  456.175;  211.925;    0.000
252.130;  426.175;  185.925;    0.000
252.198;  413.175;  190.925;    0.000
252.267;  435.175;  176.925;    0.000
252.335;  434.175;  179.925;    0.000
252.403;  401.175;  173.925;    0.000
252.472;  406.175;  172.925;    0.000
252.540;  405.175;  187.925;    0.000
252.608;  438.175;  204.925;    0.000
252.677;  358.175;  179.925;    0.000
252.745;  425.175;  192.925;    0.000
252.813;  384.175;  168.925;    0.000
252.881;  399.175;  157.925;    0.000
252.950;  422.175;  188.925;    0.000
253.018;  404.175;  191.925;    0.000
253.086;  391.175;  164.925;    0.000
253.155;  401.175;  172.925;    0.000
253.223;  388.175;  168.925;    0.000
253.291;  346.175;  190.925;    0.000
253.359;  379.175;  205.925;    0.000
253.428;  394.175;  228.925;    0.000
253.496;  353.175;  170.925;    0.000
253.564;  329.175;  164.925;    0.000
253.632;  382.175;  159.925;    0.000
253.700;  362.175;  166.925;    0.000
253.769;  346.175;  172.925;    0.000
253.837;  381.175;  157.925;    0.000
253.905;  393.175;  168.925;    0.000
253.973;  336.175;  179.925;    0.000
254.041;  382.175;  187.925;    0.000
254.110;  342.175;  186.925;    0.000
254.178;  361.175;  156.925;    0.000
254.246;  337.175;  132.925;    0.000
254.314;  315.175;  191.925;    0.000
254.382;  344.175;  189.925;    0.000
254.450;  342.175;  163.925;    0.000
254.518;  365.175;  172.925;    0.000
254.587;  321.175;  162.925;    0.000
254.655;  370.175;  191.925;    0.000
254.723;  341.175;  184.925;    0.000
254.791;  360.175;  169.925;    0.000
254.859;  355.175;  186.925;    0.000
254.927;  339.175;  207.925;    0.000
254.995;  322.175;  143.925;    0.000
255.063;  391.175;  198.925;    0.000
255.131;  357.175;  168.925;    0.000
255.199;  358.175;  183.925;    0.000
255.267;  338.175;  159.925;    0.000
255.336;  394.175;  197.925;    0.000
255.404;  322.175;  177.925;    0.000
255.472;  407.175;  204.925;    0.000
255.540;  342.175;  169.925;    0.000
255.608;  358.175;  141.925;    0.000
255.676;  364.175;  176.925;    0.000
255.744;  346.175;  184.925;    0.000
255.812;  332.175;  158.925;    0.000
255.880;  424.175;  202.925;    0.000
255.948;  354.175;  184.925;    0.000
256.016;  415.175;  192.925;    0.000
256.084;  392.175;  204.925;    0.000
256.152;  357.175;  191.925;    0.000
256.220;  365.175;  187.925;    0.000
256.288;  392.175;  176.925;    0.000
256.356;  360.175;  146.925;    0.000
256.424;  339.175;  164.925;    0.000
256.491;  407.175;  161.925;    0.000
256.559;  401.175;  167.925;    0.000
256.627;  371.175;  180.925;    0.000
256.695;  365.175;  159.925;    0.000
256.763;  392.175;  166.925;    0.000
256.831;  374.175;  166.925;    0.000
256.899;  401.175;  161.925;    0.000
256.967;  320.175;  116.925;    0.000
257.035;  365.175;  195.925;    0.000
257.103;  421.175;  227.925;    0.000
257.171;  386.175;  147.925;    0.000
257.238;  381.175;  158.925;    0.000
257.306;  399.175;  188.925;    0.000
257.374;  377.175;  153.925;    0.000
257.442;  393.175;  159.925;    0.000
257.510;  438.175;  201.925;    0.000
257.578;  405.175;  137.925;    0.000
257.646;  422.175;  172.925;    0.000
257.713;  363.175;  164.925;    0.000
257.781;  429.175;  163.925;    0.000
257.849;  416.175;  174.925;    0.000
257.917;  415.175;  164.925;    0.000
257.985;  390.175;  126.925;    0.000
258.052;  372.175;  158.925;    0.000
258.120;  421.175;  151.925;    0.000
258.188;  467.175;  169.925;    0.000
258.256;  424.175;  110.925;    0.000
258.324;  476.175;  193.925;    0.000
258.391;  429.175;  157.925;    0.000
258.459;  445.175;  193.925;    0.000
258.527;  462.175;  150.925;    0.000
258.595;  449.175;  173.925;    0.000
258.662;  415.175;  168.925;    0.000
258.730;  485.175;  190.925;    0.000
258.798;  419.175;  164.925;    0.000
258.865;  438.175;  165.925;    0.000
258.933;  445.175;  162.925;    0.000
259.001;  496.175;  174.925;    0.000
259.069;  437.175;  139.925;    0.000
259.136;  510.175;  160.925;    0.000
259.204;  484.175;  174.925;    0.000
259.272;  481.175;  161.925;    0.000
259.339;  507.175;  157.925;    0.000
259.407;  469.175;  159.925;    0.000
259.475;  498.175;  134.925;    0.000
259.542;  529.175;  179.925;    0.000
259.610;  483.175;  172.925;    0.000
259.677;  520.175;  152.925;    0.000
259.745;  529.175;  131.925;    0.000
259.813;  548.175;  185.925;    0.000
259.880;  583.175;  183.925;    0.000
259.948;  540.175;  168.925;    0.000
260.016;  507.175;  160.925;    0.000
260.083;  561.175;  163.925;    0.000
260.151;  523.175;  162.925;    0.000
260.218;  562.175;  171.925;    0.000
260.286;  575.175;  154.925;    0.000
260.353;  568.175;  182.925;    0.000
260.421;  545.175;  187.925;    0.000
260.489;  650.175;  185.925;    0.000
260.556;  534.175;  165.925;    0.000
260.624;  622.175;  185.925;    0.000
260.691;  573.175;  175.925;    0.000
260.759;  585.175;  201.925;    0.000
260.826;  564.175;  150.925;    0.000
260.894;  596.175;  142.925;    0.000
260.961;  582.175;  156.925;    0.000
261.029;  591.175;  161.925;    0.000
261.096;  587.175;  172.925;    0.000
261.164;  603.175;  149.925;    0.000
261.231;  649.175;  191.925;    0.000
261.299;  598.175;  182.925;    0.000
261.366;  590.175;  156.925;    0.000
261.434;  624.175;  188.925;    0.000
261.501;  626.175;  170.925;    0.000
261.568;  639.175;  167.925;    0.000
261.636;  634.175;  169.925;    0.000
261.703;  648.175;  200.925;    0.000
261.771;  603.175;  170.925;    0.000
261.838;  678.175;  175.925;    0.000
261.906;  646.175;  135.925;    0.000
261.973;  636.175;  184.925;    0.000
262.040;  675.175;  176.925;    0.000
262.108;  650.175;  201.925;    0.000
262.175;  606.175;  141.925;    0.000
262.243;  686.175;  175.925;    0.000
262.310;  635.175;  112.925;    0.000
262.377;  648.175;  158.925;    0.000
262.445;  698.175;  162.925;    0.000
262.512;  686.175;  184.925;    0.000
262.579;  710.175;  185.925;    0.000
262.647;  700.175;  158.925;    0.000
262.714;  671.175;  197.925;    0.000
262.781;  640.175;  133.925;    0.000
262.849;  664.175;  146.925;    0.000
262.916;  744.175;  204.925;    0.000
262.983;  741.175;  191.925;    0.000
263.051;  716.175;  140.925;    0.000
263.118;  659.175;  154.925;    0.000
263.185;  723.175;  169.925;    0.000
263.252;  693.175;  150.925;    0.000
263.320;  689.175;  145.925;    0.000
263.387;  791.175;  144.925;    0.000
263.454;  750.175;  193.925;    0.000
263.522;  716.175;  160.925;    0.000
263.589;  745.175;  153.925;    0.000
263.656;  759.175;  178.925;    0.000
263.723;  724.175;  136.925;    0.000
263.790;  724.175;  162.925;    0.000
263.858;  839.175;  164.925;    0.000
263.925;  821.175;  146.925;    0.000
263.992;  736.175;  191.925;    0.000
264.059;  815.175;  180.925;    0.000
264.126;  815.175;  183.925;    0.000
264.194;  836.175;  174.925;    0.000
264.261;  791.175;  187.925;    0.000
264.328;  785.175;  179.925;    0.000
264.395;  802.175;  166.925;    0.000
264.462;  864.175;  197.925;    0.000
264.529;  845.175;  209.925;    0.000
264.597;  810.175;  173.925;    0.000
264.664;  863.175;  193.925;    0.000
264.731;  864.175;  165.925;    0.000
264.798;  771.175;  148.925;    0.000
264.865;  817.175;  186.925;    0.000
264.932;  842.175;  152.925;    0.000
264.999;  808.175;  166.925;    0.000
265.066;  771.175;  186.925;    0.000
265.133;  804.175;  172.925;    0.000
265.201;  869.175;  159.925;    0.000
265.268;  776.175;  164.925;    0.000
265.335;  817.175;  161.925;    0.000
265.402;  852.175;  157.925;    0.000
265.469;  837.175;  134.925;    0.000
265.536;  929.175;  191.925;    0.000
265.603;  815.175;  170.925;    0.000
265.670;  829.175;  162.925;    0.000
265.737;  809.175;  172.925;    0.000
265.804;  811.175;  151.925;    0.000
265.871;  847.175;  191.925;    0.000
265.938;  890.175;  173.925;    0.000
266.005;  861.175;  201.925;    0.000
266.072;  821.175;  156.925;    0.000
266.139;  906.175;  191.925;    0.000
266.206;  916.175;  151.925;    0.000
266.273;  856.175;  194.925;    0.000
266.340;  855.175;  120.925;    0.000
266.407;  827.175;  130.925;    0.000
266.474;  882.175;  137.925;    0.000
266.541;  887.175;  139.925;    0.000
266.608;  855.175;  139.925;    0.000
266.675;  900.175;  198.925;    0.000
266.742;  938.175;  165.925;    0.000
266.808;  892.175;  174.925;    0.000
266.875;  984.175;  169.925;    0.000
266.942;  960.175;  137.925;    0.000
267.009;  925.175;  181.925;    0.000
267.076;  950.175;  204.925;    0.000
267.143;  965.175;  179.925;    0.000
267.210;  945.175;  160.925;    0.000
267.277;  993.175;  154.925;    0.000
267.344;  967.175;  178.925;    0.000
267.410;  926.175;  190.925;    0.000
267.477;  923.175;  193.925;    0.000
267.544;  939.175;  168.925;    0.000
267.611;  993.175;  177.925;    0.000
267.678;  972.175;  205.925;    0.000
267.745;  964.175;  205.925;    0.000
267.811;  920.175;  164.925;    0.000
267.878;  974.175;  166.925;    0.000
267.945;  959.175;  160.925;    0.000
268.012;  985.175;  172.925;    0.000
268.079;  973.175;  186.925;    0.000
268.145;  955.175;  188.925;    0.000
268.212; 1000.175;  181.925;    0.000
268.279;  958.175;  158.925;    0.000
268.346;  973.175;  192.925;    0.000
268.412;  987.175;  159.925;    0.000
268.479; 1028.175;  176.925;    0.000
268.546;  931.175;  170.925;    0.000
268.613; 1044.175;  133.925;    0.000
268.679; 1017.175;  170.925;    0.000
268.746;  982.175;  185.925;    0.000
268.813;  935.175;  170.925;    0.000
268.879;  974.175;  149.925;    0.000
268.946;  955.175;  176.925;    0.000
269.013; 1029.175;  153.925;    0.000
269.079;  986.175;  156.925;    0.000
269.146;  914.175;  143.925;    0.000
269.213;  994.175;  170.925;    0.000
269.280;  940.175;  202.925;    0.000
269.346; 1023.175;  180.925;    0.000
269.413;  946.175;  162.925;    0.000
269.479;  928.175;  175.925;    0.000
269.546;  994.175;  151.925;    0.000
269.613;  877.175;  159.925;    0.000
269.679;  984.175;  190.925;    0.000
269.746;  974.175;  159.925;    0.000
269.813;  963.175;  151.925;    0.000
269.879;  934.175;  169.925;    0.000
269.946;  959.175;  169.925;    0.000
270.012;  975.175;  185.925;    0.000
270.079;  974.175;  133.925;    0.000
270.145;  920.175;  161.925;    0.000
270.212;  948.175;  156.925;    0.000
270.279;  986.175;  176.925;    0.000
270.345;  902.175;  140.925;    0.000
270.412;  940.175;  162.925;    0.000
270.478;  907.175;  148.925;    0.000
270.545;  937.175;  146.925;    0.000
270.611;  956.175;  168.925;    0.000
270.678;  910.175;  164.925;    0.000
270.744;  903.175;  117.925;    0.000
270.811;  948.175;  196.925;    0.000
270.877;  949.175;  151.925;    0.000
270.944;  965.175;  174.925;    0.000
271.010;  912.175;  180.925;    0.000
271.077;  938.175;  162.925;    0.000
271.143;  953.175;  178.925;    0.000
271.210;  929.175;  159.925;    0.000
271.276;  903.175;  143.925;    0.000
271.342;  967.175;  196.925;    0.000
271.409;  956.175;  161.925;    0.000
271.475;  913.175;  153.925;    0.000
271.542;  901.175;  147.925;    0.000
271.608;  898.175;  175.925;    0.000
271.675;  914.175;  134.925;    0.000
271.741; 1001.175;  182.925;    0.000
271.807;  927.175;  174.925;    0.000
271.874;  929.175;  169.925;    0.000
271.940;  972.175;  179.925;    0.000
272.007;  958.175;  173.925;    0.000
272.073;  961.175;  133.925;    0.000
272.139;  928.175;  191.925;    0.000
272.206;  963.175;  168.925;    0.000
272.272;  933.175;  179.925;    0.000
272.338;  962.175;  224.925;    0.000
272.405;  911.175;  156.925;    0.000
272.471;  917.175;  175.925;    0.000
272.537;  946.175;  190.925;    0.000
272.604;  937.175;  199.925;    0.000
272.670;  948.175;  156.925;    0.000
272.736;  860.175;  198.925;    0.000
272.802;  943.175;  169.925;    0.000
272.869;  916.175;  141.925;    0.000
272.935;  939.175;  145.925;    0.000
273.001;  967.175;  156.925;    0.000
273.068;  927.175;  157.925;    0.000
273.134;  914.175;  184.925;    0.000
273.200;  961.175;  158.925;    0.000
273.266;  960.175;  150.925;    0.000
273.333;  962.175;  176.925;    0.000
273.399;  876.175;  118.925;    0.000
273.465;  980.175;  184.925;    0.000
273.531;  893.175;  179.925;    0.000
273.597;  961.175;  167.925;    0.000
273.664; 1056.175;  186.925;    0.000
273.730;  893.175;  137.925;    0.000
273.796;  971.175;  148.925;    0.000
273.862;  993.175;  183.925;    0.000
273.928;  977.175;  179.925;    0.000
273.995;  969.175;  189.925;    0.000
274.061;  979.175;  188.925;    0.000
274.127;  928.175;  132.925;    0.000
274.193;  899.175;  135.925;    0.000
274.259;  939.175;  177.925;    0.000
274.325;  977.175;  178.925;    0.000
274.391;  950.175;  140.925;    0.000
274.457;  965.175;  158.925;    0.000
274.524; 1066.175;  175.925;    0.000
274.590;  924.175;  182.925;    0.000
274.656; 1015.175;  165.925;    0.000
274.722;  974.175;  152.925;    0.000
274.788;  925.175;  159.925;    0.000
274.854; 1052.175;  143.925;    0.000
274.920;  973.175;  117.925;    0.000
274.986; 1006.175;  140.925;    0.000
275.052; 1016.175;  174.925;    0.000
275.118; 1033.175;  129.925;    0.000
275.184; 1037.175;  173.925;    0.000
275.250; 1035.175;  196.925;    0.000
275.316; 1020.175;  142.925;    0.000
275.382;  981.175;  149.925;    0.000
275.448; 1071.175;  178.925;    0.000
275.514; 1039.175;  136.925;    0.000
275.580; 1100.175;  140.925;    0.000
275.646; 1063.175;  133.925;    0.000
275.712; 1021.175;  162.925;    0.000
275.778;  984.175;  129.925;    0.000
275.844; 1080.175;  156.925;    0.000
275.910; 1095.175;  172.925;    0.000
275.976; 1102.175;  158.925;    0.000
276.042; 1031.175;  141.925;    0.000
276.108; 1191.175;  212.925;    0.000
276.174; 1121.175;  148.925;    0.000
276.240; 1080.175;  134.925;    0.000
276.306; 1130.175;  149.925;    0.000
276.372; 1214.175;  126.925;    0.000
276.437; 1106.175;  168.925;    0.000
276.503; 1145.175;  158.925;    0.000
276.569; 1177.175;  191.925;    0.000
276.635; 1154.175;  130.925;    0.000
276.701; 1262.175;  161.925;    0.000
276.767; 1204.175;  148.925;    0.000
276.833; 1261.175;  147.925;    0.000
276.899; 1317.175;  149.925;    0.000
276.964; 1274.175;  181.925;    0.000
277.030; 1392.175;  186.925;    0.000
277.096; 1281.175;  132.925;    0.000
277.162; 1395.175;  181.925;    0.000
277.228; 1325.175;  166.925;    0.000
277.293; 1438.175;  154.925;    0.000
277.359; 1471.175;  181.925;    0.000
277.425; 1515.175;  184.925;    0.000
277.491; 1702.175;  150.925;    0.000
277.557; 1789.175;  159.925;    0.000
277.622; 2678.175;  129.925;    0.000
277.688; 2598.175;  184.925;    0.000
277.754; 2652.175;  182.925;    0.000
277.820; 2930.175;  149.925;    0.000
277.885; 3319.175;  185.925;    0.000
277.951; 4582.175;  164.925;    0.000
278.017; 3898.175;  162.925;    0.000
278.083; 3061.175;  189.925;    0.000
278.148; 3054.175;  184.925;    0.000
278.214; 2980.175;  188.925;    0.000
278.280; 3262.175;  206.925;    0.000
278.345; 2966.175;  187.925;    0.000
278.411; 2519.175;  174.925;    0.000
278.477; 2496.175;  190.925;    0.000
278.542; 2753.175;  154.925;    0.000
278.608; 2808.175;  191.925;    0.000
278.674; 3284.175;  243.925;    0.000
278.739; 3434.175;  141.925;    0.000
278.805; 3969.175;  171.925;    0.000
278.871; 4443.175;  181.925;    0.000
278.936; 5633.175;  191.925;    0.000
279.002; 8535.175;  201.925;    0.000
279.067;12016.175;  174.925;    0.000
279.133;11873.175;  165.925;    0.000
279.199; 9976.175;  122.925;    0.000
279.264;10229.175;  159.925;    0.000
279.330;12228.175;  170.925;    0.000
279.395;17267.176;  173.925;    0.000
279.461;25325.176;  200.925;    0.000
279.527;31935.176;  199.925;    0.000
279.592;28013.176;  203.925;    0.000
279.658;20439.176;  209.925;    0.000
279.723;18522.176;  188.925;    0.000
279.789;20985.176;  180.925;    0.000
279.854;17542.176;  137.925;    0.000
279.920;13795.175;  223.925;    0.000
279.985;12174.175;  186.925;    0.000
280.051;12378.175;  198.925;    0.000
280.116;14697.175;  178.925;    0.000
280.182;23366.176;  176.925;    0.000
280.247;29124.176;  195.925;    0.000
280.313;24126.176;  165.925;    0.000
280.378;15002.175;  153.925;    0.000
280.444;10403.175;  181.925;    0.000
280.509; 7818.175;  188.925;    0.000
280.574; 6681.175;  149.925;    0.000
280.640; 5694.175;  164.925;    0.000
280.705; 4948.175;  166.925;    0.000
280.771; 4528.175;  188.925;    0.000
280.836; 4126.175;  188.925;    0.000
280.902; 3785.175;  168.925;    0.000
280.967; 3554.175;  202.925;    0.000
281.032; 3575.175;  197.925;    0.000
281.098; 3151.175;  138.925;    0.000
281.163; 3180.175;  160.925;    0.000
281.229; 2977.175;  212.925;    0.000
281.294; 2916.175;  227.925;    0.000
281.359; 2768.175;  200.925;    0.000
281.425; 2682.175;  189.925;    0.000
281.490; 2537.175;  176.925;    0.000
281.555; 2559.175;  182.925;    0.000
281.621; 2405.175;  169.925;    0.000
281.686; 2243.175;  182.925;    0.000
281.751; 2262.175;  208.925;    0.000
281.816; 2141.175;  166.925;    0.000
281.882; 2146.175;  181.925;    0.000
281.947; 2017.175;  178.925;    0.000
282.012; 2006.175;  167.925;    0.000
282.078; 1968.175;  170.925;    0.000
282.143; 2083.175;  157.925;    0.000
282.208; 2044.175;  158.925;    0.000
282.273; 1993.175;  187.925;    0.000
282.339; 1868.175;  185.925;    0.000
282.404; 1855.175;  201.925;    0.000
282.469; 1732.175;  202.925;    0.000
282.534; 1807.175;  185.925;    0.000
282.600; 1695.175;  125.925;    0.000
282.665; 1803.175;  162.925;    0.000
282.730; 1670.175;  174.925;    0.000
282.795; 1845.175;  179.925;    0.000
282.860; 1698.175;  190.925;    0.000
282.926; 1644.175;  200.925;    0.000
282.991; 1642.175;  161.925;    0.000
283.056; 1682.175;  175.925;    0.000
283.121; 1739.175;  181.925;    0.000
283.186; 1764.175;  221.925;    0.000
283.251; 1561.175;  168.925;    0.000
283.316; 1656.175;  156.925;    0.000
283.382; 1710.175;  197.925;    0.000
283.447; 1710.175;  210.925;    0.000
283.512; 1631.175;  164.925;    0.000
283.577; 1747.175;  212.925;    0.000
283.642; 1659.175;  186.925;    0.000
283.707; 1552.175;  182.925;    0.000
283.772; 1582.175;  127.925;    0.000
283.837; 1630.175;  160.925;    0.000
283.902; 1688.175;  162.925;    0.000
283.967; 1594.175;  151.925;    0.000
284.032; 1629.175;  175.925;    0.000
284.097; 1614.175;  235.925;    0.000
284.163; 1656.175;  136.925;    0.000
284.228; 1627.175;  209.925;    0.000
284.293; 1672.175;  163.925;    0.000
284.358; 1607.175;  169.925;    0.000
284.423; 1706.175;  145.925;    0.000
284.488; 1713.175;  134.925;    0.000
284.553; 1690.175;  158.925;    0.000
284.618; 1671.175;  163.925;    0.000
284.683; 1846.175;  168.925;    0.000
284.748; 1902.175;  170.925;    0.000
284.812; 2083.175;  151.925;    0.000
284.877; 2318.175;  169.925;    0.000
284.942; 2506.175;  179.925;    0.000
285.007; 3204.175;  202.925;    0.000
285.072; 4328.175;  171.925;    0.000
285.137; 7758.175;  173.925;    0.000
285.202;11056.175;  196.925;    0.000
285.267; 9120.175;  193.925;    0.000
285.332; 5649.175;  151.925;    0.000
285.397; 3741.175;  183.925;    0.000
285.462; 3218.175;  168.925;    0.000
285.527; 2611.175;  166.925;    0.000
285.591; 2515.175;  124.925;    0.000
285.656; 2259.175;  145.925;    0.000
285.721; 2123.175;  155.925;    0.000
285.786; 1926.175;  170.925;    0.000
285.851; 1824.175;  175.925;    0.000
285.916; 1900.175;  186.925;    0.000
285.981; 1848.175;  204.925;    0.000
286.045; 1724.175;  237.925;    0.000
286.110; 1698.175;  197.925;    0.000
286.175; 1657.175;  143.925;    0.000
286.240; 1709.175;  167.925;    0.000
286.305; 1601.175;  202.925;    0.000
286.369; 1625.175;  214.925;    0.000
286.434; 1606.175;  206.925;    0.000
286.499; 1647.175;  177.925;    0.000
286.564; 1621.175;  201.925;    0.000
286.628; 1521.175;  153.925;    0.000
286.693; 1601.175;  161.925;    0.000
286.758; 1526.175;  181.925;    0.000
286.823; 1496.175;  176.925;    0.000
286.887; 1563.175;  158.925;    0.000
286.952; 1491.175;  198.925;    0.000
287.017; 1555.175;  196.925;    0.000
287.082; 1452.175;  154.925;    0.000
287.146; 1481.175;  178.925;    0.000
287.211; 1504.175;  165.925;    0.000
287.276; 1458.175;  165.925;    0.000
287.340; 1462.175;  178.925;    0.000
287.405; 1515.175;  177.925;    0.000
287.470; 1509.175;  141.925;    0.000
287.534; 1503.175;  224.925;    0.000
287.599; 1484.175;  184.925;    0.000
287.663; 1508.175;  177.925;    0.000
287.728; 1502.175;  144.925;    0.000
287.793; 1521.175;  210.925;    0.000
287.857; 1518.175;  198.925;    0.000
287.922; 1503.175;  168.925;    0.000
287.987; 1417.175;  168.925;    0.000
288.051; 1478.175;  200.925;    0.000
288.116; 1503.175;  199.925;    0.000
288.180; 1482.175;  211.925;    0.000
288.245; 1448.175;  182.925;    0.000
288.309; 1531.175;  180.925;    0.000
288.374; 1512.175;  196.925;    0.000
288.439; 1430.175;  187.925;    0.000
288.503; 1506.175;  159.925;    0.000
288.568; 1467.175;  207.925;    0.000
288.632; 1446.175;  210.925;    0.000
288.697; 1455.175;  196.925;    0.000
288.761; 1518.175;  175.925;    0.000
288.826; 1458.175;  159.925;    0.000
288.890; 1482.175;  183.925;    0.000
288.955; 1504.175;  149.925;    0.000
289.019; 1402.175;  194.925;    0.000
289.084; 1420.175;  171.925;    0.000
289.148; 1420.175;  191.925;    0.000
289.212; 1480.175;  217.925;    0.000
289.277; 1503.175;  196.925;    0.000
289.341; 1480.175;  211.925;    0.000
289.406; 1473.175;  165.925;    0.000
289.470; 1449.175;  197.925;    0.000
289.535; 1433.175;  208.925;    0.000
289.599; 1518.175;  192.925;    0.000
289.663; 1351.175;  169.925;    0.000
289.728; 1465.175;  168.925;    0.000
289.792; 1439.175;  192.925;    0.000
289.857; 1447.175;  202.925;    0.000
289.921; 1440.175;  176.925;    0.000
289.985; 1442.175;  164.925;    0.000
290.050; 1369.175;  166.925;    0.000
290.114; 1472.175;  192.925;    0.000
290.178; 1440.175;  155.925;    0.000
290.243; 1397.175;  158.925;    0.000
290.307; 1480.175;  192.925;    0.000
290.371; 1395.175;  161.925;    0.000
290.436; 1473.175;  182.925;    0.000
290.500; 1511.175;  147.925;    0.000
290.564; 1385.175;  209.925;    0.000
290.629; 1399.175;  172.925;    0.000
290.693; 1422.175;  192.925;    0.000
290.757; 1501.175;  147.925;    0.000
290.821; 1440.175;  139.925;    0.000
290.886; 1343.175;  186.925;    0.000
290.950; 1456.175;  196.925;    0.000
291.014; 1582.175;  166.925;    0.000
291.078; 1375.175;  143.925;    0.000
291.143; 1365.175;  171.925;    0.000
291.207; 1532.175;  187.925;    0.000
291.271; 1541.175;  208.925;    0.000
291.335; 1468.175;  195.925;    0.000
291.399; 1468.175;  139.925;    0.000
291.464; 1483.175;  139.925;    0.000
291.528; 1613.175;  183.925;    0.000
291.592; 1639.175;  152.925;    0.000
291.656; 1645.175;  155.925;    0.000
291.720; 1461.175;  191.925;    0.000
291.784; 1594.175;  185.925;    0.000
291.849; 1569.175;  175.925;    0.000
291.913; 1442.175;  152.925;    0.000
291.977; 1515.175;  203.925;    0.000
292.041; 1515.175;  181.925;    0.000
292.105; 1508.175;  168.925;    0.000
292.169; 1417.175;  133.925;    0.000
292.233; 1526.175;  156.925;    0.000
292.297; 1596.175;  173.925;    0.000
292.361; 1508.175;  124.925;    0.000
292.425; 1547.175;  138.925;    0.000
292.490; 1645.175;  110.925;    0.000
292.554; 1608.175;  180.925;    0.000
292.618; 1779.175;  178.925;    0.000
292.682; 1847.175;  156.925;    0.000
292.746; 1776.175;  151.925;    0.000
292.810; 2369.175;  183.925;    0.000
292.874; 3023.175;  156.925;    0.000
292.938; 2972.175;  195.925;    0.000
293.002; 2726.175;  200.925;    0.000
293.066; 2435.175;  171.925;    0.000
293.130; 2317.175;  163.925;    0.000
293.194; 2252.175;  174.925;    0.000
293.258; 2253.175;  167.925;    0.000
293.322; 2070.175;  212.925;    0.000
293.386; 2180.175;  189.925;    0.000
293.450; 2251.175;  169.925;    0.000
293.514; 2555.175;  175.925;    0.000
293.577; 3079.175;  169.925;    0.000
293.641; 4292.175;  186.925;    0.000
293.705; 4629.175;  222.925;    0.000
293.769; 3960.175;  150.925;    0.000
293.833; 3440.175;  165.925;    0.000
293.897; 2880.175;  152.925;    0.000
293.961; 2837.175;  179.925;    0.000
294.025; 2485.175;  159.925;    0.000
294.089; 2507.175;  181.925;    0.000
294.152; 2341.175;  188.925;    0.000
294.216; 2059.175;  170.925;    0.000
294.280; 2077.175;  167.925;    0.000
294.344; 2013.175;  151.925;    0.000
294.408; 1950.175;  180.925;    0.000
294.472; 1821.175;  144.925;    0.000
294.536; 1684.175;  171.925;    0.000
294.599; 1747.175;  157.925;    0.000
294.663; 1631.175;  139.925;    0.000
294.727; 1822.175;  208.925;    0.000
294.791; 1689.175;  152.925;    0.000
294.855; 1631.175;  181.925;    0.000
294.918; 1660.175;  136.925;    0.000
294.982; 1598.175;  155.925;    0.000
295.046; 1682.175;  200.925;    0.000
295.110; 1595.175;  190.925;    0.000
295.173; 1578.175;  156.925;    0.000
295.237; 1557.175;  160.925;    0.000
295.301; 1468.175;  145.925;    0.000
295.364; 1508.175;  166.925;    0.000
295.428; 1592.175;  125.925;    0.000
295.492; 1502.175;  154.925;    0.000
295.556; 1513.175;  172.925;    0.000
295.619; 1595.175;  210.925;    0.000
295.683; 1523.175;  181.925;    0.000
295.747; 1417.175;  176.925;    0.000
295.810; 1460.175;  181.925;    0.000
295.874; 1429.175;  160.925;    0.000
295.938; 1380.175;  119.925;    0.000
296.001; 1384.175;  206.925;    0.000
296.065; 1403.175;  136.925;    0.000
296.128; 1399.175;  156.925;    0.000
296.192; 1395.175;  174.925;    0.000
296.256; 1429.175;  145.925;    0.000
296.319; 1411.175;  167.925;    0.000
296.383; 1446.175;  168.925;    0.000
296.447; 1456.175;  190.925;    0.000
296.510; 1398.175;  165.925;    0.000
296.574; 1425.175;  184.925;    0.000
296.637; 1470.175;  155.925;    0.000
296.701; 1458.175;  168.925;    0.000
296.764; 1443.175;  161.925;    0.000
296.828; 1380.175;  218.925;    0.000
296.891; 1419.175;  176.925;    0.000
296.955; 1384.175;  169.925;    0.000
297.018; 1342.175;  168.925;    0.000
297.082; 1384.175;  176.925;    0.000
297.145; 1337.175;  171.925;    0.000
297.209; 1326.175;  196.925;    0.000
297.272; 1379.175;  170.925;    0.000
297.336; 1296.175;  156.925;    0.000
297.399; 1341.175;  168.925;    0.000
297.463; 1283.175;  203.925;    0.000
297.526; 1422.175;  164.925;    0.000
297.590; 1330.175;  175.925;    0.000
297.653; 1335.175;  170.925;    0.000
297.717; 1349.175;  156.925;    0.000
297.780; 1300.175;  149.925;    0.000
297.843; 1356.175;  156.925;    0.000
297.907; 1384.175;  129.925;    0.000
297.970; 1278.175;  163.925;    0.000
298.034; 1263.175;  162.925;    0.000
298.097; 1429.175;  182.925;    0.000
298.160; 1315.175;  194.925;    0.000
298.224; 1307.175;  178.925;    0.000
298.287; 1336.175;  147.925;    0.000
298.350; 1262.175;  187.925;    0.000
298.414; 1291.175;  193.925;    0.000
298.477; 1222.175;  127.925;    0.000
298.540; 1236.175;  181.925;    0.000
298.604; 1353.175;  163.925;    0.000
298.667; 1314.175;  177.925;    0.000
298.730; 1276.175;  192.925;    0.000
298.794; 1186.175;  183.925;    0.000
298.857; 1293.175;  194.925;    0.000
298.920; 1187.175;  147.925;    0.000
298.984; 1290.175;  184.925;    0.000
299.047; 1213.175;  218.925;    0.000
299.110; 1290.175;  171.925;    0.000
299.173; 1203.175;  177.925;    0.000
299.237; 1326.175;  181.925;    0.000
299.300; 1220.175;  170.925;    0.000
299.363; 1215.175;  185.925;    0.000
299.426; 1246.175;  193.925;    0.000
299.489; 1236.175;  184.925;    0.000
299.553; 1280.175;  194.925;    0.000
299.616; 1313.175;  171.925;    0.000
299.679; 1292.175;  182.925;    0.000
299.742; 1224.175;  138.925;    0.000
299.805; 1217.175;  172.925;    0.000
299.868; 1263.175;  191.925;    0.000
299.932; 1223.175;  193.925;    0.000
299.995; 1187.175;  201.925;    0.000
300.058; 1217.175;  177.925;    0.000
300.121; 1297.175;  178.925;    0.000
300.184; 1242.175;  171.925;    0.000
300.247; 1174.175;  184.925;    0.000
300.310; 1190.175;  200.925;    0.000
300.374; 1221.175;  172.925;    0.000
300.437; 1181.175;  187.925;    0.000
300.500; 1220.175;  211.925;    0.000
300.563; 1172.175;  190.925;    0.000
300.626; 1246.175;  196.925;    0.000
300.689; 1211.175;  162.925;    0.000
300.752; 1117.175;  163.925;    0.000
300.815; 1201.175;  207.925;    0.000
300.878; 1165.175;  221.925;    0.000
300.941; 1226.175;  176.925;    0.000
301.004; 1190.175;  193.925;    0.000
301.067; 1261.175;  165.925;    0.000
301.130; 1193.175;  179.925;    0.000
301.193; 1133.175;  196.925;    0.000
301.256; 1126.175;  210.925;    0.000
301.319; 1194.175;  196.925;    0.000
301.382; 1147.175;  162.925;    0.000
301.445; 1191.175;  233.925;    0.000
301.508; 1131.175;  176.925;    0.000
301.571; 1096.175;  185.925;    0.000
301.634; 1182.175;  202.925;    0.000
301.697; 1146.175;  189.925;    0.000
301.760; 1194.175;  224.925;    0.000
301.823; 1178.175;  212.925;    0.000
301.885; 1147.175;  196.925;    0.000
301.948; 1152.175;  169.925;    0.000
302.011; 1202.175;  160.925;    0.000
302.074; 1226.175;  202.925;    0.000
302.137; 1116.175;  130.925;    0.000
302.200; 1226.175;  188.925;    0.000
302.263; 1107.175;  196.925;    0.000
302.326; 1130.175;  172.925;    0.000
302.388; 1182.175;  197.925;    0.000
302.451; 1185.175;  203.925;    0.000
302.514; 1082.175;  164.925;    0.000
302.577; 1138.175;  170.925;    0.000
302.640; 1102.175;  156.925;    0.000
302.703; 1230.175;  188.925;    0.000
302.765; 1203.175;  213.925;    0.000
302.828; 1240.175;  212.925;    0.000
302.891; 1272.175;  203.925;    0.000
302.954; 1238.175;  148.925;    0.000
303.016; 1224.175;  168.925;    0.000
303.079; 1228.175;  206.925;    0.000
303.142; 1203.175;  210.925;    0.000
303.205; 1153.175;  189.925;    0.000
303.267; 1164.175;  174.925;    0.000
303.330; 1163.175;  198.925;    0.000
303.393; 1125.175;  207.925;    0.000
303.456; 1136.175;  177.925;    0.000
303.518; 1125.175;  192.925;    0.000
303.581; 1137.175;  171.925;    0.000
303.644; 1140.175;  193.925;    0.000
303.706; 1175.175;  185.925;    0.000
303.769; 1137.175;  198.925;    0.000
303.832; 1203.175;  192.925;    0.000
303.894; 1217.175;  199.925;    0.000
303.957; 1153.175;  160.925;    0.000
304.020; 1182.175;  184.925;    0.000
304.082; 1181.175;  191.925;    0.000
304.145; 1144.175;  216.925;    0.000
304.207; 1203.175;  175.925;    0.000
304.270; 1127.175;  192.925;    0.000
304.333; 1112.175;  218.925;    0.000
304.395; 1181.175;  195.925;    0.000
304.458; 1197.175;  206.925;    0.000
304.520; 1220.175;  229.925;    0.000
304.583; 1188.175;  202.925;    0.000
304.646; 1169.175;  159.925;    0.000
304.708; 1065.175;  167.925;    0.000
304.771; 1121.175;  141.925;    0.000
304.833; 1165.175;  184.925;    0.000
304.896; 1203.175;  197.925;    0.000
304.958; 1133.175;  179.925;    0.000
305.021; 1165.175;  175.925;    0.000
305.083; 1183.175;  182.925;    0.000
305.146; 1269.175;  182.925;    0.000
305.208; 1234.175;  174.925;    0.000
305.271; 1155.175;  157.925;    0.000
305.333; 1261.175;  185.925;    0.000
305.396; 1152.175;  199.925;    0.000
305.458; 1165.175;  203.925;    0.000
305.520; 1124.175;  195.925;    0.000
305.583; 1148.175;  152.925;    0.000
305.645; 1235.175;  200.925;    0.000
305.708; 1129.175;  149.925;    0.000
305.770; 1163.175;  211.925;    0.000
305.833; 1175.175;  189.925;    0.000
305.895; 1205.175;  200.925;    0.000
305.957; 1184.175;  166.925;    0.000
306.020; 1169.175;  186.925;    0.000
306.082; 1176.175;  197.925;    0.000
306.144; 1244.175;  200.925;    0.000
306.207; 1181.175;  180.925;    0.000
306.269; 1223.175;  209.925;    0.000
306.331; 1213.175;  205.925;    0.000
306.394; 1185.175;  176.925;    0.000
306.456; 1113.175;  184.925;    0.000
306.518; 1181.175;  210.925;    0.000
306.581; 1150.175;  162.925;    0.000
306.643; 1165.175;  196.925;    0.000
306.705; 1121.175;  204.925;    0.000
306.768; 1127.175;  158.925;    0.000
306.830; 1171.175;  205.925;    0.000
306.892; 1168.175;  189.925;    0.000
306.954; 1149.175;  188.925;    0.000
307.017; 1143.175;  180.925;    0.000
307.079; 1188.175;  197.925;    0.000
307.141; 1250.175;  184.925;    0.000
307.203; 1137.175;  182.925;    0.000
307.266; 1125.175;  166.925;    0.000
307.328; 1238.175;  186.925;    0.000
307.390; 1243.175;  176.925;    0.000
307.452; 1164.175;  194.925;    0.000
307.514; 1257.175;  225.925;    0.000
307.577; 1213.175;  209.925;    0.000
307.639; 1230.175;  203.925;    0.000
307.701; 1276.175;  214.925;    0.000
307.763; 1233.175;  203.925;    0.000
307.825; 1315.175;  202.925;    0.000
307.887; 1277.175;  244.925;    0.000
307.949; 1298.175;  173.925;    0.000
308.012; 1269.175;  219.925;    0.000
308.074; 1269.175;  157.925;    0.000
308.136; 1264.175;  215.925;    0.000
308.198; 1215.175;  186.925;    0.000
308.260; 1216.175;  186.925;    0.000
308.322; 1263.175;  201.925;    0.000
308.384; 1253.175;  218.925;    0.000
308.446; 1289.175;  159.925;    0.000
308.508; 1218.175;  191.925;    0.000
308.570; 1359.175;  185.925;    0.000
308.632; 1312.175;  208.925;    0.000
308.694; 1333.175;  161.925;    0.000
308.756; 1295.175;  169.925;    0.000
308.818; 1344.175;  187.925;    0.000
308.880; 1366.175;  192.925;    0.000
308.942; 1275.175;  194.925;    0.000
309.004; 1327.175;  206.925;    0.000
309.066; 1336.175;  204.925;    0.000
309.128; 1405.175;  181.925;    0.000
309.190; 1416.175;  166.925;    0.000
309.252; 1400.175;  213.925;    0.000
309.314; 1454.175;  249.925;    0.000
309.376; 1447.175;  238.925;    0.000
309.438; 1505.175;  206.925;    0.000
309.500; 1407.175;  185.925;    0.000
309.562; 1423.175;  214.925;    0.000
309.624; 1400.175;  216.925;    0.000
309.686; 1506.175;  197.925;    0.000
309.747; 1555.175;  171.925;    0.000
309.809; 1392.175;  198.925;    0.000
309.871; 1404.175;  185.925;    0.000
309.933; 1343.175;  172.925;    0.000
309.995; 1376.175;  168.925;    0.000
310.057; 1386.175;  177.925;    0.000
310.119; 1321.175;  207.925;    0.000
310.180; 1333.175;  180.925;    0.000
310.242; 1366.175;  202.925;    0.000
310.304; 1321.175;  200.925;    0.000
310.366; 1398.175;  222.925;    0.000
310.428; 1319.175;  179.925;    0.000
310.489; 1343.175;  196.925;    0.000
310.551; 1326.175;  203.925;    0.000
310.613; 1229.175;  198.925;    0.000
310.675; 1302.175;  203.925;    0.000
310.737; 1214.175;  195.925;    0.000
310.798; 1420.175;  204.925;    0.000
310.860; 1364.175;  195.925;    0.000
310.922; 1357.175;  195.925;    0.000
310.983; 1312.175;  225.925;    0.000
311.045; 1292.175;  203.925;    0.000
311.107; 1365.175;  194.925;    0.000
311.169; 1261.175;  185.925;    0.000
311.230; 1263.175;  175.925;    0.000
311.292; 1237.175;  220.925;    0.000
311.354; 1273.175;  189.925;    0.000
311.415; 1255.175;  187.925;    0.000
311.477; 1243.175;  180.925;    0.000
311.539; 1164.175;  175.925;    0.000
311.600; 1333.175;  192.925;    0.000
311.662; 1365.175;  212.925;    0.000
311.724; 1330.175;  217.925;    0.000
311.785; 1296.175;  218.925;    0.000
311.847; 1307.175;  219.925;    0.000
311.908; 1285.175;  202.925;    0.000
311.970; 1243.175;  186.925;    0.000
312.032; 1288.175;  212.925;    0.000
312.093; 1321.175;  203.925;    0.000
312.155; 1288.175;  165.925;    0.000
312.216; 1283.175;  183.925;    0.000
312.278; 1262.175;  167.925;    0.000
312.339; 1217.175;  190.925;    0.000
312.401; 1309.175;  219.925;    0.000
312.462; 1317.175;  190.925;    0.000
312.524; 1352.175;  203.925;    0.000
312.585; 1362.175;  191.925;    0.000
312.647; 1269.175;  197.925;    0.000
312.708; 1337.175;  203.925;    0.000
312.770; 1357.175;  203.925;    0.000
312.831; 1259.175;  155.925;    0.000
312.893; 1292.175;  189.925;    0.000
312.954; 1383.175;  212.925;    0.000
313.016; 1291.175;  179.925;    0.000
313.077; 1363.175;  209.925;    0.000
313.139; 1308.175;  185.925;    0.000
313.200; 1415.175;  180.925;    0.000
313.261; 1358.175;  220.925;    0.000
313.323; 1290.175;  171.925;    0.000
313.384; 1250.175;  180.925;    0.000
313.446; 1345.175;  202.925;    0.000
313.507; 1266.175;  172.925;    0.000
313.568; 1298.175;  192.925;    0.000
313.630; 1262.175;  191.925;    0.000
313.691; 1272.175;  176.925;    0.000
313.752; 1319.175;  175.925;    0.000
313.814; 1254.175;  202.925;    0.000
313.875; 1308.175;  186.925;    0.000
313.936; 1270.175;  199.925;    0.000
313.998; 1305.175;  164.925;    0.000
314.059; 1284.175;  159.925;    0.000
314.120; 1322.175;  175.925;    0.000
314.182; 1251.175;  181.925;    0.000
314.243; 1252.175;  157.925;    0.000
314.304; 1203.175;  168.925;    0.000
314.365; 1353.175;  203.925;    0.000
314.427; 1326.175;  151.925;    0.000
314.488; 1210.175;  174.925;    0.000
314.549; 1341.175;  184.925;    0.000
314.610; 1284.175;  198.925;    0.000
314.672; 1331.175;  193.925;    0.000
314.733; 1332.175;  171.925;    0.000
314.794; 1302.175;  141.925;    0.000
314.855; 1369.175;  184.925;    0.000
314.917; 1341.175;  175.925;    0.000
314.978; 1270.175;  190.925;    0.000
315.039; 1263.175;  183.925;    0.000
315.100; 1312.175;  204.925;    0.000
315.161; 1277.175;  202.925;    0.000
315.222; 1325.175;  177.925;    0.000
315.283; 1280.175;  191.925;    0.000
315.345; 1242.175;  185.925;    0.000
315.406; 1277.175;  194.925;    0.000
315.467; 1225.175;  167.925;    0.000
315.528; 1319.175;  174.925;    0.000
315.589; 1185.175;  197.925;    0.000
315.650; 1248.175;  192.925;    0.000
315.711; 1267.175;  181.925;    0.000
315.772; 1323.175;  157.925;    0.000
315.833; 1268.175;  189.925;    0.000
315.894; 1245.175;  184.925;    0.000
315.955; 1319.175;  202.925;    0.000
316.016; 1284.175;  220.925;    0.000
316.078; 1264.175;  180.925;    0.000
316.139; 1307.175;  240.925;    0.000
316.200; 1327.175;  190.925;    0.000
316.261; 1228.175;  179.925;    0.000
316.322; 1261.175;  176.925;    0.000
316.383; 1251.175;  188.925;    0.000
316.444; 1284.175;  228.925;    0.000
316.504; 1314.175;  199.925;    0.000
316.565; 1347.175;  221.925;    0.000
316.626; 1285.175;  204.925;    0.000
316.687; 1298.175;  192.925;    0.000
316.748; 1285.175;  220.925;    0.000
316.809; 1268.175;  175.925;    0.000
316.870; 1152.175;  164.925;    0.000
316.931; 1329.175;  208.925;    0.000
316.992; 1268.175;  224.925;    0.000
317.053; 1237.175;  204.925;    0.000
317.114; 1259.175;  199.925;    0.000
317.175; 1277.175;  230.925;    0.000
317.235; 1223.175;  186.925;    0.000
317.296; 1269.175;  224.925;    0.000
317.357; 1197.175;  154.925;    0.000
317.418; 1228.175;  219.925;    0.000
317.479; 1289.175;  229.925;    0.000
317.540; 1222.175;  201.925;    0.000
317.601; 1293.175;  180.925;    0.000
317.661; 1219.175;  179.925;    0.000
317.722; 1277.175;  193.925;    0.000
317.783; 1317.175;  164.925;    0.000
317.844; 1282.175;  232.925;    0.000
317.904; 1237.175;  222.925;    0.000
317.965; 1268.175;  199.925;    0.000
318.026; 1261.175;  200.925;    0.000
318.087; 1287.175;  182.925;    0.000
318.148; 1272.175;  216.925;    0.000
318.208; 1239.175;  239.925;    0.000
318.269; 1337.175;  163.925;    0.000
318.330; 1277.175;  204.925;    0.000
318.390; 1244.175;  191.925;    0.000
318.451; 1295.175;  200.925;    0.000
318.512; 1244.175;  181.925;    0.000
318.572; 1327.175;  233.925;    0.000
318.633; 1239.175;  220.925;    0.000
318.694; 1305.175;  179.925;    0.000
318.754; 1258.175;  214.925;    0.000
318.815; 1273.175;  214.925;    0.000
318.876; 1266.175;  220.925;    0.000
318.936; 1312.175;  212.925;    0.000
318.997; 1235.175;  201.925;    0.000
319.058; 1258.175;  215.925;    0.000
319.118; 1333.175;  251.925;    0.000
319.179; 1224.175;  240.925;    0.000
319.239; 1333.175;  240.925;    0.000
319.300; 1340.175;  232.925;    0.000
319.361; 1278.175;  211.925;    0.000
319.421; 1255.175;  219.925;    0.000
319.482; 1293.175;  228.925;    0.000
319.542; 1275.175;  216.925;    0.000
319.603; 1215.175;  190.925;    0.000
319.663; 1284.175;  227.925;    0.000
319.724; 1202.175;  191.925;    0.000
319.784; 1307.175;  196.925;    0.000
319.845; 1236.175;  190.925;    0.000
319.905; 1318.175;  221.925;    0.000
319.966; 1281.175;  219.925;    0.000
320.026; 1264.175;  233.925;    0.000
320.087; 1236.175;  204.925;    0.000
320.147; 1287.175;  189.925;    0.000
320.208; 1254.175;  200.925;    0.000
320.268; 1215.175;  217.925;    0.000
320.329; 1247.175;  216.925;    0.000
320.389; 1221.175;  228.925;    0.000
320.449; 1300.175;  236.925;    0.000
320.510; 1318.175;  234.925;    0.000
320.570; 1250.175;  176.925;    0.000
320.631; 1292.175;  228.925;    0.000
320.691; 1243.175;  228.925;    0.000
320.751; 1175.175;  188.925;    0.000
320.812; 1244.175;  223.925;    0.000
320.872; 1344.175;  268.925;    0.000
320.932; 1229.175;  226.925;    0.000
320.993; 1296.175;  216.925;    0.000
321.053; 1300.175;  236.925;    0.000
321.113; 1317.175;  197.925;    0.000
321.174; 1305.175;  218.925;    0.000
321.234; 1257.175;  229.925;    0.000
321.294; 1243.175;  208.925;    0.000
321.355; 1237.175;  248.925;    0.000
321.415; 1263.175;  218.925;    0.000
321.475; 1227.175;  173.925;    0.000
321.535; 1239.175;  234.925;    0.000
321.596; 1254.175;  202.925;    0.000
321.656; 1361.175;  246.925;    0.000
321.716; 1258.175;  235.925;    0.000
321.776; 1234.175;  210.925;    0.000
321.837; 1264.175;  217.925;    0.000
321.897; 1274.175;  215.925;    0.000
321.957; 1337.175;  239.925;    0.000
322.017; 1264.175;  173.925;    0.000
322.077; 1232.175;  263.925;    0.000
322.138; 1325.175;  232.925;    0.000
322.198; 1262.175;  211.925;    0.000
322.258; 1195.175;  213.925;    0.000
322.318; 1209.175;  168.925;    0.000
322.378; 1233.175;  251.925;    0.000
322.438; 1365.175;  212.925;    0.000
322.499; 1336.175;  265.925;    0.000
322.559; 1312.175;  210.925;    0.000
322.619; 1187.175;  242.925;    0.000
322.679; 1189.175;  229.925;    0.000
322.739; 1175.175;  216.925;    0.000
322.799; 1221.175;  238.925;    0.000
322.859; 1315.175;  249.925;    0.000
322.919; 1260.175;  211.925;    0.000
322.979; 1231.175;  244.925;    0.000
323.039; 1160.175;  226.925;    0.000
323.099; 1245.175;  223.925;    0.000
323.159; 1220.175;  232.925;    0.000
323.219; 1217.175;  203.925;    0.000
323.279; 1226.175;  218.925;    0.000
323.339; 1197.175;  231.925;    0.000
323.399; 1267.175;  255.925;    0.000
323.459; 1197.175;  244.925;    0.000
323.519; 1255.175;  213.925;    0.000
323.579; 1222.175;  193.925;    0.000
323.639; 1277.175;  191.925;    0.000
323.699; 1278.175;  199.925;    0.000
323.759; 1251.175;  246.925;    0.000
323.819; 1252.175;  206.925;    0.000
323.879; 1304.175;  238.925;    0.000
323.939; 1167.175;  229.925;    0.000
323.999; 1324.175;  219.925;    0.000
324.059; 1166.175;  177.925;    0.000
324.119; 1231.175;  235.925;    0.000
324.178; 1239.175;  211.925;    0.000
324.238; 1202.175;  168.925;    0.000
324.298; 1255.175;  205.925;    0.000
324.358; 1198.175;  224.925;    0.000
324.418; 1248.175;  235.925;    0.000
324.478; 1254.175;  187.925;    0.000
324.538; 1292.175;  230.925;    0.000
324.597; 1226.175;  206.925;    0.000
324.657; 1272.175;  180.925;    0.000
324.717; 1235.175;  175.925;    0.000
324.777; 1226.175;  169.925;    0.000
324.837; 1263.175;  165.925;    0.000
324.896; 1240.175;  205.925;    0.000
324.956; 1253.175;  216.925;    0.000
325.016; 1212.175;  197.925;    0.000
325.076; 1224.175;  220.925;    0.000
325.135; 1280.175;  242.925;    0.000
325.195; 1211.175;  186.925;    0.000
325.255; 1193.175;  160.925;    0.000
325.315; 1265.175;  198.925;    0.000
325.374; 1215.175;  208.925;    0.000
325.434; 1237.175;  209.925;    0.000
325.494; 1298.175;  191.925;    0.000
325.553; 1273.175;  190.925;    0.000
325.613; 1297.175;  229.925;    0.000
325.673; 1204.175;  172.925;    0.000
325.732; 1219.175;  160.925;    0.000
325.792; 1184.175;  177.925;    0.000
325.852; 1235.175;  201.925;    0.000
325.911; 1243.175;  226.925;    0.000
325.971; 1223.175;  224.925;    0.000
326.031; 1278.175;  202.925;    0.000
326.090; 1261.175;  232.925;    0.000
326.150; 1314.175;  230.925;    0.000
326.209; 1354.175;  201.925;    0.000
326.269; 1290.175;  202.925;    0.000
326.328; 1250.175;  203.925;    0.000
326.388; 1225.175;  194.925;    0.000
326.448; 1256.175;  233.925;    0.000
326.507; 1198.175;  192.925;    0.000
326.567; 1220.175;  163.925;    0.000
326.626; 1200.175;  227.925;    0.000
326.686; 1161.175;  177.925;    0.000
326.745; 1229.175;  210.925;    0.000
326.805; 1226.175;  198.925;    0.000
326.864; 1315.175;  185.925;    0.000
326.924; 1233.175;  255.925;    0.000
326.983; 1271.175;  208.925;    0.000
327.043; 1251.175;  241.925;    0.000
327.102; 1208.175;  183.925;    0.000
327.161; 1222.175;  210.925;    0.000
327.221; 1241.175;  213.925;    0.000
327.280; 1158.175;  194.925;    0.000
327.340; 1276.175;  212.925;    0.000
327.399; 1319.175;  209.925;    0.000
327.459; 1176.175;  229.925;    0.000
327.518; 1241.175;  196.925;    0.000
327.577; 1202.175;  197.925;    0.000
327.637; 1257.175;  210.925;    0.000
327.696; 1182.175;  196.925;    0.000
327.755; 1283.175;  216.925;    0.000
327.815; 1185.175;  240.925;    0.000
327.874; 1316.175;  250.925;    0.000
327.933; 1233.175;  229.925;    0.000
327.993; 1206.175;  202.925;    0.000
328.052; 1240.175;  178.925;    0.000
328.111; 1251.175;  230.925;    0.000
328.171; 1259.175;  207.925;    0.000
328.230; 1261.175;  170.925;    0.000
328.289; 1280.175;  205.925;    0.000
328.349; 1261.175;  235.925;    0.000
328.408; 1268.175;  231.925;    0.000
328.467; 1240.175;  217.925;    0.000
328.526; 1271.175;  239.925;    0.000
328.586; 1243.175;  214.925;    0.000
328.645; 1259.175;  205.925;    0.000
328.704; 1275.175;  211.925;    0.000
328.763; 1247.175;  208.925;    0.000
328.822; 1300.175;  251.925;    0.000
328.882; 1216.175;  211.925;    0.000
328.941; 1288.175;  232.925;    0.000
329.000; 1282.175;  235.925;    0.000
329.059; 1292.175;  222.925;    0.000
329.118; 1245.175;  265.925;    0.000
329.177; 1179.175;  237.925;    0.000
329.237; 1279.175;  258.925;    0.000
329.296; 1350.175;  225.925;    0.000
329.355; 1237.175;  227.925;    0.000
329.414; 1331.175;  212.925;    0.000
329.473; 1324.175;  250.925;    0.000
329.532; 1340.175;  263.925;    0.000
329.591; 1342.175;  212.925;    0.000
329.650; 1319.175;  219.925;    0.000
329.709; 1360.175;  218.925;    0.000
329.768; 1317.175;  195.925;    0.000
329.827; 1367.175;  223.925;    0.000
329.886; 1350.175;  230.925;    0.000
329.945; 1470.175;  211.925;    0.000
330.004; 1597.175;  247.925;    0.000
330.063; 1637.175;  193.925;    0.000
330.122; 2022.175;  229.925;    0.000
330.181; 2398.175;  223.925;    0.000
330.240; 2522.175;  199.925;    0.000
330.299; 2279.175;  211.925;    0.000
330.358; 1805.175;  198.925;    0.000
330.417; 1624.175;  190.925;    0.000
330.476; 1512.175;  237.925;    0.000
330.535; 1362.175;  239.925;    0.000
330.594; 1334.175;  207.925;    0.000
330.653; 1315.175;  193.925;    0.000
330.712; 1321.175;  225.925;    0.000
330.771; 1303.175;  236.925;    0.000
330.830; 1204.175;  219.925;    0.000
330.889; 1212.175;  211.925;    0.000
330.948; 1242.175;  194.925;    0.000
331.006; 1193.175;  190.925;    0.000
331.065; 1162.175;  192.925;    0.000
331.124; 1241.175;  195.925;    0.000
331.183; 1223.175;  191.925;    0.000
331.242; 1246.175;  203.925;    0.000
331.301; 1195.175;  183.925;    0.000
331.359; 1222.175;  196.925;    0.000
331.418; 1217.175;  209.925;    0.000
331.477; 1218.175;  255.925;    0.000
331.536; 1194.175;  237.925;    0.000
331.595; 1152.175;  217.925;    0.000
331.653; 1170.175;  198.925;    0.000
331.712; 1179.175;  194.925;    0.000
331.771; 1206.175;  229.925;    0.000
331.830; 1174.175;  254.925;    0.000
331.888; 1107.175;  218.925;    0.000
331.947; 1182.175;  211.925;    0.000
332.006; 1150.175;  261.925;    0.000
332.065; 1124.175;  204.925;    0.000
332.123; 1210.175;  225.925;    0.000
332.182; 1192.175;  193.925;    0.000
332.241; 1188.175;  201.925;    0.000
332.299; 1160.175;  182.925;    0.000
332.358; 1223.175;  244.925;    0.000
332.417; 1174.175;  218.925;    0.000
332.475; 1195.175;  218.925;    0.000
332.534; 1181.175;  228.925;    0.000
332.592; 1103.175;  199.925;    0.000
332.651; 1180.175;  204.925;    0.000
332.710; 1222.175;  217.925;    0.000
332.768; 1208.175;  195.925;    0.000
332.827; 1169.175;  182.925;    0.000
332.885; 1172.175;  247.925;    0.000
332.944; 1217.175;  170.925;    0.000
333.003; 1248.175;  200.925;    0.000
333.061; 1235.175;  243.925;    0.000
333.120; 1225.175;  235.925;    0.000
333.178; 1273.175;  195.925;    0.000
333.237; 1181.175;  217.925;    0.000
333.295; 1313.175;  252.925;    0.000
333.354; 1258.175;  201.925;    0.000
333.412; 1241.175;  181.925;    0.000
333.471; 1267.175;  239.925;    0.000
333.529; 1261.175;  214.925;    0.000
333.588; 1275.175;  232.925;    0.000
333.646; 1246.175;  202.925;    0.000
333.705; 1243.175;  232.925;    0.000
333.763; 1270.175;  215.925;    0.000
333.822; 1235.175;  187.925;    0.000
333.880; 1208.175;  186.925;    0.000
333.938; 1254.175;  185.925;    0.000
333.997; 1210.175;  234.925;    0.000
334.055; 1222.175;  255.925;    0.000
334.114; 1300.175;  225.925;    0.000
334.172; 1139.175;  209.925;    0.000
334.230; 1188.175;  194.925;    0.000
334.289; 1220.175;  213.925;    0.000
334.347; 1206.175;  235.925;    0.000
334.405; 1245.175;  242.925;    0.000
334.464; 1200.175;  208.925;    0.000
334.522; 1179.175;  197.925;    0.000
334.580; 1233.175;  204.925;    0.000
334.639; 1222.175;  217.925;    0.000
334.697; 1113.175;  183.925;    0.000
334.755; 1223.175;  196.925;    0.000
334.814; 1166.175;  216.925;    0.000
334.872; 1223.175;  190.925;    0.000
334.930; 1220.175;  162.925;    0.000
334.988; 1211.175;  261.925;    0.000
335.047; 1212.175;  220.925;    0.000
335.105; 1208.175;  190.925;    0.000
335.163; 1242.175;  201.925;    0.000
335.221; 1185.175;  213.925;    0.000
335.280; 1136.175;  202.925;    0.000
335.338; 1263.175;  210.925;    0.000
335.396; 1191.175;  255.925;    0.000
335.454; 1212.175;  216.925;    0.000
335.512; 1191.175;  242.925;    0.000
335.570; 1217.175;  227.925;    0.000
335.629; 1168.175;  225.925;    0.000
335.687; 1236.175;  227.925;    0.000
335.745; 1177.175;  194.925;    0.000
335.803; 1212.175;  221.925;    0.000
335.861; 1277.175;  217.925;    0.000
335.919; 1207.175;  214.925;    0.000
335.977; 1191.175;  209.925;    0.000
336.035; 1239.175;  215.925;    0.000
336.094; 1153.175;  198.925;    0.000
336.152; 1203.175;  222.925;    0.000
336.210; 1214.175;  225.925;    0.000
336.268; 1244.175;  234.925;    0.000
336.326; 1266.175;  209.925;    0.000
336.384; 1233.175;  271.925;    0.000
336.442; 1216.175;  207.925;    0.000
336.500; 1184.175;  226.925;    0.000
336.558; 1249.175;  219.925;    0.000
336.616; 1248.175;  260.925;    0.000
336.674; 1195.175;  205.925;    0.000
336.732; 1189.175;  225.925;    0.000
336.790; 1165.175;  191.925;    0.000
336.848; 1299.175;  219.925;    0.000
336.906; 1229.175;  230.925;    0.000
336.964; 1206.175;  226.925;    0.000
337.022; 1233.175;  266.925;    0.000
337.080; 1273.175;  231.925;    0.000
337.138; 1264.175;  249.925;    0.000
337.195; 1183.175;  207.925;    0.000
337.253; 1170.175;  207.925;    0.000
337.311; 1255.175;  225.925;    0.000
337.369; 1243.175;  211.925;    0.000
337.427; 1145.175;  196.925;    0.000
337.485; 1252.175;  269.925;    0.000
337.543; 1216.175;  227.925;    0.000
337.601; 1276.175;  260.925;    0.000
337.658; 1174.175;  237.925;    0.000
337.716; 1165.175;  222.925;    0.000
337.774; 1203.175;  256.925;    0.000
337.832; 1169.175;  223.925;    0.000
337.890; 1069.175;  188.925;    0.000
337.947; 1186.175;  212.925;    0.000
338.005; 1189.175;  217.925;    0.000
338.063; 1136.175;  200.925;    0.000
338.121; 1237.175;  217.925;    0.000
338.178; 1177.175;  236.925;    0.000
338.236; 1206.175;  218.925;    0.000
338.294; 1235.175;  238.925;    0.000
338.352; 1229.175;  266.925;    0.000
338.409; 1151.175;  240.925;    0.000
338.467; 1119.175;  210.925;    0.000
338.525; 1186.175;  255.925;    0.000
338.583; 1218.175;  239.925;    0.000
338.640; 1125.175;  243.925;    0.000
338.698; 1138.175;  204.925;    0.000
338.756; 1218.175;  219.925;    0.000
338.813; 1162.175;  227.925;    0.000
338.871; 1164.175;  227.925;    0.000
338.928; 1215.175;  211.925;    0.000
338.986; 1148.175;  254.925;    0.000
339.044; 1210.175;  207.925;    0.000
339.101; 1086.175;  229.925;    0.000
339.159; 1225.175;  237.925;    0.000
339.216; 1120.175;  231.925;    0.000
339.274; 1165.175;  301.925;    0.000
339.332; 1140.175;  259.925;    0.000
339.389; 1138.175;  258.925;    0.000
339.447; 1189.175;  226.925;    0.000
339.504; 1267.175;  229.925;    0.000
339.562; 1195.175;  244.925;    0.000
339.619; 1213.175;  265.925;    0.000
339.677; 1292.175;  253.925;    0.000
339.734; 1129.175;  191.925;    0.000
339.792; 1194.175;  238.925;    0.000
339.849; 1152.175;  236.925;    0.000
339.907; 1227.175;  254.925;    0.000
339.964; 1157.175;  196.925;    0.000
340.022; 1157.175;  247.925;    0.000
340.079; 1230.175;  275.925;    0.000
340.137; 1103.175;  248.925;    0.000
340.194; 1168.175;  263.925;    0.000
340.252; 1139.175;  266.925;    0.000
340.309; 1187.175;  211.925;    0.000
340.366; 1160.175;  237.925;    0.000
340.424; 1172.175;  260.925;    0.000
340.481; 1187.175;  255.925;    0.000
340.538; 1154.175;  235.925;    0.000
340.596; 1132.175;  225.925;    0.000
340.653; 1203.175;  230.925;    0.000
340.711; 1177.175;  272.925;    0.000
340.768; 1242.175;  253.925;    0.000
340.825; 1136.175;  201.925;    0.000
340.883; 1181.175;  232.925;    0.000
340.940; 1222.175;  247.925;    0.000
340.997; 1119.175;  244.925;    0.000
341.054; 1138.175;  244.925;    0.000
341.112; 1169.175;  258.925;    0.000
341.169; 1159.175;  238.925;    0.000
341.226; 1146.175;  213.925;    0.000
341.284; 1132.175;  240.925;    0.000
341.341; 1148.175;  194.925;    0.000
341.398; 1063.175;  191.925;    0.000
341.455; 1156.175;  227.925;    0.000
341.512; 1192.175;  238.925;    0.000
341.570; 1145.175;  236.925;    0.000
341.627; 1177.175;  241.925;    0.000
341.684; 1114.175;  225.925;    0.000
341.741; 1165.175;  299.925;    0.000
341.798; 1175.175;  265.925;    0.000
341.856; 1165.175;  230.925;    0.000
341.913; 1225.175;  234.925;    0.000
341.970; 1114.175;  260.925;    0.000
342.027; 1171.175;  255.925;    0.000
342.084; 1166.175;  260.925;    0.000
342.141; 1217.175;  263.925;    0.000
342.198; 1197.175;  245.925;    0.000
342.255; 1206.175;  210.925;    0.000
342.313; 1106.175;  251.925;    0.000
342.370; 1214.175;  234.925;    0.000
342.427; 1257.175;  249.925;    0.000
342.484; 1137.175;  254.925;    0.000
342.541; 1188.175;  229.925;    0.000
342.598; 1186.175;  255.925;    0.000
342.655; 1184.175;  225.925;    0.000
342.712; 1145.175;  224.925;    0.000
342.769; 1153.175;  215.925;    0.000
342.826; 1155.175;  240.925;    0.000
342.883; 1224.175;  233.925;    0.000
342.940; 1183.175;  212.925;    0.000
342.997; 1161.175;  236.925;    0.000
343.054; 1131.175;  255.925;    0.000
343.111; 1154.175;  228.925;    0.000
343.168; 1245.175;  230.925;    0.000
343.225; 1184.175;  258.925;    0.000
343.282; 1195.175;  202.925;    0.000
343.339; 1098.175;  253.925;    0.000
343.395; 1226.175;  232.925;    0.000
343.452; 1243.175;  253.925;    0.000
343.509; 1169.175;  213.925;    0.000
343.566; 1230.175;  259.925;    0.000
343.623; 1218.175;  244.925;    0.000
343.680; 1202.175;  232.925;    0.000
343.737; 1238.175;  222.925;    0.000
343.794; 1231.175;  204.925;    0.000
343.850; 1254.175;  249.925;    0.000
343.907; 1264.175;  212.925;    0.000
343.964; 1208.175;  226.925;    0.000
344.021; 1190.175;  251.925;    0.000
344.078; 1298.175;  246.925;    0.000
344.134; 1272.175;  218.925;    0.000
344.191; 1291.175;  244.925;    0.000
344.248; 1251.175;  211.925;    0.000
344.305; 1310.175;  221.925;    0.000
344.361; 1288.175;  247.925;    0.000
344.418; 1249.175;  265.925;    0.000
344.475; 1218.175;  254.925;    0.000
344.532; 1364.175;  233.925;    0.000
344.588; 1246.175;  236.925;    0.000
344.645; 1239.175;  249.925;    0.000
344.702; 1193.175;  220.925;    0.000
344.758; 1234.175;  255.925;    0.000
344.815; 1205.175;  236.925;    0.000
344.872; 1204.175;  218.925;    0.000
344.928; 1310.175;  230.925;    0.000
344.985; 1305.175;  222.925;    0.000
345.042; 1292.175;  199.925;    0.000
345.098; 1245.175;  226.925;    0.000
345.155; 1283.175;  245.925;    0.000
345.212; 1278.175;  225.925;    0.000
345.268; 1317.175;  237.925;    0.000
345.325; 1335.175;  213.925;    0.000
345.381; 1269.175;  267.925;    0.000
345.438; 1344.175;  240.925;    0.000
345.495; 1260.175;  254.925;    0.000
345.551; 1271.175;  248.925;    0.000
345.608; 1210.175;  196.925;    0.000
345.664; 1235.175;  245.925;    0.000
345.721; 1317.175;  252.925;    0.000
345.777; 1177.175;  245.925;    0.000
345.834; 1202.175;  210.925;    0.000
345.890; 1220.175;  244.925;    0.000
345.947; 1276.175;  238.925;    0.000
346.003; 1225.175;  224.925;    0.000
346.060; 1231.175;  206.925;    0.000
346.116; 1260.175;  237.925;    0.000
346.173; 1217.175;  242.925;    0.000
346.229; 1281.175;  269.925;    0.000
346.285; 1281.175;  262.925;    0.000
346.342; 1310.175;  263.925;    0.000
346.398; 1259.175;  224.925;    0.000
346.455; 1307.175;  237.925;    0.000
346.511; 1293.175;  216.925;    0.000
346.567; 1257.175;  211.925;    0.000
346.624; 1226.175;  225.925;    0.000
346.680; 1256.175;  242.925;    0.000
346.737; 1254.175;  244.925;    0.000
346.793; 1331.175;  260.925;    0.000
346.849; 1243.175;  251.925;    0.000
346.906; 1246.175;  260.925;    0.000
346.962; 1327.175;  267.925;    0.000
347.018; 1314.175;  246.925;    0.000
347.074; 1304.175;  272.925;    0.000
347.131; 1272.175;  211.925;    0.000
347.187; 1236.175;  240.925;    0.000
347.243; 1310.175;  233.925;    0.000
347.300; 1294.175;  225.925;    0.000
347.356; 1325.175;  236.925;    0.000
347.412; 1309.175;  237.925;    0.000
347.468; 1259.175;  284.925;    0.000
347.524; 1304.175;  252.925;    0.000
347.581; 1278.175;  278.925;    0.000
347.637; 1315.175;  262.925;    0.000
347.693; 1311.175;  268.925;    0.000
347.749; 1258.175;  260.925;    0.000
347.805; 1203.175;  224.925;    0.000
347.862; 1296.175;  243.925;    0.000
347.918; 1224.175;  257.925;    0.000
347.974; 1298.175;  248.925;    0.000
348.030; 1296.175;  242.925;    0.000
348.086; 1242.175;  234.925;    0.000
348.142; 1293.175;  239.925;    0.000
348.198; 1249.175;  260.925;    0.000
348.254; 1244.175;  262.925;    0.000
348.311; 1267.175;  263.925;    0.000
348.367; 1274.175;  235.925;    0.000
348.423; 1307.175;  205.925;    0.000
348.479; 1299.175;  234.925;    0.000
348.535; 1303.175;  257.925;    0.000
348.591; 1224.175;  267.925;    0.000
348.647; 1250.175;  243.925;    0.000
348.703; 1280.175;  278.925;    0.000
348.759; 1308.175;  259.925;    0.000
348.815; 1334.175;  288.925;    0.000
348.871; 1253.175;  269.925;    0.000
348.927; 1266.175;  239.925;    0.000
348.983; 1369.175;  289.925;    0.000
349.039; 1245.175;  221.925;    0.000
349.095; 1274.175;  252.925;    0.000
349.151; 1235.175;  226.925;    0.000
349.207; 1376.175;  263.925;    0.000
349.263; 1357.175;  194.925;    0.000
349.319; 1323.175;  212.925;    0.000
349.374; 1326.175;  236.925;    0.000
349.430; 1308.175;  229.925;    0.000
349.486; 1371.175;  247.925;    0.000
349.542; 1291.175;  263.925;    0.000
349.598; 1298.175;  248.925;    0.000
349.654; 1314.175;  252.925;    0.000
349.710; 1329.175;  230.925;    0.000
349.766; 1272.175;  201.925;    0.000
349.821; 1282.175;  229.925;    0.000
349.877; 1344.175;  282.925;    0.000
349.933; 1342.175;  240.925;    0.000
349.989; 1361.175;  251.925;    0.000
350.045; 1353.175;  240.925;    0.000
350.100; 1260.175;  256.925;    0.000
350.156; 1315.175;  243.925;    0.000
350.212; 1254.175;  250.925;    0.000
350.268; 1269.175;  251.925;    0.000
350.323; 1313.175;  208.925;    0.000
350.379; 1283.175;  244.925;    0.000
350.435; 1276.175;  237.925;    0.000
350.491; 1270.175;  201.925;    0.000
350.546; 1309.175;  225.925;    0.000
350.602; 1339.175;  260.925;    0.000
350.658; 1376.175;  224.925;    0.000
350.713; 1269.175;  264.925;    0.000
350.769; 1292.175;  196.925;    0.000
350.825; 1227.175;  202.925;    0.000
350.880; 1276.175;  232.925;    0.000
350.936; 1347.175;  242.925;    0.000
350.992; 1255.175;  238.925;    0.000
351.047; 1301.175;  242.925;    0.000
351.103; 1232.175;  199.925;    0.000
351.158; 1311.175;  242.925;    0.000
351.214; 1362.175;  225.925;    0.000
351.270; 1264.175;  197.925;    0.000
351.325; 1331.175;  231.925;    0.000
351.381; 1279.175;  215.925;    0.000
351.436; 1318.175;  233.925;    0.000
351.492; 1296.175;  216.925;    0.000
351.547; 1327.175;  244.925;    0.000
351.603; 1284.175;  249.925;    0.000
351.658; 1172.175;  249.925;    0.000
351.714; 1298.175;  222.925;    0.000
351.769; 1371.175;  222.925;    0.000
351.825; 1238.175;  226.925;    0.000
351.880; 1247.175;  238.925;    0.000
351.936; 1249.175;  230.925;    0.000
351.991; 1334.175;  243.925;    0.000
352.047; 1186.175;  201.925;    0.000
352.102; 1260.175;  243.925;    0.000
352.158; 1350.175;  193.925;    0.000
352.213; 1241.175;  219.925;    0.000
352.268; 1296.175;  205.925;    0.000
352.324; 1262.175;  246.925;    0.000
352.379; 1285.175;  247.925;    0.000
352.434; 1318.175;  252.925;    0.000
352.490; 1289.175;  205.925;    0.000
352.545; 1333.175;  262.925;    0.000
352.601; 1288.175;  229.925;    0.000
352.656; 1363.175;  207.925;    0.000
352.711; 1346.175;  228.925;    0.000
352.767; 1217.175;  216.925;    0.000
352.822; 1331.175;  219.925;    0.000
352.877; 1313.175;  234.925;    0.000
352.932; 1340.175;  249.925;    0.000
352.988; 1298.175;  196.925;    0.000
353.043; 1355.175;  228.925;    0.000
353.098; 1280.175;  231.925;    0.000
353.153; 1315.175;  235.925;    0.000
353.209; 1257.175;  250.925;    0.000
353.264; 1364.175;  212.925;    0.000
353.319; 1272.175;  234.925;    0.000
353.374; 1285.175;  245.925;    0.000
353.430; 1414.175;  261.925;    0.000
353.485; 1405.175;  249.925;    0.000
353.540; 1389.175;  260.925;    0.000
353.595; 1317.175;  219.925;    0.000
353.650; 1303.175;  242.925;    0.000
353.705; 1370.175;  244.925;    0.000
353.761; 1261.175;  242.925;    0.000
353.816; 1311.175;  214.925;    0.000
353.871; 1343.175;  237.925;    0.000
353.926; 1362.175;  233.925;    0.000
353.981; 1368.175;  250.925;    0.000
354.036; 1333.175;  239.925;    0.000
354.091; 1254.175;  289.925;    0.000
354.146; 1356.175;  282.925;    0.000
354.201; 1368.175;  244.925;    0.000
354.256; 1291.175;  257.925;    0.000
354.311; 1385.175;  305.925;    0.000
354.367; 1392.175;  220.925;    0.000
354.422; 1299.175;  261.925;    0.000
354.477; 1345.175;  212.925;    0.000
354.532; 1370.175;  254.925;    0.000
354.587; 1277.175;  252.925;    0.000
354.642; 1311.175;  210.925;    0.000
354.697; 1312.175;  232.925;    0.000
354.751; 1373.175;  254.925;    0.000
354.806; 1358.175;  233.925;    0.000
354.861; 1355.175;  244.925;    0.000
354.916; 1354.175;  235.925;    0.000
354.971; 1289.175;  258.925;    0.000
355.026; 1365.175;  251.925;    0.000
355.081; 1420.175;  254.925;    0.000
355.136; 1306.175;  212.925;    0.000
355.191; 1378.175;  211.925;    0.000
355.246; 1303.175;  237.925;    0.000
355.301; 1345.175;  255.925;    0.000
355.355; 1413.175;  231.925;    0.000
355.410; 1332.175;  224.925;    0.000
355.465; 1316.175;  235.925;    0.000
355.520; 1284.175;  244.925;    0.000
355.575; 1345.175;  267.925;    0.000
355.630; 1397.175;  255.925;    0.000
355.684; 1317.175;  254.925;    0.000
355.739; 1327.175;  217.925;    0.000
355.794; 1315.175;  206.925;    0.000
355.849; 1279.175;  221.925;    0.000
355.904; 1287.175;  257.925;    0.000
355.958; 1273.175;  221.925;    0.000
356.013; 1308.175;  192.925;    0.000
356.068; 1382.175;  267.925;    0.000
356.123; 1322.175;  218.925;    0.000
356.177; 1346.175;  236.925;    0.000
356.232; 1327.175;  236.925;    0.000
356.287; 1387.175;  246.925;    0.000
356.341; 1406.175;  241.925;    0.000
356.396; 1306.175;  219.925;    0.000
356.451; 1346.175;  244.925;    0.000
356.505; 1230.175;  248.925;    0.000
356.560; 1338.175;  267.925;    0.000
356.615; 1242.175;  258.925;    0.000
356.669; 1372.175;  291.925;    0.000
356.724; 1420.175;  272.925;    0.000
356.778; 1264.175;  244.925;    0.000
356.833; 1332.175;  223.925;    0.000
356.888; 1376.175;  245.925;    0.000
356.942; 1295.175;  221.925;    0.000
356.997; 1335.175;  254.925;    0.000
357.051; 1319.175;  244.925;    0.000
357.106; 1341.175;  227.925;    0.000
357.160; 1319.175;  176.925;    0.000
357.215; 1346.175;  234.925;    0.000
357.269; 1400.175;  233.925;    0.000
357.324; 1334.175;  232.925;    0.000
357.378; 1295.175;  211.925;    0.000
357.433; 1264.175;  252.925;    0.000
357.487; 1432.175;  227.925;    0.000
357.542; 1377.175;  246.925;    0.000
357.596; 1340.175;  260.925;    0.000
357.651; 1404.175;  301.925;    0.000
357.705; 1325.175;  230.925;    0.000
357.760; 1413.175;  211.925;    0.000
357.814; 1453.175;  265.925;    0.000
357.868; 1407.175;  220.925;    0.000
357.923; 1347.175;  220.925;    0.000
357.977; 1343.175;  245.925;    0.000
358.032; 1273.175;  247.925;    0.000
358.086; 1325.175;  242.925;    0.000
358.140; 1390.175;  270.925;    0.000
358.195; 1410.175;  242.925;    0.000
358.249; 1290.175;  238.925;    0.000
358.303; 1371.175;  285.925;    0.000
358.358; 1301.175;  265.925;    0.000
358.412; 1372.175;  265.925;    0.000
358.466; 1356.175;  257.925;    0.000
358.521; 1328.175;  251.925;    0.000
358.575; 1344.175;  254.925;    0.000
358.629; 1217.175;  278.925;    0.000
358.683; 1323.175;  288.925;    0.000
358.738; 1367.175;  302.925;    0.000
358.792; 1309.175;  239.925;    0.000
358.846; 1369.175;  293.925;    0.000
358.900; 1329.175;  271.925;    0.000
358.954; 1288.175;  300.925;    0.000
359.009; 1268.175;  279.925;    0.000
359.063; 1307.175;  249.925;    0.000
359.117; 1375.175;  264.925;    0.000
359.171; 1399.175;  279.925;    0.000
359.225; 1371.175;  276.925;    0.000
359.280; 1351.175;  237.925;    0.000
359.334; 1300.175;  280.925;    0.000
359.388; 1278.175;  282.925;    0.000
359.442; 1418.175;  243.925;    0.000
359.496; 1288.175;  204.925;    0.000
359.550; 1306.175;  308.925;    0.000
359.604; 1407.175;  264.925;    0.000
359.658; 1410.175;  247.925;    0.000
359.712; 1396.175;  273.925;    0.000
359.766; 1225.175;  212.925;    0.000
359.820; 1292.175;  228.925;    0.000
359.875; 1370.175;  248.925;    0.000
359.929; 1418.175;  271.925;    0.000
359.983; 1261.175;  274.925;    0.000
360.037; 1363.175;  262.925;    0.000
360.091; 1323.175;  302.925;    0.000
360.145; 1296.175;  244.925;    0.000
360.199; 1312.175;  253.925;    0.000
360.253; 1363.175;  285.925;    0.000
360.306; 1290.175;  287.925;    0.000
360.360; 1346.175;  267.925;    0.000
360.414; 1349.175;  250.925;    0.000
360.468; 1417.175;  270.925;    0.000
360.522; 1350.175;  276.925;    0.000
360.576; 1364.175;  269.925;    0.000
360.630; 1392.175;  281.925;    0.000
360.684; 1445.175;  291.925;    0.000
360.738; 1397.175;  325.925;    0.000
360.792; 1352.175;  320.925;    0.000
360.846; 1355.175;  276.925;    0.000
360.899; 1363.175;  314.925;    0.000
360.953; 1411.175;  275.925;    0.000
361.007; 1387.175;  292.925;    0.000
361.061; 1279.175;  278.925;    0.000
361.115; 1294.175;  264.925;    0.000
361.168; 1396.175;  317.925;    0.000
361.222; 1356.175;  277.925;    0.000
361.276; 1340.175;  274.925;    0.000
361.330; 1392.175;  269.925;    0.000
361.384; 1330.175;  280.925;    0.000
361.437; 1345.175;  304.925;    0.000
361.491; 1351.175;  256.925;    0.000
361.545; 1379.175;  293.925;    0.000
361.599; 1387.175;  284.925;    0.000
361.652; 1390.175;  274.925;    0.000
361.706; 1321.175;  284.925;    0.000
361.760; 1312.175;  260.925;    0.000
361.813; 1328.175;  272.925;    0.000
361.867; 1402.175;  300.925;    0.000
361.921; 1288.175;  275.925;    0.000
361.974; 1333.175;  258.925;    0.000
362.028; 1311.175;  248.925;    0.000
362.082; 1343.175;  252.925;    0.000
362.135; 1266.175;  240.925;    0.000
362.189; 1329.175;  259.925;    0.000
362.242; 1357.175;  267.925;    0.000
362.296; 1400.175;  280.925;    0.000
362.350; 1366.175;  282.925;    0.000
362.403; 1326.175;  288.925;    0.000
362.457; 1335.175;  253.925;    0.000
362.510; 1313.175;  323.925;    0.000
362.564; 1307.175;  286.925;    0.000
362.617; 1356.175;  317.925;    0.000
362.671; 1338.175;  286.925;    0.000
362.724; 1352.175;  274.925;    0.000
362.778; 1395.175;  295.925;    0.000
362.831; 1360.175;  289.925;    0.000
362.885; 1319.175;  318.925;    0.000
362.938; 1350.175;  271.925;    0.000
362.992;  303.175;  285.925;    0.000
363.045;  314.175;  291.925;    0.000
363.099;  297.175;  276.925;    0.000
363.152;  296.175;  309.925;    0.000
363.205;  304.175;  263.925;    0.000
363.259;  270.175;  288.925;    0.000
363.312;  274.175;  333.925;    0.000
363.366;  315.175;  328.925;    0.000
363.419;  323.175;  328.925;    0.000
363.472;  323.175;  295.925;    0.000
363.526;  306.175;  334.925;    0.000
363.579;  302.175;  312.925;    0.000
363.632;  294.175;  274.925;    0.000
363.686;  270.175;  282.925;    0.000
363.739;  276.175;  289.925;    0.000
363.792;  322.175;  287.925;    0.000

