
Integration time [ms]:   0.300
Averaging Nr. [scans]: 1
Smoothing Nr. [pixels]: 0
Data measured with spectrometer [name]: UV1
Wave   ;Sample   ;Dark     ;Reference
[nm]   ;[counts] ;[counts] ;[counts] 

236.381;  149.125;  149.925;    0.000
236.451;  203.125;  206.925;    0.000
236.520;  182.125;  212.925;    0.000
236.590;  213.125;  189.925;    0.000
236.660;  190.125;  184.925;    0.000
236.730;  183.125;  186.925;    0.000
236.799;  196.125;  191.925;    0.000
236.869;  184.125;  184.925;    0.000
236.939;  195.125;  176.925;    0.000
237.009;  196.125;  184.925;    0.000
237.078;  206.125;  189.925;    0.000
237.148;  183.125;  217.925;    0.000
237.218;  173.125;  192.925;    0.000
237.287;  172.125;  182.925;    0.000
237.357;  183.125;  196.925;    0.000
237.427;  156.125;  144.925;    0.000
237.496;  234.125;  224.925;    0.000
237.566;  189.125;  210.925;    0.000
237.636;  161.125;  165.925;    0.000
237.705;  182.125;  214.925;    0.000
237.775;  177.125;  194.925;    0.000
237.845;  198.125;  214.925;    0.000
237.914;  155.125;  191.925;    0.000
237.984;  211.125;  218.925;    0.000
238.054;  176.125;  187.925;    0.000
238.123;  201.125;  179.925;    0.000
238.193;  196.125;  177.925;    0.000
238.263;  220.125;  225.925;    0.000
238.332;  168.125;  197.925;    0.000
238.402;  207.125;  183.925;    0.000
238.471;  161.125;  181.925;    0.000
238.541;  145.125;  200.925;    0.000
238.611;  147.125;  170.925;    0.000
238.680;  161.125;  170.925;    0.000
238.750;  176.125;  175.925;    0.000
238.819;  199.125;  180.925;    0.000
238.889;  173.125;  190.925;    0.000
238.958;  168.125;  207.925;    0.000
239.028;  191.125;  201.925;    0.000
239.097;  167.125;  181.925;    0.000
239.167;  208.125;  222.925;    0.000
239.237;  217.125;  221.925;    0.000
239.306;  161.125;  147.925;    0.000
239.376;  202.125;  188.925;    0.000
239.445;  192.125;  198.925;    0.000
239.515;  167.125;  191.925;    0.000
239.584;  179.125;  178.925;    0.000
239.654;  143.125;  147.925;    0.000
239.723;  190.125;  212.925;    0.000
239.793;  165.125;  185.925;    0.000
239.862;  172.125;  157.925;    0.000
239.932;  166.125;  181.925;    0.000
240.001;  200.125;  163.925;    0.000
240.070;  184.125;  194.925;    0.000
240.140;  181.125;  202.925;    0.000
240.209;  149.125;  180.925;    0.000
240.279;  148.125;  188.925;    0.000
240.348;  189.125;  189.925;    0.000
240.418;  161.125;  143.925;    0.000
240.487;  189.125;  195.925;    0.000
240.556;  197.125;  170.925;    0.000
240.626;  199.125;  172.925;    0.000
240.695;  181.125;  202.925;    0.000
240.765;  191.125;  191.925;    0.000
240.834;  187.125;  177.925;    0.000
240.903;  183.125;  189.925;    0.000
240.973;  180.125;  196.925;    0.000
241.042;  171.125;  183.925;    0.000
241.112;  184.125;  189.925;    0.000
241.181;  170.125;  186.925;    0.000
241.250;  128.125;  168.925;    0.000
241.320;  191.125;  200.925;    0.000
241.389;  182.125;  185.925;    0.000
241.458;  213.125;  194.925;    0.000
241.528;  188.125;  165.925;    0.000
241.597;  169.125;  200.925;    0.000
241.666;  190.125;  184.925;    0.000
241.736;  200.125;  176.925;    0.000
241.805;  141.125;  165.925;    0.000
241.874;  189.125;  200.925;    0.000
241.943;  161.125;  184.925;    0.000
242.013;  180.125;  212.925;    0.000
242.082;  165.125;  200.925;    0.000
242.151;  183.125;  196.925;    0.000
242.221;  189.125;  182.925;    0.000
242.290;  183.125;  222.925;    0.000
242.359;  149.125;  142.925;    0.000
242.428;  191.125;  180.925;    0.000
242.498;  150.125;  180.925;    0.000
242.567;  221.125;  181.925;    0.000
242.636;  154.125;  203.925;    0.000
242.705;  215.125;  209.925;    0.000
242.774;  162.125;  172.925;    0.000
242.844;  194.125;  218.925;    0.000
242.913;  173.125;  188.925;    0.000
242.982;  160.125;  193.925;    0.000
243.051;  186.125;  202.925;    0.000
243.120;  198.125;  174.925;    0.000
243.190;  174.125;  165.925;    0.000
243.259;  213.125;  206.925;    0.000
243.328;  161.125;  166.925;    0.000
243.397;  170.125;  167.925;    0.000
243.466;  160.125;  163.925;    0.000
243.535;  152.125;  162.925;    0.000
243.605;  153.125;  159.925;    0.000
243.674;  187.125;  171.925;    0.000
243.743;  212.125;  189.925;    0.000
243.812;  151.125;  169.925;    0.000
243.881;  159.125;  145.925;    0.000
243.950;  163.125;  197.925;    0.000
244.019;  180.125;  189.925;    0.000
244.088;  189.125;  200.925;    0.000
244.158;  188.125;  208.925;    0.000
244.227;  188.125;  154.925;    0.000
244.296;  166.125;  142.925;    0.000
244.365;  221.125;  198.925;    0.000
244.434;  115.125;  162.925;    0.000
244.503;  143.125;  186.925;    0.000
244.572;  125.125;  143.925;    0.000
244.641;  166.125;  145.925;    0.000
244.710;  187.125;  159.925;    0.000
244.779;  210.125;  175.925;    0.000
244.848;  122.125;  163.925;    0.000
244.917;  185.125;  157.925;    0.000
244.986;  148.125;  166.925;    0.000
245.055;  200.125;  211.925;    0.000
245.124;  170.125;  155.925;    0.000
245.193;  194.125;  187.925;    0.000
245.262;  189.125;  152.925;    0.000
245.331;  179.125;  177.925;    0.000
245.400;  145.125;  157.925;    0.000
245.469;  150.125;  195.925;    0.000
245.538;  174.125;  199.925;    0.000
245.607;  187.125;  194.925;    0.000
245.676;  170.125;  170.925;    0.000
245.745;  177.125;  208.925;    0.000
245.814;  162.125;  185.925;    0.000
245.883;  196.125;  165.925;    0.000
245.952;  166.125;  151.925;    0.000
246.021;  188.125;  171.925;    0.000
246.090;  189.125;  174.925;    0.000
246.159;  192.125;  192.925;    0.000
246.227;  137.125;  178.925;    0.000
246.296;  178.125;  159.925;    0.000
246.365;  193.125;  189.925;    0.000
246.434;  207.125;  205.925;    0.000
246.503;  163.125;  174.925;    0.000
246.572;  235.125;  203.925;    0.000
246.641;  206.125;  169.925;    0.000
246.710;  183.125;  186.925;    0.000
246.779;  192.125;  196.925;    0.000
246.847;  168.125;  209.925;    0.000
246.916;  162.125;  177.925;    0.000
246.985;  166.125;  188.925;    0.000
247.054;  128.125;  189.925;    0.000
247.123;  175.125;  196.925;    0.000
247.192;  169.125;  210.925;    0.000
247.260;  166.125;  164.925;    0.000
247.329;  188.125;  204.925;    0.000
247.398;  163.125;  204.925;    0.000
247.467;  166.125;  160.925;    0.000
247.536;  199.125;  193.925;    0.000
247.604;  184.125;  208.925;    0.000
247.673;  167.125;  168.925;    0.000
247.742;  180.125;  182.925;    0.000
247.811;  226.125;  186.925;    0.000
247.879;  176.125;  166.925;    0.000
247.948;  159.125;  192.925;    0.000
248.017;  192.125;  178.925;    0.000
248.086;  203.125;  193.925;    0.000
248.154;  184.125;  191.925;    0.000
248.223;  197.125;  207.925;    0.000
248.292;  150.125;  168.925;    0.000
248.361;  191.125;  211.925;    0.000
248.429;  168.125;  196.925;    0.000
248.498;  147.125;  163.925;    0.000
248.567;  221.125;  159.925;    0.000
248.635;  200.125;  194.925;    0.000
248.704;  182.125;  205.925;    0.000
248.773;  199.125;  190.925;    0.000
248.841;  166.125;  179.925;    0.000
248.910;  187.125;  193.925;    0.000
248.979;  189.125;  167.925;    0.000
249.047;  154.125;  166.925;    0.000
249.116;  178.125;  191.925;    0.000
249.185;  200.125;  203.925;    0.000
249.253;  162.125;  140.925;    0.000
249.322;  187.125;  173.925;    0.000
249.390;  170.125;  165.925;    0.000
249.459;  186.125;  173.925;    0.000
249.528;  179.125;  203.925;    0.000
249.596;  190.125;  204.925;    0.000
249.665;  194.125;  176.925;    0.000
249.733;  172.125;  178.925;    0.000
249.802;  160.125;  190.925;    0.000
249.871;  170.125;  171.925;    0.000
249.939;  180.125;  160.925;    0.000
250.008;  192.125;  220.925;    0.000
250.076;  191.125;  211.925;    0.000
250.145;  209.125;  145.925;    0.000
250.213;  176.125;  177.925;    0.000
250.282;  175.125;  186.925;    0.000
250.350;  167.125;  170.925;    0.000
250.419;  160.125;  195.925;    0.000
250.487;  215.125;  194.925;    0.000
250.556;  205.125;  178.925;    0.000
250.624;  200.125;  193.925;    0.000
250.693;  156.125;  167.925;    0.000
250.761;  181.125;  253.925;    0.000
250.830;  196.125;  241.925;    0.000
250.898;  147.125;  161.925;    0.000
250.967;  161.125;  178.925;    0.000
251.035;  205.125;  189.925;    0.000
251.104;  165.125;  166.925;    0.000
251.172;  165.125;  178.925;    0.000
251.241;  162.125;  174.925;    0.000
251.309;  179.125;  197.925;    0.000
251.378;  189.125;  172.925;    0.000
251.446;  165.125;  157.925;    0.000
251.514;  173.125;  197.925;    0.000
251.583;  152.125;  191.925;    0.000
251.651;  172.125;  154.925;    0.000
251.720;  189.125;  198.925;    0.000
251.788;  205.125;  226.925;    0.000
251.856;  163.125;  164.925;    0.000
251.925;  149.125;  181.925;    0.000
251.993;  161.125;  203.925;    0.000
252.062;  171.125;  211.925;    0.000
252.130;  205.125;  185.925;    0.000
252.198;  170.125;  190.925;    0.000
252.267;  161.125;  176.925;    0.000
252.335;  173.125;  179.925;    0.000
252.403;  170.125;  173.925;    0.000
252.472;  169.125;  172.925;    0.000
252.540;  164.125;  187.925;    0.000
252.608;  171.125;  204.925;    0.000
252.677;  149.125;  179.925;    0.000
252.745;  186.125;  192.925;    0.000
252.813;  171.125;  168.925;    0.000
252.881;  133.125;  157.925;    0.000
252.950;  206.125;  188.925;    0.000
253.018;  159.125;  191.925;    0.000
253.086;  148.125;  164.925;    0.000
253.155;  156.125;  172.925;    0.000
253.223;  165.125;  168.925;    0.000
253.291;  192.125;  190.925;    0.000
253.359;  178.125;  205.925;    0.000
253.428;  197.125;  228.925;    0.000
253.496;  173.125;  170.925;    0.000
253.564;  153.125;  164.925;    0.000
253.632;  165.125;  159.925;    0.000
253.700;  170.125;  166.925;    0.000
253.769;  163.125;  172.925;    0.000
253.837;  209.125;  157.925;    0.000
253.905;  161.125;  168.925;    0.000
253.973;  173.125;  179.925;    0.000
254.041;  172.125;  187.925;    0.000
254.110;  192.125;  186.925;    0.000
254.178;  165.125;  156.925;    0.000
254.246;  187.125;  132.925;    0.000
254.314;  149.125;  191.925;    0.000
254.382;  181.125;  189.925;    0.000
254.450;  173.125;  163.925;    0.000
254.518;  189.125;  172.925;    0.000
254.587;  132.125;  162.925;    0.000
254.655;  179.125;  191.925;    0.000
254.723;  163.125;  184.925;    0.000
254.791;  189.125;  169.925;    0.000
254.859;  191.125;  186.925;    0.000
254.927;  229.125;  207.925;    0.000
254.995;  136.125;  143.925;    0.000
255.063;  190.125;  198.925;    0.000
255.131;  161.125;  168.925;    0.000
255.199;  174.125;  183.925;    0.000
255.267;  171.125;  159.925;    0.000
255.336;  185.125;  197.925;    0.000
255.404;  162.125;  177.925;    0.000
255.472;  187.125;  204.925;    0.000
255.540;  168.125;  169.925;    0.000
255.608;  180.125;  141.925;    0.000
255.676;  177.125;  176.925;    0.000
255.744;  162.125;  184.925;    0.000
255.812;  192.125;  158.925;    0.000
255.880;  181.125;  202.925;    0.000
255.948;  135.125;  184.925;    0.000
256.016;  197.125;  192.925;    0.000
256.084;  184.125;  204.925;    0.000
256.152;  175.125;  191.925;    0.000
256.220;  163.125;  187.925;    0.000
256.288;  184.125;  176.925;    0.000
256.356;  153.125;  146.925;    0.000
256.424;  143.125;  164.925;    0.000
256.491;  156.125;  161.925;    0.000
256.559;  192.125;  167.925;    0.000
256.627;  213.125;  180.925;    0.000
256.695;  179.125;  159.925;    0.000
256.763;  204.125;  166.925;    0.000
256.831;  173.125;  166.925;    0.000
256.899;  161.125;  161.925;    0.000
256.967;  145.125;  116.925;    0.000
257.035;  172.125;  195.925;    0.000
257.103;  203.125;  227.925;    0.000
257.171;  151.125;  147.925;    0.000
257.238;  147.125;  158.925;    0.000
257.306;  169.125;  188.925;    0.000
257.374;  165.125;  153.925;    0.000
257.442;  148.125;  159.925;    0.000
257.510;  192.125;  201.925;    0.000
257.578;  132.125;  137.925;    0.000
257.646;  157.125;  172.925;    0.000
257.713;  135.125;  164.925;    0.000
257.781;  157.125;  163.925;    0.000
257.849;  183.125;  174.925;    0.000
257.917;  161.125;  164.925;    0.000
257.985;  117.125;  126.925;    0.000
258.052;  184.125;  158.925;    0.000
258.120;  171.125;  151.925;    0.000
258.188;  162.125;  169.925;    0.000
258.256;  137.125;  110.925;    0.000
258.324;  189.125;  193.925;    0.000
258.391;  163.125;  157.925;    0.000
258.459;  196.125;  193.925;    0.000
258.527;  148.125;  150.925;    0.000
258.595;  175.125;  173.925;    0.000
258.662;  155.125;  168.925;    0.000
258.730;  198.125;  190.925;    0.000
258.798;  123.125;  164.925;    0.000
258.865;  223.125;  165.925;    0.000
258.933;  174.125;  162.925;    0.000
259.001;  140.125;  174.925;    0.000
259.069;  156.125;  139.925;    0.000
259.136;  160.125;  160.925;    0.000
259.204;  166.125;  174.925;    0.000
259.272;  192.125;  161.925;    0.000
259.339;  175.125;  157.925;    0.000
259.407;  167.125;  159.925;    0.000
259.475;  157.125;  134.925;    0.000
259.542;  154.125;  179.925;    0.000
259.610;  151.125;  172.925;    0.000
259.677;  126.125;  152.925;    0.000
259.745;  136.125;  131.925;    0.000
259.813;  195.125;  185.925;    0.000
259.880;  176.125;  183.925;    0.000
259.948;  164.125;  168.925;    0.000
260.016;  136.125;  160.925;    0.000
260.083;  177.125;  163.925;    0.000
260.151;  142.125;  162.925;    0.000
260.218;  147.125;  171.925;    0.000
260.286;  173.125;  154.925;    0.000
260.353;  181.125;  182.925;    0.000
260.421;  133.125;  187.925;    0.000
260.489;  142.125;  185.925;    0.000
260.556;  138.125;  165.925;    0.000
260.624;  179.125;  185.925;    0.000
260.691;  159.125;  175.925;    0.000
260.759;  173.125;  201.925;    0.000
260.826;  134.125;  150.925;    0.000
260.894;  132.125;  142.925;    0.000
260.961;  168.125;  156.925;    0.000
261.029;  168.125;  161.925;    0.000
261.096;  165.125;  172.925;    0.000
261.164;  154.125;  149.925;    0.000
261.231;  179.125;  191.925;    0.000
261.299;  169.125;  182.925;    0.000
261.366;  139.125;  156.925;    0.000
261.434;  197.125;  188.925;    0.000
261.501;  154.125;  170.925;    0.000
261.568;  176.125;  167.925;    0.000
261.636;  139.125;  169.925;    0.000
261.703;  186.125;  200.925;    0.000
261.771;  161.125;  170.925;    0.000
261.838;  158.125;  175.925;    0.000
261.906;  147.125;  135.925;    0.000
261.973;  162.125;  184.925;    0.000
262.040;  162.125;  176.925;    0.000
262.108;  155.125;  201.925;    0.000
262.175;  160.125;  141.925;    0.000
262.243;  178.125;  175.925;    0.000
262.310;  160.125;  112.925;    0.000
262.377;  170.125;  158.925;    0.000
262.445;  160.125;  162.925;    0.000
262.512;  151.125;  184.925;    0.000
262.579;  184.125;  185.925;    0.000
262.647;  151.125;  158.925;    0.000
262.714;  174.125;  197.925;    0.000
262.781;  165.125;  133.925;    0.000
262.849;  132.125;  146.925;    0.000
262.916;  155.125;  204.925;    0.000
262.983;  194.125;  191.925;    0.000
263.051;  154.125;  140.925;    0.000
263.118;  163.125;  154.925;    0.000
263.185;  161.125;  169.925;    0.000
263.252;  172.125;  150.925;    0.000
263.320;  152.125;  145.925;    0.000
263.387;  164.125;  144.925;    0.000
263.454;  154.125;  193.925;    0.000
263.522;  161.125;  160.925;    0.000
263.589;  161.125;  153.925;    0.000
263.656;  163.125;  178.925;    0.000
263.723;  113.125;  136.925;    0.000
263.790;  130.125;  162.925;    0.000
263.858;  187.125;  164.925;    0.000
263.925;  171.125;  146.925;    0.000
263.992;  130.125;  191.925;    0.000
264.059;  163.125;  180.925;    0.000
264.126;  150.125;  183.925;    0.000
264.194;  172.125;  174.925;    0.000
264.261;  172.125;  187.925;    0.000
264.328;  162.125;  179.925;    0.000
264.395;  204.125;  166.925;    0.000
264.462;  158.125;  197.925;    0.000
264.529;  163.125;  209.925;    0.000
264.597;  173.125;  173.925;    0.000
264.664;  194.125;  193.925;    0.000
264.731;  191.125;  165.925;    0.000
264.798;  142.125;  148.925;    0.000
264.865;  168.125;  186.925;    0.000
264.932;  135.125;  152.925;    0.000
264.999;  156.125;  166.925;    0.000
265.066;  140.125;  186.925;    0.000
265.133;  164.125;  172.925;    0.000
265.201;  173.125;  159.925;    0.000
265.268;  190.125;  164.925;    0.000
265.335;  157.125;  161.925;    0.000
265.402;  135.125;  157.925;    0.000
265.469;  133.125;  134.925;    0.000
265.536;  157.125;  191.925;    0.000
265.603;  172.125;  170.925;    0.000
265.670;  155.125;  162.925;    0.000
265.737;  170.125;  172.925;    0.000
265.804;  181.125;  151.925;    0.000
265.871;  193.125;  191.925;    0.000
265.938;  191.125;  173.925;    0.000
266.005;  192.125;  201.925;    0.000
266.072;  132.125;  156.925;    0.000
266.139;  169.125;  191.925;    0.000
266.206;  133.125;  151.925;    0.000
266.273;  174.125;  194.925;    0.000
266.340;  119.125;  120.925;    0.000
266.407;  173.125;  130.925;    0.000
266.474;  175.125;  137.925;    0.000
266.541;  145.125;  139.925;    0.000
266.608;  126.125;  139.925;    0.000
266.675;  188.125;  198.925;    0.000
266.742;  171.125;  165.925;    0.000
266.808;  164.125;  174.925;    0.000
266.875;  139.125;  169.925;    0.000
266.942;  154.125;  137.925;    0.000
267.009;  161.125;  181.925;    0.000
267.076;  194.125;  204.925;    0.000
267.143;  195.125;  179.925;    0.000
267.210;  178.125;  160.925;    0.000
267.277;  168.125;  154.925;    0.000
267.344;  171.125;  178.925;    0.000
267.410;  164.125;  190.925;    0.000
267.477;  168.125;  193.925;    0.000
267.544;  184.125;  168.925;    0.000
267.611;  151.125;  177.925;    0.000
267.678;  164.125;  205.925;    0.000
267.745;  195.125;  205.925;    0.000
267.811;  147.125;  164.925;    0.000
267.878;  149.125;  166.925;    0.000
267.945;  144.125;  160.925;    0.000
268.012;  167.125;  172.925;    0.000
268.079;  178.125;  186.925;    0.000
268.145;  154.125;  188.925;    0.000
268.212;  151.125;  181.925;    0.000
268.279;  151.125;  158.925;    0.000
268.346;  162.125;  192.925;    0.000
268.412;  184.125;  159.925;    0.000
268.479;  152.125;  176.925;    0.000
268.546;  176.125;  170.925;    0.000
268.613;  196.125;  133.925;    0.000
268.679;  154.125;  170.925;    0.000
268.746;  167.125;  185.925;    0.000
268.813;  145.125;  170.925;    0.000
268.879;  127.125;  149.925;    0.000
268.946;  173.125;  176.925;    0.000
269.013;  166.125;  153.925;    0.000
269.079;  190.125;  156.925;    0.000
269.146;  153.125;  143.925;    0.000
269.213;  186.125;  170.925;    0.000
269.280;  173.125;  202.925;    0.000
269.346;  180.125;  180.925;    0.000
269.413;  170.125;  162.925;    0.000
269.479;  173.125;  175.925;    0.000
269.546;  142.125;  151.925;    0.000
269.613;  139.125;  159.925;    0.000
269.679;  181.125;  190.925;    0.000
269.746;  164.125;  159.925;    0.000
269.813;  121.125;  151.925;    0.000
269.879;  166.125;  169.925;    0.000
269.946;  170.125;  169.925;    0.000
270.012;  179.125;  185.925;    0.000
270.079;  157.125;  133.925;    0.000
270.145;  175.125;  161.925;    0.000
270.212;  182.125;  156.925;    0.000
270.279;  160.125;  176.925;    0.000
270.345;  156.125;  140.925;    0.000
270.412;  163.125;  162.925;    0.000
270.478;  162.125;  148.925;    0.000
270.545;  180.125;  146.925;    0.000
270.611;  197.125;  168.925;    0.000
270.678;  137.125;  164.925;    0.000
270.744;  122.125;  117.925;    0.000
270.811;  196.125;  196.925;    0.000
270.877;  153.125;  151.925;    0.000
270.944;  141.125;  174.925;    0.000
271.010;  175.125;  180.925;    0.000
271.077;  168.125;  162.925;    0.000
271.143;  181.125;  178.925;    0.000
271.210;  151.125;  159.925;    0.000
271.276;  143.125;  143.925;    0.000
271.342;  178.125;  196.925;    0.000
271.409;  159.125;  161.925;    0.000
271.475;  159.125;  153.925;    0.000
271.542;  146.125;  147.925;    0.000
271.608;  176.125;  175.925;    0.000
271.675;  136.125;  134.925;    0.000
271.741;  156.125;  182.925;    0.000
271.807;  150.125;  174.925;    0.000
271.874;  188.125;  169.925;    0.000
271.940;  183.125;  179.925;    0.000
272.007;  181.125;  173.925;    0.000
272.073;  175.125;  133.925;    0.000
272.139;  174.125;  191.925;    0.000
272.206;  175.125;  168.925;    0.000
272.272;  176.125;  179.925;    0.000
272.338;  225.125;  224.925;    0.000
272.405;  142.125;  156.925;    0.000
272.471;  130.125;  175.925;    0.000
272.537;  156.125;  190.925;    0.000
272.604;  153.125;  199.925;    0.000
272.670;  169.125;  156.925;    0.000
272.736;  154.125;  198.925;    0.000
272.802;  174.125;  169.925;    0.000
272.869;  169.125;  141.925;    0.000
272.935;  165.125;  145.925;    0.000
273.001;  173.125;  156.925;    0.000
273.068;  154.125;  157.925;    0.000
273.134;  166.125;  184.925;    0.000
273.200;  207.125;  158.925;    0.000
273.266;  135.125;  150.925;    0.000
273.333;  161.125;  176.925;    0.000
273.399;  134.125;  118.925;    0.000
273.465;  170.125;  184.925;    0.000
273.531;  158.125;  179.925;    0.000
273.597;  164.125;  167.925;    0.000
273.664;  171.125;  186.925;    0.000
273.730;  134.125;  137.925;    0.000
273.796;  130.125;  148.925;    0.000
273.862;  192.125;  183.925;    0.000
273.928;  179.125;  179.925;    0.000
273.995;  184.125;  189.925;    0.000
274.061;  178.125;  188.925;    0.000
274.127;  162.125;  132.925;    0.000
274.193;  147.125;  135.925;    0.000
274.259;  174.125;  177.925;    0.000
274.325;  125.125;  178.925;    0.000
274.391;  170.125;  140.925;    0.000
274.457;  182.125;  158.925;    0.000
274.524;  166.125;  175.925;    0.000
274.590;  166.125;  182.925;    0.000
274.656;  171.125;  165.925;    0.000
274.722;  168.125;  152.925;    0.000
274.788;  174.125;  159.925;    0.000
274.854;  148.125;  143.925;    0.000
274.920;  112.125;  117.925;    0.000
274.986;  122.125;  140.925;    0.000
275.052;  131.125;  174.925;    0.000
275.118;  148.125;  129.925;    0.000
275.184;  197.125;  173.925;    0.000
275.250;  179.125;  196.925;    0.000
275.316;  146.125;  142.925;    0.000
275.382;  168.125;  149.925;    0.000
275.448;  179.125;  178.925;    0.000
275.514;  123.125;  136.925;    0.000
275.580;  160.125;  140.925;    0.000
275.646;  142.125;  133.925;    0.000
275.712;  161.125;  162.925;    0.000
275.778;  122.125;  129.925;    0.000
275.844;  152.125;  156.925;    0.000
275.910;  169.125;  172.925;    0.000
275.976;  166.125;  158.925;    0.000
276.042;  165.125;  141.925;    0.000
276.108;  196.125;  212.925;    0.000
276.174;  187.125;  148.925;    0.000
276.240;  121.125;  134.925;    0.000
276.306;  150.125;  149.925;    0.000
276.372;  161.125;  126.925;    0.000
276.437;  161.125;  168.925;    0.000
276.503;  162.125;  158.925;    0.000
276.569;  181.125;  191.925;    0.000
276.635;  138.125;  130.925;    0.000
276.701;  133.125;  161.925;    0.000
276.767;  159.125;  148.925;    0.000
276.833;  148.125;  147.925;    0.000
276.899;  153.125;  149.925;    0.000
276.964;  148.125;  181.925;    0.000
277.030;  173.125;  186.925;    0.000
277.096;  148.125;  132.925;    0.000
277.162;  167.125;  181.925;    0.000
277.228;  131.125;  166.925;    0.000
277.293;  119.125;  154.925;    0.000
277.359;  153.125;  181.925;    0.000
277.425;  209.125;  184.925;    0.000
277.491;  164.125;  150.925;    0.000
277.557;  180.125;  159.925;    0.000
277.622;  164.125;  129.925;    0.000
277.688;  205.125;  184.925;    0.000
277.754;  163.125;  182.925;    0.000
277.820;  183.125;  149.925;    0.000
277.885;  165.125;  185.925;    0.000
277.951;  181.125;  164.925;    0.000
278.017;  157.125;  162.925;    0.000
278.083;  210.125;  189.925;    0.000
278.148;  182.125;  184.925;    0.000
278.214;  171.125;  188.925;    0.000
278.280;  151.125;  206.925;    0.000
278.345;  197.125;  187.925;    0.000
278.411;  178.125;  174.925;    0.000
278.477;  196.125;  190.925;    0.000
278.542;  160.125;  154.925;    0.000
278.608;  150.125;  191.925;    0.000
278.674;  195.125;  243.925;    0.000
278.739;  198.125;  141.925;    0.000
278.805;  159.125;  171.925;    0.000
278.871;  203.125;  181.925;    0.000
278.936;  166.125;  191.925;    0.000
279.002;  168.125;  201.925;    0.000
279.067;  184.125;  174.925;    0.000
279.133;  156.125;  165.925;    0.000
279.199;  134.125;  122.925;    0.000
279.264;  134.125;  159.925;    0.000
279.330;  161.125;  170.925;    0.000
279.395;  155.125;  173.925;    0.000
279.461;  175.125;  200.925;    0.000
279.527;  174.125;  199.925;    0.000
279.592;  182.125;  203.925;    0.000
279.658;  163.125;  209.925;    0.000
279.723;  172.125;  188.925;    0.000
279.789;  198.125;  180.925;    0.000
279.854;  168.125;  137.925;    0.000
279.920;  206.125;  223.925;    0.000
279.985;  176.125;  186.925;    0.000
280.051;  193.125;  198.925;    0.000
280.116;  210.125;  178.925;    0.000
280.182;  139.125;  176.925;    0.000
280.247;  148.125;  195.925;    0.000
280.313;  165.125;  165.925;    0.000
280.378;  169.125;  153.925;    0.000
280.444;  194.125;  181.925;    0.000
280.509;  186.125;  188.925;    0.000
280.574;  175.125;  149.925;    0.000
280.640;  203.125;  164.925;    0.000
280.705;  151.125;  166.925;    0.000
280.771;  184.125;  188.925;    0.000
280.836;  196.125;  188.925;    0.000
280.902;  180.125;  168.925;    0.000
280.967;  174.125;  202.925;    0.000
281.032;  212.125;  197.925;    0.000
281.098;  165.125;  138.925;    0.000
281.163;  163.125;  160.925;    0.000
281.229;  185.125;  212.925;    0.000
281.294;  174.125;  227.925;    0.000
281.359;  195.125;  200.925;    0.000
281.425;  215.125;  189.925;    0.000
281.490;  188.125;  176.925;    0.000
281.555;  185.125;  182.925;    0.000
281.621;  178.125;  169.925;    0.000
281.686;  156.125;  182.925;    0.000
281.751;  182.125;  208.925;    0.000
281.816;  171.125;  166.925;    0.000
281.882;  199.125;  181.925;    0.000
281.947;  178.125;  178.925;    0.000
282.012;  171.125;  167.925;    0.000
282.078;  196.125;  170.925;    0.000
282.143;  168.125;  157.925;    0.000
282.208;  198.125;  158.925;    0.000
282.273;  182.125;  187.925;    0.000
282.339;  166.125;  185.925;    0.000
282.404;  199.125;  201.925;    0.000
282.469;  189.125;  202.925;    0.000
282.534;  196.125;  185.925;    0.000
282.600;  160.125;  125.925;    0.000
282.665;  160.125;  162.925;    0.000
282.730;  158.125;  174.925;    0.000
282.795;  185.125;  179.925;    0.000
282.860;  179.125;  190.925;    0.000
282.926;  199.125;  200.925;    0.000
282.991;  159.125;  161.925;    0.000
283.056;  180.125;  175.925;    0.000
283.121;  193.125;  181.925;    0.000
283.186;  174.125;  221.925;    0.000
283.251;  192.125;  168.925;    0.000
283.316;  202.125;  156.925;    0.000
283.382;  181.125;  197.925;    0.000
283.447;  197.125;  210.925;    0.000
283.512;  154.125;  164.925;    0.000
283.577;  191.125;  212.925;    0.000
283.642;  180.125;  186.925;    0.000
283.707;  155.125;  182.925;    0.000
283.772;  163.125;  127.925;    0.000
283.837;  148.125;  160.925;    0.000
283.902;  178.125;  162.925;    0.000
283.967;  159.125;  151.925;    0.000
284.032;  178.125;  175.925;    0.000
284.097;  204.125;  235.925;    0.000
284.163;  135.125;  136.925;    0.000
284.228;  136.125;  209.925;    0.000
284.293;  178.125;  163.925;    0.000
284.358;  176.125;  169.925;    0.000
284.423;  151.125;  145.925;    0.000
284.488;  194.125;  134.925;    0.000
284.553;  175.125;  158.925;    0.000
284.618;  148.125;  163.925;    0.000
284.683;  153.125;  168.925;    0.000
284.748;  178.125;  170.925;    0.000
284.812;  142.125;  151.925;    0.000
284.877;  176.125;  169.925;    0.000
284.942;  181.125;  179.925;    0.000
285.007;  167.125;  202.925;    0.000
285.072;  180.125;  171.925;    0.000
285.137;  212.125;  173.925;    0.000
285.202;  165.125;  196.925;    0.000
285.267;  189.125;  193.925;    0.000
285.332;  140.125;  151.925;    0.000
285.397;  177.125;  183.925;    0.000
285.462;  151.125;  168.925;    0.000
285.527;  175.125;  166.925;    0.000
285.591;  177.125;  124.925;    0.000
285.656;  175.125;  145.925;    0.000
285.721;  143.125;  155.925;    0.000
285.786;  166.125;  170.925;    0.000
285.851;  166.125;  175.925;    0.000
285.916;  181.125;  186.925;    0.000
285.981;  130.125;  204.925;    0.000
286.045;  166.125;  237.925;    0.000
286.110;  170.125;  197.925;    0.000
286.175;  136.125;  143.925;    0.000
286.240;  167.125;  167.925;    0.000
286.305;  204.125;  202.925;    0.000
286.369;  162.125;  214.925;    0.000
286.434;  180.125;  206.925;    0.000
286.499;  193.125;  177.925;    0.000
286.564;  192.125;  201.925;    0.000
286.628;  171.125;  153.925;    0.000
286.693;  164.125;  161.925;    0.000
286.758;  161.125;  181.925;    0.000
286.823;  169.125;  176.925;    0.000
286.887;  167.125;  158.925;    0.000
286.952;  178.125;  198.925;    0.000
287.017;  197.125;  196.925;    0.000
287.082;  153.125;  154.925;    0.000
287.146;  185.125;  178.925;    0.000
287.211;  182.125;  165.925;    0.000
287.276;  160.125;  165.925;    0.000
287.340;  211.125;  178.925;    0.000
287.405;  189.125;  177.925;    0.000
287.470;  177.125;  141.925;    0.000
287.534;  214.125;  224.925;    0.000
287.599;  175.125;  184.925;    0.000
287.663;  208.125;  177.925;    0.000
287.728;  167.125;  144.925;    0.000
287.793;  199.125;  210.925;    0.000
287.857;  230.125;  198.925;    0.000
287.922;  200.125;  168.925;    0.000
287.987;  191.125;  168.925;    0.000
288.051;  182.125;  200.925;    0.000
288.116;  172.125;  199.925;    0.000
288.180;  168.125;  211.925;    0.000
288.245;  179.125;  182.925;    0.000
288.309;  182.125;  180.925;    0.000
288.374;  218.125;  196.925;    0.000
288.439;  169.125;  187.925;    0.000
288.503;  131.125;  159.925;    0.000
288.568;  190.125;  207.925;    0.000
288.632;  206.125;  210.925;    0.000
288.697;  244.125;  196.925;    0.000
288.761;  175.125;  175.925;    0.000
288.826;  166.125;  159.925;    0.000
288.890;  220.125;  183.925;    0.000
288.955;  148.125;  149.925;    0.000
289.019;  183.125;  194.925;    0.000
289.084;  188.125;  171.925;    0.000
289.148;  168.125;  191.925;    0.000
289.212;  201.125;  217.925;    0.000
289.277;  183.125;  196.925;    0.000
289.341;  202.125;  211.925;    0.000
289.406;  161.125;  165.925;    0.000
289.470;  197.125;  197.925;    0.000
289.535;  201.125;  208.925;    0.000
289.599;  210.125;  192.925;    0.000
289.663;  164.125;  169.925;    0.000
289.728;  191.125;  168.925;    0.000
289.792;  203.125;  192.925;    0.000
289.857;  219.125;  202.925;    0.000
289.921;  180.125;  176.925;    0.000
289.985;  133.125;  164.925;    0.000
290.050;  222.125;  166.925;    0.000
290.114;  154.125;  192.925;    0.000
290.178;  176.125;  155.925;    0.000
290.243;  149.125;  158.925;    0.000
290.307;  213.125;  192.925;    0.000
290.371;  194.125;  161.925;    0.000
290.436;  200.125;  182.925;    0.000
290.500;  137.125;  147.925;    0.000
290.564;  177.125;  209.925;    0.000
290.629;  167.125;  172.925;    0.000
290.693;  190.125;  192.925;    0.000
290.757;  203.125;  147.925;    0.000
290.821;  181.125;  139.925;    0.000
290.886;  147.125;  186.925;    0.000
290.950;  186.125;  196.925;    0.000
291.014;  170.125;  166.925;    0.000
291.078;  172.125;  143.925;    0.000
291.143;  195.125;  171.925;    0.000
291.207;  224.125;  187.925;    0.000
291.271;  154.125;  208.925;    0.000
291.335;  150.125;  195.925;    0.000
291.399;  167.125;  139.925;    0.000
291.464;  132.125;  139.925;    0.000
291.528;  195.125;  183.925;    0.000
291.592;  124.125;  152.925;    0.000
291.656;  178.125;  155.925;    0.000
291.720;  166.125;  191.925;    0.000
291.784;  191.125;  185.925;    0.000
291.849;  200.125;  175.925;    0.000
291.913;  177.125;  152.925;    0.000
291.977;  186.125;  203.925;    0.000
292.041;  202.125;  181.925;    0.000
292.105;  174.125;  168.925;    0.000
292.169;  143.125;  133.925;    0.000
292.233;  155.125;  156.925;    0.000
292.297;  176.125;  173.925;    0.000
292.361;  156.125;  124.925;    0.000
292.425;  134.125;  138.925;    0.000
292.490;  190.125;  110.925;    0.000
292.554;  192.125;  180.925;    0.000
292.618;  139.125;  178.925;    0.000
292.682;  191.125;  156.925;    0.000
292.746;  180.125;  151.925;    0.000
292.810;  222.125;  183.925;    0.000
292.874;  179.125;  156.925;    0.000
292.938;  220.125;  195.925;    0.000
293.002;  146.125;  200.925;    0.000
293.066;  151.125;  171.925;    0.000
293.130;  132.125;  163.925;    0.000
293.194;  206.125;  174.925;    0.000
293.258;  171.125;  167.925;    0.000
293.322;  146.125;  212.925;    0.000
293.386;  204.125;  189.925;    0.000
293.450;  139.125;  169.925;    0.000
293.514;  202.125;  175.925;    0.000
293.577;  180.125;  169.925;    0.000
293.641;  180.125;  186.925;    0.000
293.705;  215.125;  222.925;    0.000
293.769;  142.125;  150.925;    0.000
293.833;  128.125;  165.925;    0.000
293.897;  175.125;  152.925;    0.000
293.961;  145.125;  179.925;    0.000
294.025;  160.125;  159.925;    0.000
294.089;  192.125;  181.925;    0.000
294.152;  189.125;  188.925;    0.000
294.216;  168.125;  170.925;    0.000
294.280;  173.125;  167.925;    0.000
294.344;  185.125;  151.925;    0.000
294.408;  177.125;  180.925;    0.000
294.472;  173.125;  144.925;    0.000
294.536;  149.125;  171.925;    0.000
294.599;  185.125;  157.925;    0.000
294.663;  141.125;  139.925;    0.000
294.727;  175.125;  208.925;    0.000
294.791;  175.125;  152.925;    0.000
294.855;  205.125;  181.925;    0.000
294.918;  173.125;  136.925;    0.000
294.982;  149.125;  155.925;    0.000
295.046;  182.125;  200.925;    0.000
295.110;  148.125;  190.925;    0.000
295.173;   87.125;  156.925;    0.000
295.237;  181.125;  160.925;    0.000
295.301;  157.125;  145.925;    0.000
295.364;  182.125;  166.925;    0.000
295.428;  177.125;  125.925;    0.000
295.492;  178.125;  154.925;    0.000
295.556;  213.125;  172.925;    0.000
295.619;  161.125;  210.925;    0.000
295.683;  160.125;  181.925;    0.000
295.747;  161.125;  176.925;    0.000
295.810;  176.125;  181.925;    0.000
295.874;  153.125;  160.925;    0.000
295.938;  169.125;  119.925;    0.000
296.001;  181.125;  206.925;    0.000
296.065;  149.125;  136.925;    0.000
296.128;  147.125;  156.925;    0.000
296.192;  171.125;  174.925;    0.000
296.256;  141.125;  145.925;    0.000
296.319;  147.125;  167.925;    0.000
296.383;  143.125;  168.925;    0.000
296.447;  146.125;  190.925;    0.000
296.510;  136.125;  165.925;    0.000
296.574;  131.125;  184.925;    0.000
296.637;  130.125;  155.925;    0.000
296.701;  216.125;  168.925;    0.000
296.764;  104.125;  161.925;    0.000
296.828;  209.125;  218.925;    0.000
296.891;  194.125;  176.925;    0.000
296.955;  150.125;  169.925;    0.000
297.018;  185.125;  168.925;    0.000
297.082;  195.125;  176.925;    0.000
297.145;  141.125;  171.925;    0.000
297.209;  204.125;  196.925;    0.000
297.272;  164.125;  170.925;    0.000
297.336;  169.125;  156.925;    0.000
297.399;  168.125;  168.925;    0.000
297.463;  193.125;  203.925;    0.000
297.526;  203.125;  164.925;    0.000
297.590;  179.125;  175.925;    0.000
297.653;  189.125;  170.925;    0.000
297.717;  177.125;  156.925;    0.000
297.780;  165.125;  149.925;    0.000
297.843;  186.125;  156.925;    0.000
297.907;  170.125;  129.925;    0.000
297.970;  161.125;  163.925;    0.000
298.034;  153.125;  162.925;    0.000
298.097;  209.125;  182.925;    0.000
298.160;  194.125;  194.925;    0.000
298.224;  174.125;  178.925;    0.000
298.287;  191.125;  147.925;    0.000
298.350;  203.125;  187.925;    0.000
298.414;  185.125;  193.925;    0.000
298.477;  148.125;  127.925;    0.000
298.540;  154.125;  181.925;    0.000
298.604;  200.125;  163.925;    0.000
298.667;  194.125;  177.925;    0.000
298.730;  205.125;  192.925;    0.000
298.794;  149.125;  183.925;    0.000
298.857;  164.125;  194.925;    0.000
298.920;  119.125;  147.925;    0.000
298.984;  166.125;  184.925;    0.000
299.047;  173.125;  218.925;    0.000
299.110;  175.125;  171.925;    0.000
299.173;  215.125;  177.925;    0.000
299.237;  186.125;  181.925;    0.000
299.300;  186.125;  170.925;    0.000
299.363;  201.125;  185.925;    0.000
299.426;  170.125;  193.925;    0.000
299.489;  146.125;  184.925;    0.000
299.553;  206.125;  194.925;    0.000
299.616;  178.125;  171.925;    0.000
299.679;  163.125;  182.925;    0.000
299.742;  176.125;  138.925;    0.000
299.805;  194.125;  172.925;    0.000
299.868;  186.125;  191.925;    0.000
299.932;  188.125;  193.925;    0.000
299.995;  212.125;  201.925;    0.000
300.058;  199.125;  177.925;    0.000
300.121;  194.125;  178.925;    0.000
300.184;  184.125;  171.925;    0.000
300.247;  199.125;  184.925;    0.000
300.310;  179.125;  200.925;    0.000
300.374;  190.125;  172.925;    0.000
300.437;  176.125;  187.925;    0.000
300.500;  201.125;  211.925;    0.000
300.563;  192.125;  190.925;    0.000
300.626;  182.125;  196.925;    0.000
300.689;  216.125;  162.925;    0.000
300.752;  155.125;  163.925;    0.000
300.815;  205.125;  207.925;    0.000
300.878;  217.125;  221.925;    0.000
300.941;  202.125;  176.925;    0.000
301.004;  181.125;  193.925;    0.000
301.067;  192.125;  165.925;    0.000
301.130;  207.125;  179.925;    0.000
301.193;  189.125;  196.925;    0.000
301.256;  196.125;  210.925;    0.000
301.319;  193.125;  196.925;    0.000
301.382;  195.125;  162.925;    0.000
301.445;  236.125;  233.925;    0.000
301.508;  159.125;  176.925;    0.000
301.571;  137.125;  185.925;    0.000
301.634;  177.125;  202.925;    0.000
301.697;  168.125;  189.925;    0.000
301.760;  211.125;  224.925;    0.000
301.823;  162.125;  212.925;    0.000
301.885;  195.125;  196.925;    0.000
301.948;  187.125;  169.925;    0.000
302.011;  183.125;  160.925;    0.000
302.074;  240.125;  202.925;    0.000
302.137;  154.125;  130.925;    0.000
302.200;  190.125;  188.925;    0.000
302.263;  224.125;  196.925;    0.000
302.326;  164.125;  172.925;    0.000
302.388;  209.125;  197.925;    0.000
302.451;  168.125;  203.925;    0.000
302.514;  164.125;  164.925;    0.000
302.577;  197.125;  170.925;    0.000
302.640;  181.125;  156.925;    0.000
302.703;  159.125;  188.925;    0.000
302.765;  195.125;  213.925;    0.000
302.828;  217.125;  212.925;    0.000
302.891;  215.125;  203.925;    0.000
302.954;  159.125;  148.925;    0.000
303.016;  200.125;  168.925;    0.000
303.079;  206.125;  206.925;    0.000
303.142;  187.125;  210.925;    0.000
303.205;  154.125;  189.925;    0.000
303.267;  210.125;  174.925;    0.000
303.330;  169.125;  198.925;    0.000
303.393;  216.125;  207.925;    0.000
303.456;  210.125;  177.925;    0.000
303.518;  216.125;  192.925;    0.000
303.581;  176.125;  171.925;    0.000
303.644;  193.125;  193.925;    0.000
303.706;  159.125;  185.925;    0.000
303.769;  238.125;  198.925;    0.000
303.832;  169.125;  192.925;    0.000
303.894;  225.125;  199.925;    0.000
303.957;  161.125;  160.925;    0.000
304.020;  204.125;  184.925;    0.000
304.082;  178.125;  191.925;    0.000
304.145;  211.125;  216.925;    0.000
304.207;  205.125;  175.925;    0.000
304.270;  161.125;  192.925;    0.000
304.333;  181.125;  218.925;    0.000
304.395;  204.125;  195.925;    0.000
304.458;  184.125;  206.925;    0.000
304.520;  213.125;  229.925;    0.000
304.583;  207.125;  202.925;    0.000
304.646;  221.125;  159.925;    0.000
304.708;  175.125;  167.925;    0.000
304.771;  151.125;  141.925;    0.000
304.833;  201.125;  184.925;    0.000
304.896;  196.125;  197.925;    0.000
304.958;  189.125;  179.925;    0.000
305.021;  198.125;  175.925;    0.000
305.083;  166.125;  182.925;    0.000
305.146;  175.125;  182.925;    0.000
305.208;  173.125;  174.925;    0.000
305.271;  171.125;  157.925;    0.000
305.333;  214.125;  185.925;    0.000
305.396;  180.125;  199.925;    0.000
305.458;  194.125;  203.925;    0.000
305.520;  179.125;  195.925;    0.000
305.583;  160.125;  152.925;    0.000
305.645;  190.125;  200.925;    0.000
305.708;  187.125;  149.925;    0.000
305.770;  216.125;  211.925;    0.000
305.833;  180.125;  189.925;    0.000
305.895;  189.125;  200.925;    0.000
305.957;  178.125;  166.925;    0.000
306.020;  192.125;  186.925;    0.000
306.082;  183.125;  197.925;    0.000
306.144;  185.125;  200.925;    0.000
306.207;  185.125;  180.925;    0.000
306.269;  210.125;  209.925;    0.000
306.331;  175.125;  205.925;    0.000
306.394;  182.125;  176.925;    0.000
306.456;  191.125;  184.925;    0.000
306.518;  195.125;  210.925;    0.000
306.581;  162.125;  162.925;    0.000
306.643;  180.125;  196.925;    0.000
306.705;  192.125;  204.925;    0.000
306.768;  184.125;  158.925;    0.000
306.830;  212.125;  205.925;    0.000
306.892;  176.125;  189.925;    0.000
306.954;  221.125;  188.925;    0.000
307.017;  181.125;  180.925;    0.000
307.079;  193.125;  197.925;    0.000
307.141;  201.125;  184.925;    0.000
307.203;  175.125;  182.925;    0.000
307.266;  239.125;  166.925;    0.000
307.328;  211.125;  186.925;    0.000
307.390;  197.125;  176.925;    0.000
307.452;  163.125;  194.925;    0.000
307.514;  214.125;  225.925;    0.000
307.577;  208.125;  209.925;    0.000
307.639;  212.125;  203.925;    0.000
307.701;  227.125;  214.925;    0.000
307.763;  210.125;  203.925;    0.000
307.825;  188.125;  202.925;    0.000
307.887;  225.125;  244.925;    0.000
307.949;  161.125;  173.925;    0.000
308.012;  198.125;  219.925;    0.000
308.074;  194.125;  157.925;    0.000
308.136;  207.125;  215.925;    0.000
308.198;  165.125;  186.925;    0.000
308.260;  205.125;  186.925;    0.000
308.322;  204.125;  201.925;    0.000
308.384;  192.125;  218.925;    0.000
308.446;  172.125;  159.925;    0.000
308.508;  185.125;  191.925;    0.000
308.570;  187.125;  185.925;    0.000
308.632;  215.125;  208.925;    0.000
308.694;  179.125;  161.925;    0.000
308.756;  179.125;  169.925;    0.000
308.818;  201.125;  187.925;    0.000
308.880;  216.125;  192.925;    0.000
308.942;  220.125;  194.925;    0.000
309.004;  234.125;  206.925;    0.000
309.066;  196.125;  204.925;    0.000
309.128;  175.125;  181.925;    0.000
309.190;  213.125;  166.925;    0.000
309.252;  183.125;  213.925;    0.000
309.314;  242.125;  249.925;    0.000
309.376;  223.125;  238.925;    0.000
309.438;  194.125;  206.925;    0.000
309.500;  211.125;  185.925;    0.000
309.562;  182.125;  214.925;    0.000
309.624;  194.125;  216.925;    0.000
309.686;  198.125;  197.925;    0.000
309.747;  168.125;  171.925;    0.000
309.809;  220.125;  198.925;    0.000
309.871;  184.125;  185.925;    0.000
309.933;  182.125;  172.925;    0.000
309.995;  182.125;  168.925;    0.000
310.057;  191.125;  177.925;    0.000
310.119;  213.125;  207.925;    0.000
310.180;  195.125;  180.925;    0.000
310.242;  198.125;  202.925;    0.000
310.304;  210.125;  200.925;    0.000
310.366;  194.125;  222.925;    0.000
310.428;  149.125;  179.925;    0.000
310.489;  154.125;  196.925;    0.000
310.551;  226.125;  203.925;    0.000
310.613;  202.125;  198.925;    0.000
310.675;  212.125;  203.925;    0.000
310.737;  259.125;  195.925;    0.000
310.798;  220.125;  204.925;    0.000
310.860;  200.125;  195.925;    0.000
310.922;  196.125;  195.925;    0.000
310.983;  177.125;  225.925;    0.000
311.045;  220.125;  203.925;    0.000
311.107;  203.125;  194.925;    0.000
311.169;  187.125;  185.925;    0.000
311.230;  151.125;  175.925;    0.000
311.292;  247.125;  220.925;    0.000
311.354;  155.125;  189.925;    0.000
311.415;  190.125;  187.925;    0.000
311.477;  186.125;  180.925;    0.000
311.539;  180.125;  175.925;    0.000
311.600;  196.125;  192.925;    0.000
311.662;  242.125;  212.925;    0.000
311.724;  196.125;  217.925;    0.000
311.785;  234.125;  218.925;    0.000
311.847;  181.125;  219.925;    0.000
311.908;  197.125;  202.925;    0.000
311.970;  206.125;  186.925;    0.000
312.032;  187.125;  212.925;    0.000
312.093;  212.125;  203.925;    0.000
312.155;  151.125;  165.925;    0.000
312.216;  189.125;  183.925;    0.000
312.278;  178.125;  167.925;    0.000
312.339;  180.125;  190.925;    0.000
312.401;  217.125;  219.925;    0.000
312.462;  178.125;  190.925;    0.000
312.524;  211.125;  203.925;    0.000
312.585;  202.125;  191.925;    0.000
312.647;  153.125;  197.925;    0.000
312.708;  181.125;  203.925;    0.000
312.770;  208.125;  203.925;    0.000
312.831;  152.125;  155.925;    0.000
312.893;  202.125;  189.925;    0.000
312.954;  163.125;  212.925;    0.000
313.016;  169.125;  179.925;    0.000
313.077;  217.125;  209.925;    0.000
313.139;  203.125;  185.925;    0.000
313.200;  198.125;  180.925;    0.000
313.261;  216.125;  220.925;    0.000
313.323;  229.125;  171.925;    0.000
313.384;  175.125;  180.925;    0.000
313.446;  208.125;  202.925;    0.000
313.507;  176.125;  172.925;    0.000
313.568;  179.125;  192.925;    0.000
313.630;  171.125;  191.925;    0.000
313.691;  154.125;  176.925;    0.000
313.752;  173.125;  175.925;    0.000
313.814;  185.125;  202.925;    0.000
313.875;  198.125;  186.925;    0.000
313.936;  210.125;  199.925;    0.000
313.998;  178.125;  164.925;    0.000
314.059;  183.125;  159.925;    0.000
314.120;  151.125;  175.925;    0.000
314.182;  196.125;  181.925;    0.000
314.243;  230.125;  157.925;    0.000
314.304;  182.125;  168.925;    0.000
314.365;  192.125;  203.925;    0.000
314.427;  178.125;  151.925;    0.000
314.488;  173.125;  174.925;    0.000
314.549;  190.125;  184.925;    0.000
314.610;  172.125;  198.925;    0.000
314.672;  155.125;  193.925;    0.000
314.733;  188.125;  171.925;    0.000
314.794;  161.125;  141.925;    0.000
314.855;  192.125;  184.925;    0.000
314.917;  161.125;  175.925;    0.000
314.978;  186.125;  190.925;    0.000
315.039;  207.125;  183.925;    0.000
315.100;  171.125;  204.925;    0.000
315.161;  171.125;  202.925;    0.000
315.222;  177.125;  177.925;    0.000
315.283;  178.125;  191.925;    0.000
315.345;  198.125;  185.925;    0.000
315.406;  204.125;  194.925;    0.000
315.467;  132.125;  167.925;    0.000
315.528;  187.125;  174.925;    0.000
315.589;  216.125;  197.925;    0.000
315.650;  192.125;  192.925;    0.000
315.711;  181.125;  181.925;    0.000
315.772;  145.125;  157.925;    0.000
315.833;  174.125;  189.925;    0.000
315.894;  139.125;  184.925;    0.000
315.955;  191.125;  202.925;    0.000
316.016;  227.125;  220.925;    0.000
316.078;  191.125;  180.925;    0.000
316.139;  200.125;  240.925;    0.000
316.200;  166.125;  190.925;    0.000
316.261;  184.125;  179.925;    0.000
316.322;  190.125;  176.925;    0.000
316.383;  210.125;  188.925;    0.000
316.444;  219.125;  228.925;    0.000
316.504;  196.125;  199.925;    0.000
316.565;  187.125;  221.925;    0.000
316.626;  176.125;  204.925;    0.000
316.687;  192.125;  192.925;    0.000
316.748;  172.125;  220.925;    0.000
316.809;  199.125;  175.925;    0.000
316.870;  216.125;  164.925;    0.000
316.931;  229.125;  208.925;    0.000
316.992;  205.125;  224.925;    0.000
317.053;  199.125;  204.925;    0.000
317.114;  180.125;  199.925;    0.000
317.175;  243.125;  230.925;    0.000
317.235;  187.125;  186.925;    0.000
317.296;  187.125;  224.925;    0.000
317.357;  184.125;  154.925;    0.000
317.418;  205.125;  219.925;    0.000
317.479;  206.125;  229.925;    0.000
317.540;  228.125;  201.925;    0.000
317.601;  190.125;  180.925;    0.000
317.661;  171.125;  179.925;    0.000
317.722;  205.125;  193.925;    0.000
317.783;  158.125;  164.925;    0.000
317.844;  195.125;  232.925;    0.000
317.904;  212.125;  222.925;    0.000
317.965;  206.125;  199.925;    0.000
318.026;  225.125;  200.925;    0.000
318.087;  246.125;  182.925;    0.000
318.148;  222.125;  216.925;    0.000
318.208;  209.125;  239.925;    0.000
318.269;  196.125;  163.925;    0.000
318.330;  215.125;  204.925;    0.000
318.390;  182.125;  191.925;    0.000
318.451;  176.125;  200.925;    0.000
318.512;  199.125;  181.925;    0.000
318.572;  213.125;  233.925;    0.000
318.633;  210.125;  220.925;    0.000
318.694;  210.125;  179.925;    0.000
318.754;  191.125;  214.925;    0.000
318.815;  216.125;  214.925;    0.000
318.876;  205.125;  220.925;    0.000
318.936;  218.125;  212.925;    0.000
318.997;  180.125;  201.925;    0.000
319.058;  204.125;  215.925;    0.000
319.118;  221.125;  251.925;    0.000
319.179;  197.125;  240.925;    0.000
319.239;  188.125;  240.925;    0.000
319.300;  209.125;  232.925;    0.000
319.361;  179.125;  211.925;    0.000
319.421;  207.125;  219.925;    0.000
319.482;  189.125;  228.925;    0.000
319.542;  221.125;  216.925;    0.000
319.603;  199.125;  190.925;    0.000
319.663;  212.125;  227.925;    0.000
319.724;  218.125;  191.925;    0.000
319.784;  169.125;  196.925;    0.000
319.845;  177.125;  190.925;    0.000
319.905;  186.125;  221.925;    0.000
319.966;  207.125;  219.925;    0.000
320.026;  236.125;  233.925;    0.000
320.087;  175.125;  204.925;    0.000
320.147;  231.125;  189.925;    0.000
320.208;  182.125;  200.925;    0.000
320.268;  172.125;  217.925;    0.000
320.329;  217.125;  216.925;    0.000
320.389;  228.125;  228.925;    0.000
320.449;  206.125;  236.925;    0.000
320.510;  224.125;  234.925;    0.000
320.570;  209.125;  176.925;    0.000
320.631;  229.125;  228.925;    0.000
320.691;  223.125;  228.925;    0.000
320.751;  218.125;  188.925;    0.000
320.812;  233.125;  223.925;    0.000
320.872;  231.125;  268.925;    0.000
320.932;  241.125;  226.925;    0.000
320.993;  216.125;  216.925;    0.000
321.053;  246.125;  236.925;    0.000
321.113;  211.125;  197.925;    0.000
321.174;  184.125;  218.925;    0.000
321.234;  221.125;  229.925;    0.000
321.294;  191.125;  208.925;    0.000
321.355;  204.125;  248.925;    0.000
321.415;  212.125;  218.925;    0.000
321.475;  193.125;  173.925;    0.000
321.535;  203.125;  234.925;    0.000
321.596;  222.125;  202.925;    0.000
321.656;  231.125;  246.925;    0.000
321.716;  207.125;  235.925;    0.000
321.776;  203.125;  210.925;    0.000
321.837;  208.125;  217.925;    0.000
321.897;  212.125;  215.925;    0.000
321.957;  230.125;  239.925;    0.000
322.017;  234.125;  173.925;    0.000
322.077;  262.125;  263.925;    0.000
322.138;  257.125;  232.925;    0.000
322.198;  193.125;  211.925;    0.000
322.258;  218.125;  213.925;    0.000
322.318;  212.125;  168.925;    0.000
322.378;  236.125;  251.925;    0.000
322.438;  235.125;  212.925;    0.000
322.499;  209.125;  265.925;    0.000
322.559;  214.125;  210.925;    0.000
322.619;  237.125;  242.925;    0.000
322.679;  245.125;  229.925;    0.000
322.739;  220.125;  216.925;    0.000
322.799;  195.125;  238.925;    0.000
322.859;  222.125;  249.925;    0.000
322.919;  191.125;  211.925;    0.000
322.979;  251.125;  244.925;    0.000
323.039;  217.125;  226.925;    0.000
323.099;  228.125;  223.925;    0.000
323.159;  218.125;  232.925;    0.000
323.219;  206.125;  203.925;    0.000
323.279;  228.125;  218.925;    0.000
323.339;  247.125;  231.925;    0.000
323.399;  243.125;  255.925;    0.000
323.459;  226.125;  244.925;    0.000
323.519;  270.125;  213.925;    0.000
323.579;  193.125;  193.925;    0.000
323.639;  204.125;  191.925;    0.000
323.699;  212.125;  199.925;    0.000
323.759;  212.125;  246.925;    0.000
323.819;  240.125;  206.925;    0.000
323.879;  227.125;  238.925;    0.000
323.939;  191.125;  229.925;    0.000
323.999;  193.125;  219.925;    0.000
324.059;  227.125;  177.925;    0.000
324.119;  243.125;  235.925;    0.000
324.178;  218.125;  211.925;    0.000
324.238;  174.125;  168.925;    0.000
324.298;  173.125;  205.925;    0.000
324.358;  230.125;  224.925;    0.000
324.418;  246.125;  235.925;    0.000
324.478;  200.125;  187.925;    0.000
324.538;  242.125;  230.925;    0.000
324.597;  205.125;  206.925;    0.000
324.657;  204.125;  180.925;    0.000
324.717;  220.125;  175.925;    0.000
324.777;  155.125;  169.925;    0.000
324.837;  184.125;  165.925;    0.000
324.896;  215.125;  205.925;    0.000
324.956;  215.125;  216.925;    0.000
325.016;  191.125;  197.925;    0.000
325.076;  192.125;  220.925;    0.000
325.135;  229.125;  242.925;    0.000
325.195;  194.125;  186.925;    0.000
325.255;  158.125;  160.925;    0.000
325.315;  232.125;  198.925;    0.000
325.374;  217.125;  208.925;    0.000
325.434;  185.125;  209.925;    0.000
325.494;  174.125;  191.925;    0.000
325.553;  200.125;  190.925;    0.000
325.613;  227.125;  229.925;    0.000
325.673;  165.125;  172.925;    0.000
325.732;  201.125;  160.925;    0.000
325.792;  196.125;  177.925;    0.000
325.852;  185.125;  201.925;    0.000
325.911;  186.125;  226.925;    0.000
325.971;  209.125;  224.925;    0.000
326.031;  203.125;  202.925;    0.000
326.090;  187.125;  232.925;    0.000
326.150;  185.125;  230.925;    0.000
326.209;  198.125;  201.925;    0.000
326.269;  221.125;  202.925;    0.000
326.328;  206.125;  203.925;    0.000
326.388;  162.125;  194.925;    0.000
326.448;  243.125;  233.925;    0.000
326.507;  224.125;  192.925;    0.000
326.567;  199.125;  163.925;    0.000
326.626;  212.125;  227.925;    0.000
326.686;  174.125;  177.925;    0.000
326.745;  174.125;  210.925;    0.000
326.805;  211.125;  198.925;    0.000
326.864;  224.125;  185.925;    0.000
326.924;  235.125;  255.925;    0.000
326.983;  210.125;  208.925;    0.000
327.043;  228.125;  241.925;    0.000
327.102;  226.125;  183.925;    0.000
327.161;  197.125;  210.925;    0.000
327.221;  210.125;  213.925;    0.000
327.280;  172.125;  194.925;    0.000
327.340;  191.125;  212.925;    0.000
327.399;  208.125;  209.925;    0.000
327.459;  217.125;  229.925;    0.000
327.518;  200.125;  196.925;    0.000
327.577;  203.125;  197.925;    0.000
327.637;  190.125;  210.925;    0.000
327.696;  205.125;  196.925;    0.000
327.755;  211.125;  216.925;    0.000
327.815;  223.125;  240.925;    0.000
327.874;  248.125;  250.925;    0.000
327.933;  226.125;  229.925;    0.000
327.993;  207.125;  202.925;    0.000
328.052;  232.125;  178.925;    0.000
328.111;  190.125;  230.925;    0.000
328.171;  211.125;  207.925;    0.000
328.230;  220.125;  170.925;    0.000
328.289;  224.125;  205.925;    0.000
328.349;  233.125;  235.925;    0.000
328.408;  232.125;  231.925;    0.000
328.467;  206.125;  217.925;    0.000
328.526;  239.125;  239.925;    0.000
328.586;  239.125;  214.925;    0.000
328.645;  223.125;  205.925;    0.000
328.704;  259.125;  211.925;    0.000
328.763;  232.125;  208.925;    0.000
328.822;  246.125;  251.925;    0.000
328.882;  226.125;  211.925;    0.000
328.941;  238.125;  232.925;    0.000
329.000;  252.125;  235.925;    0.000
329.059;  225.125;  222.925;    0.000
329.118;  252.125;  265.925;    0.000
329.177;  228.125;  237.925;    0.000
329.237;  240.125;  258.925;    0.000
329.296;  225.125;  225.925;    0.000
329.355;  225.125;  227.925;    0.000
329.414;  253.125;  212.925;    0.000
329.473;  241.125;  250.925;    0.000
329.532;  261.125;  263.925;    0.000
329.591;  207.125;  212.925;    0.000
329.650;  227.125;  219.925;    0.000
329.709;  229.125;  218.925;    0.000
329.768;  243.125;  195.925;    0.000
329.827;  219.125;  223.925;    0.000
329.886;  222.125;  230.925;    0.000
329.945;  220.125;  211.925;    0.000
330.004;  249.125;  247.925;    0.000
330.063;  246.125;  193.925;    0.000
330.122;  220.125;  229.925;    0.000
330.181;  256.125;  223.925;    0.000
330.240;  195.125;  199.925;    0.000
330.299;  167.125;  211.925;    0.000
330.358;  178.125;  198.925;    0.000
330.417;  199.125;  190.925;    0.000
330.476;  209.125;  237.925;    0.000
330.535;  252.125;  239.925;    0.000
330.594;  192.125;  207.925;    0.000
330.653;  208.125;  193.925;    0.000
330.712;  232.125;  225.925;    0.000
330.771;  237.125;  236.925;    0.000
330.830;  229.125;  219.925;    0.000
330.889;  199.125;  211.925;    0.000
330.948;  195.125;  194.925;    0.000
331.006;  213.125;  190.925;    0.000
331.065;  173.125;  192.925;    0.000
331.124;  221.125;  195.925;    0.000
331.183;  178.125;  191.925;    0.000
331.242;  194.125;  203.925;    0.000
331.301;  239.125;  183.925;    0.000
331.359;  205.125;  196.925;    0.000
331.418;  197.125;  209.925;    0.000
331.477;  236.125;  255.925;    0.000
331.536;  224.125;  237.925;    0.000
331.595;  226.125;  217.925;    0.000
331.653;  235.125;  198.925;    0.000
331.712;  237.125;  194.925;    0.000
331.771;  199.125;  229.925;    0.000
331.830;  247.125;  254.925;    0.000
331.888;  206.125;  218.925;    0.000
331.947;  200.125;  211.925;    0.000
332.006;  221.125;  261.925;    0.000
332.065;  208.125;  204.925;    0.000
332.123;  192.125;  225.925;    0.000
332.182;  226.125;  193.925;    0.000
332.241;  191.125;  201.925;    0.000
332.299;  205.125;  182.925;    0.000
332.358;  243.125;  244.925;    0.000
332.417;  211.125;  218.925;    0.000
332.475;  206.125;  218.925;    0.000
332.534;  222.125;  228.925;    0.000
332.592;  195.125;  199.925;    0.000
332.651;  218.125;  204.925;    0.000
332.710;  190.125;  217.925;    0.000
332.768;  230.125;  195.925;    0.000
332.827;  216.125;  182.925;    0.000
332.885;  206.125;  247.925;    0.000
332.944;  158.125;  170.925;    0.000
333.003;  200.125;  200.925;    0.000
333.061;  216.125;  243.925;    0.000
333.120;  193.125;  235.925;    0.000
333.178;  226.125;  195.925;    0.000
333.237;  194.125;  217.925;    0.000
333.295;  263.125;  252.925;    0.000
333.354;  207.125;  201.925;    0.000
333.412;  173.125;  181.925;    0.000
333.471;  206.125;  239.925;    0.000
333.529;  238.125;  214.925;    0.000
333.588;  224.125;  232.925;    0.000
333.646;  204.125;  202.925;    0.000
333.705;  233.125;  232.925;    0.000
333.763;  238.125;  215.925;    0.000
333.822;  196.125;  187.925;    0.000
333.880;  193.125;  186.925;    0.000
333.938;  225.125;  185.925;    0.000
333.997;  177.125;  234.925;    0.000
334.055;  236.125;  255.925;    0.000
334.114;  215.125;  225.925;    0.000
334.172;  201.125;  209.925;    0.000
334.230;  205.125;  194.925;    0.000
334.289;  209.125;  213.925;    0.000
334.347;  235.125;  235.925;    0.000
334.405;  230.125;  242.925;    0.000
334.464;  175.125;  208.925;    0.000
334.522;  199.125;  197.925;    0.000
334.580;  191.125;  204.925;    0.000
334.639;  220.125;  217.925;    0.000
334.697;  202.125;  183.925;    0.000
334.755;  212.125;  196.925;    0.000
334.814;  232.125;  216.925;    0.000
334.872;  216.125;  190.925;    0.000
334.930;  191.125;  162.925;    0.000
334.988;  206.125;  261.925;    0.000
335.047;  235.125;  220.925;    0.000
335.105;  205.125;  190.925;    0.000
335.163;  193.125;  201.925;    0.000
335.221;  206.125;  213.925;    0.000
335.280;  204.125;  202.925;    0.000
335.338;  196.125;  210.925;    0.000
335.396;  235.125;  255.925;    0.000
335.454;  225.125;  216.925;    0.000
335.512;  236.125;  242.925;    0.000
335.570;  227.125;  227.925;    0.000
335.629;  255.125;  225.925;    0.000
335.687;  258.125;  227.925;    0.000
335.745;  235.125;  194.925;    0.000
335.803;  257.125;  221.925;    0.000
335.861;  252.125;  217.925;    0.000
335.919;  234.125;  214.925;    0.000
335.977;  216.125;  209.925;    0.000
336.035;  258.125;  215.925;    0.000
336.094;  229.125;  198.925;    0.000
336.152;  211.125;  222.925;    0.000
336.210;  214.125;  225.925;    0.000
336.268;  243.125;  234.925;    0.000
336.326;  194.125;  209.925;    0.000
336.384;  235.125;  271.925;    0.000
336.442;  210.125;  207.925;    0.000
336.500;  208.125;  226.925;    0.000
336.558;  248.125;  219.925;    0.000
336.616;  260.125;  260.925;    0.000
336.674;  168.125;  205.925;    0.000
336.732;  192.125;  225.925;    0.000
336.790;  209.125;  191.925;    0.000
336.848;  241.125;  219.925;    0.000
336.906;  199.125;  230.925;    0.000
336.964;  223.125;  226.925;    0.000
337.022;  201.125;  266.925;    0.000
337.080;  243.125;  231.925;    0.000
337.138;  227.125;  249.925;    0.000
337.195;  252.125;  207.925;    0.000
337.253;  264.125;  207.925;    0.000
337.311;  247.125;  225.925;    0.000
337.369;  194.125;  211.925;    0.000
337.427;  246.125;  196.925;    0.000
337.485;  241.125;  269.925;    0.000
337.543;  263.125;  227.925;    0.000
337.601;  208.125;  260.925;    0.000
337.658;  240.125;  237.925;    0.000
337.716;  232.125;  222.925;    0.000
337.774;  239.125;  256.925;    0.000
337.832;  230.125;  223.925;    0.000
337.890;  211.125;  188.925;    0.000
337.947;  205.125;  212.925;    0.000
338.005;  229.125;  217.925;    0.000
338.063;  196.125;  200.925;    0.000
338.121;  248.125;  217.925;    0.000
338.178;  246.125;  236.925;    0.000
338.236;  235.125;  218.925;    0.000
338.294;  241.125;  238.925;    0.000
338.352;  269.125;  266.925;    0.000
338.409;  225.125;  240.925;    0.000
338.467;  236.125;  210.925;    0.000
338.525;  266.125;  255.925;    0.000
338.583;  217.125;  239.925;    0.000
338.640;  219.125;  243.925;    0.000
338.698;  259.125;  204.925;    0.000
338.756;  239.125;  219.925;    0.000
338.813;  220.125;  227.925;    0.000
338.871;  263.125;  227.925;    0.000
338.928;  240.125;  211.925;    0.000
338.986;  242.125;  254.925;    0.000
339.044;  230.125;  207.925;    0.000
339.101;  243.125;  229.925;    0.000
339.159;  242.125;  237.925;    0.000
339.216;  267.125;  231.925;    0.000
339.274;  258.125;  301.925;    0.000
339.332;  258.125;  259.925;    0.000
339.389;  240.125;  258.925;    0.000
339.447;  238.125;  226.925;    0.000
339.504;  242.125;  229.925;    0.000
339.562;  244.125;  244.925;    0.000
339.619;  274.125;  265.925;    0.000
339.677;  283.125;  253.925;    0.000
339.734;  184.125;  191.925;    0.000
339.792;  242.125;  238.925;    0.000
339.849;  233.125;  236.925;    0.000
339.907;  242.125;  254.925;    0.000
339.964;  212.125;  196.925;    0.000
340.022;  263.125;  247.925;    0.000
340.079;  218.125;  275.925;    0.000
340.137;  229.125;  248.925;    0.000
340.194;  258.125;  263.925;    0.000
340.252;  223.125;  266.925;    0.000
340.309;  176.125;  211.925;    0.000
340.366;  234.125;  237.925;    0.000
340.424;  237.125;  260.925;    0.000
340.481;  256.125;  255.925;    0.000
340.538;  204.125;  235.925;    0.000
340.596;  245.125;  225.925;    0.000
340.653;  234.125;  230.925;    0.000
340.711;  293.125;  272.925;    0.000
340.768;  261.125;  253.925;    0.000
340.825;  245.125;  201.925;    0.000
340.883;  225.125;  232.925;    0.000
340.940;  256.125;  247.925;    0.000
340.997;  253.125;  244.925;    0.000
341.054;  253.125;  244.925;    0.000
341.112;  287.125;  258.925;    0.000
341.169;  271.125;  238.925;    0.000
341.226;  247.125;  213.925;    0.000
341.284;  223.125;  240.925;    0.000
341.341;  221.125;  194.925;    0.000
341.398;  200.125;  191.925;    0.000
341.455;  228.125;  227.925;    0.000
341.512;  260.125;  238.925;    0.000
341.570;  244.125;  236.925;    0.000
341.627;  261.125;  241.925;    0.000
341.684;  199.125;  225.925;    0.000
341.741;  269.125;  299.925;    0.000
341.798;  271.125;  265.925;    0.000
341.856;  221.125;  230.925;    0.000
341.913;  267.125;  234.925;    0.000
341.970;  232.125;  260.925;    0.000
342.027;  257.125;  255.925;    0.000
342.084;  234.125;  260.925;    0.000
342.141;  233.125;  263.925;    0.000
342.198;  276.125;  245.925;    0.000
342.255;  221.125;  210.925;    0.000
342.313;  241.125;  251.925;    0.000
342.370;  238.125;  234.925;    0.000
342.427;  203.125;  249.925;    0.000
342.484;  231.125;  254.925;    0.000
342.541;  221.125;  229.925;    0.000
342.598;  263.125;  255.925;    0.000
342.655;  234.125;  225.925;    0.000
342.712;  226.125;  224.925;    0.000
342.769;  248.125;  215.925;    0.000
342.826;  245.125;  240.925;    0.000
342.883;  228.125;  233.925;    0.000
342.940;  214.125;  212.925;    0.000
342.997;  248.125;  236.925;    0.000
343.054;  215.125;  255.925;    0.000
343.111;  215.125;  228.925;    0.000
343.168;  231.125;  230.925;    0.000
343.225;  230.125;  258.925;    0.000
343.282;  249.125;  202.925;    0.000
343.339;  244.125;  253.925;    0.000
343.395;  232.125;  232.925;    0.000
343.452;  228.125;  253.925;    0.000
343.509;  230.125;  213.925;    0.000
343.566;  261.125;  259.925;    0.000
343.623;  239.125;  244.925;    0.000
343.680;  219.125;  232.925;    0.000
343.737;  235.125;  222.925;    0.000
343.794;  222.125;  204.925;    0.000
343.850;  257.125;  249.925;    0.000
343.907;  216.125;  212.925;    0.000
343.964;  246.125;  226.925;    0.000
344.021;  270.125;  251.925;    0.000
344.078;  246.125;  246.925;    0.000
344.134;  215.125;  218.925;    0.000
344.191;  239.125;  244.925;    0.000
344.248;  268.125;  211.925;    0.000
344.305;  206.125;  221.925;    0.000
344.361;  208.125;  247.925;    0.000
344.418;  218.125;  265.925;    0.000
344.475;  252.125;  254.925;    0.000
344.532;  231.125;  233.925;    0.000
344.588;  250.125;  236.925;    0.000
344.645;  235.125;  249.925;    0.000
344.702;  220.125;  220.925;    0.000
344.758;  239.125;  255.925;    0.000
344.815;  212.125;  236.925;    0.000
344.872;  206.125;  218.925;    0.000
344.928;  220.125;  230.925;    0.000
344.985;  251.125;  222.925;    0.000
345.042;  220.125;  199.925;    0.000
345.098;  227.125;  226.925;    0.000
345.155;  234.125;  245.925;    0.000
345.212;  269.125;  225.925;    0.000
345.268;  234.125;  237.925;    0.000
345.325;  267.125;  213.925;    0.000
345.381;  252.125;  267.925;    0.000
345.438;  260.125;  240.925;    0.000
345.495;  239.125;  254.925;    0.000
345.551;  248.125;  248.925;    0.000
345.608;  198.125;  196.925;    0.000
345.664;  223.125;  245.925;    0.000
345.721;  263.125;  252.925;    0.000
345.777;  234.125;  245.925;    0.000
345.834;  205.125;  210.925;    0.000
345.890;  226.125;  244.925;    0.000
345.947;  262.125;  238.925;    0.000
346.003;  252.125;  224.925;    0.000
346.060;  274.125;  206.925;    0.000
346.116;  211.125;  237.925;    0.000
346.173;  254.125;  242.925;    0.000
346.229;  234.125;  269.925;    0.000
346.285;  271.125;  262.925;    0.000
346.342;  242.125;  263.925;    0.000
346.398;  252.125;  224.925;    0.000
346.455;  228.125;  237.925;    0.000
346.511;  224.125;  216.925;    0.000
346.567;  204.125;  211.925;    0.000
346.624;  212.125;  225.925;    0.000
346.680;  247.125;  242.925;    0.000
346.737;  269.125;  244.925;    0.000
346.793;  265.125;  260.925;    0.000
346.849;  247.125;  251.925;    0.000
346.906;  249.125;  260.925;    0.000
346.962;  314.125;  267.925;    0.000
347.018;  229.125;  246.925;    0.000
347.074;  235.125;  272.925;    0.000
347.131;  212.125;  211.925;    0.000
347.187;  237.125;  240.925;    0.000
347.243;  264.125;  233.925;    0.000
347.300;  225.125;  225.925;    0.000
347.356;  304.125;  236.925;    0.000
347.412;  255.125;  237.925;    0.000
347.468;  245.125;  284.925;    0.000
347.524;  221.125;  252.925;    0.000
347.581;  293.125;  278.925;    0.000
347.637;  283.125;  262.925;    0.000
347.693;  278.125;  268.925;    0.000
347.749;  251.125;  260.925;    0.000
347.805;  217.125;  224.925;    0.000
347.862;  257.125;  243.925;    0.000
347.918;  270.125;  257.925;    0.000
347.974;  256.125;  248.925;    0.000
348.030;  228.125;  242.925;    0.000
348.086;  201.125;  234.925;    0.000
348.142;  253.125;  239.925;    0.000
348.198;  270.125;  260.925;    0.000
348.254;  271.125;  262.925;    0.000
348.311;  259.125;  263.925;    0.000
348.367;  243.125;  235.925;    0.000
348.423;  281.125;  205.925;    0.000
348.479;  258.125;  234.925;    0.000
348.535;  252.125;  257.925;    0.000
348.591;  260.125;  267.925;    0.000
348.647;  246.125;  243.925;    0.000
348.703;  269.125;  278.925;    0.000
348.759;  284.125;  259.925;    0.000
348.815;  279.125;  288.925;    0.000
348.871;  259.125;  269.925;    0.000
348.927;  250.125;  239.925;    0.000
348.983;  275.125;  289.925;    0.000
349.039;  255.125;  221.925;    0.000
349.095;  226.125;  252.925;    0.000
349.151;  256.125;  226.925;    0.000
349.207;  224.125;  263.925;    0.000
349.263;  228.125;  194.925;    0.000
349.319;  246.125;  212.925;    0.000
349.374;  232.125;  236.925;    0.000
349.430;  239.125;  229.925;    0.000
349.486;  235.125;  247.925;    0.000
349.542;  271.125;  263.925;    0.000
349.598;  260.125;  248.925;    0.000
349.654;  259.125;  252.925;    0.000
349.710;  260.125;  230.925;    0.000
349.766;  278.125;  201.925;    0.000
349.821;  264.125;  229.925;    0.000
349.877;  277.125;  282.925;    0.000
349.933;  276.125;  240.925;    0.000
349.989;  261.125;  251.925;    0.000
350.045;  272.125;  240.925;    0.000
350.100;  263.125;  256.925;    0.000
350.156;  287.125;  243.925;    0.000
350.212;  233.125;  250.925;    0.000
350.268;  249.125;  251.925;    0.000
350.323;  237.125;  208.925;    0.000
350.379;  238.125;  244.925;    0.000
350.435;  242.125;  237.925;    0.000
350.491;  203.125;  201.925;    0.000
350.546;  239.125;  225.925;    0.000
350.602;  221.125;  260.925;    0.000
350.658;  262.125;  224.925;    0.000
350.713;  228.125;  264.925;    0.000
350.769;  194.125;  196.925;    0.000
350.825;  202.125;  202.925;    0.000
350.880;  253.125;  232.925;    0.000
350.936;  270.125;  242.925;    0.000
350.992;  207.125;  238.925;    0.000
351.047;  226.125;  242.925;    0.000
351.103;  212.125;  199.925;    0.000
351.158;  235.125;  242.925;    0.000
351.214;  232.125;  225.925;    0.000
351.270;  216.125;  197.925;    0.000
351.325;  238.125;  231.925;    0.000
351.381;  235.125;  215.925;    0.000
351.436;  248.125;  233.925;    0.000
351.492;  239.125;  216.925;    0.000
351.547;  251.125;  244.925;    0.000
351.603;  222.125;  249.925;    0.000
351.658;  262.125;  249.925;    0.000
351.714;  191.125;  222.925;    0.000
351.769;  240.125;  222.925;    0.000
351.825;  230.125;  226.925;    0.000
351.880;  240.125;  238.925;    0.000
351.936;  218.125;  230.925;    0.000
351.991;  234.125;  243.925;    0.000
352.047;  233.125;  201.925;    0.000
352.102;  228.125;  243.925;    0.000
352.158;  261.125;  193.925;    0.000
352.213;  240.125;  219.925;    0.000
352.268;  278.125;  205.925;    0.000
352.324;  207.125;  246.925;    0.000
352.379;  245.125;  247.925;    0.000
352.434;  219.125;  252.925;    0.000
352.490;  245.125;  205.925;    0.000
352.545;  244.125;  262.925;    0.000
352.601;  258.125;  229.925;    0.000
352.656;  221.125;  207.925;    0.000
352.711;  236.125;  228.925;    0.000
352.767;  229.125;  216.925;    0.000
352.822;  243.125;  219.925;    0.000
352.877;  248.125;  234.925;    0.000
352.932;  261.125;  249.925;    0.000
352.988;  247.125;  196.925;    0.000
353.043;  265.125;  228.925;    0.000
353.098;  234.125;  231.925;    0.000
353.153;  239.125;  235.925;    0.000
353.209;  229.125;  250.925;    0.000
353.264;  248.125;  212.925;    0.000
353.319;  251.125;  234.925;    0.000
353.374;  242.125;  245.925;    0.000
353.430;  292.125;  261.925;    0.000
353.485;  275.125;  249.925;    0.000
353.540;  255.125;  260.925;    0.000
353.595;  240.125;  219.925;    0.000
353.650;  240.125;  242.925;    0.000
353.705;  271.125;  244.925;    0.000
353.761;  252.125;  242.925;    0.000
353.816;  240.125;  214.925;    0.000
353.871;  269.125;  237.925;    0.000
353.926;  269.125;  233.925;    0.000
353.981;  266.125;  250.925;    0.000
354.036;  251.125;  239.925;    0.000
354.091;  261.125;  289.925;    0.000
354.146;  273.125;  282.925;    0.000
354.201;  289.125;  244.925;    0.000
354.256;  216.125;  257.925;    0.000
354.311;  282.125;  305.925;    0.000
354.367;  241.125;  220.925;    0.000
354.422;  245.125;  261.925;    0.000
354.477;  227.125;  212.925;    0.000
354.532;  245.125;  254.925;    0.000
354.587;  286.125;  252.925;    0.000
354.642;  209.125;  210.925;    0.000
354.697;  253.125;  232.925;    0.000
354.751;  260.125;  254.925;    0.000
354.806;  249.125;  233.925;    0.000
354.861;  242.125;  244.925;    0.000
354.916;  253.125;  235.925;    0.000
354.971;  265.125;  258.925;    0.000
355.026;  269.125;  251.925;    0.000
355.081;  247.125;  254.925;    0.000
355.136;  240.125;  212.925;    0.000
355.191;  211.125;  211.925;    0.000
355.246;  223.125;  237.925;    0.000
355.301;  257.125;  255.925;    0.000
355.355;  222.125;  231.925;    0.000
355.410;  239.125;  224.925;    0.000
355.465;  200.125;  235.925;    0.000
355.520;  254.125;  244.925;    0.000
355.575;  277.125;  267.925;    0.000
355.630;  264.125;  255.925;    0.000
355.684;  236.125;  254.925;    0.000
355.739;  229.125;  217.925;    0.000
355.794;  234.125;  206.925;    0.000
355.849;  227.125;  221.925;    0.000
355.904;  221.125;  257.925;    0.000
355.958;  227.125;  221.925;    0.000
356.013;  205.125;  192.925;    0.000
356.068;  222.125;  267.925;    0.000
356.123;  232.125;  218.925;    0.000
356.177;  237.125;  236.925;    0.000
356.232;  262.125;  236.925;    0.000
356.287;  263.125;  246.925;    0.000
356.341;  248.125;  241.925;    0.000
356.396;  211.125;  219.925;    0.000
356.451;  217.125;  244.925;    0.000
356.505;  252.125;  248.925;    0.000
356.560;  252.125;  267.925;    0.000
356.615;  221.125;  258.925;    0.000
356.669;  268.125;  291.925;    0.000
356.724;  269.125;  272.925;    0.000
356.778;  247.125;  244.925;    0.000
356.833;  201.125;  223.925;    0.000
356.888;  263.125;  245.925;    0.000
356.942;  237.125;  221.925;    0.000
356.997;  275.125;  254.925;    0.000
357.051;  222.125;  244.925;    0.000
357.106;  257.125;  227.925;    0.000
357.160;  240.125;  176.925;    0.000
357.215;  255.125;  234.925;    0.000
357.269;  242.125;  233.925;    0.000
357.324;  246.125;  232.925;    0.000
357.378;  225.125;  211.925;    0.000
357.433;  221.125;  252.925;    0.000
357.487;  242.125;  227.925;    0.000
357.542;  220.125;  246.925;    0.000
357.596;  248.125;  260.925;    0.000
357.651;  231.125;  301.925;    0.000
357.705;  257.125;  230.925;    0.000
357.760;  254.125;  211.925;    0.000
357.814;  257.125;  265.925;    0.000
357.868;  277.125;  220.925;    0.000
357.923;  244.125;  220.925;    0.000
357.977;  259.125;  245.925;    0.000
358.032;  248.125;  247.925;    0.000
358.086;  259.125;  242.925;    0.000
358.140;  283.125;  270.925;    0.000
358.195;  275.125;  242.925;    0.000
358.249;  252.125;  238.925;    0.000
358.303;  253.125;  285.925;    0.000
358.358;  254.125;  265.925;    0.000
358.412;  268.125;  265.925;    0.000
358.466;  266.125;  257.925;    0.000
358.521;  251.125;  251.925;    0.000
358.575;  263.125;  254.925;    0.000
358.629;  254.125;  278.925;    0.000
358.683;  241.125;  288.925;    0.000
358.738;  288.125;  302.925;    0.000
358.792;  224.125;  239.925;    0.000
358.846;  288.125;  293.925;    0.000
358.900;  256.125;  271.925;    0.000
358.954;  267.125;  300.925;    0.000
359.009;  275.125;  279.925;    0.000
359.063;  257.125;  249.925;    0.000
359.117;  275.125;  264.925;    0.000
359.171;  283.125;  279.925;    0.000
359.225;  260.125;  276.925;    0.000
359.280;  242.125;  237.925;    0.000
359.334;  265.125;  280.925;    0.000
359.388;  282.125;  282.925;    0.000
359.442;  234.125;  243.925;    0.000
359.496;  191.125;  204.925;    0.000
359.550;  276.125;  308.925;    0.000
359.604;  273.125;  264.925;    0.000
359.658;  226.125;  247.925;    0.000
359.712;  252.125;  273.925;    0.000
359.766;  282.125;  212.925;    0.000
359.820;  261.125;  228.925;    0.000
359.875;  267.125;  248.925;    0.000
359.929;  258.125;  271.925;    0.000
359.983;  275.125;  274.925;    0.000
360.037;  292.125;  262.925;    0.000
360.091;  273.125;  302.925;    0.000
360.145;  258.125;  244.925;    0.000
360.199;  258.125;  253.925;    0.000
360.253;  288.125;  285.925;    0.000
360.306;  269.125;  287.925;    0.000
360.360;  273.125;  267.925;    0.000
360.414;  292.125;  250.925;    0.000
360.468;  276.125;  270.925;    0.000
360.522;  263.125;  276.925;    0.000
360.576;  235.125;  269.925;    0.000
360.630;  281.125;  281.925;    0.000
360.684;  311.125;  291.925;    0.000
360.738;  267.125;  325.925;    0.000
360.792;  282.125;  320.925;    0.000
360.846;  288.125;  276.925;    0.000
360.899;  317.125;  314.925;    0.000
360.953;  278.125;  275.925;    0.000
361.007;  294.125;  292.925;    0.000
361.061;  278.125;  278.925;    0.000
361.115;  273.125;  264.925;    0.000
361.168;  303.125;  317.925;    0.000
361.222;  298.125;  277.925;    0.000
361.276;  278.125;  274.925;    0.000
361.330;  296.125;  269.925;    0.000
361.384;  255.125;  280.925;    0.000
361.437;  280.125;  304.925;    0.000
361.491;  258.125;  256.925;    0.000
361.545;  298.125;  293.925;    0.000
361.599;  249.125;  284.925;    0.000
361.652;  284.125;  274.925;    0.000
361.706;  263.125;  284.925;    0.000
361.760;  290.125;  260.925;    0.000
361.813;  268.125;  272.925;    0.000
361.867;  293.125;  300.925;    0.000
361.921;  269.125;  275.925;    0.000
361.974;  278.125;  258.925;    0.000
362.028;  298.125;  248.925;    0.000
362.082;  259.125;  252.925;    0.000
362.135;  273.125;  240.925;    0.000
362.189;  271.125;  259.925;    0.000
362.242;  322.125;  267.925;    0.000
362.296;  298.125;  280.925;    0.000
362.350;  300.125;  282.925;    0.000
362.403;  273.125;  288.925;    0.000
362.457;  298.125;  253.925;    0.000
362.510;  286.125;  323.925;    0.000
362.564;  260.125;  286.925;    0.000
362.617;  315.125;  317.925;    0.000
362.671;  279.125;  286.925;    0.000
362.724;  280.125;  274.925;    0.000
362.778;  300.125;  295.925;    0.000
362.831;  299.125;  289.925;    0.000
362.885;  300.125;  318.925;    0.000
362.938;  274.125;  271.925;    0.000
362.992;  269.125;  285.925;    0.000
363.045;  263.125;  291.925;    0.000
363.099;  270.125;  276.925;    0.000
363.152;  283.125;  309.925;    0.000
363.205;  278.125;  263.925;    0.000
363.259;  275.125;  288.925;    0.000
363.312;  326.125;  333.925;    0.000
363.366;  292.125;  328.925;    0.000
363.419;  320.125;  328.925;    0.000
363.472;  310.125;  295.925;    0.000
363.526;  302.125;  334.925;    0.000
363.579;  298.125;  312.925;    0.000
363.632;  313.125;  274.925;    0.000
363.686;  279.125;  282.925;    0.000
363.739;  292.125;  289.925;    0.000
363.792;  292.125;  287.925;    0.000

