
Integration time [ms]:   0.300
Averaging Nr. [scans]: 1
Smoothing Nr. [pixels]: 0
Data measured with spectrometer [name]: NIR
Wave   ;Sample   ;Dark     ;Reference
[nm]   ;[counts] ;[counts] ;[counts] 

691.496;   73.750;  102.875;    0.000
691.696;  114.750;  181.875;    0.000
691.896;   50.750;  138.875;    0.000
692.096;  104.750;  182.875;    0.000
692.296;   25.750;  145.875;    0.000
692.496;   90.750;  154.875;    0.000
692.695;   58.750;  108.875;    0.000
692.895;   94.750;  176.875;    0.000
693.095;   59.750;  138.875;    0.000
693.295;  100.750;  192.875;    0.000
693.495;  112.750;  170.875;    0.000
693.695;   74.750;  147.875;    0.000
693.894;   92.750;  191.875;    0.000
694.094;   87.750;  148.875;    0.000
694.294;   55.750;  147.875;    0.000
694.494;  129.750;  140.875;    0.000
694.693;  712.750;  137.875;    0.000
694.893;  811.750;  141.875;    0.000
695.093;  793.750;  105.875;    0.000
695.293;  829.750;  115.875;    0.000
695.492;  888.750;   81.875;    0.000
695.692;  751.750;  162.875;    0.000
695.891;  901.750;  162.875;    0.000
696.091;  846.750;  166.875;    0.000
696.291;  928.750;  143.875;    0.000
696.490;  859.750;  170.875;    0.000
696.690;  825.750;  142.875;    0.000
696.889;  890.750;  186.875;    0.000
697.089;  848.750;  120.875;    0.000
697.288;  909.750;  215.875;    0.000
697.488;  903.750;  178.875;    0.000
697.687;  796.750;  170.875;    0.000
697.887;  856.750;  140.875;    0.000
698.086;  863.750;  131.875;    0.000
698.286;  770.750;  117.875;    0.000
698.485;  861.750;  136.875;    0.000
698.684;  807.750;  126.875;    0.000
698.884;  911.750;  161.875;    0.000
699.083;  885.750;   95.875;    0.000
699.282;  970.750;  120.875;    0.000
699.482;  930.750;  131.875;    0.000
699.681;  823.750;  168.875;    0.000
699.880;  885.750;  154.875;    0.000
700.080;  916.750;  149.875;    0.000
700.279;  830.750;   99.875;    0.000
700.478;  840.750;  157.875;    0.000
700.677;  885.750;  111.875;    0.000
700.877;  836.750;  126.875;    0.000
701.076;  909.750;  142.875;    0.000
701.275;  844.750;  107.875;    0.000
701.474;  925.750;   72.875;    0.000
701.673;  926.750;   87.875;    0.000
701.872;  887.750;  170.875;    0.000
702.071;  846.750;  136.875;    0.000
702.271;  951.750;  121.875;    0.000
702.470;  914.750;  139.875;    0.000
702.669;  804.750;  121.875;    0.000
702.868;  991.750;  146.875;    0.000
703.067;  902.750;  159.875;    0.000
703.266; 1015.750;  122.875;    0.000
703.465;  926.750;  121.875;    0.000
703.664;  907.750;  144.875;    0.000
703.863;  967.750;  140.875;    0.000
704.062;  920.750;  109.875;    0.000
704.260;  933.750;  164.875;    0.000
704.459;  868.750;  124.875;    0.000
704.658;  943.750;  109.875;    0.000
704.857;  847.750;  149.875;    0.000
705.056;  851.750;  112.875;    0.000
705.255;  856.750;   95.875;    0.000
705.454;  895.750;  105.875;    0.000
705.652;  939.750;  134.875;    0.000
705.851;  983.750;   92.875;    0.000
706.050; 1101.750;  127.875;    0.000
706.249;  785.750;  111.875;    0.000
706.447;  889.750;   98.875;    0.000
706.646;  835.750;  108.875;    0.000
706.845; 1087.750;   95.875;    0.000
707.043;  956.750;   95.875;    0.000
707.242;  890.750;   97.875;    0.000
707.441;  990.750;  142.875;    0.000
707.639;  889.750;  121.875;    0.000
707.838;  939.750;  141.875;    0.000
708.037;  879.750;  125.875;    0.000
708.235; 1010.750;  100.875;    0.000
708.434;  872.750;  106.875;    0.000
708.632;  864.750;   86.875;    0.000
708.831; 1005.750;  138.875;    0.000
709.029;  925.750;   86.875;    0.000
709.228;  904.750;  103.875;    0.000
709.426;  905.750;  146.875;    0.000
709.625;  953.750;  136.875;    0.000
709.823;  862.750;  114.875;    0.000
710.022;  902.750;  144.875;    0.000
710.220;  965.750;  109.875;    0.000
710.418; 1056.750;  116.875;    0.000
710.617;  868.750;   67.875;    0.000
710.815;  992.750;  104.875;    0.000
711.013;  952.750;  109.875;    0.000
711.212;  980.750;  106.875;    0.000
711.410;  939.750;   95.875;    0.000
711.608;  919.750;  155.875;    0.000
711.807; 1031.750;  103.875;    0.000
712.005;  931.750;  104.875;    0.000
712.203;  827.750;   94.875;    0.000
712.401;  975.750;  125.875;    0.000
712.599;  989.750;  127.875;    0.000
712.798; 1121.750;  141.875;    0.000
712.996;  849.750;   85.875;    0.000
713.194; 1025.750;   96.875;    0.000
713.392;  939.750;   54.875;    0.000
713.590;  934.750;  123.875;    0.000
713.788;  890.750;  130.875;    0.000
713.986;  998.750;  104.875;    0.000
714.184;  952.750;   91.875;    0.000
714.382; 1021.750;  120.875;    0.000
714.580;  906.750;   71.875;    0.000
714.778;  964.750;   92.875;    0.000
714.976;  824.750;  129.875;    0.000
715.174;  963.750;   99.875;    0.000
715.372; 1050.750;  119.875;    0.000
715.570; 1130.750;   95.875;    0.000
715.768; 1221.750;  113.875;    0.000
715.966; 1217.750;   64.875;    0.000
716.164; 1221.750;  135.875;    0.000
716.362; 1230.750;  125.875;    0.000
716.560; 1194.750;  135.875;    0.000
716.758;  994.750;   84.875;    0.000
716.955; 1028.750;  109.875;    0.000
717.153; 1064.750;   73.875;    0.000
717.351; 1000.750;  110.875;    0.000
717.549; 1030.750;  149.875;    0.000
717.746; 1020.750;  121.875;    0.000
717.944;  981.750;  128.875;    0.000
718.142; 1041.750;  124.875;    0.000
718.340;  987.750;   96.875;    0.000
718.537; 1160.750;  138.875;    0.000
718.735; 1089.750;  144.875;    0.000
718.933; 1002.750;   97.875;    0.000
719.130; 1146.750;  109.875;    0.000
719.328; 1047.750;  123.875;    0.000
719.525; 1007.750;  118.875;    0.000
719.723; 1016.750;  117.875;    0.000
719.920;  936.750;   72.875;    0.000
720.118; 1092.750;   92.875;    0.000
720.316; 1113.750;  141.875;    0.000
720.513; 1061.750;   98.875;    0.000
720.711; 1017.750;  146.875;    0.000
720.908;  993.750;  113.875;    0.000
721.105; 1025.750;  157.875;    0.000
721.303; 1008.750;  106.875;    0.000
721.500;  956.750;   88.875;    0.000
721.698;  960.750;   88.875;    0.000
721.895; 1040.750;   94.875;    0.000
722.092;  958.750;   82.875;    0.000
722.290; 1115.750;  136.875;    0.000
722.487; 1009.750;   67.875;    0.000
722.684; 1185.750;  115.875;    0.000
722.882; 1063.750;  104.875;    0.000
723.079; 1030.750;  122.875;    0.000
723.276; 1015.750;   91.875;    0.000
723.473; 1028.750;   89.875;    0.000
723.671; 1084.750;   97.875;    0.000
723.868; 1043.750;  117.875;    0.000
724.065; 1144.750;  102.875;    0.000
724.262; 1041.750;  137.875;    0.000
724.459; 1025.750;   48.875;    0.000
724.656; 1051.750;  122.875;    0.000
724.854; 1143.750;   96.875;    0.000
725.051; 1135.750;  120.875;    0.000
725.248; 1050.750;  146.875;    0.000
725.445;  978.750;  117.875;    0.000
725.642; 1059.750;  106.875;    0.000
725.839; 1135.750;  143.875;    0.000
726.036; 1003.750;   79.875;    0.000
726.233; 1098.750;   90.875;    0.000
726.430; 1036.750;  124.875;    0.000
726.627; 1125.750;   98.875;    0.000
726.824; 1115.750;   91.875;    0.000
727.021; 1145.750;  131.875;    0.000
727.218;  934.750;  110.875;    0.000
727.414; 1193.750;   83.875;    0.000
727.611; 1048.750;   86.875;    0.000
727.808; 1049.750;  131.875;    0.000
728.005; 1132.750;  105.875;    0.000
728.202; 1058.750;  128.875;    0.000
728.399; 1054.750;  113.875;    0.000
728.595; 1039.750;  102.875;    0.000
728.792;  960.750;   91.875;    0.000
728.989;  965.750;  122.875;    0.000
729.186; 1108.750;  103.875;    0.000
729.382; 1104.750;  106.875;    0.000
729.579; 1059.750;  114.875;    0.000
729.776; 1155.750;  115.875;    0.000
729.972; 1106.750;  108.875;    0.000
730.169; 1199.750;  111.875;    0.000
730.366; 1055.750;  100.875;    0.000
730.562; 1119.750;   86.875;    0.000
730.759; 1121.750;   93.875;    0.000
730.955; 1160.750;  127.875;    0.000
731.152; 1099.750;   99.875;    0.000
731.348; 1095.750;   97.875;    0.000
731.545; 1181.750;   98.875;    0.000
731.741; 1124.750;  130.875;    0.000
731.938; 1167.750;  115.875;    0.000
732.134; 1129.750;  107.875;    0.000
732.331; 1119.750;   80.875;    0.000
732.527; 1120.750;  108.875;    0.000
732.724; 1077.750;  104.875;    0.000
732.920; 1145.750;  109.875;    0.000
733.116; 1020.750;  117.875;    0.000
733.313; 1117.750;   81.875;    0.000
733.509; 1189.750;   87.875;    0.000
733.705; 1042.750;  143.875;    0.000
733.902; 1168.750;   74.875;    0.000
734.098; 1057.750;   90.875;    0.000
734.294; 1040.750;  104.875;    0.000
734.490; 1070.750;  139.875;    0.000
734.687; 1090.750;  113.875;    0.000
734.883;  963.750;   72.875;    0.000
735.079; 1124.750;  100.875;    0.000
735.275; 1101.750;  113.875;    0.000
735.471;  962.750;   55.875;    0.000
735.667; 1068.750;  106.875;    0.000
735.863; 1175.750;  131.875;    0.000
736.060; 1085.750;  127.875;    0.000
736.256; 1170.750;   76.875;    0.000
736.452; 1074.750;  127.875;    0.000
736.648; 1233.750;  136.875;    0.000
736.844; 1085.750;  113.875;    0.000
737.040; 1166.750;  125.875;    0.000
737.236; 1200.750;   99.875;    0.000
737.432; 1178.750;   75.875;    0.000
737.628; 1170.750;  155.875;    0.000
737.824; 1194.750;  116.875;    0.000
738.019; 1036.750;   92.875;    0.000
738.215; 1103.750;  113.875;    0.000
738.411; 1198.750;  135.875;    0.000
738.607; 1072.750;   53.875;    0.000
738.803; 1152.750;   79.875;    0.000
738.999; 1153.750;  117.875;    0.000
739.195; 1137.750;  106.875;    0.000
739.390; 1080.750;  125.875;    0.000
739.586; 1077.750;  102.875;    0.000
739.782; 1107.750;  125.875;    0.000
739.978; 1138.750;  124.875;    0.000
740.173; 1264.750;   96.875;    0.000
740.369; 1181.750;  118.875;    0.000
740.565; 1212.750;  128.875;    0.000
740.760; 1291.750;  118.875;    0.000
740.956; 1218.750;  109.875;    0.000
741.152; 1141.750;  151.875;    0.000
741.347; 1230.750;  112.875;    0.000
741.543; 1227.750;  113.875;    0.000
741.738; 1373.750;  128.875;    0.000
741.934; 1354.750;  144.875;    0.000
742.129; 1280.750;  105.875;    0.000
742.325; 1528.750;  137.875;    0.000
742.520; 1615.750;  128.875;    0.000
742.716; 1410.750;  121.875;    0.000
742.911; 1570.750;   75.875;    0.000
743.107; 1461.750;  100.875;    0.000
743.302; 1421.750;   72.875;    0.000
743.498; 1615.750;  137.875;    0.000
743.693; 1482.750;  124.875;    0.000
743.888; 1562.750;  121.875;    0.000
744.084; 1656.750;   93.875;    0.000
744.279; 2032.750;   75.875;    0.000
744.474; 2131.750;  136.875;    0.000
744.670; 1924.750;  109.875;    0.000
744.865; 1676.750;  142.875;    0.000
745.060; 1549.750;   84.875;    0.000
745.255; 1641.750;  149.875;    0.000
745.451; 1651.750;  101.875;    0.000
745.646; 1511.750;  132.875;    0.000
745.841; 1499.750;  126.875;    0.000
746.036; 1550.750;  125.875;    0.000
746.231; 1530.750;  150.875;    0.000
746.426; 1577.750;  118.875;    0.000
746.622; 2031.750;  135.875;    0.000
746.817; 2399.750;  122.875;    0.000
747.012; 2544.750;  134.875;    0.000
747.207; 2536.750;  124.875;    0.000
747.402; 2008.750;  122.875;    0.000
747.597; 1845.750;   95.875;    0.000
747.792; 1859.750;  168.875;    0.000
747.987; 1817.750;  110.875;    0.000
748.182; 1641.750;  119.875;    0.000
748.377; 1685.750;   70.875;    0.000
748.572; 1596.750;  113.875;    0.000
748.767; 1447.750;  123.875;    0.000
748.961; 1446.750;  110.875;    0.000
749.156; 1622.750;  135.875;    0.000
749.351; 1352.750;   98.875;    0.000
749.546; 1515.750;  126.875;    0.000
749.741; 1261.750;  129.875;    0.000
749.936; 1444.750;   86.875;    0.000
750.130; 1324.750;   97.875;    0.000
750.325; 1483.750;  110.875;    0.000
750.520; 1347.750;  120.875;    0.000
750.715; 1544.750;  122.875;    0.000
750.909; 1455.750;  120.875;    0.000
751.104; 1319.750;  118.875;    0.000
751.299; 1407.750;  122.875;    0.000
751.493; 1377.750;  129.875;    0.000
751.688; 1465.750;  138.875;    0.000
751.882; 1315.750;   87.875;    0.000
752.077; 1473.750;  142.875;    0.000
752.272; 1339.750;  110.875;    0.000
752.466; 1354.750;  154.875;    0.000
752.661; 1328.750;   96.875;    0.000
752.855; 1255.750;   93.875;    0.000
753.050; 1336.750;  122.875;    0.000
753.244; 1417.750;  110.875;    0.000
753.439; 1356.750;  116.875;    0.000
753.633; 1293.750;  131.875;    0.000
753.828; 1307.750;  130.875;    0.000
754.022; 1245.750;   96.875;    0.000
754.216; 1258.750;  114.875;    0.000
754.411; 1325.750;  145.875;    0.000
754.605; 1316.750;   65.875;    0.000
754.799; 1249.750;  116.875;    0.000
754.994; 1326.750;  117.875;    0.000
755.188; 1506.750;  124.875;    0.000
755.382; 1262.750;   80.875;    0.000
755.576; 1337.750;   90.875;    0.000
755.771; 1316.750;  115.875;    0.000
755.965; 1272.750;  106.875;    0.000
756.159; 1150.750;   87.875;    0.000
756.353; 1414.750;  125.875;    0.000
756.547; 1292.750;  146.875;    0.000
756.742; 1291.750;  111.875;    0.000
756.936; 1255.750;  108.875;    0.000
757.130; 1238.750;  101.875;    0.000
757.324; 1288.750;  114.875;    0.000
757.518; 1215.750;  136.875;    0.000
757.712; 1249.750;  123.875;    0.000
757.906; 1307.750;  115.875;    0.000
758.100; 1364.750;  186.875;    0.000
758.294; 1431.750;  118.875;    0.000
758.488; 1233.750;  167.875;    0.000
758.682; 1232.750;  137.875;    0.000
758.876; 1299.750;  135.875;    0.000
759.070; 1201.750;  132.875;    0.000
759.264; 1313.750;  118.875;    0.000
759.458; 1284.750;  111.875;    0.000
759.651; 1145.750;  142.875;    0.000
759.845; 1233.750;  105.875;    0.000
760.039; 1292.750;   73.875;    0.000
760.233; 1340.750;  156.875;    0.000
760.427; 1297.750;  119.875;    0.000
760.620; 1248.750;  136.875;    0.000
760.814; 1254.750;  126.875;    0.000
761.008; 1231.750;  126.875;    0.000
761.202; 1267.750;  123.875;    0.000
761.395; 1384.750;  141.875;    0.000
761.589; 1185.750;  107.875;    0.000
761.783; 1218.750;  122.875;    0.000
761.976; 1245.750;  120.875;    0.000
762.170; 1325.750;  147.875;    0.000
762.363; 1413.750;  144.875;    0.000
762.557; 1284.750;  119.875;    0.000
762.750; 1300.750;  118.875;    0.000
762.944; 1218.750;  145.875;    0.000
763.138; 1418.750;  123.875;    0.000
763.331; 1246.750;  129.875;    0.000
763.524; 1343.750;  109.875;    0.000
763.718; 1293.750;  150.875;    0.000
763.911; 1334.750;  140.875;    0.000
764.105; 1298.750;   97.875;    0.000
764.298; 1242.750;  128.875;    0.000
764.492; 1443.750;  132.875;    0.000
764.685; 1350.750;   92.875;    0.000
764.878; 1178.750;  111.875;    0.000
765.072; 1288.750;  116.875;    0.000
765.265; 1224.750;  135.875;    0.000
765.458; 1309.750;   69.875;    0.000
765.651; 1264.750;  145.875;    0.000
765.845; 1244.750;   95.875;    0.000
766.038; 1359.750;  147.875;    0.000
766.231; 1607.750;  119.875;    0.000
766.424; 3214.750;  126.875;    0.000
766.617; 3953.750;   92.875;    0.000
766.811; 1711.750;  109.875;    0.000
767.004; 1295.750;  107.875;    0.000
767.197; 1361.750;  171.875;    0.000
767.390; 1352.750;  114.875;    0.000
767.583; 1292.750;  109.875;    0.000
767.776; 1463.750;  130.875;    0.000
767.969; 1273.750;  103.875;    0.000
768.162; 1306.750;  139.875;    0.000
768.355; 1391.750;  142.875;    0.000
768.548; 1505.750;  140.875;    0.000
768.741; 1435.750;   82.875;    0.000
768.934; 1358.750;  107.875;    0.000
769.127; 1426.750;  121.875;    0.000
769.320; 1377.750;  106.875;    0.000
769.513; 1520.750;  145.875;    0.000
769.706; 1689.750;  120.875;    0.000
769.898; 3210.750;  135.875;    0.000
770.091; 2526.750;  146.875;    0.000
770.284; 1388.750;  108.875;    0.000
770.477; 1469.750;  148.875;    0.000
770.670; 1428.750;  163.875;    0.000
770.862; 1552.750;   97.875;    0.000
771.055; 1378.750;  116.875;    0.000
771.248; 1327.750;  143.875;    0.000
771.441; 1234.750;  125.875;    0.000
771.633; 1457.750;  125.875;    0.000
771.826; 1625.750;  132.875;    0.000
772.018; 1460.750;  123.875;    0.000
772.211; 1487.750;  143.875;    0.000
772.404; 1496.750;  144.875;    0.000
772.596; 1426.750;  130.875;    0.000
772.789; 1558.750;  109.875;    0.000
772.981; 1555.750;  151.875;    0.000
773.174; 1451.750;  119.875;    0.000
773.366; 1565.750;  179.875;    0.000
773.559; 1604.750;  106.875;    0.000
773.751; 1736.750;  120.875;    0.000
773.944; 1593.750;  159.875;    0.000
774.136; 1681.750;  131.875;    0.000
774.329; 1676.750;  141.875;    0.000
774.521; 1563.750;  114.875;    0.000
774.713; 1925.750;  169.875;    0.000
774.906; 1804.750;  151.875;    0.000
775.098; 1998.750;   99.875;    0.000
775.290; 1917.750;  166.875;    0.000
775.483; 1977.750;  146.875;    0.000
775.675; 2152.750;  106.875;    0.000
775.867; 2197.750;   91.875;    0.000
776.059; 2132.750;  137.875;    0.000
776.251; 2724.750;  124.875;    0.000
776.444; 2828.750;  168.875;    0.000
776.636; 3247.750;  138.875;    0.000
776.828; 3792.750;  155.875;    0.000
777.020; 5315.750;  160.875;    0.000
777.212; 7645.750;  153.875;    0.000
777.404; 8823.750;  135.875;    0.000
777.596; 8165.750;  144.875;    0.000
777.788; 6297.750;  127.875;    0.000
777.980; 4477.750;  141.875;    0.000
778.172; 3810.750;  138.875;    0.000
778.364; 3231.750;  143.875;    0.000
778.556; 2998.750;  123.875;    0.000
778.748; 3040.750;  103.875;    0.000
778.940; 2610.750;  176.875;    0.000
779.132; 2462.750;  144.875;    0.000
779.324; 2203.750;   75.875;    0.000
779.516; 2270.750;  117.875;    0.000
779.708; 1959.750;  151.875;    0.000
779.900; 2096.750;  127.875;    0.000
780.091; 1786.750;  155.875;    0.000
780.283; 1743.750;  157.875;    0.000
780.475; 1742.750;  140.875;    0.000
780.667; 1871.750;  141.875;    0.000
780.859; 1589.750;  113.875;    0.000
781.050; 1550.750;  153.875;    0.000
781.242; 1629.750;  118.875;    0.000
781.434; 1492.750;  121.875;    0.000
781.625; 1657.750;  146.875;    0.000
781.817; 1528.750;  154.875;    0.000
782.008; 1554.750;  144.875;    0.000
782.200; 1424.750;  152.875;    0.000
782.392; 1437.750;  160.875;    0.000
782.583; 1472.750;  122.875;    0.000
782.775; 1453.750;  144.875;    0.000
782.966; 1456.750;  143.875;    0.000
783.158; 1379.750;  125.875;    0.000
783.349; 1470.750;  173.875;    0.000
783.541; 1249.750;  166.875;    0.000
783.732; 1466.750;  163.875;    0.000
783.924; 1447.750;  157.875;    0.000
784.115; 1381.750;  158.875;    0.000
784.306; 1478.750;  160.875;    0.000
784.498; 1626.750;  132.875;    0.000
784.689; 1436.750;  181.875;    0.000
784.880; 1443.750;  156.875;    0.000
785.072; 1432.750;  134.875;    0.000
785.263; 1306.750;  155.875;    0.000
785.454; 1360.750;  141.875;    0.000
785.645; 1475.750;  114.875;    0.000
785.837; 1365.750;  137.875;    0.000
786.028; 1255.750;  158.875;    0.000
786.219; 1332.750;  135.875;    0.000
786.410; 1371.750;  152.875;    0.000
786.601; 1347.750;  132.875;    0.000
786.792; 1456.750;  152.875;    0.000
786.984; 1327.750;  162.875;    0.000
787.175; 1371.750;   97.875;    0.000
787.366; 1389.750;  129.875;    0.000
787.557; 1189.750;  135.875;    0.000
787.748; 1215.750;  127.875;    0.000
787.939; 1283.750;  152.875;    0.000
788.130; 1375.750;  182.875;    0.000
788.321; 1346.750;  130.875;    0.000
788.512; 1454.750;  161.875;    0.000
788.703; 1331.750;  127.875;    0.000
788.894; 1419.750;  121.875;    0.000
789.084; 1315.750;  134.875;    0.000
789.275; 1356.750;  108.875;    0.000
789.466; 1196.750;  152.875;    0.000
789.657; 1293.750;  115.875;    0.000
789.848; 1349.750;  150.875;    0.000
790.039; 1337.750;  132.875;    0.000
790.229; 1373.750;  169.875;    0.000
790.420; 1445.750;  159.875;    0.000
790.611; 1264.750;  123.875;    0.000
790.801; 1366.750;  144.875;    0.000
790.992; 1322.750;  177.875;    0.000
791.183; 1310.750;  128.875;    0.000
791.373; 1270.750;  123.875;    0.000
791.564; 1175.750;  131.875;    0.000
791.755; 1224.750;  103.875;    0.000
791.945; 1478.750;  104.875;    0.000
792.136; 1280.750;  115.875;    0.000
792.326; 1360.750;   99.875;    0.000
792.517; 1299.750;  139.875;    0.000
792.707; 1355.750;  155.875;    0.000
792.898; 1350.750;  139.875;    0.000
793.088; 1463.750;  153.875;    0.000
793.279; 1307.750;  137.875;    0.000
793.469; 1501.750;  109.875;    0.000
793.660; 1289.750;  119.875;    0.000
793.850; 1504.750;  119.875;    0.000
794.040; 1551.750;  132.875;    0.000
794.231; 1639.750;  122.875;    0.000
794.421; 1662.750;  124.875;    0.000
794.611; 1690.750;  151.875;    0.000
794.802; 2107.750;  121.875;    0.000
794.992; 2325.750;  139.875;    0.000
795.182; 2205.750;  132.875;    0.000
795.372; 1764.750;  149.875;    0.000
795.563; 1866.750;  153.875;    0.000
795.753; 1859.750;  120.875;    0.000
795.943; 1752.750;  121.875;    0.000
796.133; 1570.750;   97.875;    0.000
796.323; 1685.750;  122.875;    0.000
796.513; 1478.750;  142.875;    0.000
796.703; 1587.750;  125.875;    0.000
796.893; 1425.750;  126.875;    0.000
797.083; 1420.750;  150.875;    0.000
797.273; 1574.750;  108.875;    0.000
797.463; 1590.750;  156.875;    0.000
797.653; 1357.750;   80.875;    0.000
797.843; 1436.750;   88.875;    0.000
798.033; 1309.750;   96.875;    0.000
798.223; 1340.750;  159.875;    0.000
798.413; 1368.750;  155.875;    0.000
798.603; 1392.750;  125.875;    0.000
798.793; 1179.750;  141.875;    0.000
798.983; 1254.750;  113.875;    0.000
799.172; 1393.750;   85.875;    0.000
799.362; 1213.750;  141.875;    0.000
799.552; 1201.750;  122.875;    0.000
799.742; 1225.750;  124.875;    0.000
799.932; 1240.750;  102.875;    0.000
800.121; 1270.750;  146.875;    0.000
800.311; 1242.750;  122.875;    0.000
800.501; 1152.750;  120.875;    0.000
800.690; 1284.750;  141.875;    0.000
800.880; 1283.750;  146.875;    0.000
801.070; 1214.750;  122.875;    0.000
801.259; 1160.750;  138.875;    0.000
801.449; 1319.750;  115.875;    0.000
801.638; 1281.750;  132.875;    0.000
801.828; 1175.750;   92.875;    0.000
802.017; 1308.750;  150.875;    0.000
802.207; 1377.750;  134.875;    0.000
802.396; 1295.750;  133.875;    0.000
802.586; 1266.750;  117.875;    0.000
802.775; 1167.750;  155.875;    0.000
802.965; 1381.750;  132.875;    0.000
803.154; 1228.750;  176.875;    0.000
803.343; 1203.750;  106.875;    0.000
803.533; 1272.750;  154.875;    0.000
803.722; 1209.750;   97.875;    0.000
803.911; 1198.750;  107.875;    0.000
804.101; 1239.750;  145.875;    0.000
804.290; 1361.750;  130.875;    0.000
804.479; 1201.750;  152.875;    0.000
804.668; 1322.750;  160.875;    0.000
804.857; 1164.750;  161.875;    0.000
805.047; 1099.750;  126.875;    0.000
805.236; 1344.750;  136.875;    0.000
805.425; 1374.750;  153.875;    0.000
805.614; 1306.750;  139.875;    0.000
805.803; 1281.750;  144.875;    0.000
805.992; 1281.750;  160.875;    0.000
806.181; 1309.750;  139.875;    0.000
806.370; 1302.750;  104.875;    0.000
806.559; 1262.750;  103.875;    0.000
806.748; 1288.750;  145.875;    0.000
806.937; 1332.750;  151.875;    0.000
807.126; 1400.750;  119.875;    0.000
807.315; 1324.750;  139.875;    0.000
807.504; 1262.750;  143.875;    0.000
807.693; 1331.750;  164.875;    0.000
807.882; 1335.750;  135.875;    0.000
808.071; 1331.750;  131.875;    0.000
808.260; 1277.750;  113.875;    0.000
808.448; 1430.750;  161.875;    0.000
808.637; 1369.750;  125.875;    0.000
808.826; 1383.750;  155.875;    0.000
809.015; 1331.750;  113.875;    0.000
809.203; 1504.750;  152.875;    0.000
809.392; 1560.750;   90.875;    0.000
809.581; 1460.750;  186.875;    0.000
809.770; 1443.750;   99.875;    0.000
809.958; 1479.750;  146.875;    0.000
810.147; 1257.750;  115.875;    0.000
810.335; 1393.750;  122.875;    0.000
810.524; 1445.750;  150.875;    0.000
810.713; 1497.750;  121.875;    0.000
810.901; 1511.750;  156.875;    0.000
811.090; 1660.750;  161.875;    0.000
811.278; 1528.750;  138.875;    0.000
811.467; 1730.750;  184.875;    0.000
811.655; 1660.750;  150.875;    0.000
811.844; 1601.750;  137.875;    0.000
812.032; 1685.750;  142.875;    0.000
812.220; 1611.750;  134.875;    0.000
812.409; 1696.750;  143.875;    0.000
812.597; 1647.750;  164.875;    0.000
812.785; 1808.750;  188.875;    0.000
812.974; 1764.750;  156.875;    0.000
813.162; 1727.750;  166.875;    0.000
813.350; 1707.750;  115.875;    0.000
813.539; 1797.750;  167.875;    0.000
813.727; 1753.750;  165.875;    0.000
813.915; 1821.750;  137.875;    0.000
814.103; 1865.750;  166.875;    0.000
814.291; 2027.750;  151.875;    0.000
814.479; 1952.750;  147.875;    0.000
814.668; 1916.750;  166.875;    0.000
814.856; 1890.750;  160.875;    0.000
815.044; 2048.750;  172.875;    0.000
815.232; 2119.750;  193.875;    0.000
815.420; 2171.750;  173.875;    0.000
815.608; 2387.750;  134.875;    0.000
815.796; 2270.750;  105.875;    0.000
815.984; 2267.750;  125.875;    0.000
816.172; 2465.750;  160.875;    0.000
816.360; 2713.750;  162.875;    0.000
816.548; 2743.750;  160.875;    0.000
816.736; 2916.750;  132.875;    0.000
816.924; 3293.750;  184.875;    0.000
817.111; 3570.750;  145.875;    0.000
817.299; 3810.750;  132.875;    0.000
817.487; 4205.750;  193.875;    0.000
817.675; 4947.750;  153.875;    0.000
817.863; 6064.750;  153.875;    0.000
818.050; 9084.750;  172.875;    0.000
818.238;16954.750;  131.875;    0.000
818.426;25424.750;  160.875;    0.000
818.613;18359.750;  136.875;    0.000
818.801;12947.750;  162.875;    0.000
818.989;12139.750;  153.875;    0.000
819.176;13150.750;  181.875;    0.000
819.364;20493.750;  165.875;    0.000
819.552;30423.750;  111.875;    0.000
819.739;23293.750;  192.875;    0.000
819.927;15671.750;  146.875;    0.000
820.114;12394.750;  154.875;    0.000
820.302; 9836.750;  144.875;    0.000
820.489; 8185.750;  133.875;    0.000
820.677; 7158.750;  135.875;    0.000
820.864; 6751.750;  130.875;    0.000
821.052; 5906.750;   88.875;    0.000
821.239; 5663.750;  143.875;    0.000
821.426; 5188.750;  186.875;    0.000
821.614; 5442.750;  171.875;    0.000
821.801; 5515.750;   90.875;    0.000
821.988; 4936.750;  143.875;    0.000
822.176; 4811.750;   95.875;    0.000
822.363; 4651.750;  148.875;    0.000
822.550; 4390.750;  139.875;    0.000
822.737; 4217.750;  122.875;    0.000
822.924; 3647.750;  171.875;    0.000
823.112; 3605.750;  147.875;    0.000
823.299; 3287.750;  111.875;    0.000
823.486; 3120.750;  161.875;    0.000
823.673; 3190.750;  124.875;    0.000
823.860; 3017.750;  151.875;    0.000
824.047; 2544.750;  145.875;    0.000
824.234; 3171.750;  139.875;    0.000
824.421; 3103.750;  110.875;    0.000
824.608; 2836.750;  145.875;    0.000
824.795; 2490.750;  115.875;    0.000
824.982; 2549.750;  148.875;    0.000
825.169; 2377.750;  135.875;    0.000
825.356; 2287.750;  122.875;    0.000
825.543; 2117.750;  142.875;    0.000
825.730; 2222.750;   89.875;    0.000
825.917; 2102.750;  127.875;    0.000
826.104; 1970.750;  187.875;    0.000
826.290; 2071.750;  138.875;    0.000
826.477; 1850.750;  140.875;    0.000
826.664; 1872.750;  106.875;    0.000
826.851; 1696.750;  155.875;    0.000
827.038; 1910.750;  125.875;    0.000
827.224; 1769.750;  126.875;    0.000
827.411; 1796.750;  163.875;    0.000
827.598; 1717.750;  140.875;    0.000
827.784; 1713.750;  117.875;    0.000
827.971; 1600.750;  114.875;    0.000
828.157; 1622.750;  146.875;    0.000
828.344; 1575.750;  161.875;    0.000
828.531; 1624.750;  155.875;    0.000
828.717; 1582.750;  130.875;    0.000
828.904; 1415.750;  138.875;    0.000
829.090; 1448.750;  176.875;    0.000
829.277; 1619.750;  152.875;    0.000
829.463; 1459.750;  139.875;    0.000
829.650; 1422.750;  168.875;    0.000
829.836; 1333.750;  176.875;    0.000
830.022; 1411.750;  159.875;    0.000
830.209; 1409.750;  135.875;    0.000
830.395; 1451.750;  177.875;    0.000
830.581; 1390.750;  125.875;    0.000
830.768; 1224.750;  155.875;    0.000
830.954; 1325.750;  187.875;    0.000
831.140; 1418.750;  135.875;    0.000
831.327; 1283.750;  158.875;    0.000
831.513; 1322.750;  126.875;    0.000
831.699; 1277.750;  167.875;    0.000
831.885; 1238.750;  165.875;    0.000
832.071; 1350.750;  167.875;    0.000
832.257; 1221.750;  144.875;    0.000
832.444; 1272.750;  158.875;    0.000
832.630; 1254.750;  167.875;    0.000
832.816; 1234.750;  150.875;    0.000
833.002; 1142.750;  157.875;    0.000
833.188; 1118.750;  169.875;    0.000
833.374; 1055.750;  144.875;    0.000
833.560; 1158.750;  179.875;    0.000
833.746; 1140.750;  134.875;    0.000
833.932; 1144.750;  150.875;    0.000
834.118; 1066.750;   98.875;    0.000
834.303; 1097.750;  121.875;    0.000
834.489; 1076.750;  179.875;    0.000
834.675; 1123.750;  136.875;    0.000
834.861; 1067.750;  130.875;    0.000
835.047; 1212.750;  132.875;    0.000
835.233;  954.750;  104.875;    0.000
835.418; 1213.750;  143.875;    0.000
835.604; 1025.750;  127.875;    0.000
835.790; 1097.750;  138.875;    0.000
835.976; 1059.750;  137.875;    0.000
836.161; 1234.750;  155.875;    0.000
836.347; 1078.750;  101.875;    0.000
836.533; 1032.750;  121.875;    0.000
836.718; 1034.750;  150.875;    0.000
836.904; 1029.750;  168.875;    0.000
837.089; 1076.750;  169.875;    0.000
837.275;  970.750;  172.875;    0.000
837.460; 1027.750;  140.875;    0.000
837.646; 1058.750;  144.875;    0.000
837.831; 1020.750;  137.875;    0.000
838.017;  957.750;  176.875;    0.000
838.202; 1062.750;  107.875;    0.000
838.388; 1087.750;  181.875;    0.000
838.573; 1010.750;  151.875;    0.000
838.759;  931.750;  160.875;    0.000
838.944; 1132.750;  121.875;    0.000
839.129; 1026.750;  145.875;    0.000
839.315;  987.750;  166.875;    0.000
839.500;  996.750;  143.875;    0.000
839.685; 1063.750;   93.875;    0.000
839.870; 1077.750;  160.875;    0.000
840.056; 1060.750;  132.875;    0.000
840.241; 1017.750;  154.875;    0.000
840.426; 1049.750;  161.875;    0.000
840.611; 1097.750;  186.875;    0.000
840.796;  990.750;  135.875;    0.000
840.981; 1081.750;  147.875;    0.000
841.166; 1094.750;  138.875;    0.000
841.352; 1018.750;  156.875;    0.000
841.537; 1016.750;  170.875;    0.000
841.722; 1112.750;  143.875;    0.000
841.907; 1052.750;  143.875;    0.000
842.092; 1052.750;  166.875;    0.000
842.277; 1130.750;  113.875;    0.000
842.461; 1161.750;  126.875;    0.000
842.646; 1205.750;  145.875;    0.000
842.831; 1119.750;  193.875;    0.000
843.016; 1153.750;  162.875;    0.000
843.201; 1194.750;  144.875;    0.000
843.386; 1190.750;  160.875;    0.000
843.571; 1242.750;  136.875;    0.000
843.755; 1339.750;  134.875;    0.000
843.940; 1376.750;  136.875;    0.000
844.125; 1470.750;  169.875;    0.000
844.310; 1680.750;  189.875;    0.000
844.494; 2206.750;  167.875;    0.000
844.679; 3135.750;  184.875;    0.000
844.864; 3317.750;  147.875;    0.000
845.048; 2318.750;  140.875;    0.000
845.233; 2141.750;  178.875;    0.000
845.418; 1882.750;  145.875;    0.000
845.602; 1707.750;  147.875;    0.000
845.787; 1480.750;  147.875;    0.000
845.971; 1564.750;  165.875;    0.000
846.156; 1318.750;  106.875;    0.000
846.340; 1172.750;  168.875;    0.000
846.525; 1219.750;  155.875;    0.000
846.709; 1139.750;  157.875;    0.000
846.893; 1243.750;  166.875;    0.000
847.078; 1062.750;  138.875;    0.000
847.262; 1089.750;  171.875;    0.000
847.447; 1079.750;  135.875;    0.000
847.631; 1109.750;  136.875;    0.000
847.815; 1083.750;  136.875;    0.000
848.000; 1012.750;  126.875;    0.000
848.184; 1106.750;  131.875;    0.000
848.368;  945.750;  153.875;    0.000
848.552;  924.750;  137.875;    0.000
848.736; 1043.750;  151.875;    0.000
848.921;  935.750;  156.875;    0.000
849.105;  786.750;  153.875;    0.000
849.289;  912.750;  180.875;    0.000
849.473;  881.750;  156.875;    0.000
849.657;  871.750;  157.875;    0.000
849.841; 1019.750;  147.875;    0.000
850.025;  956.750;  194.875;    0.000
850.209;  791.750;  147.875;    0.000
850.393;  902.750;  141.875;    0.000
850.577;  953.750;  156.875;    0.000
850.761;  763.750;  157.875;    0.000
850.945;  905.750;  128.875;    0.000
851.129;  899.750;  151.875;    0.000
851.313;  972.750;  180.875;    0.000
851.497;  898.750;  123.875;    0.000
851.680;  857.750;  188.875;    0.000
851.864;  876.750;  177.875;    0.000
852.048;  881.750;  163.875;    0.000
852.232;  961.750;  149.875;    0.000
852.416;  860.750;  187.875;    0.000
852.599;  802.750;  169.875;    0.000
852.783;  831.750;  154.875;    0.000
852.967;  832.750;  191.875;    0.000
853.150;  900.750;  170.875;    0.000
853.334;  749.750;  173.875;    0.000
853.518;  836.750;  186.875;    0.000
853.701;  811.750;  142.875;    0.000
853.885;  809.750;  153.875;    0.000
854.068;  827.750;  132.875;    0.000
854.252;  918.750;  184.875;    0.000
854.435;  903.750;  152.875;    0.000
854.619;  859.750;  152.875;    0.000
854.802;  882.750;  164.875;    0.000
854.986;  801.750;  151.875;    0.000
855.169;  872.750;  153.875;    0.000
855.353;  833.750;  183.875;    0.000
855.536;  901.750;  113.875;    0.000
855.719;  912.750;  181.875;    0.000
855.903;  894.750;  159.875;    0.000
856.086;  825.750;  142.875;    0.000
856.269;  786.750;  171.875;    0.000
856.452;  854.750;  132.875;    0.000
856.636;  969.750;  140.875;    0.000
856.819;  908.750;  165.875;    0.000
857.002; 1046.750;  170.875;    0.000
857.185; 1016.750;  173.875;    0.000
857.368;  948.750;  129.875;    0.000
857.552;  930.750;  151.875;    0.000
857.735;  989.750;  146.875;    0.000
857.918;  890.750;  114.875;    0.000
858.101;  961.750;  152.875;    0.000
858.284;  891.750;  164.875;    0.000
858.467;  888.750;  147.875;    0.000
858.650;  918.750;  146.875;    0.000
858.833;  898.750;  118.875;    0.000
859.016; 1036.750;  161.875;    0.000
859.199;  933.750;  135.875;    0.000
859.382;  969.750;  157.875;    0.000
859.564; 1086.750;  124.875;    0.000
859.747; 1106.750;  154.875;    0.000
859.930;  989.750;  138.875;    0.000
860.113;  982.750;  153.875;    0.000
860.296; 1144.750;  180.875;    0.000
860.478;  930.750;  145.875;    0.000
860.661; 1010.750;  160.875;    0.000
860.844;  972.750;   96.875;    0.000
861.027;  974.750;  128.875;    0.000
861.209;  915.750;  127.875;    0.000
861.392;  866.750;  126.875;    0.000
861.575;  978.750;  155.875;    0.000
861.757;  991.750;  141.875;    0.000
861.940;  972.750;  181.875;    0.000
862.122; 1065.750;  145.875;    0.000
862.305; 1036.750;  124.875;    0.000
862.487; 1088.750;  151.875;    0.000
862.670;  989.750;  132.875;    0.000
862.852; 1227.750;  112.875;    0.000
863.035; 1546.750;  116.875;    0.000
863.217; 1569.750;  131.875;    0.000
863.400; 1317.750;  145.875;    0.000
863.582; 1184.750;  147.875;    0.000
863.764; 1197.750;  163.875;    0.000
863.947; 1342.750;  129.875;    0.000
864.129; 1110.750;  159.875;    0.000
864.311; 1036.750;  144.875;    0.000
864.493; 1121.750;  141.875;    0.000
864.676; 1090.750;  159.875;    0.000
864.858; 1102.750;  146.875;    0.000
865.040; 1102.750;  163.875;    0.000
865.222; 1123.750;  133.875;    0.000
865.404; 1136.750;  148.875;    0.000
865.587; 1098.750;  177.875;    0.000
865.769; 1234.750;  172.875;    0.000
865.951; 1232.750;  145.875;    0.000
866.133; 1093.750;  168.875;    0.000
866.315; 1081.750;  147.875;    0.000
866.497; 1042.750;  164.875;    0.000
866.679; 1130.750;  143.875;    0.000
866.861; 1273.750;  170.875;    0.000
867.043; 1292.750;  185.875;    0.000
867.225; 1246.750;  149.875;    0.000
867.407; 1400.750;  143.875;    0.000
867.589; 1432.750;  169.875;    0.000
867.770; 1794.750;  166.875;    0.000
867.952; 2297.750;  158.875;    0.000
868.134; 3248.750;  170.875;    0.000
868.316; 3439.750;  157.875;    0.000
868.498; 3149.750;  186.875;    0.000
868.679; 2754.750;  158.875;    0.000
868.861; 2328.750;  180.875;    0.000
869.043; 1921.750;  164.875;    0.000
869.224; 1731.750;  156.875;    0.000
869.406; 1472.750;  176.875;    0.000
869.588; 1522.750;  152.875;    0.000
869.769; 1383.750;  131.875;    0.000
869.951; 1410.750;  203.875;    0.000
870.132; 1241.750;  143.875;    0.000
870.314; 1457.750;  129.875;    0.000
870.495; 1528.750;  175.875;    0.000
870.677; 1409.750;  165.875;    0.000
870.858; 1386.750;  151.875;    0.000
871.040; 1444.750;  155.875;    0.000
871.221; 1718.750;  144.875;    0.000
871.403; 1711.750;  131.875;    0.000
871.584; 1422.750;  174.875;    0.000
871.765; 1466.750;  169.875;    0.000
871.947; 1643.750;  187.875;    0.000
872.128; 1518.750;  181.875;    0.000
872.309; 1355.750;  129.875;    0.000
872.491; 1182.750;  142.875;    0.000
872.672; 1128.750;  158.875;    0.000
872.853; 1121.750;  179.875;    0.000
873.034; 1090.750;  164.875;    0.000
873.215; 1055.750;  168.875;    0.000
873.396;  994.750;  114.875;    0.000
873.578;  909.750;  126.875;    0.000
873.759;  934.750;  177.875;    0.000
873.940;  912.750;  169.875;    0.000
874.121;  885.750;  133.875;    0.000
874.302;  856.750;  164.875;    0.000
874.483;  832.750;  162.875;    0.000
874.664;  850.750;  140.875;    0.000
874.845;  885.750;  124.875;    0.000
875.026;  906.750;  146.875;    0.000
875.207;  813.750;  147.875;    0.000
875.388;  855.750;  174.875;    0.000
875.568;  896.750;  179.875;    0.000
875.749;  826.750;  155.875;    0.000
875.930;  886.750;  166.875;    0.000
876.111;  890.750;  153.875;    0.000
876.292;  767.750;  146.875;    0.000
876.472;  831.750;  167.875;    0.000
876.653;  760.750;  145.875;    0.000
876.834;  720.750;  172.875;    0.000
877.015;  822.750;  184.875;    0.000
877.195;  733.750;  160.875;    0.000
877.376;  765.750;  163.875;    0.000
877.556;  785.750;  164.875;    0.000
877.737;  803.750;  179.875;    0.000
877.918;  736.750;  137.875;    0.000
878.098;  782.750;  117.875;    0.000
878.279;  816.750;  135.875;    0.000
878.459;  730.750;  149.875;    0.000
878.640;  817.750;  171.875;    0.000
878.820;  675.750;  142.875;    0.000
879.000;  776.750;  166.875;    0.000
879.181;  865.750;  177.875;    0.000
879.361;  744.750;  176.875;    0.000
879.542;  724.750;  159.875;    0.000
879.722;  749.750;  122.875;    0.000
879.902;  747.750;  166.875;    0.000
880.083;  684.750;  164.875;    0.000
880.263;  711.750;  139.875;    0.000
880.443;  819.750;  179.875;    0.000
880.623;  888.750;  154.875;    0.000
880.803;  961.750;  160.875;    0.000
880.984;  899.750;  181.875;    0.000
881.164;  811.750;  167.875;    0.000
881.344;  739.750;  141.875;    0.000
881.524;  805.750;  190.875;    0.000
881.704;  860.750;  165.875;    0.000
881.884;  795.750;  144.875;    0.000
882.064;  833.750;  135.875;    0.000
882.244;  909.750;  186.875;    0.000
882.424;  860.750;  150.875;    0.000
882.604;  789.750;  168.875;    0.000
882.784;  777.750;  155.875;    0.000
882.964;  732.750;  137.875;    0.000
883.144;  722.750;  136.875;    0.000
883.324;  745.750;  200.875;    0.000
883.504;  794.750;  203.875;    0.000
883.683;  726.750;  149.875;    0.000
883.863;  741.750;  160.875;    0.000
884.043;  682.750;  161.875;    0.000
884.223;  720.750;  147.875;    0.000
884.402;  634.750;  175.875;    0.000
884.582;  750.750;  188.875;    0.000
884.762;  704.750;  173.875;    0.000
884.941;  722.750;  164.875;    0.000
885.121;  777.750;  147.875;    0.000
885.301;  584.750;  135.875;    0.000
885.480;  732.750;  145.875;    0.000
885.660;  717.750;  144.875;    0.000
885.839;  694.750;  155.875;    0.000
886.019;  714.750;  207.875;    0.000
886.198;  695.750;  165.875;    0.000
886.378;  729.750;  120.875;    0.000
886.557;  690.750;  133.875;    0.000
886.737;  650.750;  119.875;    0.000
886.916;  742.750;  129.875;    0.000
887.095;  645.750;  158.875;    0.000
887.275;  782.750;  169.875;    0.000
887.454;  732.750;  184.875;    0.000
887.633;  714.750;  143.875;    0.000
887.813;  670.750;  154.875;    0.000
887.992;  666.750;  188.875;    0.000
888.171;  668.750;  176.875;    0.000
888.350;  677.750;  161.875;    0.000
888.530;  686.750;  163.875;    0.000
888.709;  686.750;  136.875;    0.000
888.888;  674.750;  177.875;    0.000
889.067;  693.750;  169.875;    0.000
889.246;  742.750;  188.875;    0.000
889.425;  748.750;  187.875;    0.000
889.604;  774.750;  169.875;    0.000
889.783;  728.750;  182.875;    0.000
889.962;  636.750;  112.875;    0.000
890.141;  656.750;  231.875;    0.000
890.320;  677.750;  161.875;    0.000
890.499;  746.750;  164.875;    0.000
890.678;  595.750;  176.875;    0.000
890.857;  709.750;  163.875;    0.000
891.036;  725.750;  161.875;    0.000
891.214;  638.750;  156.875;    0.000
891.393;  624.750;  167.875;    0.000
891.572;  685.750;  163.875;    0.000
891.751;  622.750;  205.875;    0.000
891.930;  684.750;  162.875;    0.000
892.108;  660.750;  153.875;    0.000
892.287;  705.750;  153.875;    0.000
892.466;  662.750;  201.875;    0.000
892.644;  696.750;  158.875;    0.000
892.823;  609.750;  122.875;    0.000
893.001;  689.750;  148.875;    0.000
893.180;  662.750;  142.875;    0.000
893.359;  692.750;  192.875;    0.000
893.537;  673.750;  166.875;    0.000
893.716;  676.750;  144.875;    0.000
893.894;  678.750;  145.875;    0.000
894.073;  696.750;  180.875;    0.000
894.251;  699.750;  165.875;    0.000
894.429;  608.750;  182.875;    0.000
894.608;  657.750;  181.875;    0.000
894.786;  678.750;  180.875;    0.000
894.964;  597.750;  207.875;    0.000
895.143;  655.750;  190.875;    0.000
895.321;  631.750;  206.875;    0.000
895.499;  686.750;  164.875;    0.000
895.677;  706.750;  199.875;    0.000
895.856;  666.750;  203.875;    0.000
896.034;  755.750;  200.875;    0.000
896.212;  685.750;  198.875;    0.000
896.390;  688.750;  161.875;    0.000
896.568;  626.750;  205.875;    0.000
896.746;  638.750;  185.875;    0.000
896.924;  701.750;  179.875;    0.000
897.102;  780.750;  190.875;    0.000
897.280;  719.750;  160.875;    0.000
897.458;  702.750;  196.875;    0.000
897.636;  708.750;  168.875;    0.000
897.814;  728.750;  159.875;    0.000
897.992;  763.750;  216.875;    0.000
898.170;  709.750;  195.875;    0.000
898.348;  656.750;  185.875;    0.000
898.526;  707.750;  199.875;    0.000
898.704;  731.750;  215.875;    0.000
898.882;  663.750;  195.875;    0.000
899.059;  720.750;  197.875;    0.000
899.237;  727.750;  168.875;    0.000
899.415;  749.750;  221.875;    0.000
899.593;  707.750;  171.875;    0.000
899.770;  703.750;  191.875;    0.000
899.948;  715.750;  206.875;    0.000
900.125;  665.750;  175.875;    0.000
900.303;  744.750;  176.875;    0.000
900.481;  679.750;  199.875;    0.000
900.658;  737.750;  217.875;    0.000
900.836;  703.750;  192.875;    0.000
901.013;  700.750;  221.875;    0.000
901.191;  727.750;  203.875;    0.000
901.368;  661.750;  189.875;    0.000
901.546;  794.750;  212.875;    0.000
901.723;  673.750;  189.875;    0.000
901.901;  823.750;  198.875;    0.000
902.078;  759.750;  193.875;    0.000
902.255;  762.750;  176.875;    0.000
902.433;  810.750;  201.875;    0.000
902.610;  704.750;  170.875;    0.000
902.787;  741.750;  164.875;    0.000
902.964;  817.750;  216.875;    0.000
903.142;  762.750;  153.875;    0.000
903.319;  844.750;  204.875;    0.000
903.496;  885.750;  188.875;    0.000
903.673;  850.750;  209.875;    0.000
903.850;  852.750;  173.875;    0.000
904.027;  852.750;  186.875;    0.000
904.204;  889.750;  241.875;    0.000
904.381;  882.750;  187.875;    0.000
904.558; 1102.750;  196.875;    0.000
904.735; 1257.750;  206.875;    0.000
904.912; 1033.750;  228.875;    0.000
905.089; 1124.750;  172.875;    0.000
905.266; 1060.750;  175.875;    0.000
905.443; 1104.750;  239.875;    0.000
905.620;  948.750;  176.875;    0.000
905.797;  920.750;  205.875;    0.000
905.974;  939.750;  187.875;    0.000
906.151;  929.750;  135.875;    0.000
906.327;  927.750;  209.875;    0.000
906.504;  901.750;  145.875;    0.000
906.681;  941.750;  178.875;    0.000
906.858;  873.750;  179.875;    0.000
907.034;  864.750;  221.875;    0.000
907.211;  771.750;  166.875;    0.000
907.388;  870.750;  206.875;    0.000
907.564;  794.750;  150.875;    0.000
907.741;  778.750;  187.875;    0.000
907.917;  855.750;  180.875;    0.000
908.094;  789.750;  206.875;    0.000
908.271;  736.750;  184.875;    0.000
908.447;  824.750;  212.875;    0.000
908.623;  758.750;  193.875;    0.000
908.800;  793.750;  185.875;    0.000
908.976;  780.750;  202.875;    0.000
909.153;  711.750;  175.875;    0.000
909.329;  779.750;  193.875;    0.000
909.505;  614.750;  154.875;    0.000
909.682;  810.750;  188.875;    0.000
909.858;  721.750;  162.875;    0.000
910.034;  723.750;  181.875;    0.000
910.211;  697.750;  142.875;    0.000
910.387;  748.750;  200.875;    0.000
910.563;  766.750;  163.875;    0.000
910.739;  760.750;  156.875;    0.000
910.915;  771.750;  202.875;    0.000
911.091;  688.750;  186.875;    0.000
911.268;  717.750;  167.875;    0.000
911.444;  712.750;  193.875;    0.000
911.620;  667.750;  175.875;    0.000
911.796;  755.750;  168.875;    0.000
911.972;  697.750;  154.875;    0.000
912.148;  672.750;  201.875;    0.000
912.324;  797.750;  146.875;    0.000
912.500;  717.750;  185.875;    0.000
912.676;  647.750;  183.875;    0.000
912.851;  654.750;  204.875;    0.000
913.027;  663.750;  196.875;    0.000
913.203;  772.750;  174.875;    0.000
913.379;  708.750;  210.875;    0.000
913.555;  699.750;  197.875;    0.000
913.730;  692.750;  209.875;    0.000
913.906;  615.750;  169.875;    0.000
914.082;  701.750;  236.875;    0.000
914.258;  763.750;  216.875;    0.000
914.433;  695.750;  212.875;    0.000
914.609;  727.750;  180.875;    0.000
914.784;  673.750;  176.875;    0.000
914.960;  656.750;  227.875;    0.000
915.136;  687.750;  149.875;    0.000
915.311;  701.750;  165.875;    0.000
915.487;  665.750;  167.875;    0.000
915.662;  708.750;  225.875;    0.000
915.838;  715.750;  165.875;    0.000
916.013;  757.750;  188.875;    0.000
916.189;  632.750;  200.875;    0.000
916.364;  802.750;  201.875;    0.000
916.539;  737.750;  240.875;    0.000
916.715;  769.750;  180.875;    0.000
916.890;  804.750;  191.875;    0.000
917.065;  729.750;  211.875;    0.000
917.240;  660.750;  212.875;    0.000
917.416;  746.750;  207.875;    0.000
917.591;  710.750;  189.875;    0.000
917.766;  749.750;  205.875;    0.000
917.941;  772.750;  191.875;    0.000
918.116;  757.750;  195.875;    0.000
918.292;  734.750;  183.875;    0.000
918.467;  768.750;  206.875;    0.000
918.642;  768.750;  190.875;    0.000
918.817;  729.750;  193.875;    0.000
918.992;  646.750;  171.875;    0.000
919.167;  714.750;  191.875;    0.000
919.342;  807.750;  202.875;    0.000
919.517;  733.750;  182.875;    0.000
919.692;  776.750;  190.875;    0.000
919.867;  710.750;  221.875;    0.000
920.041;  726.750;  195.875;    0.000
920.216;  727.750;  226.875;    0.000
920.391;  810.750;  230.875;    0.000
920.566;  787.750;  210.875;    0.000
920.741;  804.750;  204.875;    0.000
920.915;  878.750;  213.875;    0.000
921.090;  887.750;  194.875;    0.000
921.265; 1140.750;  234.875;    0.000
921.439; 1381.750;  228.875;    0.000
921.614; 1211.750;  199.875;    0.000
921.789;  952.750;  194.875;    0.000
921.963;  917.750;  236.875;    0.000
922.138;  881.750;  192.875;    0.000
922.312;  934.750;  203.875;    0.000
922.487;  927.750;  207.875;    0.000
922.661;  989.750;  216.875;    0.000
922.836; 1092.750;  199.875;    0.000
923.010; 1252.750;  179.875;    0.000
923.185; 1100.750;  241.875;    0.000
923.359;  937.750;  199.875;    0.000
923.534;  900.750;  227.875;    0.000
923.708; 1047.750;  213.875;    0.000
923.882; 1157.750;  203.875;    0.000
924.057; 1073.750;  194.875;    0.000
924.231;  950.750;  185.875;    0.000
924.405;  879.750;  223.875;    0.000
924.579;  889.750;  196.875;    0.000
924.753;  930.750;  209.875;    0.000
924.928;  842.750;  202.875;    0.000
925.102;  946.750;  184.875;    0.000
925.276;  813.750;  191.875;    0.000
925.450;  874.750;  199.875;    0.000
925.624;  878.750;  190.875;    0.000
925.798;  870.750;  214.875;    0.000
925.972;  984.750;  193.875;    0.000
926.146;  964.750;  191.875;    0.000
926.320; 1020.750;  177.875;    0.000
926.494; 1122.750;  190.875;    0.000
926.668; 1140.750;  182.875;    0.000
926.842; 1149.750;  182.875;    0.000
927.016; 1123.750;  235.875;    0.000
927.190; 1163.750;  234.875;    0.000
927.363; 1154.750;  214.875;    0.000
927.537;  921.750;  198.875;    0.000
927.711; 1026.750;  154.875;    0.000
927.885;  995.750;  167.875;    0.000
928.058;  995.750;  210.875;    0.000
928.232; 1004.750;  206.875;    0.000
928.406;  982.750;  176.875;    0.000
928.579;  942.750;  182.875;    0.000
928.753;  971.750;  179.875;    0.000
928.927;  889.750;  186.875;    0.000
929.100;  929.750;  188.875;    0.000
929.274;  870.750;  167.875;    0.000
929.447;  874.750;  152.875;    0.000
929.621;  877.750;  195.875;    0.000
929.794;  944.750;  200.875;    0.000
929.968;  836.750;  203.875;    0.000
930.141;  856.750;  237.875;    0.000
930.315;  812.750;  165.875;    0.000
930.488;  850.750;  175.875;    0.000
930.661;  867.750;  173.875;    0.000
930.835;  835.750;  171.875;    0.000
931.008;  781.750;  210.875;    0.000
931.181;  849.750;  206.875;    0.000
931.354;  796.750;  195.875;    0.000
931.528;  819.750;  178.875;    0.000
931.701;  827.750;  179.875;    0.000
931.874;  792.750;  150.875;    0.000
932.047;  732.750;  154.875;    0.000
932.220;  747.750;  185.875;    0.000
932.393;  759.750;  166.875;    0.000
932.566;  789.750;  171.875;    0.000
932.739;  829.750;  196.875;    0.000
932.912;  753.750;  212.875;    0.000
933.085;  751.750;  234.875;    0.000
933.258;  769.750;  212.875;    0.000
933.431;  638.750;  181.875;    0.000
933.604;  760.750;  201.875;    0.000
933.777;  740.750;  201.875;    0.000
933.950;  663.750;  176.875;    0.000
934.123;  686.750;  175.875;    0.000
934.296;  756.750;  174.875;    0.000
934.468;  749.750;  186.875;    0.000
934.641;  689.750;  192.875;    0.000
934.814;  753.750;  187.875;    0.000
934.987;  708.750;  165.875;    0.000
935.159;  741.750;  162.875;    0.000
935.332;  712.750;  210.875;    0.000
935.505;  792.750;  191.875;    0.000
935.677;  730.750;  159.875;    0.000
935.850;  765.750;  170.875;    0.000
936.022;  746.750;  172.875;    0.000
936.195;  777.750;  202.875;    0.000
936.367;  703.750;  179.875;    0.000
936.540;  716.750;  207.875;    0.000
936.712;  792.750;  200.875;    0.000
936.885;  732.750;  219.875;    0.000
937.057;  718.750;  150.875;    0.000
937.229;  773.750;  187.875;    0.000
937.402;  745.750;  169.875;    0.000
937.574;  811.750;  127.875;    0.000
937.746;  683.750;  171.875;    0.000
937.919;  756.750;  176.875;    0.000
938.091;  810.750;  193.875;    0.000
938.263;  860.750;  200.875;    0.000
938.435;  869.750;  181.875;    0.000
938.608; 1019.750;  191.875;    0.000
938.780; 1119.750;  173.875;    0.000
938.952; 1258.750;  184.875;    0.000
939.124; 1191.750;  171.875;    0.000
939.296; 1354.750;  156.875;    0.000
939.468; 1381.750;  147.875;    0.000
939.640; 1167.750;  186.875;    0.000
939.812; 1260.750;  217.875;    0.000
939.984;  929.750;  155.875;    0.000
940.156;  952.750;  191.875;    0.000
940.328;  984.750;  201.875;    0.000
940.500;  855.750;  176.875;    0.000
940.672;  897.750;  190.875;    0.000
940.843;  792.750;  143.875;    0.000
941.015;  939.750;  189.875;    0.000
941.187;  763.750;  172.875;    0.000
941.359;  847.750;  175.875;    0.000
941.531;  876.750;  154.875;    0.000
941.702;  763.750;  183.875;    0.000
941.874;  703.750;  140.875;    0.000
942.046;  761.750;  177.875;    0.000
942.217;  687.750;  147.875;    0.000
942.389;  819.750;  196.875;    0.000
942.560;  797.750;  163.875;    0.000
942.732;  809.750;  187.875;    0.000
942.904;  754.750;  226.875;    0.000
943.075;  687.750;  159.875;    0.000
943.247;  673.750;  209.875;    0.000
943.418;  682.750;  167.875;    0.000
943.589;  740.750;  195.875;    0.000
943.761;  678.750;  190.875;    0.000
943.932;  745.750;  187.875;    0.000
944.104;  630.750;  194.875;    0.000
944.275;  756.750;  177.875;    0.000
944.446;  723.750;  155.875;    0.000
944.617;  642.750;  176.875;    0.000
944.789;  674.750;  171.875;    0.000
944.960;  688.750;  172.875;    0.000
945.131;  753.750;  158.875;    0.000
945.302;  693.750;  201.875;    0.000
945.473;  618.750;  141.875;    0.000
945.645;  698.750;  197.875;    0.000
945.816;  647.750;  165.875;    0.000
945.987;  742.750;  190.875;    0.000
946.158;  690.750;  158.875;    0.000
946.329;  686.750;  160.875;    0.000
946.500;  664.750;  190.875;    0.000
946.671;  655.750;  152.875;    0.000
946.842;  624.750;  182.875;    0.000
947.013;  666.750;  160.875;    0.000
947.183;  710.750;  203.875;    0.000
947.354;  657.750;  174.875;    0.000
947.525;  677.750;  173.875;    0.000
947.696;  649.750;  170.875;    0.000
947.867;  668.750;  187.875;    0.000
948.037;  612.750;  165.875;    0.000
948.208;  732.750;  154.875;    0.000
948.379;  714.750;  176.875;    0.000
948.550;  628.750;  176.875;    0.000
948.720;  681.750;  169.875;    0.000
948.891;  709.750;  216.875;    0.000
949.061;  665.750;  200.875;    0.000
949.232;  652.750;  163.875;    0.000
949.403;  617.750;  157.875;    0.000
949.573;  668.750;  158.875;    0.000
949.744;  682.750;  213.875;    0.000
949.914;  582.750;  177.875;    0.000
950.085;  587.750;  195.875;    0.000
950.255;  688.750;  166.875;    0.000
950.425;  635.750;  196.875;    0.000
950.596;  624.750;  176.875;    0.000
950.766;  756.750;  228.875;    0.000
950.936;  591.750;  185.875;    0.000
951.107;  627.750;  178.875;    0.000
951.277;  713.750;  227.875;    0.000
951.447;  589.750;  219.875;    0.000
951.617;  619.750;  219.875;    0.000
951.788;  611.750;  198.875;    0.000
951.958;  611.750;  202.875;    0.000
952.128;  564.750;  197.875;    0.000
952.298;  662.750;  211.875;    0.000
952.468;  691.750;  233.875;    0.000
952.638;  629.750;  222.875;    0.000
952.808;  631.750;  210.875;    0.000
952.978;  643.750;  216.875;    0.000
953.148;  618.750;  203.875;    0.000
953.318;  591.750;  212.875;    0.000
953.488;  628.750;  156.875;    0.000
953.658;  653.750;  226.875;    0.000
953.828;  541.750;  223.875;    0.000
953.998;  696.750;  209.875;    0.000
954.167;  671.750;  203.875;    0.000
954.337;  665.750;  209.875;    0.000
954.507;  638.750;  252.875;    0.000
954.677;  634.750;  207.875;    0.000
954.846;  705.750;  240.875;    0.000
955.016;  687.750;  197.875;    0.000
955.186;  612.750;  208.875;    0.000
955.355;  602.750;  243.875;    0.000
955.525;  652.750;  211.875;    0.000
955.695;  608.750;  187.875;    0.000
955.864;  645.750;  204.875;    0.000
956.034;  615.750;  199.875;    0.000
956.203;  634.750;  257.875;    0.000
956.373;  547.750;  193.875;    0.000
956.542;  619.750;  187.875;    0.000
956.711;  650.750;  259.875;    0.000
956.881;  657.750;  227.875;    0.000
957.050;  602.750;  260.875;    0.000
957.220;  593.750;  246.875;    0.000
957.389;  573.750;  211.875;    0.000
957.558;  600.750;  197.875;    0.000
957.727;  726.750;  227.875;    0.000
957.897;  632.750;  219.875;    0.000
958.066;  582.750;  180.875;    0.000
958.235;  600.750;  179.875;    0.000
958.404;  647.750;  194.875;    0.000
958.573;  586.750;  235.875;    0.000
958.743;  579.750;  191.875;    0.000
958.912;  620.750;  181.875;    0.000
959.081;  629.750;  193.875;    0.000
959.250;  529.750;  180.875;    0.000
959.419;  658.750;  205.875;    0.000
959.588;  645.750;  241.875;    0.000
959.757;  585.750;  202.875;    0.000
959.926;  604.750;  212.875;    0.000
960.094;  548.750;  199.875;    0.000
960.263;  606.750;  226.875;    0.000
960.432;  614.750;  188.875;    0.000
960.601;  528.750;  200.875;    0.000
960.770;  563.750;  197.875;    0.000
960.939;  505.750;  195.875;    0.000
961.107;  550.750;  198.875;    0.000
961.276;  548.750;  151.875;    0.000
961.445;  629.750;  227.875;    0.000
961.613;  655.750;  186.875;    0.000
961.782;  624.750;  187.875;    0.000
961.951;  584.750;  194.875;    0.000
962.119;  577.750;  227.875;    0.000
962.288;  538.750;  181.875;    0.000
962.456;  593.750;  206.875;    0.000
962.625;  609.750;  181.875;    0.000
962.793;  565.750;  216.875;    0.000
962.962;  600.750;  237.875;    0.000
963.130;  592.750;  194.875;    0.000
963.298;  566.750;  190.875;    0.000
963.467;  582.750;  204.875;    0.000
963.635;  564.750;  159.875;    0.000
963.803;  579.750;  208.875;    0.000
963.972;  621.750;  206.875;    0.000
964.140;  588.750;  178.875;    0.000
964.308;  518.750;  185.875;    0.000
964.477;  603.750;  189.875;    0.000
964.645;  581.750;  201.875;    0.000
964.813;  624.750;  200.875;    0.000
964.981;  529.750;  160.875;    0.000
965.149;  606.750;  230.875;    0.000
965.317;  607.750;  214.875;    0.000
965.485;  626.750;  190.875;    0.000
965.653;  559.750;  239.875;    0.000
965.821;  572.750;  211.875;    0.000
965.989;  572.750;  216.875;    0.000
966.157;  547.750;  198.875;    0.000
966.325;  558.750;  200.875;    0.000
966.493;  585.750;  187.875;    0.000
966.661;  551.750;  181.875;    0.000
966.829;  619.750;  181.875;    0.000
966.996;  597.750;  220.875;    0.000
967.164;  628.750;  179.875;    0.000
967.332;  670.750;  203.875;    0.000
967.500;  659.750;  200.875;    0.000
967.667;  637.750;  196.875;    0.000
967.835;  630.750;  199.875;    0.000
968.003;  615.750;  191.875;    0.000
968.170;  604.750;  141.875;    0.000
968.338;  595.750;  185.875;    0.000
968.505;  660.750;  199.875;    0.000
968.673;  644.750;  191.875;    0.000
968.841;  569.750;  165.875;    0.000
969.008;  625.750;  192.875;    0.000
969.175;  577.750;  172.875;    0.000
969.343;  599.750;  191.875;    0.000
969.510;  637.750;  199.875;    0.000
969.678;  604.750;  156.875;    0.000
969.845;  582.750;  191.875;    0.000
970.012;  576.750;  205.875;    0.000
970.180;  647.750;  201.875;    0.000
970.347;  586.750;  229.875;    0.000
970.514;  547.750;  207.875;    0.000
970.681;  590.750;  169.875;    0.000
970.849;  565.750;  196.875;    0.000
971.016;  571.750;  212.875;    0.000
971.183;  576.750;  178.875;    0.000
971.350;  639.750;  193.875;    0.000
971.517;  658.750;  190.875;    0.000
971.684;  622.750;  261.875;    0.000
971.851;  623.750;  203.875;    0.000
972.018;  519.750;  184.875;    0.000
972.185;  577.750;  226.875;    0.000
972.352;  618.750;  180.875;    0.000
972.519;  592.750;  226.875;    0.000
972.686;  603.750;  233.875;    0.000
972.853;  563.750;  173.875;    0.000
973.020;  608.750;  208.875;    0.000
973.186;  502.750;  173.875;    0.000
973.353;  587.750;  218.875;    0.000
973.520;  587.750;  218.875;    0.000
973.687;  547.750;  176.875;    0.000
973.853;  585.750;  203.875;    0.000
974.020;  574.750;  196.875;    0.000
974.187;  533.750;  188.875;    0.000
974.353;  615.750;  230.875;    0.000
974.520;  569.750;  195.875;    0.000
974.687;  518.750;  209.875;    0.000
974.853;  584.750;  189.875;    0.000
975.020;  520.750;  179.875;    0.000
975.186;  615.750;  204.875;    0.000
975.353;  544.750;  201.875;    0.000
975.519;  582.750;  200.875;    0.000
975.685;  523.750;  176.875;    0.000
975.852;  593.750;  197.875;    0.000
976.018;  591.750;  201.875;    0.000
976.184;  593.750;  176.875;    0.000
976.351;  588.750;  221.875;    0.000
976.517;  611.750;  203.875;    0.000
976.683;  630.750;  236.875;    0.000
976.849;  639.750;  190.875;    0.000
977.016;  598.750;  173.875;    0.000
977.182;  613.750;  200.875;    0.000
977.348;  511.750;  179.875;    0.000
977.514;  544.750;  159.875;    0.000
977.680;  615.750;  200.875;    0.000
977.846;  620.750;  206.875;    0.000
978.012;  536.750;  219.875;    0.000
978.178;  533.750;  229.875;    0.000
978.344;  553.750;  195.875;    0.000
978.510;  617.750;  209.875;    0.000
978.676;  539.750;  190.875;    0.000
978.842;  587.750;  195.875;    0.000
979.008;  578.750;  186.875;    0.000
979.174;  568.750;  185.875;    0.000
979.340;  534.750;  198.875;    0.000
979.505;  575.750;  214.875;    0.000
979.671;  587.750;  159.875;    0.000
979.837;  576.750;  202.875;    0.000
980.003;  531.750;  190.875;    0.000
980.168;  610.750;  216.875;    0.000
980.334;  593.750;  194.875;    0.000
980.499;  589.750;  229.875;    0.000
980.665;  567.750;  240.875;    0.000
980.831;  625.750;  202.875;    0.000
980.996;  558.750;  179.875;    0.000
981.162;  668.750;  212.875;    0.000
981.327;  552.750;  202.875;    0.000
981.493;  621.750;  219.875;    0.000
981.658;  618.750;  218.875;    0.000
981.823;  628.750;  207.875;    0.000
981.989;  567.750;  207.875;    0.000
982.154;  635.750;  224.875;    0.000
982.319;  620.750;  217.875;    0.000
982.485;  584.750;  266.875;    0.000
982.650;  693.750;  245.875;    0.000
982.815;  577.750;  229.875;    0.000
982.980;  623.750;  203.875;    0.000
983.146;  567.750;  242.875;    0.000
983.311;  605.750;  144.875;    0.000
983.476;  580.750;  222.875;    0.000
983.641;  534.750;  206.875;    0.000
983.806;  555.750;  217.875;    0.000
983.971;  619.750;  254.875;    0.000
984.136;  616.750;  217.875;    0.000
984.301;  543.750;  202.875;    0.000
984.466;  582.750;  206.875;    0.000
984.631;  561.750;  224.875;    0.000
984.796;  529.750;  218.875;    0.000
984.961;  619.750;  202.875;    0.000
985.126;  633.750;  238.875;    0.000
985.291;  644.750;  220.875;    0.000
985.455;  606.750;  223.875;    0.000
985.620;  540.750;  218.875;    0.000
985.785;  511.750;  228.875;    0.000
985.950;  578.750;  212.875;    0.000
986.114;  617.750;  215.875;    0.000
986.279;  660.750;  243.875;    0.000
986.444;  619.750;  222.875;    0.000
986.608;  573.750;  243.875;    0.000
986.773;  564.750;  213.875;    0.000
986.937;  686.750;  267.875;    0.000
987.102;  657.750;  235.875;    0.000
987.266;  583.750;  210.875;    0.000
987.431;  644.750;  239.875;    0.000
987.595;  569.750;  230.875;    0.000
987.760;  612.750;  229.875;    0.000
987.924;  554.750;  217.875;    0.000
988.088;  599.750;  210.875;    0.000
988.253;  543.750;  215.875;    0.000
988.417;  644.750;  186.875;    0.000
988.581;  591.750;  214.875;    0.000
988.746;  598.750;  212.875;    0.000
988.910;  575.750;  192.875;    0.000
989.074;  559.750;  195.875;    0.000
989.238;  571.750;  226.875;    0.000
989.402;  557.750;  214.875;    0.000
989.566;  590.750;  201.875;    0.000
989.731;  639.750;  199.875;    0.000
989.895;  601.750;  205.875;    0.000
990.059;  595.750;  204.875;    0.000
990.223;  570.750;  182.875;    0.000
990.387;  566.750;  220.875;    0.000
990.551;  563.750;  199.875;    0.000
990.714;  586.750;  202.875;    0.000
990.878;  589.750;  201.875;    0.000
991.042;  588.750;  202.875;    0.000
991.206;  574.750;  215.875;    0.000
991.370;  629.750;  217.875;    0.000
991.534;  504.750;  152.875;    0.000
991.697;  584.750;  194.875;    0.000
991.861;  585.750;  208.875;    0.000
992.025;  488.750;  209.875;    0.000
992.188;  478.750;  182.875;    0.000
992.352;  595.750;  181.875;    0.000
992.516;  513.750;  192.875;    0.000
992.679;  526.750;  183.875;    0.000
992.843;  535.750;  156.875;    0.000
993.006;  528.750;  192.875;    0.000
993.170;  551.750;  172.875;    0.000
993.333;  554.750;  195.875;    0.000
993.497;  566.750;  185.875;    0.000
993.660;  539.750;  155.875;    0.000
993.824;  579.750;  199.875;    0.000
993.987;  573.750;  211.875;    0.000
994.150;  538.750;  173.875;    0.000
994.314;  526.750;  202.875;    0.000
994.477;  577.750;  171.875;    0.000
994.640;  545.750;  191.875;    0.000
994.803;  578.750;  203.875;    0.000
994.967;  586.750;  198.875;    0.000
995.130;  538.750;  192.875;    0.000
995.293;  552.750;  211.875;    0.000
995.456;  586.750;  207.875;    0.000
995.619;  550.750;  207.875;    0.000
995.782;  580.750;  186.875;    0.000
995.945;  532.750;  203.875;    0.000
996.108;  515.750;  195.875;    0.000
996.271;  590.750;  195.875;    0.000
996.434;  494.750;  179.875;    0.000
996.597;  575.750;  170.875;    0.000
996.760;  535.750;  161.875;    0.000
996.923;  563.750;  177.875;    0.000
997.086;  544.750;  199.875;    0.000
997.248;  618.750;  225.875;    0.000
997.411;  507.750;  194.875;    0.000
997.574;  533.750;  204.875;    0.000
997.737;  567.750;  236.875;    0.000
997.899;  551.750;  191.875;    0.000
998.062;  598.750;  178.875;    0.000
998.225;  525.750;  176.875;    0.000
998.387;  582.750;  203.875;    0.000
998.550;  549.750;  155.875;    0.000
998.712;  509.750;  169.875;    0.000
998.875;  588.750;  234.875;    0.000
999.037;  574.750;  211.875;    0.000
999.200;  554.750;  185.875;    0.000
999.362;  574.750;  199.875;    0.000
999.525;  588.750;  234.875;    0.000
999.687;  567.750;  194.875;    0.000
999.849;  588.750;  223.875;    0.000
1000.012;  548.750;  222.875;    0.000
1000.174;  534.750;  187.875;    0.000
1000.336;  563.750;  204.875;    0.000
1000.499;  627.750;  240.875;    0.000
1000.661;  617.750;  215.875;    0.000
1000.823;  567.750;  206.875;    0.000
1000.985;  562.750;  197.875;    0.000
1001.147;  603.750;  221.875;    0.000
1001.309;  547.750;  207.875;    0.000
1001.471;  622.750;  227.875;    0.000
1001.633;  557.750;  208.875;    0.000
1001.796;  584.750;  158.875;    0.000
1001.958;  575.750;  210.875;    0.000
1002.119;  605.750;  223.875;    0.000
1002.281;  610.750;  211.875;    0.000
1002.443;  584.750;  227.875;    0.000
1002.605;  589.750;  186.875;    0.000
1002.767;  621.750;  242.875;    0.000
1002.929;  724.750;  219.875;    0.000
1003.091;  692.750;  191.875;    0.000
1003.252;  755.750;  233.875;    0.000
1003.414;  712.750;  214.875;    0.000
1003.576;  626.750;  186.875;    0.000
1003.738;  735.750;  175.875;    0.000
1003.899;  825.750;  237.875;    0.000
1004.061;  889.750;  220.875;    0.000
1004.222;  909.750;  186.875;    0.000
1004.384;  858.750;  216.875;    0.000
1004.546;  907.750;  203.875;    0.000
1004.707;  816.750;  216.875;    0.000
1004.869;  918.750;  219.875;    0.000
1005.030;  890.750;  188.875;    0.000
1005.191;  888.750;  223.875;    0.000
1005.353;  929.750;  227.875;    0.000
1005.514;  855.750;  235.875;    0.000
1005.675;  882.750;  201.875;    0.000
1005.837;  852.750;  199.875;    0.000
1005.998;  889.750;  219.875;    0.000
1006.159;  846.750;  235.875;    0.000
1006.321;  773.750;  199.875;    0.000
1006.482;  802.750;  222.875;    0.000
1006.643;  863.750;  195.875;    0.000
1006.804;  920.750;  205.875;    0.000
1006.965;  802.750;  199.875;    0.000
1007.126;  792.750;  231.875;    0.000
1007.287;  758.750;  208.875;    0.000
1007.448;  839.750;  205.875;    0.000
1007.609;  921.750;  256.875;    0.000
1007.770;  856.750;  231.875;    0.000
1007.931;  861.750;  223.875;    0.000
1008.092;  896.750;  217.875;    0.000
1008.253;  847.750;  236.875;    0.000
1008.414;  818.750;  197.875;    0.000
1008.575;  863.750;  233.875;    0.000
1008.736;  818.750;  193.875;    0.000
1008.896;  837.750;  238.875;    0.000
1009.057;  867.750;  245.875;    0.000
1009.218;  860.750;  240.875;    0.000
1009.379;  939.750;  210.875;    0.000
1009.539;  928.750;  234.875;    0.000
1009.700;  818.750;  228.875;    0.000
1009.860;  947.750;  238.875;    0.000
1010.021;  861.750;  199.875;    0.000
1010.182;  803.750;  214.875;    0.000
1010.342;  899.750;  216.875;    0.000
1010.503;  966.750;  207.875;    0.000
1010.663;  913.750;  258.875;    0.000
1010.823;  876.750;  243.875;    0.000
1010.984; 1027.750;  268.875;    0.000
1011.144;  899.750;  217.875;    0.000
1011.305; 1080.750;  237.875;    0.000
1011.465; 1036.750;  216.875;    0.000
1011.625; 1143.750;  195.875;    0.000
1011.785;  965.750;  201.875;    0.000
1011.946; 1077.750;  200.875;    0.000
1012.106; 1133.750;  206.875;    0.000
1012.266;  919.750;  227.875;    0.000
1012.426; 1061.750;  221.875;    0.000
1012.586;  990.750;  198.875;    0.000
1012.746;  984.750;  215.875;    0.000
1012.906; 1164.750;  226.875;    0.000
1013.066; 1077.750;  221.875;    0.000
1013.226;  952.750;  202.875;    0.000
1013.386; 1038.750;  210.875;    0.000
1013.546; 1087.750;  243.875;    0.000
1013.706; 1007.750;  200.875;    0.000
1013.866;  946.750;  232.875;    0.000
1014.026; 1025.750;  206.875;    0.000
1014.186;  952.750;  222.875;    0.000
1014.346; 1081.750;  233.875;    0.000
1014.505; 1083.750;  241.875;    0.000
1014.665; 1052.750;  225.875;    0.000
1014.825;  970.750;  196.875;    0.000
1014.985; 1077.750;  234.875;    0.000
1015.144; 1134.750;  232.875;    0.000
1015.304; 1103.750;  214.875;    0.000
1015.464; 1039.750;  210.875;    0.000
1015.623; 1076.750;  219.875;    0.000
1015.783; 1084.750;  216.875;    0.000
1015.942; 1102.750;  267.875;    0.000
1016.102; 1117.750;  234.875;    0.000
1016.261; 1137.750;  230.875;    0.000
1016.420; 1227.750;  225.875;    0.000
1016.580; 1357.750;  205.875;    0.000
1016.739; 1278.750;  199.875;    0.000
1016.899; 1248.750;  218.875;    0.000
1017.058; 1400.750;  204.875;    0.000
1017.217; 1353.750;  196.875;    0.000
1017.376; 1334.750;  204.875;    0.000
1017.536; 1416.750;  195.875;    0.000
1017.695; 1301.750;  216.875;    0.000
1017.854; 1229.750;  235.875;    0.000
1018.013; 1180.750;  189.875;    0.000
1018.172; 1070.750;  217.875;    0.000
1018.331; 1289.750;  215.875;    0.000
1018.490; 1316.750;  233.875;    0.000
1018.649; 1072.750;  211.875;    0.000
1018.808; 1247.750;  196.875;    0.000
1018.967; 1304.750;  222.875;    0.000
1019.126; 1312.750;  221.875;    0.000
1019.285; 1337.750;  212.875;    0.000
1019.444; 1295.750;  231.875;    0.000
1019.603; 1195.750;  227.875;    0.000
1019.762; 1207.750;  192.875;    0.000
1019.921; 1319.750;  240.875;    0.000
1020.079; 1302.750;  209.875;    0.000
1020.238; 1397.750;  211.875;    0.000
1020.397; 1413.750;  253.875;    0.000
1020.555; 1287.750;  179.875;    0.000
1020.714; 1381.750;  225.875;    0.000
1020.873; 1528.750;  232.875;    0.000
1021.031; 1306.750;  245.875;    0.000
1021.190; 1386.750;  230.875;    0.000
1021.348; 1349.750;  221.875;    0.000
1021.507; 1362.750;  212.875;    0.000
1021.665; 1309.750;  211.875;    0.000
1021.824; 1374.750;  206.875;    0.000
1021.982; 1206.750;  218.875;    0.000
1022.141; 1288.750;  232.875;    0.000
1022.299; 1468.750;  193.875;    0.000
1022.457; 1414.750;  217.875;    0.000
1022.616; 1338.750;  248.875;    0.000
1022.774; 1284.750;  222.875;    0.000
1022.932; 1493.750;  211.875;    0.000
1023.090; 1353.750;  288.875;    0.000
1023.249; 1460.750;  214.875;    0.000
1023.407; 1274.750;  233.875;    0.000
1023.565; 1399.750;  208.875;    0.000
1023.723; 1480.750;  217.875;    0.000
1023.881; 1472.750;  235.875;    0.000
1024.039; 1475.750;  228.875;    0.000
1024.197; 1390.750;  216.875;    0.000
1024.355; 1231.750;  251.875;    0.000
1024.513; 1343.750;  232.875;    0.000
1024.671; 1585.750;  217.875;    0.000
1024.829; 1535.750;  255.875;    0.000
1024.987; 1358.750;  203.875;    0.000
1025.145; 1449.750;  239.875;    0.000
1025.302; 1357.750;  209.875;    0.000
1025.460; 1558.750;  224.875;    0.000
1025.618; 1623.750;  193.875;    0.000
1025.776; 1308.750;  209.875;    0.000
1025.933; 1370.750;  229.875;    0.000
1026.091; 1532.750;  218.875;    0.000
1026.249; 1602.750;  269.875;    0.000
1026.406; 1509.750;  264.875;    0.000
1026.564; 1489.750;  230.875;    0.000
1026.721; 1422.750;  198.875;    0.000
1026.879; 1409.750;  216.875;    0.000
1027.036; 1544.750;  226.875;    0.000
1027.194; 1690.750;  245.875;    0.000
1027.351; 1512.750;  236.875;    0.000
1027.509; 1446.750;  262.875;    0.000
1027.666; 1384.750;  227.875;    0.000
1027.823; 1457.750;  214.875;    0.000
1027.981; 1838.750;  258.875;    0.000
1028.138; 1617.750;  239.875;    0.000
1028.295; 1562.750;  226.875;    0.000
1028.452; 1327.750;  225.875;    0.000
1028.609; 1458.750;  276.875;    0.000
1028.767; 1704.750;  228.875;    0.000
1028.924; 1806.750;  213.875;    0.000
1029.081; 1772.750;  232.875;    0.000
1029.238; 1391.750;  250.875;    0.000
1029.395; 1390.750;  255.875;    0.000
1029.552; 1593.750;  217.875;    0.000
1029.709; 1788.750;  210.875;    0.000
1029.866; 1841.750;  243.875;    0.000
1030.023; 1603.750;  202.875;    0.000
1030.180; 1494.750;  233.875;    0.000
1030.337; 1322.750;  234.875;    0.000
1030.494; 1591.750;  222.875;    0.000
1030.650; 1670.750;  241.875;    0.000
1030.807; 1715.750;  206.875;    0.000
1030.964; 1632.750;  206.875;    0.000
1031.121; 1604.750;  228.875;    0.000
1031.277; 1395.750;  228.875;    0.000
1031.434; 1498.750;  234.875;    0.000
1031.591; 1719.750;  250.875;    0.000
1031.747; 1833.750;  246.875;    0.000
1031.904; 1851.750;  201.875;    0.000
1032.060; 1645.750;  237.875;    0.000
1032.217; 1552.750;  232.875;    0.000
1032.373; 1503.750;  210.875;    0.000
1032.530; 1728.750;  246.875;    0.000
1032.686; 2037.750;  196.875;    0.000
1032.843; 1910.750;  212.875;    0.000
1032.999; 1739.750;  243.875;    0.000
1033.155; 1777.750;  234.875;    0.000
1033.312; 1717.750;  246.875;    0.000
1033.468; 1728.750;  233.875;    0.000
1033.624; 2308.750;  237.875;    0.000
1033.780; 2265.750;  263.875;    0.000
1033.937; 2438.750;  214.875;    0.000
1034.093; 2270.750;  230.875;    0.000
1034.249; 2271.750;  206.875;    0.000
1034.405; 2181.750;  238.875;    0.000
1034.561; 2280.750;  231.875;    0.000
1034.717; 2510.750;  228.875;    0.000
1034.873; 2544.750;  262.875;    0.000
1035.029; 2653.750;  252.875;    0.000
1035.185; 2456.750;  232.875;    0.000
1035.341; 2263.750;  245.875;    0.000
1035.497; 2352.750;  253.875;    0.000
1035.653; 2267.750;  252.875;    0.000
1035.809; 2758.750;  245.875;    0.000
1035.964; 2663.750;  229.875;    0.000
1036.120; 2799.750;  226.875;    0.000
1036.276; 2615.750;  236.875;    0.000
1036.432; 2685.750;  203.875;    0.000
1036.587; 2418.750;  228.875;    0.000
1036.743; 2701.750;  240.875;    0.000
1036.899; 2653.750;  220.875;    0.000
1037.054; 2595.750;  153.875;    0.000
1037.210; 2894.750;  219.875;    0.000
1037.365; 2924.750;  229.875;    0.000
1037.521; 2804.750;  257.875;    0.000
1037.676; 2928.750;  211.875;    0.000
1037.832; 2501.750;  234.875;    0.000
1037.987; 2628.750;  235.875;    0.000
1038.143; 2467.750;  176.875;    0.000
1038.298; 2871.750;  262.875;    0.000
1038.453; 2955.750;  209.875;    0.000
1038.609; 3192.750;  230.875;    0.000
1038.764; 2917.750;  253.875;    0.000
1038.919; 3119.750;  195.875;    0.000
1039.074; 3157.750;  234.875;    0.000
1039.229; 2671.750;  234.875;    0.000
1039.385; 2697.750;  266.875;    0.000
1039.540; 3106.750;  252.875;    0.000
1039.695; 3307.750;  231.875;    0.000
1039.850; 3312.750;  208.875;    0.000
1040.005; 3231.750;  232.875;    0.000
1040.160; 3572.750;  214.875;    0.000
1040.315; 3554.750;  221.875;    0.000
1040.470; 3343.750;  207.875;    0.000
1040.625; 2645.750;  249.875;    0.000
1040.780; 2899.750;  251.875;    0.000
1040.935; 3193.750;  254.875;    0.000
1041.089; 3224.750;  210.875;    0.000
1041.244; 3675.750;  225.875;    0.000
1041.399; 3546.750;  208.875;    0.000
1041.554; 3445.750;  249.875;    0.000
1041.708; 3428.750;  254.875;    0.000
1041.863; 3469.750;  248.875;    0.000
1042.018; 3893.750;  280.875;    0.000
1042.172; 4032.750;  233.875;    0.000
1042.327; 3434.750;  256.875;    0.000
1042.481; 3535.750;  210.875;    0.000
1042.636; 3700.750;  229.875;    0.000
1042.791; 4088.750;  215.875;    0.000
1042.945; 4061.750;  256.875;    0.000
1043.099; 3930.750;  251.875;    0.000
1043.254; 3959.750;  204.875;    0.000
1043.408; 4351.750;  278.875;    0.000
1043.563; 4581.750;  211.875;    0.000
1043.717; 4204.750;  259.875;    0.000
1043.871; 4118.750;  233.875;    0.000
1044.025; 4159.750;  221.875;    0.000
1044.180; 3751.750;  208.875;    0.000
1044.334; 3944.750;  255.875;    0.000
1044.488; 4007.750;  269.875;    0.000
1044.642; 4410.750;  228.875;    0.000
1044.796; 5137.750;  232.875;    0.000
1044.950; 5159.750;  249.875;    0.000
1045.104; 4529.750;  205.875;    0.000
1045.258; 4941.750;  206.875;    0.000
1045.412; 5018.750;  251.875;    0.000
1045.566; 4610.750;  249.875;    0.000
1045.720; 4917.750;  206.875;    0.000
1045.874; 4460.750;  232.875;    0.000
1046.028; 4338.750;  266.875;    0.000
1046.182; 4120.750;  217.875;    0.000
1046.336; 4448.750;  216.875;    0.000
1046.489; 4952.750;  236.875;    0.000
1046.643; 5229.750;  253.875;    0.000
1046.797; 4968.750;  244.875;    0.000
1046.951; 5429.750;  234.875;    0.000
1047.104; 5613.750;  281.875;    0.000
1047.258; 5491.750;  253.875;    0.000
1047.411; 5384.750;  228.875;    0.000
1047.565; 5161.750;  273.875;    0.000
1047.719; 5016.750;  232.875;    0.000
1047.872; 5142.750;  230.875;    0.000
1048.026; 5135.750;  282.875;    0.000
1048.179; 5151.750;  225.875;    0.000
1048.332; 4634.750;  234.875;    0.000
1048.486; 4397.750;  223.875;    0.000
1048.639; 5194.750;  248.875;    0.000
1048.792; 5671.750;  244.875;    0.000
1048.946; 5381.750;  210.875;    0.000
1049.099; 6122.750;  242.875;    0.000
1049.252; 5876.750;  269.875;    0.000
1049.406; 5698.750;  285.875;    0.000
1049.559; 6039.750;  277.875;    0.000
1049.712; 6218.750;  254.875;    0.000
1049.865; 6044.750;  252.875;    0.000
1050.018; 5851.750;  270.875;    0.000
1050.171; 5302.750;  230.875;    0.000
1050.324; 5679.750;  268.875;    0.000
1050.477; 5490.750;  262.875;    0.000
1050.630; 5141.750;  243.875;    0.000
1050.783; 5871.750;  216.875;    0.000
1050.936; 5986.750;  250.875;    0.000
1051.089; 5465.750;  247.875;    0.000
1051.242; 6232.750;  300.875;    0.000
1051.394; 6012.750;  233.875;    0.000
1051.547; 5925.750;  263.875;    0.000
1051.700; 6414.750;  238.875;    0.000
1051.853; 6268.750;  299.875;    0.000
1052.005; 6839.750;  275.875;    0.000
1052.158; 6467.750;  304.875;    0.000
1052.311; 7342.750;  251.875;    0.000
1052.463; 6230.750;  276.875;    0.000
1052.616; 6465.750;  271.875;    0.000
1052.768; 6385.750;  285.875;    0.000
1052.921; 6291.750;  261.875;    0.000
1053.073; 6644.750;  333.875;    0.000
1053.226; 6308.750;  271.875;    0.000
1053.378; 6394.750;  309.875;    0.000
1053.531; 6386.750;  266.875;    0.000
1053.683; 6573.750;  278.875;    0.000
1053.835; 6143.750;  274.875;    0.000
1053.988; 4949.750;  287.875;    0.000
1054.140; 2074.750;  350.875;    0.000
1054.292;  806.750;  338.875;    0.000
1054.444;  690.750;  270.875;    0.000
1054.596;  633.750;  294.875;    0.000
1054.749;  548.750;  285.875;    0.000
1054.901;  566.750;  254.875;    0.000
1055.053;  560.750;  320.875;    0.000
1055.205;  550.750;  284.875;    0.000
1055.357;  532.750;  298.875;    0.000
1055.509;  535.750;  304.875;    0.000
1055.661;  540.750;  350.875;    0.000
1055.813;  511.750;  289.875;    0.000
1055.965;  496.750;  277.875;    0.000
1056.116;  529.750;  288.875;    0.000
1056.268;  555.750;  311.875;    0.000
1056.420;  495.750;  308.875;    0.000

