
Integration time [ms]:   0.300
Averaging Nr. [scans]: 1
Smoothing Nr. [pixels]: 0
Data measured with spectrometer [name]: UV2
Wave   ;Sample   ;Dark     ;Reference
[nm]   ;[counts] ;[counts] ;[counts] 

353.533;  219.700;  235.675;    0.000
353.597;  225.700;  239.675;    0.000
353.660;  203.700;  203.675;    0.000
353.723;  192.700;  225.675;    0.000
353.786;  204.700;  178.675;    0.000
353.850;  232.700;  199.675;    0.000
353.913;  203.700;  179.675;    0.000
353.976;  236.700;  209.675;    0.000
354.039;  198.700;  188.675;    0.000
354.102;  222.700;  219.675;    0.000
354.166;  218.700;  237.675;    0.000
354.229;  208.700;  179.675;    0.000
354.292;  184.700;  210.675;    0.000
354.355;  207.700;  214.675;    0.000
354.418;  189.700;  173.675;    0.000
354.481;  243.700;  170.675;    0.000
354.545;  760.700;  229.675;    0.000
354.608;  826.700;  233.675;    0.000
354.671;  748.700;  183.675;    0.000
354.734;  793.700;  208.675;    0.000
354.797;  794.700;  263.675;    0.000
354.860;  846.700;  208.675;    0.000
354.923;  777.700;  202.675;    0.000
354.986;  822.700;  207.675;    0.000
355.050;  867.700;  180.675;    0.000
355.113;  871.700;  189.675;    0.000
355.176;  821.700;  214.675;    0.000
355.239;  903.700;  199.675;    0.000
355.302;  927.700;  229.675;    0.000
355.365;  956.700;  220.675;    0.000
355.428;  914.700;  196.675;    0.000
355.491;  973.700;  243.675;    0.000
355.554;  902.700;  191.675;    0.000
355.617;  966.700;  200.675;    0.000
355.680;  978.700;  190.675;    0.000
355.743;  985.700;  236.675;    0.000
355.806;  961.700;  193.675;    0.000
355.869; 1011.700;  223.675;    0.000
355.932;  967.700;  208.675;    0.000
355.995; 1027.700;  231.675;    0.000
356.058; 1047.700;  202.675;    0.000
356.121; 1029.700;  198.675;    0.000
356.184; 1052.700;  209.675;    0.000
356.247; 1078.700;  224.675;    0.000
356.310; 1060.700;  149.675;    0.000
356.373; 1072.700;  211.675;    0.000
356.436; 1089.700;  195.675;    0.000
356.498; 1086.700;  176.675;    0.000
356.561; 1079.700;  186.675;    0.000
356.624; 1008.700;  184.675;    0.000
356.687; 1088.700;  179.675;    0.000
356.750; 1073.700;  213.675;    0.000
356.813; 1021.700;  172.675;    0.000
356.876; 1094.700;  189.675;    0.000
356.939; 1074.700;  204.675;    0.000
357.001; 1124.700;  195.675;    0.000
357.064; 1079.700;  202.675;    0.000
357.127; 1191.700;  176.675;    0.000
357.190; 1087.700;  186.675;    0.000
357.253; 1113.700;  178.675;    0.000
357.316; 1142.700;  187.675;    0.000
357.378; 1094.700;  181.675;    0.000
357.441; 1100.700;  142.675;    0.000
357.504; 1154.700;  161.675;    0.000
357.567; 1079.700;  113.675;    0.000
357.629; 1113.700;  193.675;    0.000
357.692; 1133.700;  144.675;    0.000
357.755; 1132.700;  177.675;    0.000
357.818; 1163.700;  144.675;    0.000
357.880; 1186.700;  182.675;    0.000
357.943; 1163.700;  166.675;    0.000
358.006; 1181.700;  184.675;    0.000
358.069; 1182.700;  200.675;    0.000
358.131; 1178.700;  148.675;    0.000
358.194; 1145.700;  155.675;    0.000
358.257; 1202.700;  173.675;    0.000
358.319; 1199.700;  178.675;    0.000
358.382; 1181.700;  184.675;    0.000
358.445; 1153.700;  156.675;    0.000
358.507; 1161.700;  199.675;    0.000
358.570; 1211.700;  182.675;    0.000
358.633; 1162.700;  167.675;    0.000
358.695; 1193.700;  124.675;    0.000
358.758; 1249.700;  164.675;    0.000
358.821; 1193.700;  147.675;    0.000
358.883; 1160.700;  153.675;    0.000
358.946; 1117.700;  171.675;    0.000
359.008; 1181.700;  196.675;    0.000
359.071; 1271.700;  178.675;    0.000
359.134; 1223.700;  123.675;    0.000
359.196; 1174.700;  166.675;    0.000
359.259; 1183.700;  173.675;    0.000
359.321; 1239.700;  164.675;    0.000
359.384; 1246.700;  155.675;    0.000
359.446; 1216.700;  157.675;    0.000
359.509; 1225.700;  153.675;    0.000
359.571; 1280.700;  184.675;    0.000
359.634; 1188.700;  138.675;    0.000
359.696; 1129.700;  169.675;    0.000
359.759; 1248.700;  152.675;    0.000
359.821; 1199.700;  150.675;    0.000
359.884; 1234.700;  166.675;    0.000
359.946; 1178.700;  165.675;    0.000
360.009; 1219.700;  176.675;    0.000
360.071; 1188.700;  148.675;    0.000
360.134; 1246.700;  193.675;    0.000
360.196; 1271.700;  151.675;    0.000
360.259; 1241.700;  182.675;    0.000
360.321; 1228.700;  168.675;    0.000
360.384; 1312.700;  176.675;    0.000
360.446; 1231.700;  156.675;    0.000
360.508; 1302.700;  183.675;    0.000
360.571; 1291.700;  193.675;    0.000
360.633; 1252.700;  184.675;    0.000
360.696; 1256.700;  136.675;    0.000
360.758; 1324.700;  186.675;    0.000
360.820; 1267.700;  127.675;    0.000
360.883; 1310.700;  146.675;    0.000
360.945; 1346.700;  144.675;    0.000
361.007; 1260.700;  160.675;    0.000
361.070; 1276.700;  175.675;    0.000
361.132; 1336.700;  195.675;    0.000
361.194; 1323.700;  167.675;    0.000
361.257; 1371.700;  140.675;    0.000
361.319; 1370.700;  154.675;    0.000
361.381; 1316.700;  181.675;    0.000
361.443; 1326.700;  137.675;    0.000
361.506; 1344.700;  159.675;    0.000
361.568; 1324.700;  144.675;    0.000
361.630; 1401.700;  189.675;    0.000
361.693; 1334.700;  162.675;    0.000
361.755; 1311.700;  156.675;    0.000
361.817; 1374.700;  225.675;    0.000
361.879; 1346.700;  172.675;    0.000
361.941; 1339.700;  138.675;    0.000
362.004; 1391.700;  163.675;    0.000
362.066; 1366.700;  164.675;    0.000
362.128; 1375.700;  160.675;    0.000
362.190; 1331.700;  168.675;    0.000
362.252; 1390.700;  177.675;    0.000
362.315; 1394.700;  169.675;    0.000
362.377; 1339.700;  188.675;    0.000
362.439; 1382.700;  158.675;    0.000
362.501; 1378.700;  168.675;    0.000
362.563; 1267.700;  168.675;    0.000
362.625; 1319.700;  188.675;    0.000
362.688; 1394.700;  162.675;    0.000
362.750; 1383.700;  209.675;    0.000
362.812; 1369.700;  154.675;    0.000
362.874; 1390.700;  190.675;    0.000
362.936; 1412.700;  190.675;    0.000
362.998; 1403.700;  143.675;    0.000
363.060; 1446.700;  186.675;    0.000
363.122; 1311.700;  167.675;    0.000
363.184; 1447.700;  163.675;    0.000
363.246; 1428.700;  169.675;    0.000
363.308; 1404.700;  165.675;    0.000
363.370; 1361.700;  177.675;    0.000
363.432; 1388.700;  139.675;    0.000
363.494; 1384.700;  177.675;    0.000
363.556; 1348.700;  164.675;    0.000
363.618; 1388.700;  170.675;    0.000
363.680; 1445.700;  146.675;    0.000
363.742; 1400.700;  179.675;    0.000
363.804; 1420.700;  188.675;    0.000
363.866; 1384.700;  186.675;    0.000
363.928; 1356.700;  147.675;    0.000
363.990; 1457.700;  185.675;    0.000
364.052; 1452.700;  197.675;    0.000
364.114; 1420.700;  150.675;    0.000
364.176; 1462.700;  217.675;    0.000
364.238; 1460.700;  159.675;    0.000
364.300; 1455.700;  192.675;    0.000
364.362; 1478.700;  130.675;    0.000
364.424; 1388.700;  131.675;    0.000
364.486; 1395.700;  178.675;    0.000
364.548; 1440.700;  203.675;    0.000
364.609; 1446.700;  192.675;    0.000
364.671; 1407.700;  169.675;    0.000
364.733; 1466.700;  169.675;    0.000
364.795; 1444.700;  157.675;    0.000
364.857; 1436.700;  171.675;    0.000
364.919; 1329.700;  134.675;    0.000
364.981; 1460.700;  162.675;    0.000
365.042; 1497.700;  136.675;    0.000
365.104; 1456.700;  152.675;    0.000
365.166; 1376.700;  149.675;    0.000
365.228; 1441.700;  195.675;    0.000
365.290; 1408.700;  147.675;    0.000
365.351; 1485.700;  138.675;    0.000
365.413; 1480.700;  168.675;    0.000
365.475; 1400.700;  150.675;    0.000
365.537; 1507.700;  179.675;    0.000
365.598; 1484.700;  177.675;    0.000
365.660; 1423.700;  149.675;    0.000
365.722; 1496.700;  160.675;    0.000
365.784; 1476.700;  175.675;    0.000
365.845; 1448.700;  149.675;    0.000
365.907; 1458.700;  154.675;    0.000
365.969; 1494.700;  128.675;    0.000
366.030; 1460.700;  176.675;    0.000
366.092; 1478.700;  181.675;    0.000
366.154; 1526.700;  194.675;    0.000
366.215; 1535.700;  149.675;    0.000
366.277; 1543.700;  144.675;    0.000
366.339; 1472.700;  160.675;    0.000
366.400; 1461.700;  144.675;    0.000
366.462; 1453.700;  145.675;    0.000
366.524; 1520.700;  148.675;    0.000
366.585; 1520.700;  128.675;    0.000
366.647; 1552.700;  156.675;    0.000
366.708; 1473.700;  128.675;    0.000
366.770; 1521.700;  188.675;    0.000
366.832; 1472.700;  170.675;    0.000
366.893; 1534.700;  158.675;    0.000
366.955; 1504.700;  150.675;    0.000
367.016; 1523.700;  160.675;    0.000
367.078; 1471.700;  144.675;    0.000
367.139; 1416.700;  109.675;    0.000
367.201; 1491.700;  155.675;    0.000
367.262; 1494.700;  165.675;    0.000
367.324; 1554.700;  180.675;    0.000
367.385; 1464.700;  150.675;    0.000
367.447; 1536.700;  164.675;    0.000
367.508; 1480.700;  137.675;    0.000
367.570; 1511.700;  174.675;    0.000
367.631; 1541.700;  126.675;    0.000
367.693; 1530.700;  153.675;    0.000
367.754; 1550.700;  194.675;    0.000
367.816; 1534.700;  154.675;    0.000
367.877; 1552.700;  183.675;    0.000
367.939; 1573.700;  179.675;    0.000
368.000; 1485.700;  142.675;    0.000
368.062; 1549.700;  147.675;    0.000
368.123; 1449.700;  155.675;    0.000
368.184; 1452.700;  169.675;    0.000
368.246; 1499.700;  145.675;    0.000
368.307; 1533.700;  165.675;    0.000
368.369; 1523.700;  177.675;    0.000
368.430; 1505.700;  161.675;    0.000
368.491; 1576.700;  156.675;    0.000
368.553; 1600.700;  156.675;    0.000
368.614; 1521.700;  186.675;    0.000
368.675; 1526.700;  154.675;    0.000
368.737; 1527.700;  162.675;    0.000
368.798; 1542.700;  202.675;    0.000
368.859; 1570.700;  162.675;    0.000
368.921; 1551.700;  171.675;    0.000
368.982; 1545.700;  193.675;    0.000
369.043; 1578.700;  207.675;    0.000
369.104; 1557.700;  143.675;    0.000
369.166; 1579.700;  203.675;    0.000
369.227; 1514.700;  125.675;    0.000
369.288; 1559.700;  154.675;    0.000
369.349; 1623.700;  187.675;    0.000
369.411; 1593.700;  191.675;    0.000
369.472; 1612.700;  175.675;    0.000
369.533; 1533.700;  180.675;    0.000
369.594; 1574.700;  161.675;    0.000
369.656; 1584.700;  169.675;    0.000
369.717; 1471.700;  103.675;    0.000
369.778; 1566.700;  159.675;    0.000
369.839; 1533.700;  146.675;    0.000
369.900; 1607.700;  218.675;    0.000
369.961; 1548.700;  200.675;    0.000
370.023; 1670.700;  177.675;    0.000
370.084; 1571.700;  149.675;    0.000
370.145; 1575.700;  179.675;    0.000
370.206; 1588.700;  179.675;    0.000
370.267; 1604.700;  166.675;    0.000
370.328; 1623.700;  164.675;    0.000
370.389; 1596.700;  162.675;    0.000
370.451; 1582.700;  179.675;    0.000
370.512; 1618.700;  181.675;    0.000
370.573; 1616.700;  173.675;    0.000
370.634; 1626.700;  162.675;    0.000
370.695; 1656.700;  167.675;    0.000
370.756; 1643.700;  177.675;    0.000
370.817; 1675.700;  178.675;    0.000
370.878; 1662.700;  152.675;    0.000
370.939; 1603.700;  185.675;    0.000
371.000; 1616.700;  173.675;    0.000
371.061; 1642.700;  176.675;    0.000
371.122; 1676.700;  169.675;    0.000
371.183; 1577.700;  116.675;    0.000
371.244; 1680.700;  174.675;    0.000
371.305; 1594.700;  152.675;    0.000
371.366; 1667.700;  168.675;    0.000
371.427; 1652.700;  188.675;    0.000
371.488; 1671.700;  180.675;    0.000
371.549; 1618.700;  145.675;    0.000
371.610; 1671.700;  160.675;    0.000
371.671; 1644.700;  164.675;    0.000
371.732; 1620.700;  158.675;    0.000
371.793; 1666.700;  162.675;    0.000
371.853; 1685.700;  130.675;    0.000
371.914; 1644.700;  172.675;    0.000
371.975; 1588.700;   98.675;    0.000
372.036; 1634.700;  161.675;    0.000
372.097; 1623.700;  143.675;    0.000
372.158; 1561.700;  175.675;    0.000
372.219; 1686.700;  196.675;    0.000
372.280; 1588.700;  175.675;    0.000
372.340; 1595.700;  160.675;    0.000
372.401; 1648.700;  163.675;    0.000
372.462; 1699.700;  147.675;    0.000
372.523; 1621.700;  146.675;    0.000
372.584; 1658.700;  173.675;    0.000
372.645; 1638.700;  126.675;    0.000
372.705; 1710.700;  179.675;    0.000
372.766; 1760.700;  173.675;    0.000
372.827; 1685.700;  171.675;    0.000
372.888; 1661.700;  134.675;    0.000
372.948; 1635.700;  167.675;    0.000
373.009; 1679.700;  167.675;    0.000
373.070; 1686.700;  152.675;    0.000
373.131; 1657.700;  177.675;    0.000
373.191; 1701.700;  225.675;    0.000
373.252; 1628.700;  165.675;    0.000
373.313; 1618.700;  171.675;    0.000
373.373; 1667.700;  160.675;    0.000
373.434; 1747.700;  172.675;    0.000
373.495; 1737.700;  150.675;    0.000
373.555; 1696.700;  130.675;    0.000
373.616; 1695.700;  155.675;    0.000
373.677; 1710.700;  212.675;    0.000
373.737; 1718.700;  188.675;    0.000
373.798; 1687.700;  203.675;    0.000
373.859; 1654.700;  169.675;    0.000
373.919; 1690.700;  197.675;    0.000
373.980; 1741.700;  134.675;    0.000
374.041; 1663.700;  186.675;    0.000
374.101; 1726.700;  207.675;    0.000
374.162; 1715.700;  190.675;    0.000
374.222; 1739.700;  182.675;    0.000
374.283; 1715.700;  213.675;    0.000
374.343; 1718.700;  191.675;    0.000
374.404; 1687.700;  181.675;    0.000
374.465; 1762.700;  193.675;    0.000
374.525; 1774.700;  153.675;    0.000
374.586; 1742.700;  190.675;    0.000
374.646; 1747.700;  173.675;    0.000
374.707; 1758.700;  210.675;    0.000
374.767; 1787.700;  218.675;    0.000
374.828; 1659.700;  174.675;    0.000
374.888; 1811.700;  197.675;    0.000
374.949; 1800.700;  196.675;    0.000
375.009; 1819.700;  169.675;    0.000
375.070; 1726.700;  157.675;    0.000
375.130; 1768.700;  203.675;    0.000
375.190; 1860.700;  174.675;    0.000
375.251; 1860.700;  230.675;    0.000
375.311; 1730.700;  198.675;    0.000
375.372; 1805.700;  160.675;    0.000
375.432; 1792.700;  169.675;    0.000
375.493; 1774.700;  159.675;    0.000
375.553; 1708.700;  179.675;    0.000
375.613; 1669.700;  157.675;    0.000
375.674; 1749.700;  174.675;    0.000
375.734; 1764.700;  180.675;    0.000
375.794; 1749.700;  175.675;    0.000
375.855; 1708.700;  193.675;    0.000
375.915; 1777.700;  148.675;    0.000
375.975; 1797.700;  183.675;    0.000
376.036; 1780.700;  144.675;    0.000
376.096; 1753.700;  195.675;    0.000
376.156; 1716.700;  200.675;    0.000
376.217; 1741.700;  160.675;    0.000
376.277; 1795.700;  193.675;    0.000
376.337; 1880.700;  168.675;    0.000
376.398; 1777.700;  183.675;    0.000
376.458; 1752.700;  168.675;    0.000
376.518; 1787.700;  184.675;    0.000
376.578; 1750.700;  176.675;    0.000
376.639; 1754.700;  158.675;    0.000
376.699; 1721.700;  157.675;    0.000
376.759; 1740.700;  184.675;    0.000
376.819; 1736.700;  166.675;    0.000
376.880; 1805.700;  220.675;    0.000
376.940; 1781.700;  195.675;    0.000
377.000; 1663.700;  178.675;    0.000
377.060; 1812.700;  212.675;    0.000
377.120; 1800.700;  161.675;    0.000
377.180; 1877.700;  168.675;    0.000
377.241; 1765.700;  167.675;    0.000
377.301; 1760.700;  171.675;    0.000
377.361; 1732.700;  174.675;    0.000
377.421; 1936.700;  216.675;    0.000
377.481; 1753.700;  164.675;    0.000
377.541; 1849.700;  163.675;    0.000
377.601; 1834.700;  197.675;    0.000
377.661; 1820.700;  175.675;    0.000
377.722; 1772.700;  196.675;    0.000
377.782; 1831.700;  162.675;    0.000
377.842; 1815.700;  179.675;    0.000
377.902; 1835.700;  140.675;    0.000
377.962; 1746.700;  121.675;    0.000
378.022; 1802.700;  174.675;    0.000
378.082; 1814.700;  167.675;    0.000
378.142; 1810.700;  151.675;    0.000
378.202; 1824.700;  174.675;    0.000
378.262; 1845.700;  168.675;    0.000
378.322; 1903.700;  183.675;    0.000
378.382; 1781.700;  159.675;    0.000
378.442; 1889.700;  177.675;    0.000
378.502; 1874.700;  137.675;    0.000
378.562; 1877.700;  140.675;    0.000
378.622; 1844.700;  197.675;    0.000
378.682; 1905.700;  205.675;    0.000
378.742; 1861.700;  160.675;    0.000
378.802; 1841.700;  132.675;    0.000
378.862; 1953.700;  222.675;    0.000
378.921; 1854.700;  178.675;    0.000
378.981; 1877.700;  160.675;    0.000
379.041; 1833.700;  136.675;    0.000
379.101; 1901.700;  184.675;    0.000
379.161; 1867.700;  147.675;    0.000
379.221; 1939.700;  139.675;    0.000
379.281; 1901.700;  204.675;    0.000
379.341; 1933.700;  142.675;    0.000
379.401; 1869.700;  136.675;    0.000
379.460; 1940.700;  161.675;    0.000
379.520; 1974.700;  171.675;    0.000
379.580; 1991.700;  168.675;    0.000
379.640; 1977.700;  183.675;    0.000
379.700; 1937.700;  182.675;    0.000
379.759; 1940.700;  190.675;    0.000
379.819; 1897.700;  149.675;    0.000
379.879; 2004.700;  140.675;    0.000
379.939; 1945.700;  155.675;    0.000
379.999; 2059.700;  199.675;    0.000
380.058; 1936.700;  163.675;    0.000
380.118; 2029.700;  190.675;    0.000
380.178; 2032.700;  220.675;    0.000
380.237; 1999.700;  181.675;    0.000
380.297; 2004.700;  187.675;    0.000
380.357; 2048.700;  193.675;    0.000
380.417; 1983.700;  157.675;    0.000
380.476; 1982.700;  176.675;    0.000
380.536; 2054.700;  180.675;    0.000
380.596; 1952.700;  191.675;    0.000
380.655; 1958.700;  190.675;    0.000
380.715; 1990.700;  180.675;    0.000
380.775; 2105.700;  202.675;    0.000
380.834; 1999.700;  190.675;    0.000
380.894; 2094.700;  163.675;    0.000
380.954; 1993.700;  181.675;    0.000
381.013; 2083.700;  218.675;    0.000
381.073; 2063.700;  181.675;    0.000
381.132; 2076.700;  193.675;    0.000
381.192; 1969.700;  209.675;    0.000
381.252; 2069.700;  206.675;    0.000
381.311; 2094.700;  173.675;    0.000
381.371; 2156.700;  188.675;    0.000
381.430; 2092.700;  162.675;    0.000
381.490; 2063.700;  168.675;    0.000
381.549; 2111.700;  213.675;    0.000
381.609; 2153.700;  194.675;    0.000
381.668; 2128.700;  190.675;    0.000
381.728; 2212.700;  183.675;    0.000
381.787; 2198.700;  172.675;    0.000
381.847; 2214.700;  198.675;    0.000
381.906; 2115.700;  197.675;    0.000
381.966; 2288.700;  201.675;    0.000
382.025; 2256.700;  219.675;    0.000
382.085; 2301.700;  194.675;    0.000
382.144; 2245.700;  187.675;    0.000
382.204; 2252.700;  196.675;    0.000
382.263; 2192.700;  168.675;    0.000
382.323; 2288.700;  135.675;    0.000
382.382; 2341.700;  173.675;    0.000
382.441; 2361.700;  155.675;    0.000
382.501; 2486.700;  168.675;    0.000
382.560; 2382.700;  200.675;    0.000
382.619; 2478.700;  155.675;    0.000
382.679; 2605.700;  198.675;    0.000
382.738; 2645.700;  211.675;    0.000
382.798; 2765.700;  214.675;    0.000
382.857; 2855.700;  146.675;    0.000
382.916; 3181.700;  183.675;    0.000
382.976; 3319.700;  173.675;    0.000
383.035; 3135.700;  165.675;    0.000
383.094; 3235.700;  173.675;    0.000
383.154; 3526.700;  143.675;    0.000
383.213; 4151.700;  173.675;    0.000
383.272; 4034.700;  166.675;    0.000
383.331; 3454.700;  154.675;    0.000
383.391; 3074.700;  232.675;    0.000
383.450; 3197.700;  185.675;    0.000
383.509; 3088.700;  204.675;    0.000
383.568; 3133.700;  197.675;    0.000
383.628; 3253.700;  171.675;    0.000
383.687; 3465.700;  202.675;    0.000
383.746; 3885.700;  116.675;    0.000
383.805; 4726.700;  156.675;    0.000
383.864; 4859.700;  150.675;    0.000
383.924; 4059.700;  195.675;    0.000
383.983; 3227.700;  157.675;    0.000
384.042; 2991.700;  184.675;    0.000
384.101; 2831.700;  210.675;    0.000
384.160; 2682.700;  123.675;    0.000
384.219; 2544.700;  191.675;    0.000
384.279; 2530.700;  184.675;    0.000
384.338; 2476.700;  172.675;    0.000
384.397; 2450.700;  153.675;    0.000
384.456; 2489.700;  181.675;    0.000
384.515; 2444.700;  171.675;    0.000
384.574; 2405.700;  172.675;    0.000
384.633; 2360.700;  174.675;    0.000
384.692; 2273.700;  178.675;    0.000
384.751; 2367.700;  180.675;    0.000
384.810; 2398.700;  161.675;    0.000
384.869; 2291.700;  162.675;    0.000
384.929; 2344.700;  157.675;    0.000
384.988; 2313.700;  153.675;    0.000
385.047; 2312.700;  178.675;    0.000
385.106; 2383.700;  164.675;    0.000
385.165; 2314.700;  127.675;    0.000
385.224; 2370.700;  156.675;    0.000
385.283; 2285.700;  178.675;    0.000
385.342; 2400.700;  177.675;    0.000
385.401; 2428.700;  178.675;    0.000
385.459; 2321.700;  177.675;    0.000
385.518; 2319.700;  152.675;    0.000
385.577; 2309.700;  133.675;    0.000
385.636; 2358.700;  204.675;    0.000
385.695; 2310.700;  161.675;    0.000
385.754; 2343.700;  190.675;    0.000
385.813; 2360.700;  160.675;    0.000
385.872; 2295.700;  138.675;    0.000
385.931; 2425.700;  192.675;    0.000
385.990; 2297.700;  158.675;    0.000
386.049; 2342.700;  187.675;    0.000
386.107; 2374.700;  140.675;    0.000
386.166; 2298.700;  139.675;    0.000
386.225; 2411.700;  182.675;    0.000
386.284; 2247.700;  123.675;    0.000
386.343; 2431.700;  207.675;    0.000
386.402; 2343.700;  150.675;    0.000
386.460; 2371.700;  185.675;    0.000
386.519; 2334.700;  145.675;    0.000
386.578; 2378.700;  153.675;    0.000
386.637; 2306.700;  153.675;    0.000
386.696; 2410.700;  189.675;    0.000
386.754; 2280.700;  128.675;    0.000
386.813; 2335.700;  202.675;    0.000
386.872; 2253.700;  152.675;    0.000
386.931; 2347.700;  166.675;    0.000
386.989; 2329.700;  194.675;    0.000
387.048; 2410.700;  176.675;    0.000
387.107; 2398.700;  203.675;    0.000
387.165; 2373.700;  136.675;    0.000
387.224; 2338.700;  193.675;    0.000
387.283; 2301.700;  157.675;    0.000
387.342; 2297.700;  194.675;    0.000
387.400; 2231.700;  191.675;    0.000
387.459; 2307.700;  142.675;    0.000
387.517; 2321.700;  202.675;    0.000
387.576; 2333.700;  164.675;    0.000
387.635; 2293.700;  147.675;    0.000
387.693; 2328.700;  199.675;    0.000
387.752; 2348.700;  181.675;    0.000
387.811; 2393.700;  161.675;    0.000
387.869; 2349.700;  184.675;    0.000
387.928; 2385.700;  175.675;    0.000
387.986; 2340.700;  143.675;    0.000
388.045; 2322.700;  146.675;    0.000
388.103; 2385.700;  164.675;    0.000
388.162; 2367.700;  170.675;    0.000
388.221; 2347.700;  169.675;    0.000
388.279; 2322.700;  151.675;    0.000
388.338; 2443.700;  175.675;    0.000
388.396; 2345.700;  170.675;    0.000
388.455; 2356.700;  193.675;    0.000
388.513; 2400.700;  134.675;    0.000
388.572; 2395.700;  201.675;    0.000
388.630; 2348.700;  181.675;    0.000
388.689; 2425.700;  165.675;    0.000
388.747; 2294.700;  164.675;    0.000
388.806; 2316.700;  155.675;    0.000
388.864; 2326.700;  172.675;    0.000
388.922; 2402.700;  190.675;    0.000
388.981; 2401.700;  170.675;    0.000
389.039; 2357.700;  142.675;    0.000
389.098; 2356.700;  177.675;    0.000
389.156; 2401.700;  184.675;    0.000
389.214; 2437.700;  197.675;    0.000
389.273; 2297.700;  141.675;    0.000
389.331; 2339.700;  145.675;    0.000
389.390; 2404.700;  160.675;    0.000
389.448; 2407.700;  142.675;    0.000
389.506; 2357.700;  192.675;    0.000
389.565; 2379.700;  176.675;    0.000
389.623; 2376.700;  174.675;    0.000
389.681; 2390.700;  184.675;    0.000
389.740; 2386.700;  193.675;    0.000
389.798; 2419.700;  130.675;    0.000
389.856; 2354.700;  224.675;    0.000
389.914; 2424.700;  223.675;    0.000
389.973; 2349.700;  164.675;    0.000
390.031; 2381.700;  198.675;    0.000
390.089; 2340.700;  177.675;    0.000
390.147; 2359.700;  158.675;    0.000
390.206; 2284.700;  213.675;    0.000
390.264; 2413.700;  178.675;    0.000
390.322; 2319.700;  181.675;    0.000
390.380; 2366.700;  148.675;    0.000
390.439; 2388.700;  185.675;    0.000
390.497; 2380.700;  208.675;    0.000
390.555; 2373.700;  175.675;    0.000
390.613; 2494.700;  178.675;    0.000
390.671; 2425.700;  190.675;    0.000
390.729; 2378.700;  172.675;    0.000
390.788; 2330.700;  194.675;    0.000
390.846; 2451.700;  187.675;    0.000
390.904; 2491.700;  207.675;    0.000
390.962; 2431.700;  211.675;    0.000
391.020; 2437.700;  218.675;    0.000
391.078; 2443.700;  179.675;    0.000
391.136; 2424.700;  223.675;    0.000
391.194; 2414.700;  209.675;    0.000
391.253; 2490.700;  217.675;    0.000
391.311; 2367.700;  217.675;    0.000
391.369; 2420.700;  217.675;    0.000
391.427; 2522.700;  253.675;    0.000
391.485; 2569.700;  176.675;    0.000
391.543; 2573.700;  252.675;    0.000
391.601; 2472.700;  168.675;    0.000
391.659; 2558.700;  206.675;    0.000
391.717; 2513.700;  172.675;    0.000
391.775; 2595.700;  170.675;    0.000
391.833; 2599.700;  196.675;    0.000
391.891; 2550.700;  180.675;    0.000
391.949; 2525.700;  201.675;    0.000
392.007; 2539.700;  196.675;    0.000
392.065; 2520.700;  191.675;    0.000
392.123; 2538.700;  158.675;    0.000
392.180; 2637.700;  192.675;    0.000
392.238; 2613.700;  186.675;    0.000
392.296; 2546.700;  150.675;    0.000
392.354; 2556.700;  175.675;    0.000
392.412; 2667.700;  219.675;    0.000
392.470; 2575.700;  200.675;    0.000
392.528; 2629.700;  177.675;    0.000
392.586; 2559.700;  169.675;    0.000
392.644; 2510.700;  155.675;    0.000
392.701; 2628.700;  215.675;    0.000
392.759; 2658.700;  218.675;    0.000
392.817; 2605.700;  178.675;    0.000
392.875; 2550.700;  190.675;    0.000
392.933; 2651.700;  197.675;    0.000
392.991; 2668.700;  179.675;    0.000
393.048; 2803.700;  205.675;    0.000
393.106; 2837.700;  229.675;    0.000
393.164; 2915.700;  167.675;    0.000
393.222; 3126.700;  156.675;    0.000
393.279; 3584.700;  203.675;    0.000
393.337; 4674.700;  216.675;    0.000
393.395; 5839.700;  180.675;    0.000
393.453; 4554.700;  163.675;    0.000
393.510; 3309.700;  194.675;    0.000
393.568; 2960.700;  207.675;    0.000
393.626; 2757.700;  200.675;    0.000
393.684; 2766.700;  234.675;    0.000
393.741; 2781.700;  197.675;    0.000
393.799; 2825.700;  201.675;    0.000
393.857; 2724.700;  185.675;    0.000
393.914; 2721.700;  200.675;    0.000
393.972; 2605.700;  181.675;    0.000
394.030; 2677.700;  188.675;    0.000
394.087; 2807.700;  202.675;    0.000
394.145; 2678.700;  214.675;    0.000
394.202; 2657.700;  204.675;    0.000
394.260; 2685.700;  178.675;    0.000
394.318; 2777.700;  208.675;    0.000
394.375; 2758.700;  183.675;    0.000
394.433; 2823.700;  175.675;    0.000
394.490; 2753.700;  170.675;    0.000
394.548; 2689.700;  161.675;    0.000
394.605; 2749.700;  196.675;    0.000
394.663; 2677.700;  191.675;    0.000
394.720; 2706.700;  179.675;    0.000
394.778; 2767.700;  193.675;    0.000
394.836; 2743.700;  160.675;    0.000
394.893; 2771.700;  152.675;    0.000
394.951; 2815.700;  179.675;    0.000
395.008; 2673.700;  185.675;    0.000
395.065; 2688.700;  154.675;    0.000
395.123; 2718.700;  176.675;    0.000
395.180; 2696.700;  202.675;    0.000
395.238; 2868.700;  135.675;    0.000
395.295; 2757.700;  178.675;    0.000
395.353; 2818.700;  181.675;    0.000
395.410; 2795.700;  160.675;    0.000
395.468; 2832.700;  179.675;    0.000
395.525; 2774.700;  187.675;    0.000
395.582; 2779.700;  221.675;    0.000
395.640; 2827.700;  220.675;    0.000
395.697; 2958.700;  174.675;    0.000
395.754; 2844.700;  177.675;    0.000
395.812; 2763.700;  193.675;    0.000
395.869; 2930.700;  220.675;    0.000
395.927; 2768.700;  206.675;    0.000
395.984; 2943.700;  213.675;    0.000
396.041; 2826.700;  194.675;    0.000
396.098; 2902.700;  144.675;    0.000
396.156; 2909.700;  168.675;    0.000
396.213; 2944.700;  181.675;    0.000
396.270; 2954.700;  186.675;    0.000
396.328; 2819.700;  165.675;    0.000
396.385; 2913.700;  192.675;    0.000
396.442; 2985.700;  196.675;    0.000
396.499; 2876.700;  162.675;    0.000
396.557; 2859.700;  177.675;    0.000
396.614; 2962.700;  184.675;    0.000
396.671; 3003.700;  180.675;    0.000
396.728; 3165.700;  194.675;    0.000
396.785; 3620.700;  173.675;    0.000
396.843; 4476.700;  154.675;    0.000
396.900; 4655.700;  200.675;    0.000
396.957; 3556.700;  158.675;    0.000
397.014; 3219.700;  203.675;    0.000
397.071; 3212.700;  178.675;    0.000
397.128; 3000.700;  201.675;    0.000
397.186; 3044.700;  200.675;    0.000
397.243; 3004.700;  187.675;    0.000
397.300; 2956.700;  173.675;    0.000
397.357; 2986.700;  189.675;    0.000
397.414; 3002.700;  202.675;    0.000
397.471; 2870.700;  156.675;    0.000
397.528; 2960.700;  197.675;    0.000
397.585; 2930.700;  174.675;    0.000
397.642; 2997.700;  202.675;    0.000
397.699; 3007.700;  197.675;    0.000
397.756; 2975.700;  188.675;    0.000
397.814; 3034.700;  210.675;    0.000
397.871; 2999.700;  203.675;    0.000
397.928; 2947.700;  189.675;    0.000
397.985; 2930.700;  192.675;    0.000
398.042; 2974.700;  198.675;    0.000
398.099; 3027.700;  181.675;    0.000
398.156; 3038.700;  201.675;    0.000
398.212; 3024.700;  216.675;    0.000
398.269; 3095.700;  206.675;    0.000
398.326; 3071.700;  213.675;    0.000
398.383; 3120.700;  168.675;    0.000
398.440; 3111.700;  184.675;    0.000
398.497; 3084.700;  194.675;    0.000
398.554; 3088.700;  219.675;    0.000
398.611; 3070.700;  190.675;    0.000
398.668; 3038.700;  138.675;    0.000
398.725; 3050.700;  170.675;    0.000
398.782; 3230.700;  223.675;    0.000
398.839; 3180.700;  211.675;    0.000
398.895; 3199.700;  173.675;    0.000
398.952; 3207.700;  207.675;    0.000
399.009; 3205.700;  173.675;    0.000
399.066; 3171.700;  171.675;    0.000
399.123; 3344.700;  189.675;    0.000
399.180; 3396.700;  170.675;    0.000
399.236; 3448.700;  193.675;    0.000
399.293; 3441.700;  222.675;    0.000
399.350; 3412.700;  195.675;    0.000
399.407; 3504.700;  214.675;    0.000
399.463; 3446.700;  181.675;    0.000
399.520; 3460.700;  168.675;    0.000
399.577; 3645.700;  231.675;    0.000
399.634; 3616.700;  215.675;    0.000
399.690; 3612.700;  177.675;    0.000
399.747; 3631.700;  212.675;    0.000
399.804; 3596.700;  208.675;    0.000
399.861; 3625.700;  225.675;    0.000
399.917; 3618.700;  191.675;    0.000
399.974; 3562.700;  182.675;    0.000
400.031; 3480.700;  218.675;    0.000
400.087; 3546.700;  202.675;    0.000
400.144; 3537.700;  192.675;    0.000
400.201; 3533.700;  187.675;    0.000
400.257; 3437.700;  193.675;    0.000
400.314; 3496.700;  185.675;    0.000
400.370; 3331.700;  201.675;    0.000
400.427; 3321.700;  208.675;    0.000
400.484; 3427.700;  201.675;    0.000
400.540; 3369.700;  204.675;    0.000
400.597; 3408.700;  210.675;    0.000
400.653; 3412.700;  224.675;    0.000
400.710; 3323.700;  196.675;    0.000
400.766; 3388.700;  224.675;    0.000
400.823; 3273.700;  210.675;    0.000
400.879; 3330.700;  213.675;    0.000
400.936; 3216.700;  182.675;    0.000
400.993; 3270.700;  184.675;    0.000
401.049; 3252.700;  216.675;    0.000
401.105; 3361.700;  235.675;    0.000
401.162; 3357.700;  196.675;    0.000
401.218; 3122.700;  221.675;    0.000
401.275; 3273.700;  216.675;    0.000
401.331; 3304.700;  198.675;    0.000
401.388; 3235.700;  205.675;    0.000
401.444; 3297.700;  154.675;    0.000
401.501; 3315.700;  208.675;    0.000
401.557; 3241.700;  162.675;    0.000
401.614; 3146.700;  157.675;    0.000
401.670; 3272.700;  198.675;    0.000
401.726; 3319.700;  195.675;    0.000
401.783; 3246.700;  186.675;    0.000
401.839; 3265.700;  205.675;    0.000
401.895; 3247.700;  202.675;    0.000
401.952; 3246.700;  143.675;    0.000
402.008; 3308.700;  177.675;    0.000
402.064; 3349.700;  177.675;    0.000
402.121; 3253.700;  194.675;    0.000
402.177; 3204.700;  181.675;    0.000
402.233; 3403.700;  205.675;    0.000
402.290; 3402.700;  190.675;    0.000
402.346; 3297.700;  190.675;    0.000
402.402; 3291.700;  151.675;    0.000
402.458; 3330.700;  194.675;    0.000
402.515; 3440.700;  212.675;    0.000
402.571; 3229.700;  209.675;    0.000
402.627; 3305.700;  199.675;    0.000
402.683; 3372.700;  213.675;    0.000
402.740; 3199.700;  165.675;    0.000
402.796; 3358.700;  168.675;    0.000
402.852; 3387.700;  200.675;    0.000
402.908; 3415.700;  193.675;    0.000
402.964; 3290.700;  166.675;    0.000
403.021; 3352.700;  196.675;    0.000
403.077; 3361.700;  212.675;    0.000
403.133; 3312.700;  186.675;    0.000
403.189; 3428.700;  206.675;    0.000
403.245; 3421.700;  207.675;    0.000
403.301; 3382.700;  204.675;    0.000
403.357; 3479.700;  246.675;    0.000
403.414; 3268.700;  227.675;    0.000
403.470; 3510.700;  207.675;    0.000
403.526; 3447.700;  171.675;    0.000
403.582; 3365.700;  200.675;    0.000
403.638; 3412.700;  213.675;    0.000
403.694; 3480.700;  239.675;    0.000
403.750; 3425.700;  221.675;    0.000
403.806; 3434.700;  197.675;    0.000
403.862; 3403.700;  222.675;    0.000
403.918; 3508.700;  174.675;    0.000
403.974; 3546.700;  183.675;    0.000
404.030; 3463.700;  184.675;    0.000
404.086; 3499.700;  170.675;    0.000
404.142; 3448.700;  215.675;    0.000
404.198; 3524.700;  189.675;    0.000
404.254; 3535.700;  195.675;    0.000
404.310; 3402.700;  206.675;    0.000
404.366; 3506.700;  179.675;    0.000
404.422; 3436.700;  197.675;    0.000
404.478; 3508.700;  176.675;    0.000
404.534; 3414.700;  165.675;    0.000
404.590; 3627.700;  203.675;    0.000
404.646; 3481.700;  195.675;    0.000
404.701; 3444.700;  180.675;    0.000
404.757; 3648.700;  218.675;    0.000
404.813; 3457.700;  160.675;    0.000
404.869; 3542.700;  213.675;    0.000
404.925; 3451.700;  171.675;    0.000
404.981; 3520.700;  194.675;    0.000
405.037; 3426.700;  211.675;    0.000
405.092; 3515.700;  158.675;    0.000
405.148; 3465.700;  140.675;    0.000
405.204; 3596.700;  161.675;    0.000
405.260; 3496.700;  161.675;    0.000
405.316; 3515.700;  155.675;    0.000
405.371; 3514.700;  151.675;    0.000
405.427; 3495.700;  186.675;    0.000
405.483; 3508.700;  206.675;    0.000
405.539; 3578.700;  162.675;    0.000
405.594; 3542.700;  205.675;    0.000
405.650; 3555.700;  153.675;    0.000
405.706; 3598.700;  185.675;    0.000
405.761; 3548.700;  205.675;    0.000
405.817; 3507.700;  185.675;    0.000
405.873; 3537.700;  160.675;    0.000
405.928; 3646.700;  182.675;    0.000
405.984; 3627.700;  206.675;    0.000
406.040; 3472.700;  200.675;    0.000
406.095; 3494.700;  138.675;    0.000
406.151; 3551.700;  178.675;    0.000
406.207; 3569.700;  225.675;    0.000
406.262; 3708.700;  161.675;    0.000
406.318; 3620.700;  186.675;    0.000
406.374; 3617.700;  173.675;    0.000
406.429; 3646.700;  197.675;    0.000
406.485; 3695.700;  260.675;    0.000
406.540; 3670.700;  184.675;    0.000
406.596; 3658.700;  193.675;    0.000
406.651; 3719.700;  176.675;    0.000
406.707; 3755.700;  158.675;    0.000
406.763; 3700.700;  174.675;    0.000
406.818; 3809.700;  188.675;    0.000
406.874; 3743.700;  176.675;    0.000
406.929; 3812.700;  220.675;    0.000
406.985; 3738.700;  167.675;    0.000
407.040; 3776.700;  191.675;    0.000
407.095; 3915.700;  190.675;    0.000
407.151; 3870.700;  196.675;    0.000
407.206; 4000.700;  184.675;    0.000
407.262; 4021.700;  167.675;    0.000
407.317; 4040.700;  199.675;    0.000
407.373; 4056.700;  211.675;    0.000
407.428; 4101.700;  202.675;    0.000
407.484; 4074.700;  172.675;    0.000
407.539; 3991.700;  171.675;    0.000
407.594; 4108.700;  219.675;    0.000
407.650; 3974.700;  179.675;    0.000
407.705; 3935.700;  141.675;    0.000
407.760; 3919.700;  182.675;    0.000
407.816; 4064.700;  203.675;    0.000
407.871; 4092.700;  219.675;    0.000
407.926; 3997.700;  197.675;    0.000
407.982; 3990.700;  176.675;    0.000
408.037; 3966.700;  187.675;    0.000
408.092; 3900.700;  161.675;    0.000
408.148; 3980.700;  185.675;    0.000
408.203; 3979.700;  196.675;    0.000
408.258; 3963.700;  188.675;    0.000
408.314; 3927.700;  225.675;    0.000
408.369; 3908.700;  172.675;    0.000
408.424; 3948.700;  204.675;    0.000
408.479; 3926.700;  182.675;    0.000
408.534; 3882.700;  220.675;    0.000
408.590; 3908.700;  196.675;    0.000
408.645; 3844.700;  170.675;    0.000
408.700; 3934.700;  204.675;    0.000
408.755; 3863.700;  219.675;    0.000
408.810; 3813.700;  174.675;    0.000
408.866; 3868.700;  212.675;    0.000
408.921; 3844.700;  233.675;    0.000
408.976; 3735.700;  198.675;    0.000
409.031; 3882.700;  179.675;    0.000
409.086; 3835.700;  181.675;    0.000
409.141; 3818.700;  192.675;    0.000
409.196; 3862.700;  172.675;    0.000
409.252; 3850.700;  199.675;    0.000
409.307; 3821.700;  159.675;    0.000
409.362; 3878.700;  158.675;    0.000
409.417; 3809.700;  164.675;    0.000
409.472; 3859.700;  186.675;    0.000
409.527; 3855.700;  215.675;    0.000
409.582; 3923.700;  227.675;    0.000
409.637; 3871.700;  211.675;    0.000
409.692; 3905.700;  224.675;    0.000
409.747; 3770.700;  147.675;    0.000
409.802; 3864.700;  203.675;    0.000
409.857; 3742.700;  203.675;    0.000
409.912; 3840.700;  219.675;    0.000
409.967; 3743.700;  200.675;    0.000
410.022; 3837.700;  199.675;    0.000
410.077; 3854.700;  171.675;    0.000
410.132; 3771.700;  193.675;    0.000
410.187; 3818.700;  167.675;    0.000
410.242; 3738.700;  188.675;    0.000
410.297; 3839.700;  195.675;    0.000
410.351; 3797.700;  225.675;    0.000
410.406; 3872.700;  188.675;    0.000
410.461; 3773.700;  197.675;    0.000
410.516; 3819.700;  212.675;    0.000
410.571; 3852.700;  173.675;    0.000
410.626; 3863.700;  180.675;    0.000
410.681; 3866.700;  198.675;    0.000
410.736; 3785.700;  190.675;    0.000
410.790; 3722.700;  204.675;    0.000
410.845; 3892.700;  214.675;    0.000
410.900; 3842.700;  184.675;    0.000
410.955; 3805.700;  231.675;    0.000
411.010; 3663.700;  211.675;    0.000
411.064; 3687.700;  204.675;    0.000
411.119; 3730.700;  219.675;    0.000
411.174; 3835.700;  208.675;    0.000
411.229; 3811.700;  207.675;    0.000
411.283; 3886.700;  199.675;    0.000
411.338; 3860.700;  198.675;    0.000
411.393; 3807.700;  155.675;    0.000
411.447; 3852.700;  200.675;    0.000
411.502; 3884.700;  229.675;    0.000
411.557; 3847.700;  197.675;    0.000
411.612; 3790.700;  171.675;    0.000
411.666; 3854.700;  201.675;    0.000
411.721; 3766.700;  174.675;    0.000
411.776; 3948.700;  222.675;    0.000
411.830; 3858.700;  150.675;    0.000
411.885; 3893.700;  169.675;    0.000
411.939; 3845.700;  216.675;    0.000
411.994; 3909.700;  215.675;    0.000
412.049; 3858.700;  219.675;    0.000
412.103; 3843.700;  225.675;    0.000
412.158; 3871.700;  216.675;    0.000
412.212; 3807.700;  218.675;    0.000
412.267; 3757.700;  219.675;    0.000
412.322; 3987.700;  235.675;    0.000
412.376; 3864.700;  208.675;    0.000
412.431; 3836.700;  232.675;    0.000
412.485; 3828.700;  223.675;    0.000
412.540; 3743.700;  217.675;    0.000
412.594; 3948.700;  195.675;    0.000
412.649; 3830.700;  236.675;    0.000
412.703; 3900.700;  216.675;    0.000
412.758; 3768.700;  201.675;    0.000
412.812; 3838.700;  176.675;    0.000
412.866; 3810.700;  179.675;    0.000
412.921; 3857.700;  196.675;    0.000
412.975; 3778.700;  238.675;    0.000
413.030; 3756.700;  272.675;    0.000
413.084; 3759.700;  208.675;    0.000
413.139; 3877.700;  201.675;    0.000
413.193; 3903.700;  198.675;    0.000
413.247; 3827.700;  213.675;    0.000
413.302; 3718.700;  202.675;    0.000
413.356; 3842.700;  184.675;    0.000
413.410; 3701.700;  202.675;    0.000
413.465; 3834.700;  145.675;    0.000
413.519; 3680.700;  200.675;    0.000
413.573; 3811.700;  197.675;    0.000
413.628; 3793.700;  224.675;    0.000
413.682; 3695.700;  211.675;    0.000
413.736; 3775.700;  202.675;    0.000
413.791; 3820.700;  228.675;    0.000
413.845; 3854.700;  184.675;    0.000
413.899; 3723.700;  226.675;    0.000
413.953; 3816.700;  213.675;    0.000
414.008; 3736.700;  175.675;    0.000
414.062; 3878.700;  216.675;    0.000
414.116; 3789.700;  206.675;    0.000
414.170; 3768.700;  229.675;    0.000
414.225; 3778.700;  196.675;    0.000
414.279; 3786.700;  199.675;    0.000
414.333; 3851.700;  220.675;    0.000
414.387; 3907.700;  217.675;    0.000
414.441; 3940.700;  206.675;    0.000
414.496; 3867.700;  264.675;    0.000
414.550; 3865.700;  217.675;    0.000
414.604; 3770.700;  224.675;    0.000
414.658; 3868.700;  156.675;    0.000
414.712; 3818.700;  203.675;    0.000
414.766; 3910.700;  216.675;    0.000
414.820; 3871.700;  218.675;    0.000
414.874; 3903.700;  240.675;    0.000
414.928; 3840.700;  204.675;    0.000
414.982; 3777.700;  195.675;    0.000
415.037; 3889.700;  212.675;    0.000
415.091; 3868.700;  211.675;    0.000
415.145; 3756.700;  230.675;    0.000
415.199; 3850.700;  208.675;    0.000
415.253; 3797.700;  213.675;    0.000
415.307; 3937.700;  208.675;    0.000
415.361; 3864.700;  193.675;    0.000
415.415; 3952.700;  207.675;    0.000
415.469; 3947.700;  214.675;    0.000
415.523; 3855.700;  226.675;    0.000
415.577; 3825.700;  194.675;    0.000
415.631; 3774.700;  258.675;    0.000
415.684; 3836.700;  239.675;    0.000
415.738; 3782.700;  191.675;    0.000
415.792; 3998.700;  185.675;    0.000
415.846; 3779.700;  239.675;    0.000
415.900; 3759.700;  209.675;    0.000
415.954; 3876.700;  215.675;    0.000
416.008; 3859.700;  229.675;    0.000
416.062; 3729.700;  200.675;    0.000
416.116; 3770.700;  195.675;    0.000
416.169; 3862.700;  238.675;    0.000
416.223; 3910.700;  271.675;    0.000
416.277; 3840.700;  232.675;    0.000
416.331; 3805.700;  226.675;    0.000
416.385; 3831.700;  207.675;    0.000
416.439; 3841.700;  221.675;    0.000
416.492; 3825.700;  269.675;    0.000
416.546; 3838.700;  254.675;    0.000
416.600; 3877.700;  225.675;    0.000
416.654; 3894.700;  269.675;    0.000
416.707; 3803.700;  232.675;    0.000
416.761; 3773.700;  226.675;    0.000
416.815; 3861.700;  219.675;    0.000
416.869; 3847.700;  234.675;    0.000
416.922; 3879.700;  230.675;    0.000
416.976; 3748.700;  216.675;    0.000
417.030; 3783.700;  271.675;    0.000
417.083; 3757.700;  229.675;    0.000
417.137; 3718.700;  249.675;    0.000
417.191; 3728.700;  241.675;    0.000
417.244; 3742.700;  230.675;    0.000
417.298; 3718.700;  215.675;    0.000
417.352; 3801.700;  188.675;    0.000
417.405; 3799.700;  248.675;    0.000
417.459; 3818.700;  256.675;    0.000
417.512; 3811.700;  263.675;    0.000
417.566; 3857.700;  227.675;    0.000
417.620; 3753.700;  270.675;    0.000
417.673; 3720.700;  216.675;    0.000
417.727; 3721.700;  234.675;    0.000
417.780; 3728.700;  215.675;    0.000
417.834; 3707.700;  203.675;    0.000
417.887; 3797.700;  257.675;    0.000
417.941; 3812.700;  216.675;    0.000
417.994; 3815.700;  245.675;    0.000
418.048; 3832.700;  209.675;    0.000
418.101; 3758.700;  207.675;    0.000
418.155; 3813.700;  204.675;    0.000
418.208; 3936.700;  270.675;    0.000
418.262; 3766.700;  228.675;    0.000
418.315; 3818.700;  254.675;    0.000
418.369; 3835.700;  245.675;    0.000
418.422; 3731.700;  224.675;    0.000
418.476; 3788.700;  221.675;    0.000
418.529; 3841.700;  234.675;    0.000
418.582; 3781.700;  249.675;    0.000
418.636; 3836.700;  224.675;    0.000
418.689; 3874.700;  228.675;    0.000
418.743; 3862.700;  240.675;    0.000
418.796; 3883.700;  197.675;    0.000
418.849; 3871.700;  220.675;    0.000
418.903; 3808.700;  246.675;    0.000
418.956; 3893.700;  250.675;    0.000
419.009; 3915.700;  276.675;    0.000
419.063; 3836.700;  232.675;    0.000
419.116; 3860.700;  228.675;    0.000
419.169; 3776.700;  249.675;    0.000
419.222; 3753.700;  215.675;    0.000
419.276; 3806.700;  228.675;    0.000
419.329; 3718.700;  246.675;    0.000
419.382; 3860.700;  188.675;    0.000
419.435; 3648.700;  240.675;    0.000
419.489; 3847.700;  261.675;    0.000
419.542; 3779.700;  224.675;    0.000
419.595; 3789.700;  251.675;    0.000
419.648; 3754.700;  236.675;    0.000
419.701; 3806.700;  244.675;    0.000
419.755; 3694.700;  242.675;    0.000
419.808; 3672.700;  242.675;    0.000
419.861; 3703.700;  189.675;    0.000
419.914; 3739.700;  258.675;    0.000
419.967; 3731.700;  230.675;    0.000
420.020; 3693.700;  223.675;    0.000
420.073; 3662.700;  221.675;    0.000
420.127; 3622.700;  252.675;    0.000
420.180; 3712.700;  219.675;    0.000
420.233; 3736.700;  201.675;    0.000
420.286; 3657.700;  221.675;    0.000
420.339; 3715.700;  250.675;    0.000
420.392; 3741.700;  268.675;    0.000
420.445; 3626.700;  223.675;    0.000
420.498; 3598.700;  240.675;    0.000
420.551; 3637.700;  220.675;    0.000
420.604; 3594.700;  231.675;    0.000
420.657; 3697.700;  228.675;    0.000
420.710; 3591.700;  219.675;    0.000
420.763; 3617.700;  280.675;    0.000
420.816; 3561.700;  202.675;    0.000
420.869; 3473.700;  219.675;    0.000
420.922; 3783.700;  218.675;    0.000
420.975; 3610.700;  237.675;    0.000
421.028; 3557.700;  242.675;    0.000
421.081; 3617.700;  247.675;    0.000
421.134; 3639.700;  239.675;    0.000
421.187; 3618.700;  229.675;    0.000
421.239; 3549.700;  200.675;    0.000
421.292; 3509.700;  205.675;    0.000
421.345; 3573.700;  219.675;    0.000
421.398; 3550.700;  187.675;    0.000
421.451; 3643.700;  226.675;    0.000
421.504; 3539.700;  206.675;    0.000
421.557; 3525.700;  226.675;    0.000
421.609; 3559.700;  209.675;    0.000
421.662; 3597.700;  229.675;    0.000
421.715; 3564.700;  231.675;    0.000
421.768; 3592.700;  215.675;    0.000
421.821; 3511.700;  211.675;    0.000
421.873; 3542.700;  220.675;    0.000
421.926; 3571.700;  212.675;    0.000
421.979; 3432.700;  209.675;    0.000
422.032; 3582.700;  203.675;    0.000
422.084; 3562.700;  213.675;    0.000
422.137; 3523.700;  196.675;    0.000
422.190; 3480.700;  246.675;    0.000
422.243; 3586.700;  194.675;    0.000
422.295; 3469.700;  225.675;    0.000
422.348; 3511.700;  248.675;    0.000
422.401; 3512.700;  252.675;    0.000
422.453; 3518.700;  249.675;    0.000
422.506; 3395.700;  233.675;    0.000
422.559; 3587.700;  228.675;    0.000
422.611; 3754.700;  224.675;    0.000
422.664; 4142.700;  226.675;    0.000
422.716; 4611.700;  226.675;    0.000
422.769; 4132.700;  216.675;    0.000
422.822; 3602.700;  256.675;    0.000
422.874; 3585.700;  206.675;    0.000
422.927; 3635.700;  257.675;    0.000
422.979; 3486.700;  209.675;    0.000
423.032; 3446.700;  244.675;    0.000
423.084; 3523.700;  244.675;    0.000
423.137; 3487.700;  213.675;    0.000
423.189; 3444.700;  208.675;    0.000
423.242; 3565.700;  226.675;    0.000
423.294; 3447.700;  250.675;    0.000
423.347; 3518.700;  206.675;    0.000
423.399; 3508.700;  268.675;    0.000
423.452; 3418.700;  262.675;    0.000
423.504; 3451.700;  237.675;    0.000
423.557; 3506.700;  245.675;    0.000
423.609; 3515.700;  211.675;    0.000
423.662; 3464.700;  222.675;    0.000
423.714; 3495.700;  219.675;    0.000
423.766; 3488.700;  250.675;    0.000
423.819; 3469.700;  220.675;    0.000
423.871; 3464.700;  229.675;    0.000
423.923; 3554.700;  219.675;    0.000
423.976; 3464.700;  221.675;    0.000
424.028; 3378.700;  211.675;    0.000
424.081; 3547.700;  254.675;    0.000
424.133; 3456.700;  230.675;    0.000
424.185; 3395.700;  241.675;    0.000
424.238; 3408.700;  182.675;    0.000
424.290; 3485.700;  215.675;    0.000
424.342; 3358.700;  235.675;    0.000
424.394; 3478.700;  225.675;    0.000
424.447; 3372.700;  264.675;    0.000
424.499; 3434.700;  225.675;    0.000
424.551; 3365.700;  237.675;    0.000
424.603; 3497.700;  219.675;    0.000
424.656; 3385.700;  240.675;    0.000
424.708; 3422.700;  266.675;    0.000
424.760; 3401.700;  230.675;    0.000
424.812; 3471.700;  284.675;    0.000
424.864; 3445.700;  189.675;    0.000
424.917; 3327.700;  226.675;    0.000
424.969; 3401.700;  253.675;    0.000
425.021; 3407.700;  233.675;    0.000
425.073; 3426.700;  246.675;    0.000
425.125; 3381.700;  238.675;    0.000
425.177; 3390.700;  253.675;    0.000
425.229; 3445.700;  254.675;    0.000
425.282; 3396.700;  252.675;    0.000
425.334; 3413.700;  261.675;    0.000
425.386; 3411.700;  227.675;    0.000
425.438; 3377.700;  246.675;    0.000
425.490; 3457.700;  249.675;    0.000
425.542; 3310.700;  236.675;    0.000
425.594; 3313.700;  236.675;    0.000
425.646; 3316.700;  237.675;    0.000
425.698; 3303.700;  271.675;    0.000
425.750; 3341.700;  240.675;    0.000
425.802; 3363.700;  238.675;    0.000
425.854; 3323.700;  256.675;    0.000
425.906; 3292.700;  230.675;    0.000
425.958; 3242.700;  231.675;    0.000
426.010; 3303.700;  268.675;    0.000
426.062; 3346.700;  227.675;    0.000
426.114; 3250.700;  234.675;    0.000
426.166; 3318.700;  239.675;    0.000
426.218; 3353.700;  255.675;    0.000
426.270; 3320.700;  196.675;    0.000
426.321; 3217.700;  231.675;    0.000
426.373; 3231.700;  199.675;    0.000
426.425; 3281.700;  245.675;    0.000
426.477; 3299.700;  259.675;    0.000
426.529; 3310.700;  274.675;    0.000
426.581; 3233.700;  221.675;    0.000
426.633; 3208.700;  231.675;    0.000
426.684; 3233.700;  248.675;    0.000
426.736; 3200.700;  237.675;    0.000
426.788; 3261.700;  191.675;    0.000
426.840; 3197.700;  180.675;    0.000
426.892; 3236.700;  259.675;    0.000
426.943; 3255.700;  256.675;    0.000
426.995; 3168.700;  212.675;    0.000
427.047; 3273.700;  233.675;    0.000
427.099; 3229.700;  222.675;    0.000
427.150; 3204.700;  203.675;    0.000
427.202; 3182.700;  218.675;    0.000
427.254; 3156.700;  198.675;    0.000
427.306; 3173.700;  248.675;    0.000
427.357; 3255.700;  239.675;    0.000
427.409; 3222.700;  193.675;    0.000
427.461; 3203.700;  215.675;    0.000
427.512; 3318.700;  251.675;    0.000
427.564; 3293.700;  210.675;    0.000
427.616; 3158.700;  251.675;    0.000
427.667; 3097.700;  246.675;    0.000
427.719; 3176.700;  227.675;    0.000
427.770; 3171.700;  247.675;    0.000
427.822; 3167.700;  261.675;    0.000
427.874; 3145.700;  231.675;    0.000
427.925; 3125.700;  231.675;    0.000
427.977; 3144.700;  243.675;    0.000
428.028; 3116.700;  249.675;    0.000
428.080; 3246.700;  224.675;    0.000
428.131; 3189.700;  247.675;    0.000
428.183; 3165.700;  213.675;    0.000
428.234; 3150.700;  213.675;    0.000
428.286; 3116.700;  224.675;    0.000
428.337; 3115.700;  212.675;    0.000
428.389; 3161.700;  231.675;    0.000
428.440; 3161.700;  248.675;    0.000
428.492; 3189.700;  242.675;    0.000
428.543; 3146.700;  220.675;    0.000
428.595; 2994.700;  212.675;    0.000
428.646; 3053.700;  231.675;    0.000
428.697; 3055.700;  232.675;    0.000
428.749; 3105.700;  231.675;    0.000
428.800; 3143.700;  270.675;    0.000
428.852; 3109.700;  266.675;    0.000
428.903; 3013.700;  215.675;    0.000
428.954; 3126.700;  200.675;    0.000
429.006; 3161.700;  247.675;    0.000
429.057; 3138.700;  247.675;    0.000
429.108; 3015.700;  193.675;    0.000
429.160; 3057.700;  249.675;    0.000
429.211; 3155.700;  228.675;    0.000
429.262; 3085.700;  243.675;    0.000
429.314; 3125.700;  227.675;    0.000
429.365; 3004.700;  242.675;    0.000
429.416; 3041.700;  240.675;    0.000
429.467; 3038.700;  222.675;    0.000
429.519; 3035.700;  233.675;    0.000
429.570; 3069.700;  223.675;    0.000
429.621; 2986.700;  257.675;    0.000
429.672; 2995.700;  220.675;    0.000
429.724; 3051.700;  203.675;    0.000
429.775; 2920.700;  242.675;    0.000
429.826; 3045.700;  195.675;    0.000
429.877; 3063.700;  248.675;    0.000
429.928; 3042.700;  226.675;    0.000
429.980; 2974.700;  189.675;    0.000
430.031; 3004.700;  223.675;    0.000
430.082; 3093.700;  217.675;    0.000
430.133; 3040.700;  210.675;    0.000
430.184; 3075.700;  271.675;    0.000
430.235; 3013.700;  190.675;    0.000
430.286; 3064.700;  233.675;    0.000
430.337; 3025.700;  232.675;    0.000
430.388; 3010.700;  221.675;    0.000
430.439; 3008.700;  221.675;    0.000
430.490; 3007.700;  229.675;    0.000
430.542; 3016.700;  196.675;    0.000
430.593; 3031.700;  214.675;    0.000
430.644; 2967.700;  224.675;    0.000
430.695; 2984.700;  216.675;    0.000
430.746; 3020.700;  228.675;    0.000
430.797; 3088.700;  190.675;    0.000
430.848; 2986.700;  231.675;    0.000
430.898; 2938.700;  232.675;    0.000
430.949; 2838.700;  224.675;    0.000
431.000; 3024.700;  236.675;    0.000
431.051; 2978.700;  251.675;    0.000
431.102; 2899.700;  205.675;    0.000
431.153; 3019.700;  212.675;    0.000
431.204; 2851.700;  200.675;    0.000
431.255; 2930.700;  220.675;    0.000
431.306; 2955.700;  223.675;    0.000
431.357; 2968.700;  240.675;    0.000
431.408; 2956.700;  232.675;    0.000
431.458; 2970.700;  204.675;    0.000
431.509; 3023.700;  196.675;    0.000
431.560; 2940.700;  243.675;    0.000
431.611; 2954.700;  222.675;    0.000
431.662; 2930.700;  246.675;    0.000
431.713; 2963.700;  188.675;    0.000
431.763; 3040.700;  226.675;    0.000
431.814; 3028.700;  239.675;    0.000
431.865; 2943.700;  245.675;    0.000
431.916; 2919.700;  173.675;    0.000
431.966; 2910.700;  220.675;    0.000
432.017; 2922.700;  247.675;    0.000
432.068; 3038.700;  241.675;    0.000
432.118; 3038.700;  220.675;    0.000
432.169; 2932.700;  244.675;    0.000
432.220; 2973.700;  246.675;    0.000
432.271; 2939.700;  203.675;    0.000
432.321; 3053.700;  244.675;    0.000
432.372; 2961.700;  254.675;    0.000
432.423; 2876.700;  224.675;    0.000
432.473; 2923.700;  211.675;    0.000
432.524; 2938.700;  227.675;    0.000
432.574; 2973.700;  228.675;    0.000
432.625; 3007.700;  223.675;    0.000
432.676; 2904.700;  220.675;    0.000
432.726; 2912.700;  257.675;    0.000
432.777; 2901.700;  257.675;    0.000
432.827; 2835.700;  240.675;    0.000
432.878; 2942.700;  219.675;    0.000
432.928; 2894.700;  234.675;    0.000
432.979; 2864.700;  226.675;    0.000
433.029; 2939.700;  216.675;    0.000
433.080; 2910.700;  232.675;    0.000
433.130; 2885.700;  257.675;    0.000
433.181; 2949.700;  243.675;    0.000
433.231; 2912.700;  239.675;    0.000
433.282; 2886.700;  232.675;    0.000
433.332; 2907.700;  256.675;    0.000
433.383; 2933.700;  268.675;    0.000
433.433; 2961.700;  291.675;    0.000
433.484; 2912.700;  263.675;    0.000
433.534; 2915.700;  248.675;    0.000
433.585; 2962.700;  244.675;    0.000
433.635; 2931.700;  242.675;    0.000
433.685; 3029.700;  243.675;    0.000
433.736; 2912.700;  283.675;    0.000
433.786; 2894.700;  264.675;    0.000
433.836; 2965.700;  282.675;    0.000
433.887; 2966.700;  265.675;    0.000
433.937; 2947.700;  255.675;    0.000
433.987; 2794.700;  245.675;    0.000
434.038; 2935.700;  276.675;    0.000
434.088; 2903.700;  249.675;    0.000
434.138; 2945.700;  260.675;    0.000
434.189; 2972.700;  241.675;    0.000
434.239; 2837.700;  232.675;    0.000
434.289; 2978.700;  272.675;    0.000
434.339; 2926.700;  288.675;    0.000
434.389; 2975.700;  258.675;    0.000
434.440; 3010.700;  244.675;    0.000
434.490; 2961.700;  288.675;    0.000
434.540; 3051.700;  252.675;    0.000
434.590; 3003.700;  256.675;    0.000
434.640; 2962.700;  259.675;    0.000
434.691; 3003.700;  220.675;    0.000
434.741; 3007.700;  238.675;    0.000
434.791; 3006.700;  276.675;    0.000
434.841; 2954.700;  256.675;    0.000
434.891; 2989.700;  297.675;    0.000
434.941; 2920.700;  290.675;    0.000
434.991; 3050.700;  261.675;    0.000
435.042; 3009.700;  300.675;    0.000
435.092; 3031.700;  248.675;    0.000
435.142; 2961.700;  246.675;    0.000
435.192; 2844.700;  201.675;    0.000
435.242; 3043.700;  234.675;    0.000
435.292; 2939.700;  266.675;    0.000
435.342; 3030.700;  250.675;    0.000
435.392; 2939.700;  279.675;    0.000
435.442; 2922.700;  242.675;    0.000
435.492; 2850.700;  265.675;    0.000
435.542; 2928.700;  243.675;    0.000
435.592; 2907.700;  243.675;    0.000
435.642; 2844.700;  241.675;    0.000
435.692; 2897.700;  263.675;    0.000
435.742; 2823.700;  264.675;    0.000
435.792; 2868.700;  291.675;    0.000
435.842; 2824.700;  257.675;    0.000
435.891; 2856.700;  224.675;    0.000
435.941; 2857.700;  243.675;    0.000
435.991; 2798.700;  300.675;    0.000
436.041; 2710.700;  197.675;    0.000
436.091; 2824.700;  238.675;    0.000
436.141; 2772.700;  222.675;    0.000
436.191; 2787.700;  249.675;    0.000
436.241; 2759.700;  208.675;    0.000
436.290; 2817.700;  282.675;    0.000
436.340; 2796.700;  233.675;    0.000
436.390; 2766.700;  223.675;    0.000
436.440; 2718.700;  252.675;    0.000
436.490; 2756.700;  254.675;    0.000
436.539; 2837.700;  271.675;    0.000
436.589; 2780.700;  248.675;    0.000
436.639; 2707.700;  235.675;    0.000
436.689; 2729.700;  238.675;    0.000
436.738; 2794.700;  267.675;    0.000
436.788; 2717.700;  239.675;    0.000
436.838; 2820.700;  244.675;    0.000
436.887; 2740.700;  265.675;    0.000
436.937; 2733.700;  261.675;    0.000
436.987; 2735.700;  235.675;    0.000
437.036; 2797.700;  267.675;    0.000
437.086; 2678.700;  258.675;    0.000
437.136; 2702.700;  250.675;    0.000
437.185; 2713.700;  214.675;    0.000
437.235; 2662.700;  257.675;    0.000
437.285; 2713.700;  259.675;    0.000
437.334; 2627.700;  241.675;    0.000
437.384; 2649.700;  231.675;    0.000
437.433; 2803.700;  239.675;    0.000
437.483; 2701.700;  260.675;    0.000
437.532; 2747.700;  277.675;    0.000
437.582; 2696.700;  268.675;    0.000
437.631; 2687.700;  239.675;    0.000
437.681; 2626.700;  251.675;    0.000
437.730; 2723.700;  246.675;    0.000
437.780; 2692.700;  226.675;    0.000
437.829; 2634.700;  256.675;    0.000
437.879; 2550.700;  239.675;    0.000
437.928; 2613.700;  253.675;    0.000
437.978; 2678.700;  245.675;    0.000
438.027; 2600.700;  277.675;    0.000
438.077; 2595.700;  248.675;    0.000
438.126; 2641.700;  201.675;    0.000
438.176; 2639.700;  220.675;    0.000
438.225; 2593.700;  250.675;    0.000
438.274; 2660.700;  234.675;    0.000
438.324; 2684.700;  276.675;    0.000
438.373; 2623.700;  226.675;    0.000
438.422; 2622.700;  228.675;    0.000
438.472; 2647.700;  225.675;    0.000
438.521; 2646.700;  227.675;    0.000
438.570; 2602.700;  242.675;    0.000
438.620; 2654.700;  277.675;    0.000
438.669; 2603.700;  256.675;    0.000
438.718; 2626.700;  248.675;    0.000
438.768; 2649.700;  225.675;    0.000
438.817; 2583.700;  229.675;    0.000
438.866; 2567.700;  218.675;    0.000
438.915; 2584.700;  256.675;    0.000
438.965; 2541.700;  242.675;    0.000
439.014; 2717.700;  260.675;    0.000
439.063; 2616.700;  238.675;    0.000
439.112; 2582.700;  209.675;    0.000
439.162; 2634.700;  258.675;    0.000
439.211; 2615.700;  275.675;    0.000
439.260; 2651.700;  238.675;    0.000
439.309; 2650.700;  237.675;    0.000
439.358; 2577.700;  252.675;    0.000
439.407; 2631.700;  239.675;    0.000
439.456; 2598.700;  211.675;    0.000
439.506; 2622.700;  261.675;    0.000
439.555; 2635.700;  274.675;    0.000
439.604; 2665.700;  262.675;    0.000
439.653; 2592.700;  245.675;    0.000
439.702; 2633.700;  247.675;    0.000
439.751; 2625.700;  228.675;    0.000
439.800; 2588.700;  253.675;    0.000
439.849; 2611.700;  219.675;    0.000
439.898; 2628.700;  246.675;    0.000
439.947; 2601.700;  229.675;    0.000
439.996; 2661.700;  274.675;    0.000
440.045; 2498.700;  224.675;    0.000
440.094; 2646.700;  225.675;    0.000
440.143; 2620.700;  277.675;    0.000
440.192; 2691.700;  252.675;    0.000
440.241; 2659.700;  253.675;    0.000
440.290; 2699.700;  242.675;    0.000
440.339; 2625.700;  220.675;    0.000
440.388; 2644.700;  244.675;    0.000
440.437; 2626.700;  268.675;    0.000
440.486; 2576.700;  242.675;    0.000
440.535; 2644.700;  269.675;    0.000
440.583; 2651.700;  258.675;    0.000
440.632; 2624.700;  286.675;    0.000
440.681; 2671.700;  238.675;    0.000
440.730; 2810.700;  271.675;    0.000
440.779; 2710.700;  226.675;    0.000
440.828; 2660.700;  213.675;    0.000
440.876; 2632.700;  207.675;    0.000
440.925; 2690.700;  247.675;    0.000
440.974; 2713.700;  229.675;    0.000
441.023; 2617.700;  227.675;    0.000
441.072; 2686.700;  222.675;    0.000
441.120; 2718.700;  273.675;    0.000
441.169; 2751.700;  263.675;    0.000
441.218; 2725.700;  264.675;    0.000
441.267; 2757.700;  287.675;    0.000
441.315; 2685.700;  251.675;    0.000
441.364; 2863.700;  252.675;    0.000
441.413; 2674.700;  227.675;    0.000
441.461; 2839.700;  198.675;    0.000
441.510; 2833.700;  273.675;    0.000
441.559; 2717.700;  245.675;    0.000
441.607; 2760.700;  218.675;    0.000
441.656; 2689.700;  261.675;    0.000
441.705; 2704.700;  259.675;    0.000
441.753; 2883.700;  272.675;    0.000
441.802; 2801.700;  246.675;    0.000
441.850; 2782.700;  255.675;    0.000
441.899; 2739.700;  236.675;    0.000
441.948; 2770.700;  267.675;    0.000
441.996; 2712.700;  246.675;    0.000
442.045; 2685.700;  279.675;    0.000
442.093; 2697.700;  251.675;    0.000
442.142; 2740.700;  274.675;    0.000
442.190; 2859.700;  279.675;    0.000
442.239; 2754.700;  295.675;    0.000
442.287; 2723.700;  229.675;    0.000
442.336; 2735.700;  265.675;    0.000
442.384; 2714.700;  219.675;    0.000
442.433; 2770.700;  287.675;    0.000
442.481; 2667.700;  271.675;    0.000
442.529; 2694.700;  262.675;    0.000
442.578; 2706.700;  282.675;    0.000
442.626; 2819.700;  245.675;    0.000
442.675; 2791.700;  283.675;    0.000
442.723; 2732.700;  247.675;    0.000
442.771; 2705.700;  221.675;    0.000
442.820; 2751.700;  253.675;    0.000
442.868; 2628.700;  204.675;    0.000
442.917; 2666.700;  263.675;    0.000
442.965; 2668.700;  255.675;    0.000
443.013; 2699.700;  282.675;    0.000
443.062; 2726.700;  258.675;    0.000
443.110; 2666.700;  268.675;    0.000
443.158; 2659.700;  247.675;    0.000
443.206; 2644.700;  243.675;    0.000
443.255; 2702.700;  271.675;    0.000
443.303; 2703.700;  279.675;    0.000
443.351; 2599.700;  264.675;    0.000
443.399; 2684.700;  245.675;    0.000
443.448; 2728.700;  259.675;    0.000
443.496; 2757.700;  281.675;    0.000
443.544; 2720.700;  213.675;    0.000
443.592; 2748.700;  290.675;    0.000
443.640; 2720.700;  270.675;    0.000
443.689; 2652.700;  229.675;    0.000
443.737; 2673.700;  254.675;    0.000
443.785; 2786.700;  234.675;    0.000
443.833; 2766.700;  287.675;    0.000
443.881; 2764.700;  229.675;    0.000
443.929; 2712.700;  260.675;    0.000
443.977; 2747.700;  265.675;    0.000
444.025; 2723.700;  257.675;    0.000
444.074; 2823.700;  245.675;    0.000
444.122; 2700.700;  282.675;    0.000
444.170; 2778.700;  240.675;    0.000
444.218; 2824.700;  270.675;    0.000
444.266; 2882.700;  254.675;    0.000
444.314; 2828.700;  264.675;    0.000
444.362; 2904.700;  287.675;    0.000
444.410; 2859.700;  236.675;    0.000
444.458; 2918.700;  273.675;    0.000
444.506; 2859.700;  235.675;    0.000
444.554; 2886.700;  242.675;    0.000
444.602; 2936.700;  283.675;    0.000
444.650; 2816.700;  266.675;    0.000
444.698; 2909.700;  248.675;    0.000
444.746; 2860.700;  247.675;    0.000
444.793; 2765.700;  211.675;    0.000
444.841; 2838.700;  259.675;    0.000
444.889; 2902.700;  253.675;    0.000
444.937; 2853.700;  248.675;    0.000
444.985; 2814.700;  233.675;    0.000
445.033; 2829.700;  245.675;    0.000
445.081; 2763.700;  243.675;    0.000
445.129; 2743.700;  238.675;    0.000
445.176; 2895.700;  204.675;    0.000
445.224; 2829.700;  262.675;    0.000
445.272; 2895.700;  256.675;    0.000
445.320; 2858.700;  235.675;    0.000
445.368; 2902.700;  251.675;    0.000
445.415; 2784.700;  250.675;    0.000
445.463; 2785.700;  225.675;    0.000
445.511; 2822.700;  226.675;    0.000
445.559; 2819.700;  251.675;    0.000
445.606; 2721.700;  213.675;    0.000
445.654; 2770.700;  261.675;    0.000
445.702; 2839.700;  222.675;    0.000
445.749; 2767.700;  257.675;    0.000
445.797; 2764.700;  263.675;    0.000
445.845; 2769.700;  218.675;    0.000
445.892; 2791.700;  228.675;    0.000
445.940; 2750.700;  249.675;    0.000
445.988; 2768.700;  276.675;    0.000
446.035; 2736.700;  229.675;    0.000
446.083; 2871.700;  255.675;    0.000
446.130; 2714.700;  200.675;    0.000
446.178; 2865.700;  256.675;    0.000
446.226; 2770.700;  238.675;    0.000
446.273; 2810.700;  250.675;    0.000
446.321; 2720.700;  233.675;    0.000
446.368; 2789.700;  244.675;    0.000
446.416; 2815.700;  214.675;    0.000
446.463; 2859.700;  225.675;    0.000
446.511; 2891.700;  253.675;    0.000
446.558; 2860.700;  246.675;    0.000
446.606; 2807.700;  238.675;    0.000
446.653; 2852.700;  215.675;    0.000
446.701; 2812.700;  248.675;    0.000
446.748; 2784.700;  258.675;    0.000
446.796; 2810.700;  259.675;    0.000
446.843; 2902.700;  269.675;    0.000
446.891; 2854.700;  259.675;    0.000
446.938; 2916.700;  226.675;    0.000
446.985; 2842.700;  225.675;    0.000
447.033; 2869.700;  269.675;    0.000
447.080; 2827.700;  258.675;    0.000
447.128; 2813.700;  225.675;    0.000
447.175; 2970.700;  259.675;    0.000
447.222; 2869.700;  238.675;    0.000
447.270; 2957.700;  250.675;    0.000
447.317; 2864.700;  217.675;    0.000
447.364; 2965.700;  262.675;    0.000
447.411; 3035.700;  269.675;    0.000
447.459; 2981.700;  251.675;    0.000
447.506; 2879.700;  227.675;    0.000
447.553; 2938.700;  250.675;    0.000
447.601; 3075.700;  251.675;    0.000
447.648; 3024.700;  276.675;    0.000
447.695; 3003.700;  229.675;    0.000
447.742; 3116.700;  245.675;    0.000
447.789; 3079.700;  243.675;    0.000
447.837; 3182.700;  267.675;    0.000
447.884; 3126.700;  246.675;    0.000
447.931; 3258.700;  266.675;    0.000
447.978; 3202.700;  242.675;    0.000
448.025; 3160.700;  267.675;    0.000
448.072; 3363.700;  257.675;    0.000
448.120; 3271.700;  279.675;    0.000
448.167; 3387.700;  275.675;    0.000
448.214; 3147.700;  241.675;    0.000
448.261; 3254.700;  271.675;    0.000
448.308; 3160.700;  256.675;    0.000
448.355; 3130.700;  253.675;    0.000
448.402; 3088.700;  267.675;    0.000
448.449; 3078.700;  252.675;    0.000
448.496; 3029.700;  241.675;    0.000
448.543; 3022.700;  250.675;    0.000
448.590; 3021.700;  288.675;    0.000
448.637; 2922.700;  255.675;    0.000
448.684; 2919.700;  284.675;    0.000
448.731; 2921.700;  244.675;    0.000
448.778; 2851.700;  257.675;    0.000
448.825; 2835.700;  252.675;    0.000
448.872; 2853.700;  205.675;    0.000
448.919; 2778.700;  244.675;    0.000
448.966; 2793.700;  278.675;    0.000
449.013; 2764.700;  262.675;    0.000
449.060; 2826.700;  278.675;    0.000
449.107; 2753.700;  248.675;    0.000
449.154; 2725.700;  230.675;    0.000
449.200; 2731.700;  211.675;    0.000
449.247; 2716.700;  283.675;    0.000
449.294; 2677.700;  251.675;    0.000
449.341; 2799.700;  280.675;    0.000
449.388; 2593.700;  247.675;    0.000
449.435; 2694.700;  267.675;    0.000
449.481; 2702.700;  303.675;    0.000
449.528; 2739.700;  279.675;    0.000
449.575; 2670.700;  226.675;    0.000
449.622; 2639.700;  263.675;    0.000
449.668; 2535.700;  249.675;    0.000
449.715; 2653.700;  257.675;    0.000
449.762; 2580.700;  251.675;    0.000
449.809; 2649.700;  289.675;    0.000
449.855; 2632.700;  239.675;    0.000
449.902; 2628.700;  262.675;    0.000
449.949; 2681.700;  262.675;    0.000
449.995; 2638.700;  265.675;    0.000
450.042; 2617.700;  280.675;    0.000
450.089; 2600.700;  277.675;    0.000
450.135; 2620.700;  285.675;    0.000
450.182; 2617.700;  275.675;    0.000
450.229; 2565.700;  278.675;    0.000
450.275; 2601.700;  288.675;    0.000
450.322; 2552.700;  238.675;    0.000
450.368; 2640.700;  276.675;    0.000
450.415; 2621.700;  295.675;    0.000
450.462; 2559.700;  283.675;    0.000
450.508; 2561.700;  264.675;    0.000
450.555; 2566.700;  275.675;    0.000
450.601; 2528.700;  278.675;    0.000
450.648; 2577.700;  251.675;    0.000
450.694; 2536.700;  237.675;    0.000
450.741; 2599.700;  280.675;    0.000
450.787; 2587.700;  279.675;    0.000
450.834; 2514.700;  287.675;    0.000
450.880; 2581.700;  265.675;    0.000
450.927; 2660.700;  270.675;    0.000
450.973; 2544.700;  308.675;    0.000
451.019; 2494.700;  253.675;    0.000
451.066; 2549.700;  261.675;    0.000
451.112; 2573.700;  276.675;    0.000
451.159; 2498.700;  235.675;    0.000
451.205; 2528.700;  284.675;    0.000
451.251; 2509.700;  264.675;    0.000
451.298; 2545.700;  262.675;    0.000
451.344; 2505.700;  278.675;    0.000
451.390; 2521.700;  273.675;    0.000
451.437; 2532.700;  272.675;    0.000
451.483; 2527.700;  302.675;    0.000
451.529; 2365.700;  255.675;    0.000
451.576; 2551.700;  287.675;    0.000
451.622; 2439.700;  254.675;    0.000
451.668; 2488.700;  260.675;    0.000
451.714; 2454.700;  289.675;    0.000
451.761; 2487.700;  273.675;    0.000
451.807; 2522.700;  307.675;    0.000
451.853; 2458.700;  281.675;    0.000
451.899; 2442.700;  246.675;    0.000
451.945; 2503.700;  258.675;    0.000
451.992; 2414.700;  276.675;    0.000
452.038; 2423.700;  287.675;    0.000
452.084; 2465.700;  288.675;    0.000
452.130; 2481.700;  259.675;    0.000
452.176; 2444.700;  265.675;    0.000
452.222; 2425.700;  222.675;    0.000
452.268; 2472.700;  271.675;    0.000
452.315; 2463.700;  258.675;    0.000
452.361; 2513.700;  233.675;    0.000
452.407; 2428.700;  270.675;    0.000
452.453; 2413.700;  261.675;    0.000
452.499; 2502.700;  279.675;    0.000
452.545; 2508.700;  269.675;    0.000
452.591; 2507.700;  288.675;    0.000
452.637; 2496.700;  279.675;    0.000
452.683; 2457.700;  232.675;    0.000
452.729; 2477.700;  285.675;    0.000
452.775; 2520.700;  280.675;    0.000
452.821; 2422.700;  260.675;    0.000
452.867; 2424.700;  239.675;    0.000
452.913; 2473.700;  240.675;    0.000
452.959; 2421.700;  214.675;    0.000
453.005; 2472.700;  266.675;    0.000
453.051; 2377.700;  258.675;    0.000
453.097; 2498.700;  253.675;    0.000
453.142; 2379.700;  244.675;    0.000
453.188; 2403.700;  241.675;    0.000
453.234; 2440.700;  257.675;    0.000
453.280; 2345.700;  231.675;    0.000
453.326; 2423.700;  240.675;    0.000
453.372; 2336.700;  208.675;    0.000
453.418; 2444.700;  266.675;    0.000
453.463; 2414.700;  232.675;    0.000
453.509; 2327.700;  221.675;    0.000
453.555; 2408.700;  268.675;    0.000
453.601; 2410.700;  242.675;    0.000
453.647; 2430.700;  283.675;    0.000
453.692; 2401.700;  242.675;    0.000
453.738; 2466.700;  294.675;    0.000
453.784; 2372.700;  256.675;    0.000
453.829; 2339.700;  267.675;    0.000
453.875; 2369.700;  233.675;    0.000
453.921; 2445.700;  247.675;    0.000
453.967; 2415.700;  249.675;    0.000
454.012; 2372.700;  274.675;    0.000
454.058; 2428.700;  249.675;    0.000
454.104; 2363.700;  272.675;    0.000
454.149; 2451.700;  277.675;    0.000
454.195; 2370.700;  256.675;    0.000
454.240; 2366.700;  263.675;    0.000
454.286; 2402.700;  276.675;    0.000
454.332; 2432.700;  290.675;    0.000
454.377; 2492.700;  274.675;    0.000
454.423; 2377.700;  282.675;    0.000
454.468; 2393.700;  275.675;    0.000
454.514; 2415.700;  270.675;    0.000
454.559; 2432.700;  249.675;    0.000
454.605; 2392.700;  241.675;    0.000
454.650; 2413.700;  269.675;    0.000
454.696; 2405.700;  253.675;    0.000
454.741; 2508.700;  279.675;    0.000
454.787; 2474.700;  252.675;    0.000
454.832; 2446.700;  246.675;    0.000
454.878; 2403.700;  264.675;    0.000
454.923; 2429.700;  268.675;    0.000
454.969; 2408.700;  253.675;    0.000
455.014; 2397.700;  264.675;    0.000
455.060; 2389.700;  265.675;    0.000
455.105; 2416.700;  270.675;    0.000
455.150; 2435.700;  284.675;    0.000
455.196; 2370.700;  278.675;    0.000
455.241; 2429.700;  248.675;    0.000
455.286; 2381.700;  274.675;    0.000
455.332; 2466.700;  269.675;    0.000
455.377; 2390.700;  218.675;    0.000
455.422; 2495.700;  261.675;    0.000
455.468; 2425.700;  278.675;    0.000
455.513; 2495.700;  235.675;    0.000
455.558; 2349.700;  232.675;    0.000
455.604; 2389.700;  285.675;    0.000
455.649; 2470.700;  264.675;    0.000
455.694; 2393.700;  235.675;    0.000
455.739; 2448.700;  265.675;    0.000
455.785; 2455.700;  266.675;    0.000
455.830; 2395.700;  272.675;    0.000
455.875; 2499.700;  256.675;    0.000
455.920; 2379.700;  191.675;    0.000
455.965; 2422.700;  280.675;    0.000
456.010; 2402.700;  267.675;    0.000
456.056; 2372.700;  270.675;    0.000
456.101; 2308.700;  248.675;    0.000
456.146; 2350.700;  287.675;    0.000
456.191; 2451.700;  280.675;    0.000
456.236; 2389.700;  229.675;    0.000
456.281; 2318.700;  241.675;    0.000
456.326; 2400.700;  248.675;    0.000
456.371; 2355.700;  233.675;    0.000
456.416; 2454.700;  284.675;    0.000
456.461; 2391.700;  256.675;    0.000
456.507; 2409.700;  250.675;    0.000
456.552; 2406.700;  290.675;    0.000
456.597; 2392.700;  260.675;    0.000
456.642; 2445.700;  252.675;    0.000
456.687; 2348.700;  272.675;    0.000
456.732; 2509.700;  303.675;    0.000
456.776; 2389.700;  269.675;    0.000
456.821; 2406.700;  256.675;    0.000
456.866; 2367.700;  278.675;    0.000
456.911; 2364.700;  230.675;    0.000
456.956; 2389.700;  275.675;    0.000
457.001; 2389.700;  248.675;    0.000
457.046; 2459.700;  222.675;    0.000
457.091; 2430.700;  251.675;    0.000
457.136; 2436.700;  231.675;    0.000
457.181; 2403.700;  245.675;    0.000
457.225; 2477.700;  262.675;    0.000
457.270; 2432.700;  277.675;    0.000
457.315; 2423.700;  235.675;    0.000
457.360; 2346.700;  231.675;    0.000
457.405; 2368.700;  214.675;    0.000
457.450; 2419.700;  255.675;    0.000
457.494; 2482.700;  220.675;    0.000
457.539; 2448.700;  257.675;    0.000
457.584; 2471.700;  279.675;    0.000
457.629; 2436.700;  249.675;    0.000
457.673; 2506.700;  237.675;    0.000
457.718; 2449.700;  232.675;    0.000
457.763; 2396.700;  278.675;    0.000
457.807; 2442.700;  279.675;    0.000
457.852; 2482.700;  246.675;    0.000
457.897; 2461.700;  284.675;    0.000
457.941; 2523.700;  272.675;    0.000
457.986; 2494.700;  285.675;    0.000
458.031; 2467.700;  235.675;    0.000
458.075; 2503.700;  299.675;    0.000
458.120; 2537.700;  284.675;    0.000
458.165; 2496.700;  212.675;    0.000
458.209; 2499.700;  254.675;    0.000
458.254; 2556.700;  257.675;    0.000
458.298; 2516.700;  265.675;    0.000
458.343; 2579.700;  278.675;    0.000
458.387; 2552.700;  316.675;    0.000
458.432; 2516.700;  279.675;    0.000
458.476; 2512.700;  272.675;    0.000
458.521; 2520.700;  240.675;    0.000
458.565; 2600.700;  307.675;    0.000
458.610; 2506.700;  246.675;    0.000
458.654; 2610.700;  275.675;    0.000
458.699; 2566.700;  288.675;    0.000
458.743; 2556.700;  244.675;    0.000
458.788; 2648.700;  245.675;    0.000
458.832; 2707.700;  277.675;    0.000
458.877; 2653.700;  285.675;    0.000
458.921; 2605.700;  216.675;    0.000
458.965; 2600.700;  260.675;    0.000
459.010; 2566.700;  284.675;    0.000
459.054; 2656.700;  272.675;    0.000
459.099; 2627.700;  262.675;    0.000
459.143; 2651.700;  276.675;    0.000
459.187; 2724.700;  258.675;    0.000
459.231; 2717.700;  278.675;    0.000
459.276; 2664.700;  262.675;    0.000
459.320; 2648.700;  291.675;    0.000
459.364; 2716.700;  294.675;    0.000
459.409; 2712.700;  269.675;    0.000
459.453; 2655.700;  257.675;    0.000
459.497; 2732.700;  283.675;    0.000
459.541; 2696.700;  275.675;    0.000
459.586; 2714.700;  261.675;    0.000
459.630; 2754.700;  284.675;    0.000
459.674; 2738.700;  244.675;    0.000
459.718; 2722.700;  309.675;    0.000
459.762; 2778.700;  281.675;    0.000
459.807; 2705.700;  250.675;    0.000
459.851; 2757.700;  286.675;    0.000
459.895; 2701.700;  230.675;    0.000
459.939; 2811.700;  262.675;    0.000
459.983; 2723.700;  250.675;    0.000
460.027; 2689.700;  275.675;    0.000
460.071; 2827.700;  301.675;    0.000
460.115; 2717.700;  279.675;    0.000
460.159; 2832.700;  301.675;    0.000
460.204; 2758.700;  287.675;    0.000
460.248; 2791.700;  293.675;    0.000
460.292; 2836.700;  310.675;    0.000
460.336; 2797.700;  263.675;    0.000
460.380; 2812.700;  268.675;    0.000
460.424; 2831.700;  281.675;    0.000
460.468; 2840.700;  310.675;    0.000
460.512; 2852.700;  273.675;    0.000
460.556; 2869.700;  291.675;    0.000
460.599; 2874.700;  240.675;    0.000
460.643; 2886.700;  260.675;    0.000
460.687; 2904.700;  283.675;    0.000
460.731; 2916.700;  254.675;    0.000
460.775; 2951.700;  265.675;    0.000
460.819; 2951.700;  280.675;    0.000
460.863; 2867.700;  316.675;    0.000
460.907; 2942.700;  231.675;    0.000
460.951; 2898.700;  275.675;    0.000
460.995; 2776.700;  290.675;    0.000
461.038; 2932.700;  284.675;    0.000
461.082; 2994.700;  278.675;    0.000
461.126; 2913.700;  321.675;    0.000
461.170; 2921.700;  273.675;    0.000
461.214; 2914.700;  289.675;    0.000
461.257; 2880.700;  296.675;    0.000
461.301; 2891.700;  287.675;    0.000
461.345; 2915.700;  290.675;    0.000
461.389; 2859.700;  260.675;    0.000
461.432; 2885.700;  262.675;    0.000
461.476; 2904.700;  254.675;    0.000
461.520; 2898.700;  305.675;    0.000
461.563; 2862.700;  289.675;    0.000
461.607; 2826.700;  286.675;    0.000
461.651; 2849.700;  271.675;    0.000
461.694; 2910.700;  245.675;    0.000
461.738; 2821.700;  278.675;    0.000
461.782; 2851.700;  284.675;    0.000
461.825; 2995.700;  305.675;    0.000
461.869; 2885.700;  293.675;    0.000
461.913; 2973.700;  280.675;    0.000
461.956; 2955.700;  237.675;    0.000
462.000; 2950.700;  288.675;    0.000
462.043; 3012.700;  282.675;    0.000
462.087; 2905.700;  268.675;    0.000
462.130; 2913.700;  286.675;    0.000
462.174; 3064.700;  312.675;    0.000
462.217; 2877.700;  270.675;    0.000
462.261; 2942.700;  281.675;    0.000
462.304; 2905.700;  248.675;    0.000
462.348; 2995.700;  267.675;    0.000
462.391; 3002.700;  270.675;    0.000
462.435; 2991.700;  287.675;    0.000
462.478; 3041.700;  290.675;    0.000
462.522; 3011.700;  296.675;    0.000
462.565; 3138.700;  275.675;    0.000
462.608; 3127.700;  325.675;    0.000
462.652; 3196.700;  303.675;    0.000
462.695; 3195.700;  355.675;    0.000
462.739; 3218.700;  272.675;    0.000
462.782; 3209.700;  295.675;    0.000
462.825; 3104.700;  300.675;    0.000
462.869; 3226.700;  319.675;    0.000
462.912; 3172.700;  363.675;    0.000
462.955; 3171.700;  298.675;    0.000
462.998; 3253.700;  321.675;    0.000
463.042; 3326.700;  310.675;    0.000
463.085; 3251.700;  305.675;    0.000
463.128; 3308.700;  345.675;    0.000
463.172; 3168.700;  341.675;    0.000
463.215;  383.700;  300.675;    0.000
463.258;  321.700;  287.675;    0.000
463.301;  286.700;  290.675;    0.000
463.344;  348.700;  320.675;    0.000
463.388;  314.700;  340.675;    0.000
463.431;  310.700;  278.675;    0.000
463.474;  333.700;  353.675;    0.000
463.517;  325.700;  295.675;    0.000
463.560;  318.700;  328.675;    0.000
463.603;  319.700;  316.675;    0.000
463.646;  333.700;  295.675;    0.000
463.690;  357.700;  334.675;    0.000
463.733;  357.700;  343.675;    0.000
463.776;  307.700;  300.675;    0.000
463.819;  292.700;  368.675;    0.000
463.862;  317.700;  327.675;    0.000

