
Integration time [ms]:   0.300
Averaging Nr. [scans]: 1
Smoothing Nr. [pixels]: 0
Data measured with spectrometer [name]: UV2
Wave   ;Sample   ;Dark     ;Reference
[nm]   ;[counts] ;[counts] ;[counts] 

353.533;  211.750;  235.675;    0.000
353.597;  271.750;  239.675;    0.000
353.660;  225.750;  203.675;    0.000
353.723;  238.750;  225.675;    0.000
353.786;  223.750;  178.675;    0.000
353.850;  228.750;  199.675;    0.000
353.913;  212.750;  179.675;    0.000
353.976;  219.750;  209.675;    0.000
354.039;  183.750;  188.675;    0.000
354.102;  210.750;  219.675;    0.000
354.166;  206.750;  237.675;    0.000
354.229;  208.750;  179.675;    0.000
354.292;  194.750;  210.675;    0.000
354.355;  196.750;  214.675;    0.000
354.418;  195.750;  173.675;    0.000
354.481;  217.750;  170.675;    0.000
354.545;  456.750;  229.675;    0.000
354.608;  491.750;  233.675;    0.000
354.671;  516.750;  183.675;    0.000
354.734;  520.750;  208.675;    0.000
354.797;  517.750;  263.675;    0.000
354.860;  540.750;  208.675;    0.000
354.923;  554.750;  202.675;    0.000
354.986;  580.750;  207.675;    0.000
355.050;  524.750;  180.675;    0.000
355.113;  573.750;  189.675;    0.000
355.176;  540.750;  214.675;    0.000
355.239;  573.750;  199.675;    0.000
355.302;  494.750;  229.675;    0.000
355.365;  540.750;  220.675;    0.000
355.428;  555.750;  196.675;    0.000
355.491;  666.750;  243.675;    0.000
355.554;  549.750;  191.675;    0.000
355.617;  627.750;  200.675;    0.000
355.680;  604.750;  190.675;    0.000
355.743;  586.750;  236.675;    0.000
355.806;  599.750;  193.675;    0.000
355.869;  639.750;  223.675;    0.000
355.932;  592.750;  208.675;    0.000
355.995;  624.750;  231.675;    0.000
356.058;  625.750;  202.675;    0.000
356.121;  656.750;  198.675;    0.000
356.184;  666.750;  209.675;    0.000
356.247;  572.750;  224.675;    0.000
356.310;  606.750;  149.675;    0.000
356.373;  661.750;  211.675;    0.000
356.436;  656.750;  195.675;    0.000
356.498;  655.750;  176.675;    0.000
356.561;  656.750;  186.675;    0.000
356.624;  609.750;  184.675;    0.000
356.687;  655.750;  179.675;    0.000
356.750;  648.750;  213.675;    0.000
356.813;  622.750;  172.675;    0.000
356.876;  648.750;  189.675;    0.000
356.939;  677.750;  204.675;    0.000
357.001;  664.750;  195.675;    0.000
357.064;  642.750;  202.675;    0.000
357.127;  663.750;  176.675;    0.000
357.190;  660.750;  186.675;    0.000
357.253;  707.750;  178.675;    0.000
357.316;  690.750;  187.675;    0.000
357.378;  643.750;  181.675;    0.000
357.441;  642.750;  142.675;    0.000
357.504;  688.750;  161.675;    0.000
357.567;  570.750;  113.675;    0.000
357.629;  637.750;  193.675;    0.000
357.692;  662.750;  144.675;    0.000
357.755;  631.750;  177.675;    0.000
357.818;  632.750;  144.675;    0.000
357.880;  681.750;  182.675;    0.000
357.943;  661.750;  166.675;    0.000
358.006;  701.750;  184.675;    0.000
358.069;  720.750;  200.675;    0.000
358.131;  660.750;  148.675;    0.000
358.194;  647.750;  155.675;    0.000
358.257;  639.750;  173.675;    0.000
358.319;  625.750;  178.675;    0.000
358.382;  698.750;  184.675;    0.000
358.445;  642.750;  156.675;    0.000
358.507;  686.750;  199.675;    0.000
358.570;  684.750;  182.675;    0.000
358.633;  649.750;  167.675;    0.000
358.695;  721.750;  124.675;    0.000
358.758;  679.750;  164.675;    0.000
358.821;  673.750;  147.675;    0.000
358.883;  666.750;  153.675;    0.000
358.946;  649.750;  171.675;    0.000
359.008;  683.750;  196.675;    0.000
359.071;  734.750;  178.675;    0.000
359.134;  705.750;  123.675;    0.000
359.196;  677.750;  166.675;    0.000
359.259;  739.750;  173.675;    0.000
359.321;  666.750;  164.675;    0.000
359.384;  741.750;  155.675;    0.000
359.446;  761.750;  157.675;    0.000
359.509;  673.750;  153.675;    0.000
359.571;  722.750;  184.675;    0.000
359.634;  687.750;  138.675;    0.000
359.696;  709.750;  169.675;    0.000
359.759;  697.750;  152.675;    0.000
359.821;  705.750;  150.675;    0.000
359.884;  671.750;  166.675;    0.000
359.946;  730.750;  165.675;    0.000
360.009;  691.750;  176.675;    0.000
360.071;  711.750;  148.675;    0.000
360.134;  747.750;  193.675;    0.000
360.196;  672.750;  151.675;    0.000
360.259;  731.750;  182.675;    0.000
360.321;  738.750;  168.675;    0.000
360.384;  734.750;  176.675;    0.000
360.446;  720.750;  156.675;    0.000
360.508;  728.750;  183.675;    0.000
360.571;  726.750;  193.675;    0.000
360.633;  745.750;  184.675;    0.000
360.696;  679.750;  136.675;    0.000
360.758;  680.750;  186.675;    0.000
360.820;  738.750;  127.675;    0.000
360.883;  723.750;  146.675;    0.000
360.945;  807.750;  144.675;    0.000
361.007;  750.750;  160.675;    0.000
361.070;  700.750;  175.675;    0.000
361.132;  735.750;  195.675;    0.000
361.194;  742.750;  167.675;    0.000
361.257;  718.750;  140.675;    0.000
361.319;  731.750;  154.675;    0.000
361.381;  726.750;  181.675;    0.000
361.443;  700.750;  137.675;    0.000
361.506;  697.750;  159.675;    0.000
361.568;  743.750;  144.675;    0.000
361.630;  716.750;  189.675;    0.000
361.693;  725.750;  162.675;    0.000
361.755;  714.750;  156.675;    0.000
361.817;  819.750;  225.675;    0.000
361.879;  782.750;  172.675;    0.000
361.941;  776.750;  138.675;    0.000
362.004;  717.750;  163.675;    0.000
362.066;  767.750;  164.675;    0.000
362.128;  806.750;  160.675;    0.000
362.190;  767.750;  168.675;    0.000
362.252;  780.750;  177.675;    0.000
362.315;  751.750;  169.675;    0.000
362.377;  776.750;  188.675;    0.000
362.439;  723.750;  158.675;    0.000
362.501;  708.750;  168.675;    0.000
362.563;  752.750;  168.675;    0.000
362.625;  746.750;  188.675;    0.000
362.688;  716.750;  162.675;    0.000
362.750;  764.750;  209.675;    0.000
362.812;  706.750;  154.675;    0.000
362.874;  806.750;  190.675;    0.000
362.936;  809.750;  190.675;    0.000
362.998;  716.750;  143.675;    0.000
363.060;  760.750;  186.675;    0.000
363.122;  793.750;  167.675;    0.000
363.184;  775.750;  163.675;    0.000
363.246;  827.750;  169.675;    0.000
363.308;  758.750;  165.675;    0.000
363.370;  810.750;  177.675;    0.000
363.432;  733.750;  139.675;    0.000
363.494;  782.750;  177.675;    0.000
363.556;  818.750;  164.675;    0.000
363.618;  803.750;  170.675;    0.000
363.680;  809.750;  146.675;    0.000
363.742;  839.750;  179.675;    0.000
363.804;  807.750;  188.675;    0.000
363.866;  843.750;  186.675;    0.000
363.928;  772.750;  147.675;    0.000
363.990;  825.750;  185.675;    0.000
364.052;  804.750;  197.675;    0.000
364.114;  764.750;  150.675;    0.000
364.176;  840.750;  217.675;    0.000
364.238;  862.750;  159.675;    0.000
364.300;  873.750;  192.675;    0.000
364.362;  750.750;  130.675;    0.000
364.424;  762.750;  131.675;    0.000
364.486;  776.750;  178.675;    0.000
364.548;  807.750;  203.675;    0.000
364.609;  851.750;  192.675;    0.000
364.671;  823.750;  169.675;    0.000
364.733;  817.750;  169.675;    0.000
364.795;  822.750;  157.675;    0.000
364.857;  800.750;  171.675;    0.000
364.919;  820.750;  134.675;    0.000
364.981;  814.750;  162.675;    0.000
365.042;  863.750;  136.675;    0.000
365.104;  813.750;  152.675;    0.000
365.166;  764.750;  149.675;    0.000
365.228;  766.750;  195.675;    0.000
365.290;  771.750;  147.675;    0.000
365.351;  810.750;  138.675;    0.000
365.413;  799.750;  168.675;    0.000
365.475;  820.750;  150.675;    0.000
365.537;  837.750;  179.675;    0.000
365.598;  830.750;  177.675;    0.000
365.660;  829.750;  149.675;    0.000
365.722;  806.750;  160.675;    0.000
365.784;  860.750;  175.675;    0.000
365.845;  861.750;  149.675;    0.000
365.907;  797.750;  154.675;    0.000
365.969;  841.750;  128.675;    0.000
366.030;  875.750;  176.675;    0.000
366.092;  838.750;  181.675;    0.000
366.154;  833.750;  194.675;    0.000
366.215;  847.750;  149.675;    0.000
366.277;  801.750;  144.675;    0.000
366.339;  780.750;  160.675;    0.000
366.400;  831.750;  144.675;    0.000
366.462;  857.750;  145.675;    0.000
366.524;  838.750;  148.675;    0.000
366.585;  829.750;  128.675;    0.000
366.647;  866.750;  156.675;    0.000
366.708;  782.750;  128.675;    0.000
366.770;  857.750;  188.675;    0.000
366.832;  851.750;  170.675;    0.000
366.893;  859.750;  158.675;    0.000
366.955;  797.750;  150.675;    0.000
367.016;  813.750;  160.675;    0.000
367.078;  863.750;  144.675;    0.000
367.139;  810.750;  109.675;    0.000
367.201;  816.750;  155.675;    0.000
367.262;  863.750;  165.675;    0.000
367.324;  873.750;  180.675;    0.000
367.385;  794.750;  150.675;    0.000
367.447;  839.750;  164.675;    0.000
367.508;  856.750;  137.675;    0.000
367.570;  832.750;  174.675;    0.000
367.631;  819.750;  126.675;    0.000
367.693;  833.750;  153.675;    0.000
367.754;  848.750;  194.675;    0.000
367.816;  860.750;  154.675;    0.000
367.877;  910.750;  183.675;    0.000
367.939;  886.750;  179.675;    0.000
368.000;  783.750;  142.675;    0.000
368.062;  816.750;  147.675;    0.000
368.123;  840.750;  155.675;    0.000
368.184;  853.750;  169.675;    0.000
368.246;  833.750;  145.675;    0.000
368.307;  856.750;  165.675;    0.000
368.369;  802.750;  177.675;    0.000
368.430;  828.750;  161.675;    0.000
368.491;  851.750;  156.675;    0.000
368.553;  845.750;  156.675;    0.000
368.614;  820.750;  186.675;    0.000
368.675;  799.750;  154.675;    0.000
368.737;  882.750;  162.675;    0.000
368.798;  824.750;  202.675;    0.000
368.859;  869.750;  162.675;    0.000
368.921;  862.750;  171.675;    0.000
368.982;  840.750;  193.675;    0.000
369.043;  865.750;  207.675;    0.000
369.104;  892.750;  143.675;    0.000
369.166;  891.750;  203.675;    0.000
369.227;  899.750;  125.675;    0.000
369.288;  918.750;  154.675;    0.000
369.349;  839.750;  187.675;    0.000
369.411;  914.750;  191.675;    0.000
369.472;  854.750;  175.675;    0.000
369.533;  842.750;  180.675;    0.000
369.594;  829.750;  161.675;    0.000
369.656;  884.750;  169.675;    0.000
369.717;  803.750;  103.675;    0.000
369.778;  853.750;  159.675;    0.000
369.839;  835.750;  146.675;    0.000
369.900;  919.750;  218.675;    0.000
369.961;  912.750;  200.675;    0.000
370.023;  928.750;  177.675;    0.000
370.084;  863.750;  149.675;    0.000
370.145;  896.750;  179.675;    0.000
370.206;  850.750;  179.675;    0.000
370.267;  852.750;  166.675;    0.000
370.328;  872.750;  164.675;    0.000
370.389;  892.750;  162.675;    0.000
370.451;  918.750;  179.675;    0.000
370.512;  907.750;  181.675;    0.000
370.573;  894.750;  173.675;    0.000
370.634;  894.750;  162.675;    0.000
370.695;  872.750;  167.675;    0.000
370.756;  949.750;  177.675;    0.000
370.817;  880.750;  178.675;    0.000
370.878;  905.750;  152.675;    0.000
370.939;  847.750;  185.675;    0.000
371.000;  882.750;  173.675;    0.000
371.061;  921.750;  176.675;    0.000
371.122;  904.750;  169.675;    0.000
371.183;  827.750;  116.675;    0.000
371.244;  948.750;  174.675;    0.000
371.305;  901.750;  152.675;    0.000
371.366;  863.750;  168.675;    0.000
371.427;  884.750;  188.675;    0.000
371.488;  900.750;  180.675;    0.000
371.549;  934.750;  145.675;    0.000
371.610;  963.750;  160.675;    0.000
371.671;  856.750;  164.675;    0.000
371.732;  898.750;  158.675;    0.000
371.793;  882.750;  162.675;    0.000
371.853;  847.750;  130.675;    0.000
371.914;  862.750;  172.675;    0.000
371.975;  900.750;   98.675;    0.000
372.036;  907.750;  161.675;    0.000
372.097;  855.750;  143.675;    0.000
372.158;  938.750;  175.675;    0.000
372.219;  917.750;  196.675;    0.000
372.280;  898.750;  175.675;    0.000
372.340;  958.750;  160.675;    0.000
372.401;  912.750;  163.675;    0.000
372.462;  971.750;  147.675;    0.000
372.523;  885.750;  146.675;    0.000
372.584;  909.750;  173.675;    0.000
372.645;  949.750;  126.675;    0.000
372.705;  904.750;  179.675;    0.000
372.766;  920.750;  173.675;    0.000
372.827;  949.750;  171.675;    0.000
372.888;  901.750;  134.675;    0.000
372.948;  935.750;  167.675;    0.000
373.009;  876.750;  167.675;    0.000
373.070;  900.750;  152.675;    0.000
373.131;  961.750;  177.675;    0.000
373.191;  979.750;  225.675;    0.000
373.252;  928.750;  165.675;    0.000
373.313;  930.750;  171.675;    0.000
373.373;  920.750;  160.675;    0.000
373.434;  945.750;  172.675;    0.000
373.495;  946.750;  150.675;    0.000
373.555;  942.750;  130.675;    0.000
373.616;  909.750;  155.675;    0.000
373.677;  952.750;  212.675;    0.000
373.737;  933.750;  188.675;    0.000
373.798;  929.750;  203.675;    0.000
373.859;  951.750;  169.675;    0.000
373.919;  981.750;  197.675;    0.000
373.980;  894.750;  134.675;    0.000
374.041;  885.750;  186.675;    0.000
374.101;  957.750;  207.675;    0.000
374.162; 1024.750;  190.675;    0.000
374.222;  945.750;  182.675;    0.000
374.283; 1003.750;  213.675;    0.000
374.343;  977.750;  191.675;    0.000
374.404;  973.750;  181.675;    0.000
374.465;  958.750;  193.675;    0.000
374.525;  959.750;  153.675;    0.000
374.586;  924.750;  190.675;    0.000
374.646;  979.750;  173.675;    0.000
374.707;  975.750;  210.675;    0.000
374.767;  993.750;  218.675;    0.000
374.828;  940.750;  174.675;    0.000
374.888; 1010.750;  197.675;    0.000
374.949;  952.750;  196.675;    0.000
375.009;  966.750;  169.675;    0.000
375.070;  943.750;  157.675;    0.000
375.130;  964.750;  203.675;    0.000
375.190;  947.750;  174.675;    0.000
375.251;  988.750;  230.675;    0.000
375.311;  995.750;  198.675;    0.000
375.372;  966.750;  160.675;    0.000
375.432;  932.750;  169.675;    0.000
375.493; 1050.750;  159.675;    0.000
375.553;  956.750;  179.675;    0.000
375.613;  930.750;  157.675;    0.000
375.674;  949.750;  174.675;    0.000
375.734;  952.750;  180.675;    0.000
375.794;  981.750;  175.675;    0.000
375.855;  926.750;  193.675;    0.000
375.915;  977.750;  148.675;    0.000
375.975;  933.750;  183.675;    0.000
376.036;  968.750;  144.675;    0.000
376.096;  913.750;  195.675;    0.000
376.156;  983.750;  200.675;    0.000
376.217;  969.750;  160.675;    0.000
376.277;  969.750;  193.675;    0.000
376.337;  994.750;  168.675;    0.000
376.398;  965.750;  183.675;    0.000
376.458;  964.750;  168.675;    0.000
376.518;  917.750;  184.675;    0.000
376.578;  935.750;  176.675;    0.000
376.639;  975.750;  158.675;    0.000
376.699; 1009.750;  157.675;    0.000
376.759;  984.750;  184.675;    0.000
376.819;  997.750;  166.675;    0.000
376.880;  942.750;  220.675;    0.000
376.940; 1030.750;  195.675;    0.000
377.000;  939.750;  178.675;    0.000
377.060;  956.750;  212.675;    0.000
377.120;  963.750;  161.675;    0.000
377.180;  955.750;  168.675;    0.000
377.241;  965.750;  167.675;    0.000
377.301; 1052.750;  171.675;    0.000
377.361; 1006.750;  174.675;    0.000
377.421;  992.750;  216.675;    0.000
377.481;  986.750;  164.675;    0.000
377.541;  929.750;  163.675;    0.000
377.601; 1016.750;  197.675;    0.000
377.661;  981.750;  175.675;    0.000
377.722; 1040.750;  196.675;    0.000
377.782;  965.750;  162.675;    0.000
377.842; 1119.750;  179.675;    0.000
377.902; 1026.750;  140.675;    0.000
377.962;  971.750;  121.675;    0.000
378.022; 1028.750;  174.675;    0.000
378.082; 1071.750;  167.675;    0.000
378.142; 1014.750;  151.675;    0.000
378.202; 1003.750;  174.675;    0.000
378.262;  986.750;  168.675;    0.000
378.322;  978.750;  183.675;    0.000
378.382;  990.750;  159.675;    0.000
378.442; 1065.750;  177.675;    0.000
378.502; 1016.750;  137.675;    0.000
378.562; 1017.750;  140.675;    0.000
378.622; 1075.750;  197.675;    0.000
378.682; 1053.750;  205.675;    0.000
378.742; 1085.750;  160.675;    0.000
378.802;  986.750;  132.675;    0.000
378.862; 1151.750;  222.675;    0.000
378.921; 1032.750;  178.675;    0.000
378.981; 1111.750;  160.675;    0.000
379.041; 1045.750;  136.675;    0.000
379.101; 1049.750;  184.675;    0.000
379.161; 1094.750;  147.675;    0.000
379.221; 1018.750;  139.675;    0.000
379.281;  962.750;  204.675;    0.000
379.341; 1111.750;  142.675;    0.000
379.401;  993.750;  136.675;    0.000
379.460; 1113.750;  161.675;    0.000
379.520; 1059.750;  171.675;    0.000
379.580; 1113.750;  168.675;    0.000
379.640; 1084.750;  183.675;    0.000
379.700; 1121.750;  182.675;    0.000
379.759; 1135.750;  190.675;    0.000
379.819; 1094.750;  149.675;    0.000
379.879; 1091.750;  140.675;    0.000
379.939; 1138.750;  155.675;    0.000
379.999; 1149.750;  199.675;    0.000
380.058; 1140.750;  163.675;    0.000
380.118; 1073.750;  190.675;    0.000
380.178; 1106.750;  220.675;    0.000
380.237; 1177.750;  181.675;    0.000
380.297; 1185.750;  187.675;    0.000
380.357; 1154.750;  193.675;    0.000
380.417; 1189.750;  157.675;    0.000
380.476; 1097.750;  176.675;    0.000
380.536; 1119.750;  180.675;    0.000
380.596; 1127.750;  191.675;    0.000
380.655; 1177.750;  190.675;    0.000
380.715; 1155.750;  180.675;    0.000
380.775; 1079.750;  202.675;    0.000
380.834; 1172.750;  190.675;    0.000
380.894; 1176.750;  163.675;    0.000
380.954; 1177.750;  181.675;    0.000
381.013; 1122.750;  218.675;    0.000
381.073; 1142.750;  181.675;    0.000
381.132; 1162.750;  193.675;    0.000
381.192; 1158.750;  209.675;    0.000
381.252; 1117.750;  206.675;    0.000
381.311; 1235.750;  173.675;    0.000
381.371; 1127.750;  188.675;    0.000
381.430; 1151.750;  162.675;    0.000
381.490; 1179.750;  168.675;    0.000
381.549; 1117.750;  213.675;    0.000
381.609; 1208.750;  194.675;    0.000
381.668; 1216.750;  190.675;    0.000
381.728; 1212.750;  183.675;    0.000
381.787; 1176.750;  172.675;    0.000
381.847; 1249.750;  198.675;    0.000
381.906; 1226.750;  197.675;    0.000
381.966; 1244.750;  201.675;    0.000
382.025; 1284.750;  219.675;    0.000
382.085; 1280.750;  194.675;    0.000
382.144; 1305.750;  187.675;    0.000
382.204; 1287.750;  196.675;    0.000
382.263; 1310.750;  168.675;    0.000
382.323; 1306.750;  135.675;    0.000
382.382; 1302.750;  173.675;    0.000
382.441; 1387.750;  155.675;    0.000
382.501; 1396.750;  168.675;    0.000
382.560; 1387.750;  200.675;    0.000
382.619; 1421.750;  155.675;    0.000
382.679; 1561.750;  198.675;    0.000
382.738; 1542.750;  211.675;    0.000
382.798; 1640.750;  214.675;    0.000
382.857; 1730.750;  146.675;    0.000
382.916; 1835.750;  183.675;    0.000
382.976; 1943.750;  173.675;    0.000
383.035; 1849.750;  165.675;    0.000
383.094; 1936.750;  173.675;    0.000
383.154; 2113.750;  143.675;    0.000
383.213; 2370.750;  173.675;    0.000
383.272; 2332.750;  166.675;    0.000
383.331; 2037.750;  154.675;    0.000
383.391; 1890.750;  232.675;    0.000
383.450; 1777.750;  185.675;    0.000
383.509; 1775.750;  204.675;    0.000
383.568; 1938.750;  197.675;    0.000
383.628; 1919.750;  171.675;    0.000
383.687; 2045.750;  202.675;    0.000
383.746; 2337.750;  116.675;    0.000
383.805; 2678.750;  156.675;    0.000
383.864; 2777.750;  150.675;    0.000
383.924; 2334.750;  195.675;    0.000
383.983; 1889.750;  157.675;    0.000
384.042; 1657.750;  184.675;    0.000
384.101; 1617.750;  210.675;    0.000
384.160; 1543.750;  123.675;    0.000
384.219; 1453.750;  191.675;    0.000
384.279; 1547.750;  184.675;    0.000
384.338; 1319.750;  172.675;    0.000
384.397; 1355.750;  153.675;    0.000
384.456; 1354.750;  181.675;    0.000
384.515; 1343.750;  171.675;    0.000
384.574; 1320.750;  172.675;    0.000
384.633; 1356.750;  174.675;    0.000
384.692; 1380.750;  178.675;    0.000
384.751; 1297.750;  180.675;    0.000
384.810; 1306.750;  161.675;    0.000
384.869; 1316.750;  162.675;    0.000
384.929; 1290.750;  157.675;    0.000
384.988; 1294.750;  153.675;    0.000
385.047; 1303.750;  178.675;    0.000
385.106; 1245.750;  164.675;    0.000
385.165; 1344.750;  127.675;    0.000
385.224; 1255.750;  156.675;    0.000
385.283; 1271.750;  178.675;    0.000
385.342; 1284.750;  177.675;    0.000
385.401; 1303.750;  178.675;    0.000
385.459; 1302.750;  177.675;    0.000
385.518; 1312.750;  152.675;    0.000
385.577; 1282.750;  133.675;    0.000
385.636; 1312.750;  204.675;    0.000
385.695; 1334.750;  161.675;    0.000
385.754; 1285.750;  190.675;    0.000
385.813; 1320.750;  160.675;    0.000
385.872; 1259.750;  138.675;    0.000
385.931; 1338.750;  192.675;    0.000
385.990; 1303.750;  158.675;    0.000
386.049; 1277.750;  187.675;    0.000
386.107; 1306.750;  140.675;    0.000
386.166; 1264.750;  139.675;    0.000
386.225; 1291.750;  182.675;    0.000
386.284; 1276.750;  123.675;    0.000
386.343; 1263.750;  207.675;    0.000
386.402; 1251.750;  150.675;    0.000
386.460; 1394.750;  185.675;    0.000
386.519; 1248.750;  145.675;    0.000
386.578; 1254.750;  153.675;    0.000
386.637; 1348.750;  153.675;    0.000
386.696; 1260.750;  189.675;    0.000
386.754; 1273.750;  128.675;    0.000
386.813; 1300.750;  202.675;    0.000
386.872; 1229.750;  152.675;    0.000
386.931; 1238.750;  166.675;    0.000
386.989; 1254.750;  194.675;    0.000
387.048; 1247.750;  176.675;    0.000
387.107; 1328.750;  203.675;    0.000
387.165; 1249.750;  136.675;    0.000
387.224; 1235.750;  193.675;    0.000
387.283; 1191.750;  157.675;    0.000
387.342; 1226.750;  194.675;    0.000
387.400; 1292.750;  191.675;    0.000
387.459; 1211.750;  142.675;    0.000
387.517; 1290.750;  202.675;    0.000
387.576; 1222.750;  164.675;    0.000
387.635; 1271.750;  147.675;    0.000
387.693; 1288.750;  199.675;    0.000
387.752; 1250.750;  181.675;    0.000
387.811; 1311.750;  161.675;    0.000
387.869; 1313.750;  184.675;    0.000
387.928; 1250.750;  175.675;    0.000
387.986; 1248.750;  143.675;    0.000
388.045; 1207.750;  146.675;    0.000
388.103; 1264.750;  164.675;    0.000
388.162; 1277.750;  170.675;    0.000
388.221; 1227.750;  169.675;    0.000
388.279; 1210.750;  151.675;    0.000
388.338; 1306.750;  175.675;    0.000
388.396; 1258.750;  170.675;    0.000
388.455; 1263.750;  193.675;    0.000
388.513; 1264.750;  134.675;    0.000
388.572; 1271.750;  201.675;    0.000
388.630; 1211.750;  181.675;    0.000
388.689; 1275.750;  165.675;    0.000
388.747; 1292.750;  164.675;    0.000
388.806; 1240.750;  155.675;    0.000
388.864; 1286.750;  172.675;    0.000
388.922; 1300.750;  190.675;    0.000
388.981; 1190.750;  170.675;    0.000
389.039; 1188.750;  142.675;    0.000
389.098; 1260.750;  177.675;    0.000
389.156; 1229.750;  184.675;    0.000
389.214; 1272.750;  197.675;    0.000
389.273; 1187.750;  141.675;    0.000
389.331; 1258.750;  145.675;    0.000
389.390; 1278.750;  160.675;    0.000
389.448; 1213.750;  142.675;    0.000
389.506; 1196.750;  192.675;    0.000
389.565; 1262.750;  176.675;    0.000
389.623; 1243.750;  174.675;    0.000
389.681; 1289.750;  184.675;    0.000
389.740; 1253.750;  193.675;    0.000
389.798; 1246.750;  130.675;    0.000
389.856; 1297.750;  224.675;    0.000
389.914; 1300.750;  223.675;    0.000
389.973; 1211.750;  164.675;    0.000
390.031; 1219.750;  198.675;    0.000
390.089; 1279.750;  177.675;    0.000
390.147; 1229.750;  158.675;    0.000
390.206; 1212.750;  213.675;    0.000
390.264; 1274.750;  178.675;    0.000
390.322; 1266.750;  181.675;    0.000
390.380; 1288.750;  148.675;    0.000
390.439; 1207.750;  185.675;    0.000
390.497; 1288.750;  208.675;    0.000
390.555; 1267.750;  175.675;    0.000
390.613; 1207.750;  178.675;    0.000
390.671; 1334.750;  190.675;    0.000
390.729; 1270.750;  172.675;    0.000
390.788; 1290.750;  194.675;    0.000
390.846; 1216.750;  187.675;    0.000
390.904; 1250.750;  207.675;    0.000
390.962; 1249.750;  211.675;    0.000
391.020; 1347.750;  218.675;    0.000
391.078; 1325.750;  179.675;    0.000
391.136; 1312.750;  223.675;    0.000
391.194; 1353.750;  209.675;    0.000
391.253; 1349.750;  217.675;    0.000
391.311; 1414.750;  217.675;    0.000
391.369; 1351.750;  217.675;    0.000
391.427; 1358.750;  253.675;    0.000
391.485; 1307.750;  176.675;    0.000
391.543; 1361.750;  252.675;    0.000
391.601; 1263.750;  168.675;    0.000
391.659; 1308.750;  206.675;    0.000
391.717; 1325.750;  172.675;    0.000
391.775; 1294.750;  170.675;    0.000
391.833; 1379.750;  196.675;    0.000
391.891; 1272.750;  180.675;    0.000
391.949; 1366.750;  201.675;    0.000
392.007; 1365.750;  196.675;    0.000
392.065; 1257.750;  191.675;    0.000
392.123; 1298.750;  158.675;    0.000
392.180; 1428.750;  192.675;    0.000
392.238; 1343.750;  186.675;    0.000
392.296; 1319.750;  150.675;    0.000
392.354; 1335.750;  175.675;    0.000
392.412; 1321.750;  219.675;    0.000
392.470; 1338.750;  200.675;    0.000
392.528; 1384.750;  177.675;    0.000
392.586; 1322.750;  169.675;    0.000
392.644; 1354.750;  155.675;    0.000
392.701; 1315.750;  215.675;    0.000
392.759; 1281.750;  218.675;    0.000
392.817; 1314.750;  178.675;    0.000
392.875; 1329.750;  190.675;    0.000
392.933; 1327.750;  197.675;    0.000
392.991; 1400.750;  179.675;    0.000
393.048; 1373.750;  205.675;    0.000
393.106; 1371.750;  229.675;    0.000
393.164; 1313.750;  167.675;    0.000
393.222; 1404.750;  156.675;    0.000
393.279; 1426.750;  203.675;    0.000
393.337; 1553.750;  216.675;    0.000
393.395; 1640.750;  180.675;    0.000
393.453; 1645.750;  163.675;    0.000
393.510; 1458.750;  194.675;    0.000
393.568; 1357.750;  207.675;    0.000
393.626; 1315.750;  200.675;    0.000
393.684; 1386.750;  234.675;    0.000
393.741; 1397.750;  197.675;    0.000
393.799; 1315.750;  201.675;    0.000
393.857; 1383.750;  185.675;    0.000
393.914; 1400.750;  200.675;    0.000
393.972; 1343.750;  181.675;    0.000
394.030; 1375.750;  188.675;    0.000
394.087; 1392.750;  202.675;    0.000
394.145; 1406.750;  214.675;    0.000
394.202; 1378.750;  204.675;    0.000
394.260; 1366.750;  178.675;    0.000
394.318; 1392.750;  208.675;    0.000
394.375; 1344.750;  183.675;    0.000
394.433; 1353.750;  175.675;    0.000
394.490; 1357.750;  170.675;    0.000
394.548; 1425.750;  161.675;    0.000
394.605; 1388.750;  196.675;    0.000
394.663; 1356.750;  191.675;    0.000
394.720; 1363.750;  179.675;    0.000
394.778; 1383.750;  193.675;    0.000
394.836; 1465.750;  160.675;    0.000
394.893; 1406.750;  152.675;    0.000
394.951; 1384.750;  179.675;    0.000
395.008; 1428.750;  185.675;    0.000
395.065; 1420.750;  154.675;    0.000
395.123; 1365.750;  176.675;    0.000
395.180; 1477.750;  202.675;    0.000
395.238; 1352.750;  135.675;    0.000
395.295; 1376.750;  178.675;    0.000
395.353; 1364.750;  181.675;    0.000
395.410; 1405.750;  160.675;    0.000
395.468; 1445.750;  179.675;    0.000
395.525; 1398.750;  187.675;    0.000
395.582; 1406.750;  221.675;    0.000
395.640; 1466.750;  220.675;    0.000
395.697; 1415.750;  174.675;    0.000
395.754; 1397.750;  177.675;    0.000
395.812; 1349.750;  193.675;    0.000
395.869; 1445.750;  220.675;    0.000
395.927; 1417.750;  206.675;    0.000
395.984; 1498.750;  213.675;    0.000
396.041; 1399.750;  194.675;    0.000
396.098; 1437.750;  144.675;    0.000
396.156; 1417.750;  168.675;    0.000
396.213; 1487.750;  181.675;    0.000
396.270; 1525.750;  186.675;    0.000
396.328; 1406.750;  165.675;    0.000
396.385; 1401.750;  192.675;    0.000
396.442; 1457.750;  196.675;    0.000
396.499; 1412.750;  162.675;    0.000
396.557; 1433.750;  177.675;    0.000
396.614; 1477.750;  184.675;    0.000
396.671; 1485.750;  180.675;    0.000
396.728; 1601.750;  194.675;    0.000
396.785; 1546.750;  173.675;    0.000
396.843; 1639.750;  154.675;    0.000
396.900; 1615.750;  200.675;    0.000
396.957; 1505.750;  158.675;    0.000
397.014; 1527.750;  203.675;    0.000
397.071; 1499.750;  178.675;    0.000
397.128; 1530.750;  201.675;    0.000
397.186; 1456.750;  200.675;    0.000
397.243; 1515.750;  187.675;    0.000
397.300; 1490.750;  173.675;    0.000
397.357; 1520.750;  189.675;    0.000
397.414; 1463.750;  202.675;    0.000
397.471; 1424.750;  156.675;    0.000
397.528; 1492.750;  197.675;    0.000
397.585; 1507.750;  174.675;    0.000
397.642; 1474.750;  202.675;    0.000
397.699; 1484.750;  197.675;    0.000
397.756; 1482.750;  188.675;    0.000
397.814; 1504.750;  210.675;    0.000
397.871; 1524.750;  203.675;    0.000
397.928; 1509.750;  189.675;    0.000
397.985; 1480.750;  192.675;    0.000
398.042; 1483.750;  198.675;    0.000
398.099; 1550.750;  181.675;    0.000
398.156; 1586.750;  201.675;    0.000
398.212; 1555.750;  216.675;    0.000
398.269; 1512.750;  206.675;    0.000
398.326; 1544.750;  213.675;    0.000
398.383; 1491.750;  168.675;    0.000
398.440; 1523.750;  184.675;    0.000
398.497; 1584.750;  194.675;    0.000
398.554; 1572.750;  219.675;    0.000
398.611; 1620.750;  190.675;    0.000
398.668; 1488.750;  138.675;    0.000
398.725; 1590.750;  170.675;    0.000
398.782; 1624.750;  223.675;    0.000
398.839; 1512.750;  211.675;    0.000
398.895; 1618.750;  173.675;    0.000
398.952; 1636.750;  207.675;    0.000
399.009; 1545.750;  173.675;    0.000
399.066; 1542.750;  171.675;    0.000
399.123; 1652.750;  189.675;    0.000
399.180; 1647.750;  170.675;    0.000
399.236; 1596.750;  193.675;    0.000
399.293; 1727.750;  222.675;    0.000
399.350; 1599.750;  195.675;    0.000
399.407; 1726.750;  214.675;    0.000
399.463; 1716.750;  181.675;    0.000
399.520; 1746.750;  168.675;    0.000
399.577; 1678.750;  231.675;    0.000
399.634; 1740.750;  215.675;    0.000
399.690; 1619.750;  177.675;    0.000
399.747; 1812.750;  212.675;    0.000
399.804; 1755.750;  208.675;    0.000
399.861; 1767.750;  225.675;    0.000
399.917; 1736.750;  191.675;    0.000
399.974; 1782.750;  182.675;    0.000
400.031; 1716.750;  218.675;    0.000
400.087; 1720.750;  202.675;    0.000
400.144; 1732.750;  192.675;    0.000
400.201; 1704.750;  187.675;    0.000
400.257; 1701.750;  193.675;    0.000
400.314; 1720.750;  185.675;    0.000
400.370; 1720.750;  201.675;    0.000
400.427; 1650.750;  208.675;    0.000
400.484; 1662.750;  201.675;    0.000
400.540; 1655.750;  204.675;    0.000
400.597; 1688.750;  210.675;    0.000
400.653; 1746.750;  224.675;    0.000
400.710; 1627.750;  196.675;    0.000
400.766; 1681.750;  224.675;    0.000
400.823; 1680.750;  210.675;    0.000
400.879; 1676.750;  213.675;    0.000
400.936; 1673.750;  182.675;    0.000
400.993; 1626.750;  184.675;    0.000
401.049; 1675.750;  216.675;    0.000
401.105; 1728.750;  235.675;    0.000
401.162; 1732.750;  196.675;    0.000
401.218; 1697.750;  221.675;    0.000
401.275; 1599.750;  216.675;    0.000
401.331; 1608.750;  198.675;    0.000
401.388; 1642.750;  205.675;    0.000
401.444; 1564.750;  154.675;    0.000
401.501; 1653.750;  208.675;    0.000
401.557; 1668.750;  162.675;    0.000
401.614; 1632.750;  157.675;    0.000
401.670; 1623.750;  198.675;    0.000
401.726; 1634.750;  195.675;    0.000
401.783; 1567.750;  186.675;    0.000
401.839; 1622.750;  205.675;    0.000
401.895; 1700.750;  202.675;    0.000
401.952; 1704.750;  143.675;    0.000
402.008; 1801.750;  177.675;    0.000
402.064; 1650.750;  177.675;    0.000
402.121; 1695.750;  194.675;    0.000
402.177; 1580.750;  181.675;    0.000
402.233; 1606.750;  205.675;    0.000
402.290; 1739.750;  190.675;    0.000
402.346; 1697.750;  190.675;    0.000
402.402; 1602.750;  151.675;    0.000
402.458; 1746.750;  194.675;    0.000
402.515; 1687.750;  212.675;    0.000
402.571; 1640.750;  209.675;    0.000
402.627; 1635.750;  199.675;    0.000
402.683; 1707.750;  213.675;    0.000
402.740; 1625.750;  165.675;    0.000
402.796; 1686.750;  168.675;    0.000
402.852; 1616.750;  200.675;    0.000
402.908; 1674.750;  193.675;    0.000
402.964; 1730.750;  166.675;    0.000
403.021; 1695.750;  196.675;    0.000
403.077; 1697.750;  212.675;    0.000
403.133; 1650.750;  186.675;    0.000
403.189; 1727.750;  206.675;    0.000
403.245; 1715.750;  207.675;    0.000
403.301; 1754.750;  204.675;    0.000
403.357; 1771.750;  246.675;    0.000
403.414; 1721.750;  227.675;    0.000
403.470; 1744.750;  207.675;    0.000
403.526; 1668.750;  171.675;    0.000
403.582; 1713.750;  200.675;    0.000
403.638; 1688.750;  213.675;    0.000
403.694; 1697.750;  239.675;    0.000
403.750; 1682.750;  221.675;    0.000
403.806; 1742.750;  197.675;    0.000
403.862; 1741.750;  222.675;    0.000
403.918; 1820.750;  174.675;    0.000
403.974; 1713.750;  183.675;    0.000
404.030; 1645.750;  184.675;    0.000
404.086; 1735.750;  170.675;    0.000
404.142; 1723.750;  215.675;    0.000
404.198; 1644.750;  189.675;    0.000
404.254; 1719.750;  195.675;    0.000
404.310; 1675.750;  206.675;    0.000
404.366; 1564.750;  179.675;    0.000
404.422; 1784.750;  197.675;    0.000
404.478; 1850.750;  176.675;    0.000
404.534; 1688.750;  165.675;    0.000
404.590; 1712.750;  203.675;    0.000
404.646; 1714.750;  195.675;    0.000
404.701; 1762.750;  180.675;    0.000
404.757; 1803.750;  218.675;    0.000
404.813; 1752.750;  160.675;    0.000
404.869; 1760.750;  213.675;    0.000
404.925; 1697.750;  171.675;    0.000
404.981; 1739.750;  194.675;    0.000
405.037; 1750.750;  211.675;    0.000
405.092; 1716.750;  158.675;    0.000
405.148; 1706.750;  140.675;    0.000
405.204; 1811.750;  161.675;    0.000
405.260; 1756.750;  161.675;    0.000
405.316; 1751.750;  155.675;    0.000
405.371; 1730.750;  151.675;    0.000
405.427; 1773.750;  186.675;    0.000
405.483; 1756.750;  206.675;    0.000
405.539; 1712.750;  162.675;    0.000
405.594; 1808.750;  205.675;    0.000
405.650; 1771.750;  153.675;    0.000
405.706; 1825.750;  185.675;    0.000
405.761; 1772.750;  205.675;    0.000
405.817; 1848.750;  185.675;    0.000
405.873; 1804.750;  160.675;    0.000
405.928; 1810.750;  182.675;    0.000
405.984; 1803.750;  206.675;    0.000
406.040; 1762.750;  200.675;    0.000
406.095; 1734.750;  138.675;    0.000
406.151; 1802.750;  178.675;    0.000
406.207; 1859.750;  225.675;    0.000
406.262; 1850.750;  161.675;    0.000
406.318; 1869.750;  186.675;    0.000
406.374; 1733.750;  173.675;    0.000
406.429; 1805.750;  197.675;    0.000
406.485; 1852.750;  260.675;    0.000
406.540; 1789.750;  184.675;    0.000
406.596; 1813.750;  193.675;    0.000
406.651; 1809.750;  176.675;    0.000
406.707; 1887.750;  158.675;    0.000
406.763; 1834.750;  174.675;    0.000
406.818; 1925.750;  188.675;    0.000
406.874; 1819.750;  176.675;    0.000
406.929; 1973.750;  220.675;    0.000
406.985; 1948.750;  167.675;    0.000
407.040; 1943.750;  191.675;    0.000
407.095; 1917.750;  190.675;    0.000
407.151; 1878.750;  196.675;    0.000
407.206; 1955.750;  184.675;    0.000
407.262; 1902.750;  167.675;    0.000
407.317; 2000.750;  199.675;    0.000
407.373; 2001.750;  211.675;    0.000
407.428; 2057.750;  202.675;    0.000
407.484; 1924.750;  172.675;    0.000
407.539; 2015.750;  171.675;    0.000
407.594; 2042.750;  219.675;    0.000
407.650; 1995.750;  179.675;    0.000
407.705; 1985.750;  141.675;    0.000
407.760; 1940.750;  182.675;    0.000
407.816; 1908.750;  203.675;    0.000
407.871; 1961.750;  219.675;    0.000
407.926; 2018.750;  197.675;    0.000
407.982; 1971.750;  176.675;    0.000
408.037; 1980.750;  187.675;    0.000
408.092; 1976.750;  161.675;    0.000
408.148; 2031.750;  185.675;    0.000
408.203; 1981.750;  196.675;    0.000
408.258; 1976.750;  188.675;    0.000
408.314; 2008.750;  225.675;    0.000
408.369; 1954.750;  172.675;    0.000
408.424; 1940.750;  204.675;    0.000
408.479; 1931.750;  182.675;    0.000
408.534; 1934.750;  220.675;    0.000
408.590; 2034.750;  196.675;    0.000
408.645; 1923.750;  170.675;    0.000
408.700; 1992.750;  204.675;    0.000
408.755; 1930.750;  219.675;    0.000
408.810; 2007.750;  174.675;    0.000
408.866; 1887.750;  212.675;    0.000
408.921; 2122.750;  233.675;    0.000
408.976; 1966.750;  198.675;    0.000
409.031; 1919.750;  179.675;    0.000
409.086; 1920.750;  181.675;    0.000
409.141; 1918.750;  192.675;    0.000
409.196; 1919.750;  172.675;    0.000
409.252; 1901.750;  199.675;    0.000
409.307; 1958.750;  159.675;    0.000
409.362; 1920.750;  158.675;    0.000
409.417; 1909.750;  164.675;    0.000
409.472; 1948.750;  186.675;    0.000
409.527; 1899.750;  215.675;    0.000
409.582; 1915.750;  227.675;    0.000
409.637; 1908.750;  211.675;    0.000
409.692; 1939.750;  224.675;    0.000
409.747; 1804.750;  147.675;    0.000
409.802; 1942.750;  203.675;    0.000
409.857; 1868.750;  203.675;    0.000
409.912; 1870.750;  219.675;    0.000
409.967; 1816.750;  200.675;    0.000
410.022; 1888.750;  199.675;    0.000
410.077; 1907.750;  171.675;    0.000
410.132; 1976.750;  193.675;    0.000
410.187; 1877.750;  167.675;    0.000
410.242; 1936.750;  188.675;    0.000
410.297; 1954.750;  195.675;    0.000
410.351; 1900.750;  225.675;    0.000
410.406; 2032.750;  188.675;    0.000
410.461; 1933.750;  197.675;    0.000
410.516; 1908.750;  212.675;    0.000
410.571; 1939.750;  173.675;    0.000
410.626; 2020.750;  180.675;    0.000
410.681; 1882.750;  198.675;    0.000
410.736; 1959.750;  190.675;    0.000
410.790; 1914.750;  204.675;    0.000
410.845; 1928.750;  214.675;    0.000
410.900; 1996.750;  184.675;    0.000
410.955; 1959.750;  231.675;    0.000
411.010; 1966.750;  211.675;    0.000
411.064; 1883.750;  204.675;    0.000
411.119; 1950.750;  219.675;    0.000
411.174; 1834.750;  208.675;    0.000
411.229; 1980.750;  207.675;    0.000
411.283; 1885.750;  199.675;    0.000
411.338; 1924.750;  198.675;    0.000
411.393; 1833.750;  155.675;    0.000
411.447; 1975.750;  200.675;    0.000
411.502; 1930.750;  229.675;    0.000
411.557; 1865.750;  197.675;    0.000
411.612; 1876.750;  171.675;    0.000
411.666; 1923.750;  201.675;    0.000
411.721; 1968.750;  174.675;    0.000
411.776; 1971.750;  222.675;    0.000
411.830; 1961.750;  150.675;    0.000
411.885; 1938.750;  169.675;    0.000
411.939; 2040.750;  216.675;    0.000
411.994; 1926.750;  215.675;    0.000
412.049; 1958.750;  219.675;    0.000
412.103; 1983.750;  225.675;    0.000
412.158; 1897.750;  216.675;    0.000
412.212; 1922.750;  218.675;    0.000
412.267; 1967.750;  219.675;    0.000
412.322; 1965.750;  235.675;    0.000
412.376; 1960.750;  208.675;    0.000
412.431; 1915.750;  232.675;    0.000
412.485; 1971.750;  223.675;    0.000
412.540; 1942.750;  217.675;    0.000
412.594; 1993.750;  195.675;    0.000
412.649; 1978.750;  236.675;    0.000
412.703; 1906.750;  216.675;    0.000
412.758; 1908.750;  201.675;    0.000
412.812; 1907.750;  176.675;    0.000
412.866; 1849.750;  179.675;    0.000
412.921; 1757.750;  196.675;    0.000
412.975; 1963.750;  238.675;    0.000
413.030; 1966.750;  272.675;    0.000
413.084; 2046.750;  208.675;    0.000
413.139; 1975.750;  201.675;    0.000
413.193; 1991.750;  198.675;    0.000
413.247; 1992.750;  213.675;    0.000
413.302; 1847.750;  202.675;    0.000
413.356; 1967.750;  184.675;    0.000
413.410; 1936.750;  202.675;    0.000
413.465; 1956.750;  145.675;    0.000
413.519; 1912.750;  200.675;    0.000
413.573; 1950.750;  197.675;    0.000
413.628; 1960.750;  224.675;    0.000
413.682; 1978.750;  211.675;    0.000
413.736; 1874.750;  202.675;    0.000
413.791; 1946.750;  228.675;    0.000
413.845; 1957.750;  184.675;    0.000
413.899; 1872.750;  226.675;    0.000
413.953; 1953.750;  213.675;    0.000
414.008; 1869.750;  175.675;    0.000
414.062; 1995.750;  216.675;    0.000
414.116; 1981.750;  206.675;    0.000
414.170; 1976.750;  229.675;    0.000
414.225; 1947.750;  196.675;    0.000
414.279; 1987.750;  199.675;    0.000
414.333; 1972.750;  220.675;    0.000
414.387; 1989.750;  217.675;    0.000
414.441; 1882.750;  206.675;    0.000
414.496; 1932.750;  264.675;    0.000
414.550; 1968.750;  217.675;    0.000
414.604; 1976.750;  224.675;    0.000
414.658; 1891.750;  156.675;    0.000
414.712; 2011.750;  203.675;    0.000
414.766; 1858.750;  216.675;    0.000
414.820; 1996.750;  218.675;    0.000
414.874; 1974.750;  240.675;    0.000
414.928; 1932.750;  204.675;    0.000
414.982; 1882.750;  195.675;    0.000
415.037; 1919.750;  212.675;    0.000
415.091; 1998.750;  211.675;    0.000
415.145; 1963.750;  230.675;    0.000
415.199; 1940.750;  208.675;    0.000
415.253; 1895.750;  213.675;    0.000
415.307; 1976.750;  208.675;    0.000
415.361; 1957.750;  193.675;    0.000
415.415; 1876.750;  207.675;    0.000
415.469; 1894.750;  214.675;    0.000
415.523; 2004.750;  226.675;    0.000
415.577; 1922.750;  194.675;    0.000
415.631; 1937.750;  258.675;    0.000
415.684; 1992.750;  239.675;    0.000
415.738; 1973.750;  191.675;    0.000
415.792; 1954.750;  185.675;    0.000
415.846; 1995.750;  239.675;    0.000
415.900; 1951.750;  209.675;    0.000
415.954; 1950.750;  215.675;    0.000
416.008; 2007.750;  229.675;    0.000
416.062; 1925.750;  200.675;    0.000
416.116; 1830.750;  195.675;    0.000
416.169; 1898.750;  238.675;    0.000
416.223; 1973.750;  271.675;    0.000
416.277; 1930.750;  232.675;    0.000
416.331; 2001.750;  226.675;    0.000
416.385; 1915.750;  207.675;    0.000
416.439; 1889.750;  221.675;    0.000
416.492; 1995.750;  269.675;    0.000
416.546; 1893.750;  254.675;    0.000
416.600; 1963.750;  225.675;    0.000
416.654; 1938.750;  269.675;    0.000
416.707; 1893.750;  232.675;    0.000
416.761; 1858.750;  226.675;    0.000
416.815; 1915.750;  219.675;    0.000
416.869; 1988.750;  234.675;    0.000
416.922; 1975.750;  230.675;    0.000
416.976; 2003.750;  216.675;    0.000
417.030; 1891.750;  271.675;    0.000
417.083; 1858.750;  229.675;    0.000
417.137; 2028.750;  249.675;    0.000
417.191; 1972.750;  241.675;    0.000
417.244; 1978.750;  230.675;    0.000
417.298; 1932.750;  215.675;    0.000
417.352; 1877.750;  188.675;    0.000
417.405; 2000.750;  248.675;    0.000
417.459; 1968.750;  256.675;    0.000
417.512; 1915.750;  263.675;    0.000
417.566; 1878.750;  227.675;    0.000
417.620; 2003.750;  270.675;    0.000
417.673; 1986.750;  216.675;    0.000
417.727; 1978.750;  234.675;    0.000
417.780; 2038.750;  215.675;    0.000
417.834; 1921.750;  203.675;    0.000
417.887; 1904.750;  257.675;    0.000
417.941; 1981.750;  216.675;    0.000
417.994; 1969.750;  245.675;    0.000
418.048; 1993.750;  209.675;    0.000
418.101; 1933.750;  207.675;    0.000
418.155; 1984.750;  204.675;    0.000
418.208; 1943.750;  270.675;    0.000
418.262; 1997.750;  228.675;    0.000
418.315; 1999.750;  254.675;    0.000
418.369; 1879.750;  245.675;    0.000
418.422; 2000.750;  224.675;    0.000
418.476; 1888.750;  221.675;    0.000
418.529; 1957.750;  234.675;    0.000
418.582; 1954.750;  249.675;    0.000
418.636; 1960.750;  224.675;    0.000
418.689; 1914.750;  228.675;    0.000
418.743; 1854.750;  240.675;    0.000
418.796; 1863.750;  197.675;    0.000
418.849; 2017.750;  220.675;    0.000
418.903; 1964.750;  246.675;    0.000
418.956; 1965.750;  250.675;    0.000
419.009; 1955.750;  276.675;    0.000
419.063; 1994.750;  232.675;    0.000
419.116; 1959.750;  228.675;    0.000
419.169; 1940.750;  249.675;    0.000
419.222; 1925.750;  215.675;    0.000
419.276; 1940.750;  228.675;    0.000
419.329; 1901.750;  246.675;    0.000
419.382; 1858.750;  188.675;    0.000
419.435; 1896.750;  240.675;    0.000
419.489; 1939.750;  261.675;    0.000
419.542; 1872.750;  224.675;    0.000
419.595; 1957.750;  251.675;    0.000
419.648; 1991.750;  236.675;    0.000
419.701; 1934.750;  244.675;    0.000
419.755; 1850.750;  242.675;    0.000
419.808; 1984.750;  242.675;    0.000
419.861; 1931.750;  189.675;    0.000
419.914; 1960.750;  258.675;    0.000
419.967; 1915.750;  230.675;    0.000
420.020; 1867.750;  223.675;    0.000
420.073; 1858.750;  221.675;    0.000
420.127; 1942.750;  252.675;    0.000
420.180; 1918.750;  219.675;    0.000
420.233; 1842.750;  201.675;    0.000
420.286; 1794.750;  221.675;    0.000
420.339; 1895.750;  250.675;    0.000
420.392; 1855.750;  268.675;    0.000
420.445; 1943.750;  223.675;    0.000
420.498; 1889.750;  240.675;    0.000
420.551; 1851.750;  220.675;    0.000
420.604; 1984.750;  231.675;    0.000
420.657; 1826.750;  228.675;    0.000
420.710; 1902.750;  219.675;    0.000
420.763; 1949.750;  280.675;    0.000
420.816; 1840.750;  202.675;    0.000
420.869; 1810.750;  219.675;    0.000
420.922; 1819.750;  218.675;    0.000
420.975; 1839.750;  237.675;    0.000
421.028; 1885.750;  242.675;    0.000
421.081; 1846.750;  247.675;    0.000
421.134; 1775.750;  239.675;    0.000
421.187; 1844.750;  229.675;    0.000
421.239; 1806.750;  200.675;    0.000
421.292; 1745.750;  205.675;    0.000
421.345; 1845.750;  219.675;    0.000
421.398; 1872.750;  187.675;    0.000
421.451; 1852.750;  226.675;    0.000
421.504; 1753.750;  206.675;    0.000
421.557; 1801.750;  226.675;    0.000
421.609; 1861.750;  209.675;    0.000
421.662; 1814.750;  229.675;    0.000
421.715; 1796.750;  231.675;    0.000
421.768; 1823.750;  215.675;    0.000
421.821; 1875.750;  211.675;    0.000
421.873; 1821.750;  220.675;    0.000
421.926; 1801.750;  212.675;    0.000
421.979; 1910.750;  209.675;    0.000
422.032; 1832.750;  203.675;    0.000
422.084; 1802.750;  213.675;    0.000
422.137; 1791.750;  196.675;    0.000
422.190; 1767.750;  246.675;    0.000
422.243; 1801.750;  194.675;    0.000
422.295; 1788.750;  225.675;    0.000
422.348; 1897.750;  248.675;    0.000
422.401; 1864.750;  252.675;    0.000
422.453; 1834.750;  249.675;    0.000
422.506; 1813.750;  233.675;    0.000
422.559; 1850.750;  228.675;    0.000
422.611; 1841.750;  224.675;    0.000
422.664; 1852.750;  226.675;    0.000
422.716; 2009.750;  226.675;    0.000
422.769; 1881.750;  216.675;    0.000
422.822; 1803.750;  256.675;    0.000
422.874; 1773.750;  206.675;    0.000
422.927; 1782.750;  257.675;    0.000
422.979; 1837.750;  209.675;    0.000
423.032; 1841.750;  244.675;    0.000
423.084; 1790.750;  244.675;    0.000
423.137; 1921.750;  213.675;    0.000
423.189; 1777.750;  208.675;    0.000
423.242; 1703.750;  226.675;    0.000
423.294; 1801.750;  250.675;    0.000
423.347; 1683.750;  206.675;    0.000
423.399; 1835.750;  268.675;    0.000
423.452; 1691.750;  262.675;    0.000
423.504; 1802.750;  237.675;    0.000
423.557; 1741.750;  245.675;    0.000
423.609; 1782.750;  211.675;    0.000
423.662; 1812.750;  222.675;    0.000
423.714; 1742.750;  219.675;    0.000
423.766; 1811.750;  250.675;    0.000
423.819; 1841.750;  220.675;    0.000
423.871; 1879.750;  229.675;    0.000
423.923; 1824.750;  219.675;    0.000
423.976; 1775.750;  221.675;    0.000
424.028; 1696.750;  211.675;    0.000
424.081; 1635.750;  254.675;    0.000
424.133; 1750.750;  230.675;    0.000
424.185; 1780.750;  241.675;    0.000
424.238; 1828.750;  182.675;    0.000
424.290; 1732.750;  215.675;    0.000
424.342; 1748.750;  235.675;    0.000
424.394; 1693.750;  225.675;    0.000
424.447; 1852.750;  264.675;    0.000
424.499; 1762.750;  225.675;    0.000
424.551; 1832.750;  237.675;    0.000
424.603; 1734.750;  219.675;    0.000
424.656; 1737.750;  240.675;    0.000
424.708; 1714.750;  266.675;    0.000
424.760; 1753.750;  230.675;    0.000
424.812; 1830.750;  284.675;    0.000
424.864; 1743.750;  189.675;    0.000
424.917; 1773.750;  226.675;    0.000
424.969; 1769.750;  253.675;    0.000
425.021; 1793.750;  233.675;    0.000
425.073; 1759.750;  246.675;    0.000
425.125; 1722.750;  238.675;    0.000
425.177; 1707.750;  253.675;    0.000
425.229; 1731.750;  254.675;    0.000
425.282; 1657.750;  252.675;    0.000
425.334; 1712.750;  261.675;    0.000
425.386; 1715.750;  227.675;    0.000
425.438; 1702.750;  246.675;    0.000
425.490; 1752.750;  249.675;    0.000
425.542; 1721.750;  236.675;    0.000
425.594; 1688.750;  236.675;    0.000
425.646; 1722.750;  237.675;    0.000
425.698; 1697.750;  271.675;    0.000
425.750; 1758.750;  240.675;    0.000
425.802; 1675.750;  238.675;    0.000
425.854; 1710.750;  256.675;    0.000
425.906; 1719.750;  230.675;    0.000
425.958; 1643.750;  231.675;    0.000
426.010; 1709.750;  268.675;    0.000
426.062; 1732.750;  227.675;    0.000
426.114; 1683.750;  234.675;    0.000
426.166; 1654.750;  239.675;    0.000
426.218; 1730.750;  255.675;    0.000
426.270; 1683.750;  196.675;    0.000
426.321; 1734.750;  231.675;    0.000
426.373; 1672.750;  199.675;    0.000
426.425; 1799.750;  245.675;    0.000
426.477; 1643.750;  259.675;    0.000
426.529; 1640.750;  274.675;    0.000
426.581; 1703.750;  221.675;    0.000
426.633; 1608.750;  231.675;    0.000
426.684; 1638.750;  248.675;    0.000
426.736; 1686.750;  237.675;    0.000
426.788; 1642.750;  191.675;    0.000
426.840; 1664.750;  180.675;    0.000
426.892; 1722.750;  259.675;    0.000
426.943; 1653.750;  256.675;    0.000
426.995; 1627.750;  212.675;    0.000
427.047; 1641.750;  233.675;    0.000
427.099; 1716.750;  222.675;    0.000
427.150; 1719.750;  203.675;    0.000
427.202; 1631.750;  218.675;    0.000
427.254; 1620.750;  198.675;    0.000
427.306; 1703.750;  248.675;    0.000
427.357; 1638.750;  239.675;    0.000
427.409; 1588.750;  193.675;    0.000
427.461; 1648.750;  215.675;    0.000
427.512; 1666.750;  251.675;    0.000
427.564; 1740.750;  210.675;    0.000
427.616; 1685.750;  251.675;    0.000
427.667; 1716.750;  246.675;    0.000
427.719; 1688.750;  227.675;    0.000
427.770; 1567.750;  247.675;    0.000
427.822; 1630.750;  261.675;    0.000
427.874; 1589.750;  231.675;    0.000
427.925; 1630.750;  231.675;    0.000
427.977; 1622.750;  243.675;    0.000
428.028; 1652.750;  249.675;    0.000
428.080; 1671.750;  224.675;    0.000
428.131; 1607.750;  247.675;    0.000
428.183; 1695.750;  213.675;    0.000
428.234; 1593.750;  213.675;    0.000
428.286; 1632.750;  224.675;    0.000
428.337; 1666.750;  212.675;    0.000
428.389; 1720.750;  231.675;    0.000
428.440; 1612.750;  248.675;    0.000
428.492; 1617.750;  242.675;    0.000
428.543; 1636.750;  220.675;    0.000
428.595; 1635.750;  212.675;    0.000
428.646; 1528.750;  231.675;    0.000
428.697; 1612.750;  232.675;    0.000
428.749; 1637.750;  231.675;    0.000
428.800; 1610.750;  270.675;    0.000
428.852; 1584.750;  266.675;    0.000
428.903; 1602.750;  215.675;    0.000
428.954; 1586.750;  200.675;    0.000
429.006; 1617.750;  247.675;    0.000
429.057; 1617.750;  247.675;    0.000
429.108; 1640.750;  193.675;    0.000
429.160; 1609.750;  249.675;    0.000
429.211; 1597.750;  228.675;    0.000
429.262; 1529.750;  243.675;    0.000
429.314; 1567.750;  227.675;    0.000
429.365; 1638.750;  242.675;    0.000
429.416; 1639.750;  240.675;    0.000
429.467; 1589.750;  222.675;    0.000
429.519; 1653.750;  233.675;    0.000
429.570; 1668.750;  223.675;    0.000
429.621; 1599.750;  257.675;    0.000
429.672; 1540.750;  220.675;    0.000
429.724; 1555.750;  203.675;    0.000
429.775; 1585.750;  242.675;    0.000
429.826; 1560.750;  195.675;    0.000
429.877; 1562.750;  248.675;    0.000
429.928; 1638.750;  226.675;    0.000
429.980; 1576.750;  189.675;    0.000
430.031; 1579.750;  223.675;    0.000
430.082; 1536.750;  217.675;    0.000
430.133; 1549.750;  210.675;    0.000
430.184; 1471.750;  271.675;    0.000
430.235; 1554.750;  190.675;    0.000
430.286; 1564.750;  233.675;    0.000
430.337; 1664.750;  232.675;    0.000
430.388; 1545.750;  221.675;    0.000
430.439; 1550.750;  221.675;    0.000
430.490; 1603.750;  229.675;    0.000
430.542; 1574.750;  196.675;    0.000
430.593; 1586.750;  214.675;    0.000
430.644; 1511.750;  224.675;    0.000
430.695; 1527.750;  216.675;    0.000
430.746; 1462.750;  228.675;    0.000
430.797; 1565.750;  190.675;    0.000
430.848; 1587.750;  231.675;    0.000
430.898; 1534.750;  232.675;    0.000
430.949; 1516.750;  224.675;    0.000
431.000; 1585.750;  236.675;    0.000
431.051; 1647.750;  251.675;    0.000
431.102; 1520.750;  205.675;    0.000
431.153; 1541.750;  212.675;    0.000
431.204; 1550.750;  200.675;    0.000
431.255; 1597.750;  220.675;    0.000
431.306; 1604.750;  223.675;    0.000
431.357; 1634.750;  240.675;    0.000
431.408; 1545.750;  232.675;    0.000
431.458; 1543.750;  204.675;    0.000
431.509; 1495.750;  196.675;    0.000
431.560; 1582.750;  243.675;    0.000
431.611; 1567.750;  222.675;    0.000
431.662; 1643.750;  246.675;    0.000
431.713; 1556.750;  188.675;    0.000
431.763; 1548.750;  226.675;    0.000
431.814; 1637.750;  239.675;    0.000
431.865; 1504.750;  245.675;    0.000
431.916; 1566.750;  173.675;    0.000
431.966; 1520.750;  220.675;    0.000
432.017; 1616.750;  247.675;    0.000
432.068; 1537.750;  241.675;    0.000
432.118; 1550.750;  220.675;    0.000
432.169; 1581.750;  244.675;    0.000
432.220; 1568.750;  246.675;    0.000
432.271; 1536.750;  203.675;    0.000
432.321; 1509.750;  244.675;    0.000
432.372; 1533.750;  254.675;    0.000
432.423; 1593.750;  224.675;    0.000
432.473; 1520.750;  211.675;    0.000
432.524; 1528.750;  227.675;    0.000
432.574; 1539.750;  228.675;    0.000
432.625; 1497.750;  223.675;    0.000
432.676; 1607.750;  220.675;    0.000
432.726; 1604.750;  257.675;    0.000
432.777; 1376.750;  257.675;    0.000
432.827; 1590.750;  240.675;    0.000
432.878; 1455.750;  219.675;    0.000
432.928; 1554.750;  234.675;    0.000
432.979; 1536.750;  226.675;    0.000
433.029; 1534.750;  216.675;    0.000
433.080; 1505.750;  232.675;    0.000
433.130; 1504.750;  257.675;    0.000
433.181; 1615.750;  243.675;    0.000
433.231; 1530.750;  239.675;    0.000
433.282; 1481.750;  232.675;    0.000
433.332; 1557.750;  256.675;    0.000
433.383; 1582.750;  268.675;    0.000
433.433; 1524.750;  291.675;    0.000
433.484; 1541.750;  263.675;    0.000
433.534; 1561.750;  248.675;    0.000
433.585; 1509.750;  244.675;    0.000
433.635; 1569.750;  242.675;    0.000
433.685; 1570.750;  243.675;    0.000
433.736; 1621.750;  283.675;    0.000
433.786; 1543.750;  264.675;    0.000
433.836; 1579.750;  282.675;    0.000
433.887; 1565.750;  265.675;    0.000
433.937; 1549.750;  255.675;    0.000
433.987; 1487.750;  245.675;    0.000
434.038; 1538.750;  276.675;    0.000
434.088; 1534.750;  249.675;    0.000
434.138; 1573.750;  260.675;    0.000
434.189; 1547.750;  241.675;    0.000
434.239; 1504.750;  232.675;    0.000
434.289; 1489.750;  272.675;    0.000
434.339; 1607.750;  288.675;    0.000
434.389; 1573.750;  258.675;    0.000
434.440; 1574.750;  244.675;    0.000
434.490; 1580.750;  288.675;    0.000
434.540; 1593.750;  252.675;    0.000
434.590; 1592.750;  256.675;    0.000
434.640; 1555.750;  259.675;    0.000
434.691; 1577.750;  220.675;    0.000
434.741; 1588.750;  238.675;    0.000
434.791; 1567.750;  276.675;    0.000
434.841; 1524.750;  256.675;    0.000
434.891; 1506.750;  297.675;    0.000
434.941; 1633.750;  290.675;    0.000
434.991; 1576.750;  261.675;    0.000
435.042; 1618.750;  300.675;    0.000
435.092; 1604.750;  248.675;    0.000
435.142; 1507.750;  246.675;    0.000
435.192; 1543.750;  201.675;    0.000
435.242; 1542.750;  234.675;    0.000
435.292; 1501.750;  266.675;    0.000
435.342; 1438.750;  250.675;    0.000
435.392; 1672.750;  279.675;    0.000
435.442; 1560.750;  242.675;    0.000
435.492; 1613.750;  265.675;    0.000
435.542; 1539.750;  243.675;    0.000
435.592; 1547.750;  243.675;    0.000
435.642; 1484.750;  241.675;    0.000
435.692; 1498.750;  263.675;    0.000
435.742; 1547.750;  264.675;    0.000
435.792; 1468.750;  291.675;    0.000
435.842; 1456.750;  257.675;    0.000
435.891; 1520.750;  224.675;    0.000
435.941; 1457.750;  243.675;    0.000
435.991; 1490.750;  300.675;    0.000
436.041; 1494.750;  197.675;    0.000
436.091; 1548.750;  238.675;    0.000
436.141; 1456.750;  222.675;    0.000
436.191; 1485.750;  249.675;    0.000
436.241; 1475.750;  208.675;    0.000
436.290; 1585.750;  282.675;    0.000
436.340; 1458.750;  233.675;    0.000
436.390; 1522.750;  223.675;    0.000
436.440; 1453.750;  252.675;    0.000
436.490; 1434.750;  254.675;    0.000
436.539; 1445.750;  271.675;    0.000
436.589; 1479.750;  248.675;    0.000
436.639; 1499.750;  235.675;    0.000
436.689; 1423.750;  238.675;    0.000
436.738; 1433.750;  267.675;    0.000
436.788; 1361.750;  239.675;    0.000
436.838; 1468.750;  244.675;    0.000
436.887; 1484.750;  265.675;    0.000
436.937; 1486.750;  261.675;    0.000
436.987; 1407.750;  235.675;    0.000
437.036; 1437.750;  267.675;    0.000
437.086; 1498.750;  258.675;    0.000
437.136; 1502.750;  250.675;    0.000
437.185; 1437.750;  214.675;    0.000
437.235; 1486.750;  257.675;    0.000
437.285; 1335.750;  259.675;    0.000
437.334; 1451.750;  241.675;    0.000
437.384; 1485.750;  231.675;    0.000
437.433; 1463.750;  239.675;    0.000
437.483; 1433.750;  260.675;    0.000
437.532; 1436.750;  277.675;    0.000
437.582; 1388.750;  268.675;    0.000
437.631; 1511.750;  239.675;    0.000
437.681; 1410.750;  251.675;    0.000
437.730; 1437.750;  246.675;    0.000
437.780; 1302.750;  226.675;    0.000
437.829; 1354.750;  256.675;    0.000
437.879; 1402.750;  239.675;    0.000
437.928; 1387.750;  253.675;    0.000
437.978; 1409.750;  245.675;    0.000
438.027; 1451.750;  277.675;    0.000
438.077; 1311.750;  248.675;    0.000
438.126; 1389.750;  201.675;    0.000
438.176; 1364.750;  220.675;    0.000
438.225; 1373.750;  250.675;    0.000
438.274; 1396.750;  234.675;    0.000
438.324; 1480.750;  276.675;    0.000
438.373; 1357.750;  226.675;    0.000
438.422; 1378.750;  228.675;    0.000
438.472; 1371.750;  225.675;    0.000
438.521; 1360.750;  227.675;    0.000
438.570; 1374.750;  242.675;    0.000
438.620; 1461.750;  277.675;    0.000
438.669; 1499.750;  256.675;    0.000
438.718; 1382.750;  248.675;    0.000
438.768; 1394.750;  225.675;    0.000
438.817; 1345.750;  229.675;    0.000
438.866; 1365.750;  218.675;    0.000
438.915; 1424.750;  256.675;    0.000
438.965; 1451.750;  242.675;    0.000
439.014; 1397.750;  260.675;    0.000
439.063; 1419.750;  238.675;    0.000
439.112; 1365.750;  209.675;    0.000
439.162; 1404.750;  258.675;    0.000
439.211; 1452.750;  275.675;    0.000
439.260; 1407.750;  238.675;    0.000
439.309; 1366.750;  237.675;    0.000
439.358; 1401.750;  252.675;    0.000
439.407; 1388.750;  239.675;    0.000
439.456; 1356.750;  211.675;    0.000
439.506; 1334.750;  261.675;    0.000
439.555; 1471.750;  274.675;    0.000
439.604; 1393.750;  262.675;    0.000
439.653; 1376.750;  245.675;    0.000
439.702; 1378.750;  247.675;    0.000
439.751; 1347.750;  228.675;    0.000
439.800; 1380.750;  253.675;    0.000
439.849; 1355.750;  219.675;    0.000
439.898; 1394.750;  246.675;    0.000
439.947; 1375.750;  229.675;    0.000
439.996; 1398.750;  274.675;    0.000
440.045; 1378.750;  224.675;    0.000
440.094; 1416.750;  225.675;    0.000
440.143; 1435.750;  277.675;    0.000
440.192; 1414.750;  252.675;    0.000
440.241; 1357.750;  253.675;    0.000
440.290; 1379.750;  242.675;    0.000
440.339; 1398.750;  220.675;    0.000
440.388; 1434.750;  244.675;    0.000
440.437; 1409.750;  268.675;    0.000
440.486; 1363.750;  242.675;    0.000
440.535; 1418.750;  269.675;    0.000
440.583; 1307.750;  258.675;    0.000
440.632; 1391.750;  286.675;    0.000
440.681; 1381.750;  238.675;    0.000
440.730; 1522.750;  271.675;    0.000
440.779; 1481.750;  226.675;    0.000
440.828; 1430.750;  213.675;    0.000
440.876; 1376.750;  207.675;    0.000
440.925; 1377.750;  247.675;    0.000
440.974; 1409.750;  229.675;    0.000
441.023; 1439.750;  227.675;    0.000
441.072; 1473.750;  222.675;    0.000
441.120; 1432.750;  273.675;    0.000
441.169; 1479.750;  263.675;    0.000
441.218; 1449.750;  264.675;    0.000
441.267; 1500.750;  287.675;    0.000
441.315; 1369.750;  251.675;    0.000
441.364; 1432.750;  252.675;    0.000
441.413; 1444.750;  227.675;    0.000
441.461; 1339.750;  198.675;    0.000
441.510; 1514.750;  273.675;    0.000
441.559; 1481.750;  245.675;    0.000
441.607; 1496.750;  218.675;    0.000
441.656; 1478.750;  261.675;    0.000
441.705; 1460.750;  259.675;    0.000
441.753; 1483.750;  272.675;    0.000
441.802; 1525.750;  246.675;    0.000
441.850; 1442.750;  255.675;    0.000
441.899; 1415.750;  236.675;    0.000
441.948; 1450.750;  267.675;    0.000
441.996; 1372.750;  246.675;    0.000
442.045; 1399.750;  279.675;    0.000
442.093; 1451.750;  251.675;    0.000
442.142; 1436.750;  274.675;    0.000
442.190; 1473.750;  279.675;    0.000
442.239; 1364.750;  295.675;    0.000
442.287; 1472.750;  229.675;    0.000
442.336; 1476.750;  265.675;    0.000
442.384; 1418.750;  219.675;    0.000
442.433; 1465.750;  287.675;    0.000
442.481; 1456.750;  271.675;    0.000
442.529; 1454.750;  262.675;    0.000
442.578; 1430.750;  282.675;    0.000
442.626; 1517.750;  245.675;    0.000
442.675; 1459.750;  283.675;    0.000
442.723; 1360.750;  247.675;    0.000
442.771; 1413.750;  221.675;    0.000
442.820; 1531.750;  253.675;    0.000
442.868; 1387.750;  204.675;    0.000
442.917; 1458.750;  263.675;    0.000
442.965; 1364.750;  255.675;    0.000
443.013; 1451.750;  282.675;    0.000
443.062; 1418.750;  258.675;    0.000
443.110; 1448.750;  268.675;    0.000
443.158; 1441.750;  247.675;    0.000
443.206; 1400.750;  243.675;    0.000
443.255; 1426.750;  271.675;    0.000
443.303; 1439.750;  279.675;    0.000
443.351; 1376.750;  264.675;    0.000
443.399; 1449.750;  245.675;    0.000
443.448; 1454.750;  259.675;    0.000
443.496; 1457.750;  281.675;    0.000
443.544; 1376.750;  213.675;    0.000
443.592; 1476.750;  290.675;    0.000
443.640; 1467.750;  270.675;    0.000
443.689; 1421.750;  229.675;    0.000
443.737; 1485.750;  254.675;    0.000
443.785; 1438.750;  234.675;    0.000
443.833; 1452.750;  287.675;    0.000
443.881; 1476.750;  229.675;    0.000
443.929; 1407.750;  260.675;    0.000
443.977; 1443.750;  265.675;    0.000
444.025; 1459.750;  257.675;    0.000
444.074; 1512.750;  245.675;    0.000
444.122; 1488.750;  282.675;    0.000
444.170; 1500.750;  240.675;    0.000
444.218; 1502.750;  270.675;    0.000
444.266; 1410.750;  254.675;    0.000
444.314; 1554.750;  264.675;    0.000
444.362; 1438.750;  287.675;    0.000
444.410; 1536.750;  236.675;    0.000
444.458; 1483.750;  273.675;    0.000
444.506; 1481.750;  235.675;    0.000
444.554; 1505.750;  242.675;    0.000
444.602; 1501.750;  283.675;    0.000
444.650; 1522.750;  266.675;    0.000
444.698; 1494.750;  248.675;    0.000
444.746; 1417.750;  247.675;    0.000
444.793; 1481.750;  211.675;    0.000
444.841; 1525.750;  259.675;    0.000
444.889; 1501.750;  253.675;    0.000
444.937; 1405.750;  248.675;    0.000
444.985; 1477.750;  233.675;    0.000
445.033; 1419.750;  245.675;    0.000
445.081; 1439.750;  243.675;    0.000
445.129; 1431.750;  238.675;    0.000
445.176; 1547.750;  204.675;    0.000
445.224; 1515.750;  262.675;    0.000
445.272; 1414.750;  256.675;    0.000
445.320; 1374.750;  235.675;    0.000
445.368; 1474.750;  251.675;    0.000
445.415; 1424.750;  250.675;    0.000
445.463; 1430.750;  225.675;    0.000
445.511; 1505.750;  226.675;    0.000
445.559; 1503.750;  251.675;    0.000
445.606; 1541.750;  213.675;    0.000
445.654; 1446.750;  261.675;    0.000
445.702; 1503.750;  222.675;    0.000
445.749; 1475.750;  257.675;    0.000
445.797; 1544.750;  263.675;    0.000
445.845; 1443.750;  218.675;    0.000
445.892; 1515.750;  228.675;    0.000
445.940; 1524.750;  249.675;    0.000
445.988; 1468.750;  276.675;    0.000
446.035; 1416.750;  229.675;    0.000
446.083; 1522.750;  255.675;    0.000
446.130; 1458.750;  200.675;    0.000
446.178; 1410.750;  256.675;    0.000
446.226; 1472.750;  238.675;    0.000
446.273; 1508.750;  250.675;    0.000
446.321; 1473.750;  233.675;    0.000
446.368; 1501.750;  244.675;    0.000
446.416; 1437.750;  214.675;    0.000
446.463; 1486.750;  225.675;    0.000
446.511; 1452.750;  253.675;    0.000
446.558; 1387.750;  246.675;    0.000
446.606; 1431.750;  238.675;    0.000
446.653; 1459.750;  215.675;    0.000
446.701; 1467.750;  248.675;    0.000
446.748; 1536.750;  258.675;    0.000
446.796; 1470.750;  259.675;    0.000
446.843; 1542.750;  269.675;    0.000
446.891; 1512.750;  259.675;    0.000
446.938; 1520.750;  226.675;    0.000
446.985; 1492.750;  225.675;    0.000
447.033; 1571.750;  269.675;    0.000
447.080; 1559.750;  258.675;    0.000
447.128; 1502.750;  225.675;    0.000
447.175; 1558.750;  259.675;    0.000
447.222; 1590.750;  238.675;    0.000
447.270; 1554.750;  250.675;    0.000
447.317; 1546.750;  217.675;    0.000
447.364; 1543.750;  262.675;    0.000
447.411; 1553.750;  269.675;    0.000
447.459; 1561.750;  251.675;    0.000
447.506; 1567.750;  227.675;    0.000
447.553; 1641.750;  250.675;    0.000
447.601; 1602.750;  251.675;    0.000
447.648; 1597.750;  276.675;    0.000
447.695; 1631.750;  229.675;    0.000
447.742; 1584.750;  245.675;    0.000
447.789; 1603.750;  243.675;    0.000
447.837; 1669.750;  267.675;    0.000
447.884; 1693.750;  246.675;    0.000
447.931; 1764.750;  266.675;    0.000
447.978; 1682.750;  242.675;    0.000
448.025; 1706.750;  267.675;    0.000
448.072; 1755.750;  257.675;    0.000
448.120; 1767.750;  279.675;    0.000
448.167; 1798.750;  275.675;    0.000
448.214; 1673.750;  241.675;    0.000
448.261; 1661.750;  271.675;    0.000
448.308; 1716.750;  256.675;    0.000
448.355; 1704.750;  253.675;    0.000
448.402; 1593.750;  267.675;    0.000
448.449; 1603.750;  252.675;    0.000
448.496; 1667.750;  241.675;    0.000
448.543; 1600.750;  250.675;    0.000
448.590; 1660.750;  288.675;    0.000
448.637; 1647.750;  255.675;    0.000
448.684; 1518.750;  284.675;    0.000
448.731; 1570.750;  244.675;    0.000
448.778; 1498.750;  257.675;    0.000
448.825; 1510.750;  252.675;    0.000
448.872; 1510.750;  205.675;    0.000
448.919; 1577.750;  244.675;    0.000
448.966; 1503.750;  278.675;    0.000
449.013; 1503.750;  262.675;    0.000
449.060; 1535.750;  278.675;    0.000
449.107; 1495.750;  248.675;    0.000
449.154; 1505.750;  230.675;    0.000
449.200; 1480.750;  211.675;    0.000
449.247; 1434.750;  283.675;    0.000
449.294; 1422.750;  251.675;    0.000
449.341; 1482.750;  280.675;    0.000
449.388; 1441.750;  247.675;    0.000
449.435; 1440.750;  267.675;    0.000
449.481; 1455.750;  303.675;    0.000
449.528; 1415.750;  279.675;    0.000
449.575; 1437.750;  226.675;    0.000
449.622; 1487.750;  263.675;    0.000
449.668; 1440.750;  249.675;    0.000
449.715; 1382.750;  257.675;    0.000
449.762; 1394.750;  251.675;    0.000
449.809; 1457.750;  289.675;    0.000
449.855; 1448.750;  239.675;    0.000
449.902; 1448.750;  262.675;    0.000
449.949; 1391.750;  262.675;    0.000
449.995; 1505.750;  265.675;    0.000
450.042; 1437.750;  280.675;    0.000
450.089; 1402.750;  277.675;    0.000
450.135; 1436.750;  285.675;    0.000
450.182; 1370.750;  275.675;    0.000
450.229; 1411.750;  278.675;    0.000
450.275; 1441.750;  288.675;    0.000
450.322; 1407.750;  238.675;    0.000
450.368; 1386.750;  276.675;    0.000
450.415; 1447.750;  295.675;    0.000
450.462; 1458.750;  283.675;    0.000
450.508; 1417.750;  264.675;    0.000
450.555; 1394.750;  275.675;    0.000
450.601; 1429.750;  278.675;    0.000
450.648; 1388.750;  251.675;    0.000
450.694; 1383.750;  237.675;    0.000
450.741; 1411.750;  280.675;    0.000
450.787; 1353.750;  279.675;    0.000
450.834; 1369.750;  287.675;    0.000
450.880; 1342.750;  265.675;    0.000
450.927; 1346.750;  270.675;    0.000
450.973; 1418.750;  308.675;    0.000
451.019; 1353.750;  253.675;    0.000
451.066; 1345.750;  261.675;    0.000
451.112; 1373.750;  276.675;    0.000
451.159; 1369.750;  235.675;    0.000
451.205; 1443.750;  284.675;    0.000
451.251; 1361.750;  264.675;    0.000
451.298; 1365.750;  262.675;    0.000
451.344; 1325.750;  278.675;    0.000
451.390; 1441.750;  273.675;    0.000
451.437; 1402.750;  272.675;    0.000
451.483; 1293.750;  302.675;    0.000
451.529; 1243.750;  255.675;    0.000
451.576; 1413.750;  287.675;    0.000
451.622; 1355.750;  254.675;    0.000
451.668; 1369.750;  260.675;    0.000
451.714; 1317.750;  289.675;    0.000
451.761; 1326.750;  273.675;    0.000
451.807; 1361.750;  307.675;    0.000
451.853; 1350.750;  281.675;    0.000
451.899; 1293.750;  246.675;    0.000
451.945; 1391.750;  258.675;    0.000
451.992; 1335.750;  276.675;    0.000
452.038; 1355.750;  287.675;    0.000
452.084; 1315.750;  288.675;    0.000
452.130; 1347.750;  259.675;    0.000
452.176; 1388.750;  265.675;    0.000
452.222; 1282.750;  222.675;    0.000
452.268; 1324.750;  271.675;    0.000
452.315; 1328.750;  258.675;    0.000
452.361; 1334.750;  233.675;    0.000
452.407; 1352.750;  270.675;    0.000
452.453; 1319.750;  261.675;    0.000
452.499; 1372.750;  279.675;    0.000
452.545; 1314.750;  269.675;    0.000
452.591; 1335.750;  288.675;    0.000
452.637; 1330.750;  279.675;    0.000
452.683; 1226.750;  232.675;    0.000
452.729; 1396.750;  285.675;    0.000
452.775; 1329.750;  280.675;    0.000
452.821; 1316.750;  260.675;    0.000
452.867; 1267.750;  239.675;    0.000
452.913; 1331.750;  240.675;    0.000
452.959; 1314.750;  214.675;    0.000
453.005; 1285.750;  266.675;    0.000
453.051; 1398.750;  258.675;    0.000
453.097; 1396.750;  253.675;    0.000
453.142; 1280.750;  244.675;    0.000
453.188; 1287.750;  241.675;    0.000
453.234; 1325.750;  257.675;    0.000
453.280; 1299.750;  231.675;    0.000
453.326; 1300.750;  240.675;    0.000
453.372; 1368.750;  208.675;    0.000
453.418; 1328.750;  266.675;    0.000
453.463; 1231.750;  232.675;    0.000
453.509; 1326.750;  221.675;    0.000
453.555; 1270.750;  268.675;    0.000
453.601; 1312.750;  242.675;    0.000
453.647; 1318.750;  283.675;    0.000
453.692; 1288.750;  242.675;    0.000
453.738; 1263.750;  294.675;    0.000
453.784; 1295.750;  256.675;    0.000
453.829; 1246.750;  267.675;    0.000
453.875; 1275.750;  233.675;    0.000
453.921; 1234.750;  247.675;    0.000
453.967; 1322.750;  249.675;    0.000
454.012; 1370.750;  274.675;    0.000
454.058; 1357.750;  249.675;    0.000
454.104; 1298.750;  272.675;    0.000
454.149; 1261.750;  277.675;    0.000
454.195; 1257.750;  256.675;    0.000
454.240; 1325.750;  263.675;    0.000
454.286; 1247.750;  276.675;    0.000
454.332; 1403.750;  290.675;    0.000
454.377; 1349.750;  274.675;    0.000
454.423; 1291.750;  282.675;    0.000
454.468; 1339.750;  275.675;    0.000
454.514; 1278.750;  270.675;    0.000
454.559; 1306.750;  249.675;    0.000
454.605; 1283.750;  241.675;    0.000
454.650; 1392.750;  269.675;    0.000
454.696; 1270.750;  253.675;    0.000
454.741; 1299.750;  279.675;    0.000
454.787; 1353.750;  252.675;    0.000
454.832; 1302.750;  246.675;    0.000
454.878; 1332.750;  264.675;    0.000
454.923; 1305.750;  268.675;    0.000
454.969; 1332.750;  253.675;    0.000
455.014; 1345.750;  264.675;    0.000
455.060; 1315.750;  265.675;    0.000
455.105; 1284.750;  270.675;    0.000
455.150; 1307.750;  284.675;    0.000
455.196; 1312.750;  278.675;    0.000
455.241; 1379.750;  248.675;    0.000
455.286; 1310.750;  274.675;    0.000
455.332; 1266.750;  269.675;    0.000
455.377; 1304.750;  218.675;    0.000
455.422; 1340.750;  261.675;    0.000
455.468; 1228.750;  278.675;    0.000
455.513; 1279.750;  235.675;    0.000
455.558; 1269.750;  232.675;    0.000
455.604; 1304.750;  285.675;    0.000
455.649; 1294.750;  264.675;    0.000
455.694; 1236.750;  235.675;    0.000
455.739; 1300.750;  265.675;    0.000
455.785; 1273.750;  266.675;    0.000
455.830; 1312.750;  272.675;    0.000
455.875; 1307.750;  256.675;    0.000
455.920; 1260.750;  191.675;    0.000
455.965; 1266.750;  280.675;    0.000
456.010; 1349.750;  267.675;    0.000
456.056; 1322.750;  270.675;    0.000
456.101; 1240.750;  248.675;    0.000
456.146; 1382.750;  287.675;    0.000
456.191; 1315.750;  280.675;    0.000
456.236; 1255.750;  229.675;    0.000
456.281; 1309.750;  241.675;    0.000
456.326; 1290.750;  248.675;    0.000
456.371; 1235.750;  233.675;    0.000
456.416; 1330.750;  284.675;    0.000
456.461; 1258.750;  256.675;    0.000
456.507; 1275.750;  250.675;    0.000
456.552; 1261.750;  290.675;    0.000
456.597; 1248.750;  260.675;    0.000
456.642; 1277.750;  252.675;    0.000
456.687; 1301.750;  272.675;    0.000
456.732; 1348.750;  303.675;    0.000
456.776; 1355.750;  269.675;    0.000
456.821; 1372.750;  256.675;    0.000
456.866; 1315.750;  278.675;    0.000
456.911; 1257.750;  230.675;    0.000
456.956; 1258.750;  275.675;    0.000
457.001; 1314.750;  248.675;    0.000
457.046; 1394.750;  222.675;    0.000
457.091; 1282.750;  251.675;    0.000
457.136; 1315.750;  231.675;    0.000
457.181; 1277.750;  245.675;    0.000
457.225; 1383.750;  262.675;    0.000
457.270; 1279.750;  277.675;    0.000
457.315; 1341.750;  235.675;    0.000
457.360; 1180.750;  231.675;    0.000
457.405; 1303.750;  214.675;    0.000
457.450; 1272.750;  255.675;    0.000
457.494; 1260.750;  220.675;    0.000
457.539; 1231.750;  257.675;    0.000
457.584; 1378.750;  279.675;    0.000
457.629; 1322.750;  249.675;    0.000
457.673; 1264.750;  237.675;    0.000
457.718; 1320.750;  232.675;    0.000
457.763; 1330.750;  278.675;    0.000
457.807; 1285.750;  279.675;    0.000
457.852; 1283.750;  246.675;    0.000
457.897; 1302.750;  284.675;    0.000
457.941; 1286.750;  272.675;    0.000
457.986; 1357.750;  285.675;    0.000
458.031; 1339.750;  235.675;    0.000
458.075; 1360.750;  299.675;    0.000
458.120; 1293.750;  284.675;    0.000
458.165; 1311.750;  212.675;    0.000
458.209; 1305.750;  254.675;    0.000
458.254; 1224.750;  257.675;    0.000
458.298; 1336.750;  265.675;    0.000
458.343; 1331.750;  278.675;    0.000
458.387; 1380.750;  316.675;    0.000
458.432; 1313.750;  279.675;    0.000
458.476; 1396.750;  272.675;    0.000
458.521; 1300.750;  240.675;    0.000
458.565; 1346.750;  307.675;    0.000
458.610; 1358.750;  246.675;    0.000
458.654; 1311.750;  275.675;    0.000
458.699; 1334.750;  288.675;    0.000
458.743; 1352.750;  244.675;    0.000
458.788; 1385.750;  245.675;    0.000
458.832; 1351.750;  277.675;    0.000
458.877; 1436.750;  285.675;    0.000
458.921; 1367.750;  216.675;    0.000
458.965; 1338.750;  260.675;    0.000
459.010; 1361.750;  284.675;    0.000
459.054; 1390.750;  272.675;    0.000
459.099; 1348.750;  262.675;    0.000
459.143; 1368.750;  276.675;    0.000
459.187; 1333.750;  258.675;    0.000
459.231; 1429.750;  278.675;    0.000
459.276; 1407.750;  262.675;    0.000
459.320; 1426.750;  291.675;    0.000
459.364; 1384.750;  294.675;    0.000
459.409; 1369.750;  269.675;    0.000
459.453; 1355.750;  257.675;    0.000
459.497; 1452.750;  283.675;    0.000
459.541; 1383.750;  275.675;    0.000
459.586; 1374.750;  261.675;    0.000
459.630; 1435.750;  284.675;    0.000
459.674; 1372.750;  244.675;    0.000
459.718; 1374.750;  309.675;    0.000
459.762; 1350.750;  281.675;    0.000
459.807; 1337.750;  250.675;    0.000
459.851; 1500.750;  286.675;    0.000
459.895; 1382.750;  230.675;    0.000
459.939; 1473.750;  262.675;    0.000
459.983; 1401.750;  250.675;    0.000
460.027; 1405.750;  275.675;    0.000
460.071; 1374.750;  301.675;    0.000
460.115; 1413.750;  279.675;    0.000
460.159; 1379.750;  301.675;    0.000
460.204; 1425.750;  287.675;    0.000
460.248; 1447.750;  293.675;    0.000
460.292; 1463.750;  310.675;    0.000
460.336; 1469.750;  263.675;    0.000
460.380; 1478.750;  268.675;    0.000
460.424; 1421.750;  281.675;    0.000
460.468; 1420.750;  310.675;    0.000
460.512; 1406.750;  273.675;    0.000
460.556; 1425.750;  291.675;    0.000
460.599; 1439.750;  240.675;    0.000
460.643; 1411.750;  260.675;    0.000
460.687; 1424.750;  283.675;    0.000
460.731; 1425.750;  254.675;    0.000
460.775; 1401.750;  265.675;    0.000
460.819; 1454.750;  280.675;    0.000
460.863; 1432.750;  316.675;    0.000
460.907; 1428.750;  231.675;    0.000
460.951; 1453.750;  275.675;    0.000
460.995; 1523.750;  290.675;    0.000
461.038; 1427.750;  284.675;    0.000
461.082; 1512.750;  278.675;    0.000
461.126; 1430.750;  321.675;    0.000
461.170; 1355.750;  273.675;    0.000
461.214; 1546.750;  289.675;    0.000
461.257; 1444.750;  296.675;    0.000
461.301; 1448.750;  287.675;    0.000
461.345; 1457.750;  290.675;    0.000
461.389; 1514.750;  260.675;    0.000
461.432; 1481.750;  262.675;    0.000
461.476; 1468.750;  254.675;    0.000
461.520; 1476.750;  305.675;    0.000
461.563; 1387.750;  289.675;    0.000
461.607; 1409.750;  286.675;    0.000
461.651; 1441.750;  271.675;    0.000
461.694; 1434.750;  245.675;    0.000
461.738; 1374.750;  278.675;    0.000
461.782; 1462.750;  284.675;    0.000
461.825; 1497.750;  305.675;    0.000
461.869; 1541.750;  293.675;    0.000
461.913; 1515.750;  280.675;    0.000
461.956; 1379.750;  237.675;    0.000
462.000; 1487.750;  288.675;    0.000
462.043; 1469.750;  282.675;    0.000
462.087; 1449.750;  268.675;    0.000
462.130; 1508.750;  286.675;    0.000
462.174; 1506.750;  312.675;    0.000
462.217; 1522.750;  270.675;    0.000
462.261; 1503.750;  281.675;    0.000
462.304; 1475.750;  248.675;    0.000
462.348; 1450.750;  267.675;    0.000
462.391; 1481.750;  270.675;    0.000
462.435; 1569.750;  287.675;    0.000
462.478; 1438.750;  290.675;    0.000
462.522; 1550.750;  296.675;    0.000
462.565; 1613.750;  275.675;    0.000
462.608; 1553.750;  325.675;    0.000
462.652; 1525.750;  303.675;    0.000
462.695; 1523.750;  355.675;    0.000
462.739; 1551.750;  272.675;    0.000
462.782; 1527.750;  295.675;    0.000
462.825; 1503.750;  300.675;    0.000
462.869; 1553.750;  319.675;    0.000
462.912; 1542.750;  363.675;    0.000
462.955; 1602.750;  298.675;    0.000
462.998; 1638.750;  321.675;    0.000
463.042; 1670.750;  310.675;    0.000
463.085; 1535.750;  305.675;    0.000
463.128; 1623.750;  345.675;    0.000
463.172; 1531.750;  341.675;    0.000
463.215;  343.750;  300.675;    0.000
463.258;  297.750;  287.675;    0.000
463.301;  296.750;  290.675;    0.000
463.344;  306.750;  320.675;    0.000
463.388;  310.750;  340.675;    0.000
463.431;  280.750;  278.675;    0.000
463.474;  331.750;  353.675;    0.000
463.517;  324.750;  295.675;    0.000
463.560;  307.750;  328.675;    0.000
463.603;  335.750;  316.675;    0.000
463.646;  298.750;  295.675;    0.000
463.690;  334.750;  334.675;    0.000
463.733;  346.750;  343.675;    0.000
463.776;  336.750;  300.675;    0.000
463.819;  322.750;  368.675;    0.000
463.862;  317.750;  327.675;    0.000

